{
  "AcquisitionMatrixPE": 80,
  "AcquisitionNumber": 1,
  "AcquisitionTime": "09:35:44.530000",
  "BandwidthPerPixelPhaseEncode": 25,
  "BaseResolution": 80,
  "BodyPartExamined": "BRAIN",
  "CoilCombinationMethod": "Sum of Squares",
  "ConsistencyInfo": "N4_VE11C_LATEST_20160120",
  "ConversionSoftware": "dcm2niix",
  "ConversionSoftwareVersion": "v1.0.20220720",
  "DerivedVendorReportedEchoSpacing": 0.0005,
  "DeviceSerialNumber": "66112",
  "DwellTime": 2.7e-06,
  "EchoTime": 0.03,
  "EchoTrainLength": 80,
  "EffectiveEchoSpacing": 0.0005,
  "FlipAngle": 10,
  "HeudiconvVersion": "0.13.1",
  "ImageOrientationPatientDICOM": [0.986798, 0.161746, 0.00823043, -0.155587, 0.932665, 0.325466],
  "ImageOrientationText": "Tra>Cor(18.8)>Sag(-2.6)",
  "ImageType": [
    "ORIGINAL",
    "PRIMARY",
    "M",
    "ND",
    "NORM",
    "MOSAIC"
],
  "ImagingFrequency": 123.252,
  "InPlanePhaseEncodingDirectionDICOM": "COL",
  "InstitutionAddress": "Maynard 3,Hanover,NH,US,03755",
  "InstitutionName": "Dartmouth College - PBS",
  "InstitutionalDepartmentName": "Department",
  "MRAcquisitionType": "2D",
  "MagneticFieldStrength": 3,
  "Manufacturer": "Siemens",
  "ManufacturersModelName": "Prisma",
  "MatrixCoilMode": "SENSE",
  "Modality": "MR",
  "NonlinearGradientCorrection": false,
  "PartialFourier": 1,
  "PatientPosition": "HFS",
  "PercentPhaseFOV": 100,
  "PercentSampling": 100,
  "PhaseEncodingDirection": "j-",
  "PhaseEncodingSteps": 80,
  "PhaseResolution": 1,
  "PixelBandwidth": 2315,
  "ProcedureStepDescription": "dbic^QA",
  "ProtocolName": "func-bold_fa-10",
  "PulseSequenceDetails": "%SiemensSeq%\\ep2d_bold",
  "ReceiveCoilActiveElements": "HC1-7;NC1,2",
  "ReceiveCoilName": "HeadNeck_64",
  "ReconMatrixPE": 80,
  "RepetitionTime": 2,
  "SAR": 0.00863336,
  "ScanOptions": "FS",
  "ScanningSequence": "EP",
  "SequenceName": "*epfid2d1_80",
  "SequenceVariant": "SK",
  "SeriesDescription": "func-bold_fa-10",
  "SeriesNumber": 9,
  "ShimSetting": [4141, -7709, -7515, 134, -76, -214, -46, 73],
  "SliceThickness": 3.5,
  "SliceTiming": [0.99, 0, 1.0575, 0.0675, 1.1225, 0.1325, 1.1875, 0.2, 1.255, 0.265, 1.32, 0.33, 1.3875, 0.3975, 1.4525, 0.4625, 1.5175, 0.53, 1.585, 0.595, 1.65, 0.66, 1.7175, 0.7275, 1.7825, 0.7925, 1.8475, 0.8575, 1.915, 0.925],
  "SoftwareVersions": "syngo MR E11",
  "SpacingBetweenSlices": 3.99,
  "StationName": "AWP66112",
  "TotalReadoutTime": 0.0395,
  "TxRefAmp": 213.46,
  "dcmmeta_affine": [
    [-2.9603943824768066, -0.46676191687583923, -0.17941589653491974, 139.08253479003906],
    [-0.48523685336112976, 2.7979962825775146, 1.2865729331970215, -89.3740234375],
    [0.02469128929078579, -0.9763966202735901, 3.7726171016693115, -11.619272232055664],
    [0.0, 0.0, 0.0, 1.0]
],
  "dcmmeta_reorient_transform": [
    [0.0, -1.0, 0.0, 79.0],
    [1.0, 0.0, 0.0, 0.0],
    [0.0, 0.0, 1.0, 0.0],
    [0.0, 0.0, 0.0, 1.0]
],
  "dcmmeta_shape": [80, 80, 30, 200],
  "dcmmeta_slice_dim": 2,
  "dcmmeta_version": 0.6,
  "global": {
    "const": {
      "AccessionNumber": "qa64",
      "AcquisitionMatrix": [80, 0, 0, 80],
      "AngioFlag": "N",
      "BitsAllocated": 16,
      "BitsStored": 12,
      "BodyPartExamined": "BRAIN",
      "Columns": 480,
      "EchoNumbers": 1,
      "EchoTime": 30.0,
      "EchoTrainLength": 80,
      "FlipAngle": 10.0,
      "HighBit": 11,
      "ImageOrientationPatient": [0.98679816253595, 0.16174562264813, 0.00823042950546, -0.155587307022, 0.93266540979605, 0.3254655485049],
      "ImagePositionPatient": [-600.93485012301, -788.31429925867, -288.97219425535],
      "ImageType": [
        "ORIGINAL",
        "PRIMARY",
        "M",
        "ND",
        "NORM",
        "MOSAIC"
],
      "ImagedNucleus": "1H",
      "ImagingFrequency": 123.252377,
      "InPlanePhaseEncodingDirection": "COL",
      "MRAcquisitionType": "2D",
      "MagneticFieldStrength": 3.0,
      "Manufacturer": "SIEMENS",
      "ManufacturerModelName": "Prisma",
      "Modality": "MR",
      "NumberOfAverages": 1.0,
      "NumberOfPhaseEncodingSteps": 80,
      "PercentPhaseFieldOfView": 100.0,
      "PercentSampling": 100.0,
      "PerformedProcedureStepStartTime": "091438.254000",
      "PhotometricInterpretation": "MONOCHROME2",
      "PixelBandwidth": 2315.0,
      "PixelRepresentation": 0,
      "PixelSpacing": [3.0, 3.0],
      "ProtocolName": "func-bold_fa-10",
      "RepetitionTime": 2000.0,
      "Rows": 480,
      "SAR": 0.00863336085367,
      "SamplesPerPixel": 1,
      "ScanOptions": "FS",
      "ScanningSequence": "EP",
      "SequenceName": "*epfid2d1_80",
      "SequenceVariant": "SK",
      "SeriesDescription": "func-bold_fa-10",
      "SeriesNumber": 9,
      "SeriesTime": "093640.205000",
      "SliceLocation": -46.058867416386,
      "SliceThickness": 3.5,
      "SmallestImagePixelValue": 0,
      "SoftwareVersions": "syngo MR E11",
      "SpacingBetweenSlices": 3.9899999567675,
      "SpecificCharacterSet": "ISO_IR 100",
      "StudyID": "3",
      "StudyTime": "091438.201000",
      "TransmitCoilName": "Body",
      "VariableFlipAngleFlag": "N",
      "WindowCenterWidthExplanation": "Algo1",
      "dBdt": 0.0},
    "slices": {}
  },
  "time": {
    "samples": {
      "AcquisitionNumber": [1, 2, 3, 4, 5, 6, 7, 8, 9, 10, 11, 12, 13, 14, 15, 16, 17, 18, 19, 20, 21, 22, 23, 24, 25, 26, 27, 28, 29, 30, 31, 32, 33, 34, 35, 36, 37, 38, 39, 40, 41, 42, 43, 44, 45, 46, 47, 48, 49, 50, 51, 52, 53, 54, 55, 56, 57, 58, 59, 60, 61, 62, 63, 64, 65, 66, 67, 68, 69, 70, 71, 72, 73, 74, 75, 76, 77, 78, 79, 80, 81, 82, 83, 84, 85, 86, 87, 88, 89, 90, 91, 92, 93, 94, 95, 96, 97, 98, 99, 100, 101, 102, 103, 104, 105, 106, 107, 108, 109, 110, 111, 112, 113, 114, 115, 116, 117, 118, 119, 120, 121, 122, 123, 124, 125, 126, 127, 128, 129, 130, 131, 132, 133, 134, 135, 136, 137, 138, 139, 140, 141, 142, 143, 144, 145, 146, 147, 148, 149, 150, 151, 152, 153, 154, 155, 156, 157, 158, 159, 160, 161, 162, 163, 164, 165, 166, 167, 168, 169, 170, 171, 172, 173, 174, 175, 176, 177, 178, 179, 180, 181, 182, 183, 184, 185, 186, 187, 188, 189, 190, 191, 192, 193, 194, 195, 196, 197, 198, 199, 200],
      "AcquisitionTime": ["093544.530000", "093546.530000", "093548.530000", "093550.530000", "093552.530000", "093554.530000", "093556.530000", "093558.530000", "093600.530000", "093602.530000", "093604.530000", "093606.530000", "093608.530000", "093610.530000", "093612.530000", "093614.530000", "093616.530000", "093618.530000", "093620.530000", "093622.530000", "093624.530000", "093626.530000", "093628.530000", "093630.530000", "093632.530000", "093634.530000", "093636.530000", "093638.530000", "093640.530000", "093642.530000", "093644.530000", "093646.530000", "093648.530000", "093650.530000", "093652.530000", "093654.530000", "093656.530000", "093658.530000", "093700.530000", "093702.530000", "093704.530000", "093706.530000", "093708.530000", "093710.530000", "093712.530000", "093714.530000", "093716.530000", "093718.530000", "093720.530000", "093722.530000", "093724.530000", "093726.530000", "093728.530000", "093730.530000", "093732.530000", "093734.530000", "093736.530000", "093738.530000", "093740.530000", "093742.530000", "093744.530000", "093746.530000", "093748.530000", "093750.530000", "093752.530000", "093754.530000", "093756.530000", "093758.530000", "093800.530000", "093802.530000", "093804.530000", "093806.530000", "093808.530000", "093810.530000", "093812.530000", "093814.530000", "093816.530000", "093818.530000", "093820.530000", "093822.530000", "093824.530000", "093826.530000", "093828.530000", "093830.530000", "093832.530000", "093834.530000", "093836.530000", "093838.530000", "093840.530000", "093842.530000", "093844.530000", "093846.530000", "093848.530000", "093850.530000", "093852.530000", "093854.530000", "093856.530000", "093858.530000", "093900.530000", "093902.530000", "093904.530000", "093906.530000", "093908.530000", "093910.530000", "093912.530000", "093914.530000", "093916.530000", "093918.530000", "093920.530000", "093922.530000", "093924.530000", "093926.530000", "093928.530000", "093930.530000", "093932.530000", "093934.530000", "093936.530000", "093938.530000", "093940.530000", "093942.530000", "093944.530000", "093946.530000", "093948.530000", "093950.530000", "093952.530000", "093954.530000", "093956.530000", "093958.530000", "094000.530000", "094002.530000", "094004.530000", "094006.530000", "094008.530000", "094010.530000", "094012.530000", "094014.530000", "094016.530000", "094018.530000", "094020.530000", "094022.530000", "094024.530000", "094026.530000", "094028.530000", "094030.530000", "094032.530000", "094034.530000", "094036.530000", "094038.530000", "094040.530000", "094042.530000", "094044.530000", "094046.530000", "094048.530000", "094050.530000", "094052.530000", "094054.530000", "094056.530000", "094058.530000", "094100.530000", "094102.530000", "094104.530000", "094106.530000", "094108.530000", "094110.530000", "094112.530000", "094114.530000", "094116.530000", "094118.530000", "094120.530000", "094122.530000", "094124.530000", "094126.530000", "094128.530000", "094130.530000", "094132.530000", "094134.530000", "094136.530000", "094138.530000", "094140.530000", "094142.530000", "094144.530000", "094146.530000", "094148.530000", "094150.530000", "094152.530000", "094154.530000", "094156.530000", "094158.530000", "094200.530000", "094202.530000", "094204.530000", "094206.530000", "094208.530000", "094210.530000", "094212.530000", "094214.530000", "094216.530000", "094218.530000", "094220.530000", "094222.530000"],
      "ContentTime": ["093640.209000", "093640.212000", "093640.215000", "093640.217000", "093640.220000", "093640.222000", "093640.225000", "093640.227000", "093640.230000", "093640.233000", "093640.235000", "093640.237000", "093640.240000", "093640.243000", "093640.245000", "093640.248000", "093640.251000", "093640.259000", "093640.261000", "093640.264000", "093640.267000", "093640.270000", "093640.272000", "093640.275000", "093640.277000", "093640.280000", "093640.283000", "093720.203000", "093720.206000", "093720.209000", "093720.212000", "093720.214000", "093720.217000", "093720.219000", "093720.222000", "093720.224000", "093720.227000", "093720.237000", "093720.240000", "093720.242000", "093720.245000", "093720.247000", "093720.250000", "093720.253000", "093720.255000", "093720.258000", "093720.260000", "093800.203000", "093800.206000", "093800.209000", "093800.211000", "093800.214000", "093800.217000", "093800.219000", "093800.222000", "093800.224000", "093800.227000", "093800.229000", "093800.232000", "093800.234000", "093800.237000", "093800.239000", "093800.242000", "093800.245000", "093800.247000", "093800.250000", "093800.252000", "093800.255000", "093840.202000", "093840.205000", "093840.208000", "093840.210000", "093840.213000", "093840.215000", "093840.218000", "093840.220000", "093840.223000", "093840.225000", "093840.228000", "093840.230000", "093840.233000", "093840.235000", "093840.238000", "093840.241000", "093840.244000", "093840.247000", "093840.249000", "093840.252000", "093900.204000", "093900.206000", "093900.209000", "093900.211000", "093900.214000", "093900.216000", "093900.219000", "093900.223000", "093900.225000", "093900.228000", "093940.203000", "093940.206000", "093940.209000", "093940.211000", "093940.214000", "093940.216000", "093940.219000", "093940.221000", "093940.224000", "093940.228000", "093940.231000", "093940.233000", "093940.236000", "093940.238000", "093940.241000", "093940.243000", "093940.246000", "093940.248000", "093940.251000", "093940.253000", "094020.203000", "094020.206000", "094020.209000", "094020.211000", "094020.214000", "094020.216000", "094020.219000", "094020.221000", "094020.224000", "094020.226000", "094020.229000", "094020.238000", "094020.241000", "094020.243000", "094020.246000", "094020.248000", "094020.251000", "094020.254000", "094020.256000", "094020.259000", "094100.202000", "094100.205000", "094100.208000", "094100.210000", "094100.213000", "094100.215000", "094100.218000", "094100.220000", "094100.223000", "094100.225000", "094100.228000", "094100.230000", "094100.233000", "094100.236000", "094100.239000", "094100.241000", "094100.244000", "094100.246000", "094100.249000", "094100.251000", "094140.203000", "094140.206000", "094140.209000", "094140.211000", "094140.214000", "094140.216000", "094140.219000", "094140.222000", "094140.224000", "094140.227000", "094140.229000", "094140.232000", "094140.234000", "094140.237000", "094140.239000", "094140.242000", "094140.244000", "094140.247000", "094140.250000", "094220.204000", "094220.206000", "094220.209000", "094220.211000", "094220.214000", "094220.216000", "094220.219000", "094220.221000", "094220.224000", "094220.226000", "094220.229000", "094220.231000", "094220.234000", "094220.237000", "094220.239000", "094220.242000", "094220.244000", "094220.247000", "094220.249000", "094220.252000", "094220.255000", "094224.232000", "094224.235000"],
      "InstanceCreationTime": ["093640.209000", "093640.212000", "093640.215000", "093640.217000", "093640.220000", "093640.222000", "093640.225000", "093640.227000", "093640.230000", "093640.233000", "093640.235000", "093640.237000", "093640.240000", "093640.243000", "093640.245000", "093640.248000", "093640.251000", "093640.259000", "093640.261000", "093640.264000", "093640.267000", "093640.270000", "093640.272000", "093640.275000", "093640.277000", "093640.280000", "093640.283000", "093720.203000", "093720.206000", "093720.209000", "093720.212000", "093720.214000", "093720.217000", "093720.219000", "093720.222000", "093720.224000", "093720.227000", "093720.237000", "093720.240000", "093720.242000", "093720.245000", "093720.247000", "093720.250000", "093720.253000", "093720.255000", "093720.258000", "093720.260000", "093800.203000", "093800.206000", "093800.209000", "093800.211000", "093800.214000", "093800.217000", "093800.219000", "093800.222000", "093800.224000", "093800.227000", "093800.229000", "093800.232000", "093800.234000", "093800.237000", "093800.239000", "093800.242000", "093800.245000", "093800.247000", "093800.250000", "093800.252000", "093800.255000", "093840.202000", "093840.205000", "093840.208000", "093840.210000", "093840.213000", "093840.215000", "093840.218000", "093840.220000", "093840.223000", "093840.225000", "093840.228000", "093840.230000", "093840.233000", "093840.235000", "093840.238000", "093840.241000", "093840.244000", "093840.247000", "093840.249000", "093840.252000", "093900.204000", "093900.206000", "093900.209000", "093900.211000", "093900.214000", "093900.216000", "093900.219000", "093900.223000", "093900.225000", "093900.228000", "093940.203000", "093940.206000", "093940.209000", "093940.211000", "093940.214000", "093940.216000", "093940.219000", "093940.221000", "093940.224000", "093940.228000", "093940.231000", "093940.233000", "093940.236000", "093940.238000", "093940.241000", "093940.243000", "093940.246000", "093940.248000", "093940.251000", "093940.253000", "094020.203000", "094020.206000", "094020.209000", "094020.211000", "094020.214000", "094020.216000", "094020.219000", "094020.221000", "094020.224000", "094020.226000", "094020.229000", "094020.238000", "094020.241000", "094020.243000", "094020.246000", "094020.248000", "094020.251000", "094020.254000", "094020.256000", "094020.259000", "094100.202000", "094100.205000", "094100.208000", "094100.210000", "094100.213000", "094100.215000", "094100.218000", "094100.220000", "094100.223000", "094100.225000", "094100.228000", "094100.230000", "094100.233000", "094100.236000", "094100.239000", "094100.241000", "094100.244000", "094100.246000", "094100.249000", "094100.251000", "094140.203000", "094140.206000", "094140.209000", "094140.211000", "094140.214000", "094140.216000", "094140.219000", "094140.222000", "094140.224000", "094140.227000", "094140.229000", "094140.232000", "094140.234000", "094140.237000", "094140.239000", "094140.242000", "094140.244000", "094140.247000", "094140.250000", "094220.204000", "094220.206000", "094220.209000", "094220.211000", "094220.214000", "094220.216000", "094220.219000", "094220.221000", "094220.224000", "094220.226000", "094220.229000", "094220.231000", "094220.234000", "094220.237000", "094220.239000", "094220.242000", "094220.244000", "094220.247000", "094220.249000", "094220.252000", "094220.255000", "094224.232000", "094224.235000"],
      "InstanceNumber": [1, 2, 3, 4, 5, 6, 7, 8, 9, 10, 11, 12, 13, 14, 15, 16, 17, 18, 19, 20, 21, 22, 23, 24, 25, 26, 27, 28, 29, 30, 31, 32, 33, 34, 35, 36, 37, 38, 39, 40, 41, 42, 43, 44, 45, 46, 47, 48, 49, 50, 51, 52, 53, 54, 55, 56, 57, 58, 59, 60, 61, 62, 63, 64, 65, 66, 67, 68, 69, 70, 71, 72, 73, 74, 75, 76, 77, 78, 79, 80, 81, 82, 83, 84, 85, 86, 87, 88, 89, 90, 91, 92, 93, 94, 95, 96, 97, 98, 99, 100, 101, 102, 103, 104, 105, 106, 107, 108, 109, 110, 111, 112, 113, 114, 115, 116, 117, 118, 119, 120, 121, 122, 123, 124, 125, 126, 127, 128, 129, 130, 131, 132, 133, 134, 135, 136, 137, 138, 139, 140, 141, 142, 143, 144, 145, 146, 147, 148, 149, 150, 151, 152, 153, 154, 155, 156, 157, 158, 159, 160, 161, 162, 163, 164, 165, 166, 167, 168, 169, 170, 171, 172, 173, 174, 175, 176, 177, 178, 179, 180, 181, 182, 183, 184, 185, 186, 187, 188, 189, 190, 191, 192, 193, 194, 195, 196, 197, 198, 199, 200],
      "LargestImagePixelValue": [601, 602, 603, 601, 603, 601, 601, 602, 601, 600, 600, 601, 600, 601, 604, 600, 600, 601, 600, 602, 599, 602, 600, 600, 601, 603, 603, 602, 602, 602, 600, 600, 599, 601, 600, 601, 601, 600, 598, 602, 601, 599, 601, 599, 601, 599, 599, 599, 601, 603, 603, 600, 600, 602, 601, 602, 598, 601, 601, 600, 601, 600, 600, 602, 603, 602, 598, 601, 599, 600, 598, 600, 602, 599, 600, 600, 600, 602, 600, 599, 602, 600, 602, 599, 600, 599, 602, 599, 599, 604, 600, 600, 598, 601, 601, 598, 602, 599, 597, 600, 601, 599, 600, 598, 601, 602, 598, 600, 598, 600, 600, 598, 600, 599, 597, 601, 600, 601, 601, 601, 598, 601, 600, 599, 598, 601, 603, 601, 597, 600, 599, 601, 599, 600, 599, 600, 602, 599, 600, 600, 598, 599, 602, 598, 600, 600, 601, 599, 597, 599, 602, 597, 602, 600, 599, 597, 599, 601, 598, 598, 600, 600, 601, 598, 601, 599, 600, 598, 600, 599, 598, 598, 598, 600, 600, 598, 600, 599, 599, 599, 601, 601, 601, 599, 600, 598, 600, 599, 601, 600, 600, 599, 600, 598, 599, 600, 601, 599, 600, 599],
      "WindowCenter": [431.0, 431.0, 431.0, 431.0, 431.0, 431.0, 431.0, 431.0, 431.0, 431.0, 431.0, 431.0, 431.0, 431.0, 431.0, 431.0, 431.0, 431.0, 431.0, 431.0, 431.0, 431.0, 431.0, 431.0, 431.0, 431.0, 431.0, 431.0, 431.0, 431.0, 431.0, 431.0, 431.0, 431.0, 431.0, 431.0, 431.0, 431.0, 431.0, 431.0, 431.0, 431.0, 431.0, 431.0, 431.0, 431.0, 431.0, 431.0, 431.0, 431.0, 431.0, 431.0, 431.0, 431.0, 431.0, 431.0, 431.0, 431.0, 431.0, 431.0, 431.0, 431.0, 431.0, 431.0, 431.0, 431.0, 431.0, 431.0, 431.0, 431.0, 431.0, 431.0, 431.0, 431.0, 431.0, 431.0, 431.0, 431.0, 431.0, 431.0, 431.0, 431.0, 431.0, 431.0, 431.0, 431.0, 431.0, 431.0, 431.0, 431.0, 431.0, 431.0, 431.0, 431.0, 431.0, 431.0, 431.0, 431.0, 431.0, 431.0, 431.0, 431.0, 431.0, 431.0, 431.0, 431.0, 431.0, 431.0, 431.0, 431.0, 431.0, 431.0, 431.0, 431.0, 431.0, 431.0, 431.0, 431.0, 431.0, 431.0, 431.0, 431.0, 431.0, 431.0, 431.0, 431.0, 431.0, 431.0, 431.0, 431.0, 431.0, 431.0, 431.0, 431.0, 431.0, 431.0, 431.0, 431.0, 431.0, 431.0, 431.0, 431.0, 431.0, 431.0, 431.0, 431.0, 431.0, 431.0, 431.0, 431.0, 431.0, 431.0, 431.0, 431.0, 431.0, 431.0, 431.0, 431.0, 431.0, 431.0, 431.0, 431.0, 431.0, 431.0, 430.0, 431.0, 430.0, 430.0, 431.0, 431.0, 430.0, 430.0, 430.0, 430.0, 431.0, 430.0, 430.0, 430.0, 430.0, 430.0, 430.0, 430.0, 430.0, 430.0, 430.0, 430.0, 430.0, 430.0, 430.0, 430.0, 430.0, 430.0, 430.0, 430.0, 430.0, 430.0, 430.0, 430.0, 430.0, 430.0],
      "WindowWidth": [900.0, 900.0, 900.0, 900.0, 900.0, 900.0, 900.0, 900.0, 899.0, 899.0, 900.0, 900.0, 900.0, 899.0, 900.0, 900.0, 900.0, 900.0, 900.0, 900.0, 900.0, 900.0, 900.0, 900.0, 900.0, 900.0, 900.0, 900.0, 900.0, 900.0, 900.0, 900.0, 900.0, 900.0, 900.0, 900.0, 899.0, 900.0, 900.0, 899.0, 900.0, 900.0, 900.0, 899.0, 899.0, 900.0, 900.0, 899.0, 900.0, 899.0, 900.0, 899.0, 900.0, 899.0, 900.0, 900.0, 899.0, 899.0, 899.0, 900.0, 899.0, 900.0, 900.0, 899.0, 899.0, 900.0, 900.0, 899.0, 900.0, 899.0, 899.0, 899.0, 899.0, 899.0, 900.0, 899.0, 899.0, 899.0, 899.0, 899.0, 899.0, 899.0, 899.0, 899.0, 899.0, 899.0, 899.0, 899.0, 899.0, 899.0, 899.0, 899.0, 899.0, 899.0, 899.0, 899.0, 899.0, 899.0, 899.0, 899.0, 899.0, 899.0, 899.0, 899.0, 899.0, 899.0, 899.0, 899.0, 899.0, 899.0, 899.0, 899.0, 899.0, 899.0, 899.0, 899.0, 899.0, 899.0, 899.0, 899.0, 899.0, 899.0, 899.0, 899.0, 899.0, 899.0, 899.0, 899.0, 899.0, 899.0, 899.0, 899.0, 899.0, 899.0, 899.0, 899.0, 899.0, 899.0, 899.0, 899.0, 899.0, 899.0, 899.0, 899.0, 899.0, 899.0, 899.0, 899.0, 899.0, 899.0, 899.0, 899.0, 899.0, 899.0, 899.0, 899.0, 899.0, 899.0, 899.0, 899.0, 899.0, 899.0, 898.0, 898.0, 898.0, 898.0, 898.0, 898.0, 898.0, 898.0, 898.0, 898.0, 898.0, 898.0, 898.0, 898.0, 898.0, 898.0, 898.0, 898.0, 898.0, 898.0, 898.0, 898.0, 898.0, 898.0, 898.0, 898.0, 898.0, 898.0, 898.0, 898.0, 898.0, 898.0, 898.0, 898.0, 898.0, 898.0, 898.0, 898.0]
    },
    "slices": {}
  }
}