{
  "AcquisitionMatrixPE": 80,
  "AcquisitionNumber": 1,
  "AcquisitionTime": "09:00:21.745000",
  "BandwidthPerPixelPhaseEncode": 48.077,
  "BaseResolution": 80,
  "BodyPartExamined": "BRAIN",
  "CoilCombinationMethod": "Sum of Squares",
  "ConsistencyInfo": "N4_VE11E_LATEST_20181129",
  "ConversionSoftware": "dcm2niix",
  "ConversionSoftwareVersion": "v1.0.20220720",
  "DerivedVendorReportedEchoSpacing": 0.000519999,
  "DeviceSerialNumber": "66112",
  "DwellTime": 2.7e-06,
  "EchoTime": 0.035,
  "EchoTrainLength": 39,
  "EffectiveEchoSpacing": 0.00026,
  "FlipAngle": 90,
  "HeudiconvVersion": "0.13.1",
  "ImageOrientationPatientDICOM": [0.989112, 0.146986, 0.00727016, -0.141828, 0.938893, 0.31363],
  "ImageOrientationText": "Tra>Cor(18.1)>Sag(-2.3)",
  "ImageType": [
    "ORIGINAL",
    "PRIMARY",
    "M",
    "ND",
    "NORM",
    "MOSAIC"
],
  "ImagingFrequency": 123.252,
  "InPlanePhaseEncodingDirectionDICOM": "COL",
  "InstitutionAddress": "Maynard 3,Hanover,NH,US,03755",
  "InstitutionName": "Dartmouth College - PBS",
  "InstitutionalDepartmentName": "Department",
  "MRAcquisitionType": "2D",
  "MagneticFieldStrength": 3,
  "Manufacturer": "Siemens",
  "ManufacturersModelName": "Prisma",
  "MatrixCoilMode": "GRAPPA",
  "Modality": "MR",
  "NonlinearGradientCorrection": false,
  "ParallelReductionFactorInPlane": 2,
  "PartialFourier": 1,
  "PatientPosition": "HFS",
  "PercentPhaseFOV": 100,
  "PercentSampling": 100,
  "PhaseEncodingDirection": "j-",
  "PhaseEncodingSteps": 79,
  "PhaseResolution": 1,
  "PixelBandwidth": 2315,
  "ProcedureStepDescription": "dbic^QA",
  "ProtocolName": "func-bold_task-rest_acq-p2",
  "PulseSequenceDetails": "%SiemensSeq%\\ep2d_bold",
  "ReceiveCoilActiveElements": "HC1-7;NC1,2",
  "ReceiveCoilName": "HeadNeck_64",
  "ReconMatrixPE": 80,
  "RefLinesPE": 24,
  "RepetitionTime": 2,
  "SAR": 0.0411137,
  "ScanOptions": "FS",
  "ScanningSequence": "EP",
  "SequenceName": "*epfid2d1_80",
  "SequenceVariant": "SK",
  "SeriesDescription": "func-bold_task-rest_acq-p2",
  "SeriesNumber": 9,
  "ShimSetting": [4137, -7707, -7511, 166, -70, -236, -47, 85],
  "SliceThickness": 3.5,
  "SliceTiming": [0.99, 0, 1.055, 0.065, 1.1225, 0.1325, 1.1875, 0.1975, 1.2525, 0.2625, 1.32, 0.33, 1.385, 0.395, 1.4525, 0.4625, 1.5175, 0.5275, 1.5825, 0.5925, 1.65, 0.66, 1.715, 0.725, 1.7825, 0.7925, 1.8475, 0.8575, 1.9125, 0.9225],
  "SoftwareVersions": "syngo MR E11",
  "SpacingBetweenSlices": 3.99,
  "StationName": "AWP66112",
  "TaskName": "rest",
  "TotalReadoutTime": 0.02054,
  "TxRefAmp": 216.552,
  "dcmmeta_affine": [
    [-2.9673357009887695, -0.42548519372940063, -0.15670031309127808, 139.8170166015625],
    [-0.4409574270248413, 2.816680431365967, 1.2418729066848755, -99.96469116210938],
    [0.021810488775372505, -0.9408901929855347, 3.788574457168579, -22.867834091186523],
    [0.0, 0.0, 0.0, 1.0]
],
  "dcmmeta_reorient_transform": [
    [0.0, -1.0, 0.0, 79.0],
    [1.0, 0.0, 0.0, 0.0],
    [0.0, 0.0, 1.0, 0.0],
    [0.0, 0.0, 0.0, 1.0]
],
  "dcmmeta_shape": [80, 80, 30, 200],
  "dcmmeta_slice_dim": 2,
  "dcmmeta_version": 0.6,
  "global": {
    "const": {
      "AccessionNumber": "qa64",
      "AcquisitionMatrix": [80, 0, 0, 80],
      "AngioFlag": "N",
      "BitsAllocated": 16,
      "BitsStored": 12,
      "BodyPartExamined": "BRAIN",
      "Columns": 480,
      "EchoNumbers": 1,
      "EchoTime": 35.0,
      "EchoTrainLength": 39,
      "FlipAngle": 90.0,
      "HighBit": 11,
      "ImageOrientationPatient": [0.98911188304618, 0.14698580729728, 0.00727016299669, -0.141828396116, 0.93889344041619, 0.31363005850623],
      "ImagePositionPatient": [-614.5737841661, -774.08060407285, -289.73829162321],
      "ImageType": [
        "ORIGINAL",
        "PRIMARY",
        "M",
        "ND",
        "NORM",
        "MOSAIC"
],
      "ImagedNucleus": "1H",
      "ImagingFrequency": 123.252374,
      "InPlanePhaseEncodingDirection": "COL",
      "MRAcquisitionType": "2D",
      "MagneticFieldStrength": 3.0,
      "Manufacturer": "SIEMENS",
      "ManufacturerModelName": "Prisma",
      "Modality": "MR",
      "NumberOfAverages": 1.0,
      "NumberOfPhaseEncodingSteps": 79,
      "PercentPhaseFieldOfView": 100.0,
      "PercentSampling": 100.0,
      "PerformedProcedureStepStartTime": "085408.218000",
      "PhotometricInterpretation": "MONOCHROME2",
      "PixelBandwidth": 2315.0,
      "PixelRepresentation": 0,
      "PixelSpacing": [3.0, 3.0],
      "ProtocolName": "func-bold_task-rest_acq-p2",
      "RepetitionTime": 2000.0,
      "Rows": 480,
      "SAR": 0.04111370448471,
      "SamplesPerPixel": 1,
      "ScanOptions": "FS",
      "ScanningSequence": "EP",
      "SequenceName": "*epfid2d1_80",
      "SequenceVariant": "SK",
      "SeriesDescription": "func-bold_task-rest_acq-p2",
      "SeriesNumber": 9,
      "SeriesTime": "090114.769000",
      "SliceLocation": -58.318120870313,
      "SliceThickness": 3.5,
      "SmallestImagePixelValue": 0,
      "SoftwareVersions": "syngo MR E11",
      "SpacingBetweenSlices": 3.9900000709411,
      "SpecificCharacterSet": "ISO_IR 100",
      "StudyID": "1",
      "StudyTime": "085408.126000",
      "TransmitCoilName": "Body",
      "VariableFlipAngleFlag": "N",
      "WindowCenterWidthExplanation": "Algo1"
    },
    "slices": {}
  },
  "time": {
    "samples": {
      "AcquisitionNumber": [1, 2, 3, 4, 5, 6, 7, 8, 9, 10, 11, 12, 13, 14, 15, 16, 17, 18, 19, 20, 21, 22, 23, 24, 25, 26, 27, 28, 29, 30, 31, 32, 33, 34, 35, 36, 37, 38, 39, 40, 41, 42, 43, 44, 45, 46, 47, 48, 49, 50, 51, 52, 53, 54, 55, 56, 57, 58, 59, 60, 61, 62, 63, 64, 65, 66, 67, 68, 69, 70, 71, 72, 73, 74, 75, 76, 77, 78, 79, 80, 81, 82, 83, 84, 85, 86, 87, 88, 89, 90, 91, 92, 93, 94, 95, 96, 97, 98, 99, 100, 101, 102, 103, 104, 105, 106, 107, 108, 109, 110, 111, 112, 113, 114, 115, 116, 117, 118, 119, 120, 121, 122, 123, 124, 125, 126, 127, 128, 129, 130, 131, 132, 133, 134, 135, 136, 137, 138, 139, 140, 141, 142, 143, 144, 145, 146, 147, 148, 149, 150, 151, 152, 153, 154, 155, 156, 157, 158, 159, 160, 161, 162, 163, 164, 165, 166, 167, 168, 169, 170, 171, 172, 173, 174, 175, 176, 177, 178, 179, 180, 181, 182, 183, 184, 185, 186, 187, 188, 189, 190, 191, 192, 193, 194, 195, 196, 197, 198, 199, 200],
      "AcquisitionTime": ["090021.745000", "090023.745000", "090025.745000", "090027.745000", "090029.745000", "090031.745000", "090033.745000", "090035.745000", "090037.745000", "090039.745000", "090041.745000", "090043.745000", "090045.745000", "090047.745000", "090049.745000", "090051.745000", "090053.745000", "090055.745000", "090057.745000", "090059.745000", "090101.745000", "090103.745000", "090105.745000", "090107.745000", "090109.745000", "090111.745000", "090113.745000", "090115.745000", "090117.745000", "090119.745000", "090121.745000", "090123.745000", "090125.745000", "090127.745000", "090129.745000", "090131.745000", "090133.745000", "090135.745000", "090137.745000", "090139.745000", "090141.745000", "090143.745000", "090145.745000", "090147.745000", "090149.745000", "090151.745000", "090153.745000", "090155.745000", "090157.745000", "090159.745000", "090201.745000", "090203.745000", "090205.745000", "090207.745000", "090209.745000", "090211.745000", "090213.745000", "090215.745000", "090217.745000", "090219.745000", "090221.745000", "090223.745000", "090225.745000", "090227.745000", "090229.745000", "090231.745000", "090233.745000", "090235.745000", "090237.745000", "090239.745000", "090241.745000", "090243.745000", "090245.745000", "090247.745000", "090249.745000", "090251.745000", "090253.745000", "090255.745000", "090257.745000", "090259.745000", "090301.745000", "090303.745000", "090305.745000", "090307.745000", "090309.745000", "090311.745000", "090313.745000", "090315.745000", "090317.745000", "090319.745000", "090321.745000", "090323.745000", "090325.745000", "090327.745000", "090329.745000", "090331.745000", "090333.745000", "090335.745000", "090337.745000", "090339.745000", "090341.745000", "090343.745000", "090345.745000", "090347.745000", "090349.745000", "090351.745000", "090353.745000", "090355.745000", "090357.745000", "090359.745000", "090401.745000", "090403.745000", "090405.745000", "090407.745000", "090409.745000", "090411.745000", "090413.745000", "090415.745000", "090417.745000", "090419.745000", "090421.745000", "090423.745000", "090425.745000", "090427.745000", "090429.745000", "090431.745000", "090433.745000", "090435.745000", "090437.745000", "090439.745000", "090441.745000", "090443.745000", "090445.745000", "090447.745000", "090449.745000", "090451.745000", "090453.745000", "090455.745000", "090457.745000", "090459.745000", "090501.745000", "090503.745000", "090505.745000", "090507.745000", "090509.745000", "090511.745000", "090513.745000", "090515.745000", "090517.745000", "090519.745000", "090521.745000", "090523.745000", "090525.745000", "090527.745000", "090529.745000", "090531.745000", "090533.745000", "090535.745000", "090537.745000", "090539.745000", "090541.745000", "090543.745000", "090545.745000", "090547.745000", "090549.745000", "090551.745000", "090553.745000", "090555.745000", "090557.745000", "090559.745000", "090601.745000", "090603.745000", "090605.745000", "090607.745000", "090609.745000", "090611.745000", "090613.745000", "090615.745000", "090617.745000", "090619.745000", "090621.745000", "090623.745000", "090625.745000", "090627.745000", "090629.745000", "090631.745000", "090633.745000", "090635.745000", "090637.745000", "090639.745000", "090641.745000", "090643.745000", "090645.745000", "090647.745000", "090649.745000", "090651.745000", "090653.745000", "090655.745000", "090657.745000", "090659.745000"],
      "ContentTime": ["090114.773000", "090114.776000", "090114.778000", "090114.780000", "090114.783000", "090114.785000", "090114.787000", "090114.790000", "090114.792000", "090114.795000", "090114.797000", "090114.800000", "090114.802000", "090114.804000", "090114.807000", "090114.809000", "090114.811000", "090114.814000", "090114.816000", "090114.819000", "090114.821000", "090114.823000", "090114.826000", "090114.828000", "090114.830000", "090114.833000", "090154.767000", "090154.770000", "090154.772000", "090154.774000", "090154.777000", "090154.779000", "090154.781000", "090154.784000", "090154.786000", "090154.788000", "090154.791000", "090154.793000", "090154.795000", "090154.798000", "090154.800000", "090154.802000", "090154.805000", "090154.807000", "090154.809000", "090154.812000", "090234.767000", "090234.770000", "090234.772000", "090234.774000", "090234.777000", "090234.779000", "090234.781000", "090234.784000", "090234.786000", "090234.788000", "090234.790000", "090234.793000", "090234.795000", "090234.797000", "090234.800000", "090234.802000", "090234.804000", "090234.807000", "090234.809000", "090234.811000", "090314.768000", "090314.771000", "090314.773000", "090314.775000", "090314.778000", "090314.780000", "090314.782000", "090314.785000", "090314.787000", "090314.789000", "090314.792000", "090314.794000", "090314.796000", "090314.799000", "090314.801000", "090314.803000", "090314.806000", "090314.808000", "090314.810000", "090314.813000", "090354.767000", "090354.770000", "090354.772000", "090354.774000", "090354.777000", "090354.779000", "090354.781000", "090354.784000", "090354.786000", "090354.788000", "090354.791000", "090354.793000", "090354.795000", "090354.798000", "090354.800000", "090354.803000", "090354.805000", "090354.807000", "090354.810000", "090354.812000", "090434.767000", "090434.770000", "090434.772000", "090434.774000", "090434.777000", "090434.779000", "090434.781000", "090434.784000", "090434.786000", "090434.788000", "090434.791000", "090434.793000", "090434.795000", "090434.798000", "090434.800000", "090434.802000", "090434.804000", "090434.807000", "090434.809000", "090434.811000", "090514.767000", "090514.770000", "090514.772000", "090514.775000", "090514.777000", "090514.779000", "090514.782000", "090514.784000", "090514.786000", "090514.789000", "090514.791000", "090514.793000", "090514.796000", "090514.798000", "090514.800000", "090514.803000", "090514.805000", "090514.807000", "090514.810000", "090514.812000", "090554.767000", "090554.770000", "090554.772000", "090554.774000", "090554.777000", "090554.785000", "090554.788000", "090554.790000", "090554.792000", "090554.795000", "090554.797000", "090554.799000", "090554.802000", "090554.804000", "090554.806000", "090554.808000", "090554.811000", "090554.813000", "090554.815000", "090554.818000", "090634.767000", "090634.770000", "090634.772000", "090634.774000", "090634.777000", "090634.779000", "090634.781000", "090634.784000", "090634.786000", "090634.788000", "090634.791000", "090634.793000", "090634.795000", "090634.798000", "090634.800000", "090634.802000", "090634.805000", "090634.807000", "090634.809000", "090634.812000", "090654.767000", "090654.770000", "090654.772000", "090654.775000", "090654.777000", "090654.779000", "090654.781000", "090654.784000", "090654.786000", "090654.788000", "090701.713000", "090701.718000", "090701.721000", "090701.724000"],
      "InstanceCreationTime": ["090114.773000", "090114.776000", "090114.778000", "090114.780000", "090114.783000", "090114.785000", "090114.787000", "090114.790000", "090114.792000", "090114.795000", "090114.797000", "090114.800000", "090114.802000", "090114.804000", "090114.807000", "090114.809000", "090114.811000", "090114.814000", "090114.816000", "090114.819000", "090114.821000", "090114.823000", "090114.826000", "090114.828000", "090114.830000", "090114.833000", "090154.767000", "090154.770000", "090154.772000", "090154.774000", "090154.777000", "090154.779000", "090154.781000", "090154.784000", "090154.786000", "090154.788000", "090154.791000", "090154.793000", "090154.795000", "090154.798000", "090154.800000", "090154.802000", "090154.805000", "090154.807000", "090154.809000", "090154.812000", "090234.767000", "090234.770000", "090234.772000", "090234.774000", "090234.777000", "090234.779000", "090234.781000", "090234.784000", "090234.786000", "090234.788000", "090234.790000", "090234.793000", "090234.795000", "090234.797000", "090234.800000", "090234.802000", "090234.804000", "090234.807000", "090234.809000", "090234.811000", "090314.768000", "090314.771000", "090314.773000", "090314.775000", "090314.778000", "090314.780000", "090314.782000", "090314.785000", "090314.787000", "090314.789000", "090314.792000", "090314.794000", "090314.796000", "090314.799000", "090314.801000", "090314.803000", "090314.806000", "090314.808000", "090314.810000", "090314.813000", "090354.767000", "090354.770000", "090354.772000", "090354.774000", "090354.777000", "090354.779000", "090354.781000", "090354.784000", "090354.786000", "090354.788000", "090354.791000", "090354.793000", "090354.795000", "090354.798000", "090354.800000", "090354.803000", "090354.805000", "090354.807000", "090354.810000", "090354.812000", "090434.767000", "090434.770000", "090434.772000", "090434.774000", "090434.777000", "090434.779000", "090434.781000", "090434.784000", "090434.786000", "090434.788000", "090434.791000", "090434.793000", "090434.795000", "090434.798000", "090434.800000", "090434.802000", "090434.804000", "090434.807000", "090434.809000", "090434.811000", "090514.767000", "090514.770000", "090514.772000", "090514.775000", "090514.777000", "090514.779000", "090514.782000", "090514.784000", "090514.786000", "090514.789000", "090514.791000", "090514.793000", "090514.796000", "090514.798000", "090514.800000", "090514.803000", "090514.805000", "090514.807000", "090514.810000", "090514.812000", "090554.767000", "090554.770000", "090554.772000", "090554.774000", "090554.777000", "090554.785000", "090554.788000", "090554.790000", "090554.792000", "090554.795000", "090554.797000", "090554.799000", "090554.802000", "090554.804000", "090554.806000", "090554.808000", "090554.811000", "090554.813000", "090554.815000", "090554.818000", "090634.767000", "090634.770000", "090634.772000", "090634.774000", "090634.777000", "090634.779000", "090634.781000", "090634.784000", "090634.786000", "090634.788000", "090634.791000", "090634.793000", "090634.795000", "090634.798000", "090634.800000", "090634.802000", "090634.805000", "090634.807000", "090634.809000", "090634.812000", "090654.767000", "090654.770000", "090654.772000", "090654.775000", "090654.777000", "090654.779000", "090654.781000", "090654.784000", "090654.786000", "090654.788000", "090701.713000", "090701.718000", "090701.721000", "090701.724000"],
      "InstanceNumber": [1, 2, 3, 4, 5, 6, 7, 8, 9, 10, 11, 12, 13, 14, 15, 16, 17, 18, 19, 20, 21, 22, 23, 24, 25, 26, 27, 28, 29, 30, 31, 32, 33, 34, 35, 36, 37, 38, 39, 40, 41, 42, 43, 44, 45, 46, 47, 48, 49, 50, 51, 52, 53, 54, 55, 56, 57, 58, 59, 60, 61, 62, 63, 64, 65, 66, 67, 68, 69, 70, 71, 72, 73, 74, 75, 76, 77, 78, 79, 80, 81, 82, 83, 84, 85, 86, 87, 88, 89, 90, 91, 92, 93, 94, 95, 96, 97, 98, 99, 100, 101, 102, 103, 104, 105, 106, 107, 108, 109, 110, 111, 112, 113, 114, 115, 116, 117, 118, 119, 120, 121, 122, 123, 124, 125, 126, 127, 128, 129, 130, 131, 132, 133, 134, 135, 136, 137, 138, 139, 140, 141, 142, 143, 144, 145, 146, 147, 148, 149, 150, 151, 152, 153, 154, 155, 156, 157, 158, 159, 160, 161, 162, 163, 164, 165, 166, 167, 168, 169, 170, 171, 172, 173, 174, 175, 176, 177, 178, 179, 180, 181, 182, 183, 184, 185, 186, 187, 188, 189, 190, 191, 192, 193, 194, 195, 196, 197, 198, 199, 200],
      "LargestImagePixelValue": [3718, 3712, 3702, 3715, 3715, 3731, 3708, 3723, 3718, 3709, 3700, 3715, 3708, 3685, 3701, 3710, 3711, 3700, 3711, 3710, 3691, 3710, 3711, 3689, 3706, 3712, 3687, 3695, 3697, 3702, 3695, 3685, 3684, 3709, 3720, 3713, 3705, 3697, 3695, 3694, 3690, 3691, 3700, 3681, 3692, 3714, 3700, 3714, 3700, 3698, 3702, 3702, 3712, 3701, 3704, 3718, 3701, 3678, 3680, 3698, 3713, 3702, 3697, 3697, 3700, 3700, 3694, 3702, 3701, 3715, 3697, 3698, 3697, 3705, 3691, 3687, 3691, 3706, 3710, 3705, 3685, 3688, 3691, 3710, 3707, 3711, 3695, 3702, 3681, 3699, 3694, 3704, 3693, 3696, 3698, 3703, 3697, 3714, 3698, 3702, 3697, 3701, 3691, 3699, 3699, 3683, 3693, 3704, 3703, 3700, 3694, 3690, 3694, 3691, 3689, 3678, 3682, 3693, 3691, 3689, 3684, 3693, 3713, 3715, 3697, 3699, 3685, 3685, 3685, 3702, 3682, 3696, 3684, 3681, 3700, 3700, 3703, 3703, 3677, 3685, 3686, 3703, 3702, 3689, 3696, 3684, 3697, 3681, 3688, 3686, 3699, 3693, 3694, 3696, 3694, 3695, 3694, 3679, 3687, 3685, 3692, 3695, 3690, 3690, 3689, 3691, 3691, 3707, 3697, 3687, 3692, 3692, 3695, 3687, 3695, 3682, 3697, 3693, 3700, 3684, 3697, 3693, 3692, 3698, 3692, 3700, 3697, 3684, 3709, 3700, 3688, 3689, 3696, 3682, 3694, 3699, 3689, 3684, 3695, 3680],
      "WindowCenter": [1396.0, 1395.0, 1395.0, 1395.0, 1395.0, 1395.0, 1395.0, 1394.0, 1395.0, 1395.0, 1394.0, 1394.0, 1395.0, 1394.0, 1394.0, 1394.0, 1394.0, 1394.0, 1394.0, 1394.0, 1394.0, 1394.0, 1394.0, 1395.0, 1394.0, 1394.0, 1394.0, 1394.0, 1394.0, 1394.0, 1394.0, 1394.0, 1394.0, 1394.0, 1393.0, 1393.0, 1393.0, 1394.0, 1393.0, 1393.0, 1393.0, 1393.0, 1393.0, 1393.0, 1394.0, 1392.0, 1393.0, 1393.0, 1393.0, 1393.0, 1393.0, 1393.0, 1393.0, 1393.0, 1393.0, 1393.0, 1394.0, 1393.0, 1393.0, 1393.0, 1392.0, 1393.0, 1393.0, 1393.0, 1393.0, 1393.0, 1393.0, 1393.0, 1393.0, 1392.0, 1392.0, 1393.0, 1392.0, 1392.0, 1392.0, 1393.0, 1391.0, 1392.0, 1391.0, 1392.0, 1392.0, 1392.0, 1392.0, 1391.0, 1392.0, 1392.0, 1392.0, 1392.0, 1392.0, 1392.0, 1392.0, 1391.0, 1392.0, 1392.0, 1391.0, 1392.0, 1392.0, 1391.0, 1391.0, 1391.0, 1392.0, 1391.0, 1391.0, 1392.0, 1391.0, 1392.0, 1392.0, 1391.0, 1392.0, 1391.0, 1391.0, 1391.0, 1391.0, 1391.0, 1391.0, 1392.0, 1390.0, 1392.0, 1392.0, 1391.0, 1391.0, 1391.0, 1391.0, 1391.0, 1391.0, 1391.0, 1391.0, 1391.0, 1391.0, 1391.0, 1392.0, 1392.0, 1391.0, 1392.0, 1391.0, 1391.0, 1391.0, 1391.0, 1391.0, 1392.0, 1391.0, 1391.0, 1391.0, 1391.0, 1391.0, 1391.0, 1391.0, 1392.0, 1391.0, 1391.0, 1391.0, 1391.0, 1391.0, 1391.0, 1391.0, 1392.0, 1390.0, 1390.0, 1391.0, 1391.0, 1390.0, 1390.0, 1390.0, 1391.0, 1391.0, 1391.0, 1391.0, 1390.0, 1390.0, 1391.0, 1391.0, 1390.0, 1391.0, 1391.0, 1391.0, 1391.0, 1391.0, 1390.0, 1390.0, 1391.0, 1391.0, 1391.0, 1391.0, 1390.0, 1391.0, 1390.0, 1390.0, 1391.0, 1390.0, 1391.0, 1391.0, 1391.0, 1390.0, 1390.0, 1390.0, 1389.0, 1390.0, 1390.0, 1390.0, 1391.0],
      "WindowWidth": [3236.0, 3236.0, 3236.0, 3236.0, 3235.0, 3235.0, 3235.0, 3235.0, 3235.0, 3235.0, 3235.0, 3235.0, 3235.0, 3235.0, 3235.0, 3235.0, 3235.0, 3235.0, 3234.0, 3235.0, 3235.0, 3235.0, 3235.0, 3234.0, 3234.0, 3234.0, 3234.0, 3234.0, 3235.0, 3234.0, 3234.0, 3234.0, 3234.0, 3234.0, 3234.0, 3234.0, 3234.0, 3234.0, 3234.0, 3234.0, 3234.0, 3234.0, 3234.0, 3234.0, 3233.0, 3234.0, 3234.0, 3234.0, 3234.0, 3234.0, 3234.0, 3234.0, 3234.0, 3234.0, 3234.0, 3234.0, 3233.0, 3233.0, 3233.0, 3233.0, 3233.0, 3233.0, 3233.0, 3233.0, 3233.0, 3233.0, 3233.0, 3233.0, 3233.0, 3233.0, 3233.0, 3233.0, 3233.0, 3233.0, 3233.0, 3233.0, 3233.0, 3233.0, 3233.0, 3233.0, 3233.0, 3233.0, 3233.0, 3233.0, 3233.0, 3233.0, 3232.0, 3233.0, 3232.0, 3233.0, 3232.0, 3233.0, 3233.0, 3233.0, 3232.0, 3233.0, 3232.0, 3232.0, 3232.0, 3232.0, 3232.0, 3232.0, 3232.0, 3232.0, 3232.0, 3232.0, 3232.0, 3232.0, 3232.0, 3232.0, 3232.0, 3232.0, 3232.0, 3232.0, 3232.0, 3232.0, 3233.0, 3232.0, 3232.0, 3232.0, 3232.0, 3232.0, 3232.0, 3232.0, 3232.0, 3232.0, 3232.0, 3232.0, 3232.0, 3232.0, 3232.0, 3232.0, 3232.0, 3232.0, 3232.0, 3232.0, 3232.0, 3232.0, 3232.0, 3232.0, 3232.0, 3232.0, 3232.0, 3232.0, 3232.0, 3232.0, 3232.0, 3232.0, 3232.0, 3232.0, 3232.0, 3232.0, 3232.0, 3232.0, 3232.0, 3231.0, 3231.0, 3231.0, 3232.0, 3231.0, 3231.0, 3232.0, 3232.0, 3232.0, 3232.0, 3232.0, 3232.0, 3232.0, 3231.0, 3232.0, 3231.0, 3232.0, 3232.0, 3232.0, 3232.0, 3232.0, 3232.0, 3231.0, 3231.0, 3231.0, 3231.0, 3231.0, 3231.0, 3232.0, 3232.0, 3232.0, 3232.0, 3231.0, 3232.0, 3232.0, 3232.0, 3232.0, 3232.0, 3232.0, 3232.0, 3232.0, 3231.0, 3231.0, 3231.0, 3231.0]
    },
    "slices": {}
  }
}