{
  "AcquisitionMatrixPE": 80,
  "AcquisitionNumber": 1,
  "AcquisitionTime": "08:29:45.777500",
  "BandwidthPerPixelPhaseEncode": 48.077,
  "BaseResolution": 80,
  "BodyPartExamined": "BRAIN",
  "CoilCombinationMethod": "Sum of Squares",
  "ConsistencyInfo": "N4_VE11C_LATEST_20160120",
  "ConversionSoftware": "dcm2niix",
  "ConversionSoftwareVersion": "v1.0.20220720",
  "DerivedVendorReportedEchoSpacing": 0.000519999,
  "DeviceSerialNumber": "66112",
  "DwellTime": 2.7e-06,
  "EchoTime": 0.035,
  "EchoTrainLength": 39,
  "EffectiveEchoSpacing": 0.00026,
  "FlipAngle": 90,
  "HeudiconvVersion": "0.13.1",
  "ImageOrientationPatientDICOM": [0.995422, 0.095429, 0.005348, -0.0923425, 0.945774, 0.311424],
  "ImageOrientationText": "Tra>Cor(18.1)>Sag(-1.4)",
  "ImageType": [
    "ORIGINAL",
    "PRIMARY",
    "M",
    "ND",
    "NORM",
    "MOSAIC"
],
  "ImagingFrequency": 123.252,
  "InPlanePhaseEncodingDirectionDICOM": "COL",
  "InstitutionAddress": "Maynard 3,Hanover,NH,US,03755",
  "InstitutionName": "Dartmouth College - PBS",
  "InstitutionalDepartmentName": "Department",
  "MRAcquisitionType": "2D",
  "MagneticFieldStrength": 3,
  "Manufacturer": "Siemens",
  "ManufacturersModelName": "Prisma",
  "MatrixCoilMode": "GRAPPA",
  "Modality": "MR",
  "NonlinearGradientCorrection": false,
  "ParallelReductionFactorInPlane": 2,
  "PartialFourier": 1,
  "PatientPosition": "HFS",
  "PercentPhaseFOV": 100,
  "PercentSampling": 100,
  "PhaseEncodingDirection": "j-",
  "PhaseEncodingSteps": 79,
  "PhaseResolution": 1,
  "PixelBandwidth": 2315,
  "ProcedureStepDescription": "dbic^QA",
  "ProtocolName": "func-bold_task-rest_acq-p2",
  "PulseSequenceDetails": "%SiemensSeq%\\ep2d_bold",
  "ReceiveCoilActiveElements": "HC1-7;NC1,2",
  "ReceiveCoilName": "HeadNeck_64",
  "ReconMatrixPE": 80,
  "RefLinesPE": 24,
  "RepetitionTime": 2,
  "SAR": 0.0410808,
  "ScanOptions": "FS",
  "ScanningSequence": "EP",
  "SequenceName": "*epfid2d1_80",
  "SequenceVariant": "SK",
  "SeriesDescription": "func-bold_task-rest_acq-p2",
  "SeriesNumber": 5,
  "ShimSetting": [4139, -7711, -7516, 169, -70, -271, -69, 89],
  "SliceThickness": 3.5,
  "SliceTiming": [0.99, 0, 1.055, 0.065, 1.1225, 0.1325, 1.1875, 0.1975, 1.2525, 0.2625, 1.32, 0.33, 1.385, 0.395, 1.4525, 0.4625, 1.5175, 0.5275, 1.5825, 0.5925, 1.65, 0.66, 1.715, 0.725, 1.7825, 0.7925, 1.8475, 0.8575, 1.9125, 0.9225],
  "SoftwareVersions": "syngo MR E11",
  "SpacingBetweenSlices": 3.99,
  "StationName": "AWP66112",
  "TaskName": "rest",
  "TotalReadoutTime": 0.02054,
  "TxRefAmp": 213.387,
  "dcmmeta_affine": [
    [-2.9862656593322754, -0.2770273983478546, -0.09839671105146408, 134.2794952392578],
    [-0.286286860704422, 2.8373215198516846, 1.2388620376586914, -108.48505401611328],
    [0.0160440094769001, -0.9342708587646484, 3.7915220260620117, -15.295681953430176],
    [0.0, 0.0, 0.0, 1.0]
],
  "dcmmeta_reorient_transform": [
    [0.0, -1.0, 0.0, 79.0],
    [1.0, 0.0, 0.0, 0.0],
    [0.0, 0.0, 1.0, 0.0],
    [0.0, 0.0, 0.0, 1.0]
],
  "dcmmeta_shape": [80, 80, 30, 200],
  "dcmmeta_slice_dim": 2,
  "dcmmeta_version": 0.6,
  "global": {
    "const": {
      "AccessionNumber": "qa64",
      "AcquisitionMatrix": [80, 0, 0, 80],
      "AngioFlag": "N",
      "BitsAllocated": 16,
      "BitsStored": 12,
      "BodyPartExamined": "BRAIN",
      "Columns": 480,
      "EchoNumbers": 1,
      "EchoTime": 35.0,
      "EchoTrainLength": 39,
      "FlipAngle": 90.0,
      "HighBit": 11,
      "ImageOrientationPatient": [0.99542187683959, 0.09542895772681, 0.00534800302151, -0.0923424636366, 0.94577386334057, 0.31142361636743],
      "ImagePositionPatient": [-654.24198448246, -740.3850415216, -279.16605057918],
      "ImageType": [
        "ORIGINAL",
        "PRIMARY",
        "M",
        "ND",
        "NORM",
        "MOSAIC"
],
      "ImagedNucleus": "1H",
      "ImagingFrequency": 123.252364,
      "InPlanePhaseEncodingDirection": "COL",
      "MRAcquisitionType": "2D",
      "MagneticFieldStrength": 3.0,
      "Manufacturer": "SIEMENS",
      "ManufacturerModelName": "Prisma",
      "Modality": "MR",
      "NumberOfAverages": 1.0,
      "NumberOfPhaseEncodingSteps": 79,
      "PercentPhaseFieldOfView": 100.0,
      "PercentSampling": 100.0,
      "PerformedProcedureStepStartTime": "082808.930000",
      "PhotometricInterpretation": "MONOCHROME2",
      "PixelBandwidth": 2315.0,
      "PixelRepresentation": 0,
      "PixelSpacing": [3.0, 3.0],
      "ProtocolName": "func-bold_task-rest_acq-p2",
      "RepetitionTime": 2000.0,
      "Rows": 480,
      "SAR": 0.04108079072599,
      "SamplesPerPixel": 1,
      "ScanOptions": "FS",
      "ScanningSequence": "EP",
      "SequenceName": "*epfid2d1_80",
      "SequenceVariant": "SK",
      "SeriesDescription": "func-bold_task-rest_acq-p2",
      "SeriesNumber": 5,
      "SeriesTime": "083040.442000",
      "SliceLocation": -51.529972259144,
      "SliceThickness": 3.5,
      "SmallestImagePixelValue": 0,
      "SoftwareVersions": "syngo MR E11",
      "SpacingBetweenSlices": 3.9899999479855,
      "SpecificCharacterSet": "ISO_IR 100",
      "StudyID": "6",
      "StudyTime": "082808.857000",
      "TransmitCoilName": "Body",
      "VariableFlipAngleFlag": "N",
      "WindowCenterWidthExplanation": "Algo1",
      "dBdt": 0.0},
    "slices": {}
  },
  "time": {
    "samples": {
      "AcquisitionNumber": [1, 2, 3, 4, 5, 6, 7, 8, 9, 10, 11, 12, 13, 14, 15, 16, 17, 18, 19, 20, 21, 22, 23, 24, 25, 26, 27, 28, 29, 30, 31, 32, 33, 34, 35, 36, 37, 38, 39, 40, 41, 42, 43, 44, 45, 46, 47, 48, 49, 50, 51, 52, 53, 54, 55, 56, 57, 58, 59, 60, 61, 62, 63, 64, 65, 66, 67, 68, 69, 70, 71, 72, 73, 74, 75, 76, 77, 78, 79, 80, 81, 82, 83, 84, 85, 86, 87, 88, 89, 90, 91, 92, 93, 94, 95, 96, 97, 98, 99, 100, 101, 102, 103, 104, 105, 106, 107, 108, 109, 110, 111, 112, 113, 114, 115, 116, 117, 118, 119, 120, 121, 122, 123, 124, 125, 126, 127, 128, 129, 130, 131, 132, 133, 134, 135, 136, 137, 138, 139, 140, 141, 142, 143, 144, 145, 146, 147, 148, 149, 150, 151, 152, 153, 154, 155, 156, 157, 158, 159, 160, 161, 162, 163, 164, 165, 166, 167, 168, 169, 170, 171, 172, 173, 174, 175, 176, 177, 178, 179, 180, 181, 182, 183, 184, 185, 186, 187, 188, 189, 190, 191, 192, 193, 194, 195, 196, 197, 198, 199, 200],
      "AcquisitionTime": ["082945.777500", "082947.777500", "082949.777500", "082951.777500", "082953.777500", "082955.777500", "082957.777500", "082959.777500", "083001.777500", "083003.777500", "083005.777500", "083007.777500", "083009.777500", "083011.777500", "083013.777500", "083015.777500", "083017.777500", "083019.777500", "083021.777500", "083023.777500", "083025.777500", "083027.777500", "083029.777500", "083031.777500", "083033.777500", "083035.777500", "083037.777500", "083039.777500", "083041.777500", "083043.777500", "083045.777500", "083047.777500", "083049.777500", "083051.777500", "083053.777500", "083055.777500", "083057.777500", "083059.777500", "083101.777500", "083103.777500", "083105.777500", "083107.777500", "083109.777500", "083111.777500", "083113.777500", "083115.777500", "083117.777500", "083119.777500", "083121.777500", "083123.777500", "083125.777500", "083127.777500", "083129.777500", "083131.777500", "083133.777500", "083135.777500", "083137.777500", "083139.777500", "083141.777500", "083143.777500", "083145.777500", "083147.777500", "083149.777500", "083151.777500", "083153.777500", "083155.777500", "083157.777500", "083159.777500", "083201.777500", "083203.777500", "083205.777500", "083207.777500", "083209.777500", "083211.777500", "083213.777500", "083215.777500", "083217.777500", "083219.777500", "083221.777500", "083223.777500", "083225.777500", "083227.777500", "083229.777500", "083231.777500", "083233.777500", "083235.777500", "083237.777500", "083239.777500", "083241.777500", "083243.777500", "083245.777500", "083247.777500", "083249.777500", "083251.777500", "083253.777500", "083255.777500", "083257.777500", "083259.777500", "083301.777500", "083303.777500", "083305.777500", "083307.777500", "083309.777500", "083311.777500", "083313.777500", "083315.777500", "083317.777500", "083319.777500", "083321.777500", "083323.777500", "083325.777500", "083327.777500", "083329.777500", "083331.777500", "083333.777500", "083335.777500", "083337.777500", "083339.777500", "083341.777500", "083343.777500", "083345.777500", "083347.777500", "083349.777500", "083351.777500", "083353.777500", "083355.777500", "083357.777500", "083359.777500", "083401.777500", "083403.777500", "083405.777500", "083407.777500", "083409.777500", "083411.777500", "083413.777500", "083415.777500", "083417.777500", "083419.777500", "083421.777500", "083423.777500", "083425.777500", "083427.777500", "083429.777500", "083431.777500", "083433.777500", "083435.777500", "083437.777500", "083439.777500", "083441.777500", "083443.777500", "083445.777500", "083447.777500", "083449.777500", "083451.777500", "083453.777500", "083455.777500", "083457.777500", "083459.777500", "083501.777500", "083503.777500", "083505.777500", "083507.777500", "083509.777500", "083511.777500", "083513.777500", "083515.777500", "083517.777500", "083519.777500", "083521.777500", "083523.777500", "083525.777500", "083527.777500", "083529.777500", "083531.777500", "083533.777500", "083535.777500", "083537.777500", "083539.777500", "083541.777500", "083543.777500", "083545.777500", "083547.777500", "083549.777500", "083551.777500", "083553.777500", "083555.777500", "083557.777500", "083559.777500", "083601.777500", "083603.777500", "083605.777500", "083607.777500", "083609.777500", "083611.777500", "083613.777500", "083615.777500", "083617.777500", "083619.777500", "083621.777500", "083623.777500"],
      "ContentTime": ["083040.446000", "083040.449000", "083040.452000", "083040.454000", "083040.457000", "083040.459000", "083040.462000", "083040.465000", "083040.468000", "083040.470000", "083040.473000", "083040.475000", "083040.478000", "083040.480000", "083040.483000", "083040.485000", "083040.488000", "083040.490000", "083040.493000", "083040.495000", "083040.498000", "083040.501000", "083040.503000", "083040.506000", "083040.508000", "083040.511000", "083040.521000", "083120.440000", "083120.442000", "083120.445000", "083120.448000", "083120.450000", "083120.453000", "083120.455000", "083120.458000", "083120.461000", "083120.464000", "083120.466000", "083120.472000", "083120.474000", "083120.477000", "083120.480000", "083120.482000", "083120.485000", "083120.487000", "083120.490000", "083120.493000", "083200.441000", "083200.443000", "083200.446000", "083200.448000", "083200.451000", "083200.453000", "083200.456000", "083200.459000", "083200.462000", "083200.465000", "083200.468000", "083200.470000", "083200.473000", "083200.475000", "083200.478000", "083200.481000", "083200.483000", "083200.486000", "083200.488000", "083200.491000", "083240.439000", "083240.442000", "083240.445000", "083240.447000", "083240.450000", "083240.453000", "083240.455000", "083240.458000", "083240.461000", "083240.463000", "083240.466000", "083240.468000", "083240.471000", "083240.473000", "083240.688000", "083240.691000", "083240.694000", "083240.696000", "083240.699000", "083240.701000", "083320.440000", "083320.442000", "083320.445000", "083320.447000", "083320.450000", "083320.453000", "083320.456000", "083320.458000", "083320.461000", "083320.463000", "083320.466000", "083320.468000", "083320.471000", "083320.473000", "083320.476000", "083320.478000", "083320.481000", "083320.484000", "083320.486000", "083320.489000", "083400.441000", "083400.443000", "083400.446000", "083400.448000", "083400.451000", "083400.454000", "083400.457000", "083400.459000", "083400.462000", "083400.465000", "083400.467000", "083400.470000", "083400.472000", "083400.475000", "083400.477000", "083400.480000", "083400.482000", "083400.485000", "083400.488000", "083400.490000", "083440.441000", "083440.443000", "083440.446000", "083440.449000", "083440.451000", "083440.455000", "083440.457000", "083440.460000", "083440.462000", "083440.465000", "083440.468000", "083440.470000", "083440.473000", "083440.475000", "083440.478000", "083440.480000", "083440.483000", "083440.486000", "083440.488000", "083440.491000", "083520.440000", "083520.442000", "083520.445000", "083520.448000", "083520.450000", "083520.454000", "083520.457000", "083520.459000", "083520.462000", "083520.464000", "083520.467000", "083520.469000", "083520.472000", "083520.474000", "083520.477000", "083520.480000", "083520.482000", "083520.485000", "083520.487000", "083520.495000", "083600.439000", "083600.442000", "083600.445000", "083600.447000", "083600.450000", "083600.453000", "083600.456000", "083600.458000", "083600.461000", "083600.463000", "083600.466000", "083600.469000", "083600.471000", "083600.474000", "083600.476000", "083600.479000", "083600.481000", "083600.484000", "083600.486000", "083600.489000", "083625.432000", "083625.435000", "083625.438000", "083625.441000", "083625.443000", "083625.446000", "083625.449000", "083625.451000", "083625.454000", "083625.456000", "083625.459000", "083625.463000", "083625.468000"],
      "InstanceCreationTime": ["083040.446000", "083040.449000", "083040.452000", "083040.454000", "083040.457000", "083040.459000", "083040.462000", "083040.465000", "083040.468000", "083040.470000", "083040.473000", "083040.475000", "083040.478000", "083040.480000", "083040.483000", "083040.485000", "083040.488000", "083040.490000", "083040.493000", "083040.495000", "083040.498000", "083040.501000", "083040.503000", "083040.506000", "083040.508000", "083040.511000", "083040.521000", "083120.440000", "083120.442000", "083120.445000", "083120.448000", "083120.450000", "083120.453000", "083120.455000", "083120.458000", "083120.461000", "083120.464000", "083120.466000", "083120.472000", "083120.474000", "083120.477000", "083120.480000", "083120.482000", "083120.485000", "083120.487000", "083120.490000", "083120.493000", "083200.441000", "083200.443000", "083200.446000", "083200.448000", "083200.451000", "083200.453000", "083200.456000", "083200.459000", "083200.462000", "083200.465000", "083200.468000", "083200.470000", "083200.473000", "083200.475000", "083200.478000", "083200.481000", "083200.483000", "083200.486000", "083200.488000", "083200.491000", "083240.439000", "083240.442000", "083240.445000", "083240.447000", "083240.450000", "083240.453000", "083240.455000", "083240.458000", "083240.461000", "083240.463000", "083240.466000", "083240.468000", "083240.471000", "083240.473000", "083240.688000", "083240.691000", "083240.694000", "083240.696000", "083240.699000", "083240.701000", "083320.440000", "083320.442000", "083320.445000", "083320.447000", "083320.450000", "083320.453000", "083320.456000", "083320.458000", "083320.461000", "083320.463000", "083320.466000", "083320.468000", "083320.471000", "083320.473000", "083320.476000", "083320.478000", "083320.481000", "083320.484000", "083320.486000", "083320.489000", "083400.441000", "083400.443000", "083400.446000", "083400.448000", "083400.451000", "083400.454000", "083400.457000", "083400.459000", "083400.462000", "083400.465000", "083400.467000", "083400.470000", "083400.472000", "083400.475000", "083400.477000", "083400.480000", "083400.482000", "083400.485000", "083400.488000", "083400.490000", "083440.441000", "083440.443000", "083440.446000", "083440.449000", "083440.451000", "083440.455000", "083440.457000", "083440.460000", "083440.462000", "083440.465000", "083440.468000", "083440.470000", "083440.473000", "083440.475000", "083440.478000", "083440.480000", "083440.483000", "083440.486000", "083440.488000", "083440.491000", "083520.440000", "083520.442000", "083520.445000", "083520.448000", "083520.450000", "083520.454000", "083520.457000", "083520.459000", "083520.462000", "083520.464000", "083520.467000", "083520.469000", "083520.472000", "083520.474000", "083520.477000", "083520.480000", "083520.482000", "083520.485000", "083520.487000", "083520.495000", "083600.439000", "083600.442000", "083600.445000", "083600.447000", "083600.450000", "083600.453000", "083600.456000", "083600.458000", "083600.461000", "083600.463000", "083600.466000", "083600.469000", "083600.471000", "083600.474000", "083600.476000", "083600.479000", "083600.481000", "083600.484000", "083600.486000", "083600.489000", "083625.432000", "083625.435000", "083625.438000", "083625.441000", "083625.443000", "083625.446000", "083625.449000", "083625.451000", "083625.454000", "083625.456000", "083625.459000", "083625.463000", "083625.468000"],
      "InstanceNumber": [1, 2, 3, 4, 5, 6, 7, 8, 9, 10, 11, 12, 13, 14, 15, 16, 17, 18, 19, 20, 21, 22, 23, 24, 25, 26, 27, 28, 29, 30, 31, 32, 33, 34, 35, 36, 37, 38, 39, 40, 41, 42, 43, 44, 45, 46, 47, 48, 49, 50, 51, 52, 53, 54, 55, 56, 57, 58, 59, 60, 61, 62, 63, 64, 65, 66, 67, 68, 69, 70, 71, 72, 73, 74, 75, 76, 77, 78, 79, 80, 81, 82, 83, 84, 85, 86, 87, 88, 89, 90, 91, 92, 93, 94, 95, 96, 97, 98, 99, 100, 101, 102, 103, 104, 105, 106, 107, 108, 109, 110, 111, 112, 113, 114, 115, 116, 117, 118, 119, 120, 121, 122, 123, 124, 125, 126, 127, 128, 129, 130, 131, 132, 133, 134, 135, 136, 137, 138, 139, 140, 141, 142, 143, 144, 145, 146, 147, 148, 149, 150, 151, 152, 153, 154, 155, 156, 157, 158, 159, 160, 161, 162, 163, 164, 165, 166, 167, 168, 169, 170, 171, 172, 173, 174, 175, 176, 177, 178, 179, 180, 181, 182, 183, 184, 185, 186, 187, 188, 189, 190, 191, 192, 193, 194, 195, 196, 197, 198, 199, 200],
      "LargestImagePixelValue": [3701, 3710, 3715, 3720, 3720, 3731, 3736, 3715, 3718, 3720, 3717, 3720, 3718, 3730, 3716, 3715, 3714, 3711, 3727, 3733, 3734, 3740, 3722, 3730, 3716, 3708, 3706, 3705, 3702, 3702, 3720, 3725, 3707, 3710, 3707, 3714, 3709, 3719, 3732, 3731, 3732, 3717, 3718, 3717, 3715, 3732, 3732, 3729, 3732, 3725, 3727, 3732, 3759, 3733, 3739, 3734, 3742, 3734, 3745, 3747, 3744, 3748, 3740, 3750, 3745, 3726, 3731, 3729, 3734, 3736, 3734, 3732, 3729, 3738, 3745, 3741, 3735, 3733, 3736, 3719, 3730, 3732, 3724, 3734, 3727, 3740, 3734, 3747, 3740, 3732, 3741, 3753, 3741, 3742, 3740, 3744, 3721, 3738, 3735, 3735, 3739, 3729, 3729, 3724, 3729, 3731, 3732, 3733, 3741, 3730, 3741, 3741, 3750, 3753, 3746, 3732, 3740, 3717, 3730, 3738, 3730, 3730, 3730, 3725, 3740, 3723, 3724, 3746, 3735, 3738, 3738, 3738, 3732, 3734, 3736, 3743, 3753, 3748, 3736, 3751, 3741, 3730, 3745, 3746, 3752, 3746, 3741, 3740, 3737, 3741, 3748, 3731, 3740, 3745, 3737, 3747, 3750, 3738, 3749, 3735, 3741, 3739, 3736, 3745, 3743, 3734, 3733, 3732, 3747, 3749, 3747, 3748, 3731, 3752, 3744, 3754, 3744, 3746, 3743, 3741, 3743, 3743, 3754, 3738, 3734, 3739, 3736, 3742, 3741, 3739, 3737, 3737, 3732, 3750, 3734, 3737, 3733, 3740, 3733, 3736],
      "WindowCenter": [1429.0, 1429.0, 1429.0, 1429.0, 1429.0, 1429.0, 1429.0, 1428.0, 1428.0, 1428.0, 1428.0, 1428.0, 1428.0, 1427.0, 1427.0, 1427.0, 1427.0, 1428.0, 1428.0, 1428.0, 1427.0, 1427.0, 1427.0, 1427.0, 1426.0, 1427.0, 1427.0, 1427.0, 1427.0, 1427.0, 1428.0, 1428.0, 1427.0, 1426.0, 1428.0, 1426.0, 1427.0, 1427.0, 1427.0, 1426.0, 1427.0, 1427.0, 1427.0, 1427.0, 1427.0, 1427.0, 1427.0, 1426.0, 1426.0, 1427.0, 1427.0, 1426.0, 1426.0, 1426.0, 1426.0, 1427.0, 1426.0, 1427.0, 1426.0, 1426.0, 1426.0, 1427.0, 1426.0, 1426.0, 1427.0, 1427.0, 1427.0, 1426.0, 1427.0, 1426.0, 1426.0, 1427.0, 1427.0, 1426.0, 1426.0, 1426.0, 1426.0, 1427.0, 1426.0, 1426.0, 1426.0, 1426.0, 1426.0, 1426.0, 1426.0, 1426.0, 1426.0, 1426.0, 1427.0, 1427.0, 1426.0, 1426.0, 1426.0, 1426.0, 1426.0, 1426.0, 1426.0, 1426.0, 1426.0, 1425.0, 1426.0, 1426.0, 1425.0, 1425.0, 1426.0, 1426.0, 1426.0, 1425.0, 1426.0, 1426.0, 1425.0, 1426.0, 1426.0, 1426.0, 1426.0, 1425.0, 1426.0, 1425.0, 1426.0, 1425.0, 1425.0, 1425.0, 1424.0, 1425.0, 1424.0, 1425.0, 1425.0, 1425.0, 1425.0, 1425.0, 1425.0, 1424.0, 1425.0, 1425.0, 1425.0, 1425.0, 1425.0, 1425.0, 1425.0, 1425.0, 1425.0, 1424.0, 1425.0, 1425.0, 1425.0, 1425.0, 1426.0, 1425.0, 1425.0, 1425.0, 1425.0, 1425.0, 1424.0, 1425.0, 1425.0, 1425.0, 1425.0, 1425.0, 1424.0, 1425.0, 1424.0, 1425.0, 1425.0, 1425.0, 1424.0, 1424.0, 1424.0, 1423.0, 1424.0, 1424.0, 1424.0, 1424.0, 1425.0, 1424.0, 1425.0, 1424.0, 1424.0, 1424.0, 1424.0, 1424.0, 1424.0, 1424.0, 1424.0, 1424.0, 1424.0, 1424.0, 1424.0, 1424.0, 1424.0, 1423.0, 1423.0, 1424.0, 1423.0, 1424.0, 1424.0, 1423.0, 1423.0, 1424.0, 1424.0, 1424.0],
      "WindowWidth": [3297.0, 3296.0, 3296.0, 3295.0, 3295.0, 3295.0, 3295.0, 3295.0, 3295.0, 3295.0, 3295.0, 3295.0, 3295.0, 3295.0, 3295.0, 3295.0, 3295.0, 3294.0, 3294.0, 3294.0, 3295.0, 3295.0, 3295.0, 3294.0, 3295.0, 3294.0, 3294.0, 3294.0, 3294.0, 3294.0, 3294.0, 3294.0, 3294.0, 3294.0, 3294.0, 3294.0, 3294.0, 3294.0, 3294.0, 3294.0, 3293.0, 3293.0, 3294.0, 3293.0, 3294.0, 3293.0, 3293.0, 3293.0, 3293.0, 3293.0, 3293.0, 3293.0, 3293.0, 3293.0, 3293.0, 3293.0, 3293.0, 3293.0, 3293.0, 3293.0, 3293.0, 3293.0, 3293.0, 3293.0, 3293.0, 3293.0, 3293.0, 3293.0, 3293.0, 3293.0, 3293.0, 3293.0, 3293.0, 3293.0, 3293.0, 3293.0, 3293.0, 3293.0, 3293.0, 3293.0, 3293.0, 3293.0, 3293.0, 3293.0, 3293.0, 3292.0, 3293.0, 3293.0, 3292.0, 3292.0, 3293.0, 3292.0, 3293.0, 3292.0, 3292.0, 3292.0, 3292.0, 3292.0, 3292.0, 3292.0, 3292.0, 3292.0, 3292.0, 3292.0, 3292.0, 3292.0, 3292.0, 3293.0, 3292.0, 3292.0, 3293.0, 3292.0, 3292.0, 3292.0, 3292.0, 3292.0, 3292.0, 3292.0, 3292.0, 3292.0, 3292.0, 3292.0, 3292.0, 3292.0, 3292.0, 3292.0, 3293.0, 3292.0, 3292.0, 3292.0, 3292.0, 3292.0, 3292.0, 3292.0, 3292.0, 3292.0, 3292.0, 3292.0, 3292.0, 3292.0, 3292.0, 3292.0, 3292.0, 3292.0, 3292.0, 3292.0, 3292.0, 3292.0, 3292.0, 3292.0, 3292.0, 3292.0, 3292.0, 3292.0, 3292.0, 3292.0, 3292.0, 3292.0, 3292.0, 3292.0, 3292.0, 3292.0, 3292.0, 3291.0, 3292.0, 3292.0, 3292.0, 3292.0, 3292.0, 3292.0, 3292.0, 3292.0, 3291.0, 3292.0, 3291.0, 3292.0, 3292.0, 3292.0, 3292.0, 3292.0, 3292.0, 3292.0, 3292.0, 3292.0, 3291.0, 3292.0, 3291.0, 3291.0, 3291.0, 3292.0, 3292.0, 3292.0, 3292.0, 3291.0, 3292.0, 3292.0, 3292.0, 3292.0, 3292.0, 3292.0]
    },
    "slices": {}
  }
}