{
  "AcquisitionMatrixPE": 80,
  "AcquisitionNumber": 1,
  "AcquisitionTime": "08:36:34.537500",
  "BandwidthPerPixelPhaseEncode": 25,
  "BaseResolution": 80,
  "BodyPartExamined": "BRAIN",
  "CoilCombinationMethod": "Sum of Squares",
  "ConsistencyInfo": "N4_VE11C_LATEST_20160120",
  "ConversionSoftware": "dcm2niix",
  "ConversionSoftwareVersion": "v1.0.20220720",
  "DerivedVendorReportedEchoSpacing": 0.0005,
  "DeviceSerialNumber": "66112",
  "DwellTime": 2.7e-06,
  "EchoTime": 0.03,
  "EchoTrainLength": 80,
  "EffectiveEchoSpacing": 0.0005,
  "FlipAngle": 77,
  "HeudiconvVersion": "0.13.1",
  "ImageOrientationPatientDICOM": [0.995406, 0.0955941, 0.00540237, -0.0925163, 0.945757, 0.311423],
  "ImageOrientationText": "Tra>Cor(18.1)>Sag(-1.4)",
  "ImageType": [
    "ORIGINAL",
    "PRIMARY",
    "M",
    "ND",
    "NORM",
    "MOSAIC"
],
  "ImagingFrequency": 123.252,
  "InPlanePhaseEncodingDirectionDICOM": "COL",
  "InstitutionAddress": "Maynard 3,Hanover,NH,US,03755",
  "InstitutionName": "Dartmouth College - PBS",
  "InstitutionalDepartmentName": "Department",
  "MRAcquisitionType": "2D",
  "MagneticFieldStrength": 3,
  "Manufacturer": "Siemens",
  "ManufacturersModelName": "Prisma",
  "MatrixCoilMode": "SENSE",
  "Modality": "MR",
  "NonlinearGradientCorrection": false,
  "PartialFourier": 1,
  "PatientPosition": "HFS",
  "PercentPhaseFOV": 100,
  "PercentSampling": 100,
  "PhaseEncodingDirection": "j-",
  "PhaseEncodingSteps": 80,
  "PhaseResolution": 1,
  "PixelBandwidth": 2315,
  "ProcedureStepDescription": "dbic^QA",
  "ProtocolName": "func-bold_fa-77",
  "PulseSequenceDetails": "%SiemensSeq%\\ep2d_bold",
  "ReceiveCoilActiveElements": "HC1-7;NC1,2",
  "ReceiveCoilName": "HeadNeck_64",
  "ReconMatrixPE": 80,
  "RepetitionTime": 2,
  "SAR": 0.0322833,
  "ScanOptions": "FS",
  "ScanningSequence": "EP",
  "SequenceName": "*epfid2d1_80",
  "SequenceVariant": "SK",
  "SeriesDescription": "func-bold_fa-77",
  "SeriesNumber": 7,
  "ShimSetting": [4139, -7710, -7516, 170, -70, -271, -68, 89],
  "SliceThickness": 3.5,
  "SliceTiming": [0.99, 0, 1.055, 0.065, 1.1225, 0.1325, 1.1875, 0.1975, 1.2525, 0.2625, 1.32, 0.33, 1.385, 0.395, 1.45, 0.4625, 1.5175, 0.5275, 1.5825, 0.5925, 1.65, 0.66, 1.715, 0.725, 1.78, 0.7925, 1.8475, 0.8575, 1.9125, 0.9225],
  "SoftwareVersions": "syngo MR E11",
  "SpacingBetweenSlices": 3.99,
  "StationName": "AWP66112",
  "TotalReadoutTime": 0.0395,
  "TxRefAmp": 213.387,
  "dcmmeta_affine": [
    [-2.9862172603607178, -0.27754878997802734, -0.09839675575494766, 132.17770385742188],
    [-0.28678226470947266, 2.8372714519500732, 1.2388620376586914, -106.43329620361328],
    [0.016207098960876465, -0.934268057346344, 3.7915220260620117, -14.675640106201172],
    [0.0, 0.0, 0.0, 1.0]
],
  "dcmmeta_reorient_transform": [
    [0.0, -1.0, 0.0, 79.0],
    [1.0, 0.0, 0.0, 0.0],
    [0.0, 0.0, 1.0, 0.0],
    [0.0, 0.0, 0.0, 1.0]
],
  "dcmmeta_shape": [80, 80, 30, 200],
  "dcmmeta_slice_dim": 2,
  "dcmmeta_version": 0.6,
  "global": {
    "const": {
      "AccessionNumber": "qa64",
      "AcquisitionMatrix": [80, 0, 0, 80],
      "AngioFlag": "N",
      "BitsAllocated": 16,
      "BitsStored": 12,
      "BodyPartExamined": "BRAIN",
      "Columns": 480,
      "EchoNumbers": 1,
      "EchoTime": 30.0,
      "EchoTrainLength": 80,
      "FlipAngle": 77.0,
      "HighBit": 11,
      "ImageOrientationPatient": [0.99540573865149, 0.09559408924284, 0.00540236628919, -0.0925162600969, 0.94575718575514, 0.3114226825557],
      "ImagePositionPatient": [-651.9850438954, -742.52192426991, -278.57784513536],
      "ImageType": [
        "ORIGINAL",
        "PRIMARY",
        "M",
        "ND",
        "NORM",
        "MOSAIC"
],
      "ImagedNucleus": "1H",
      "ImagingFrequency": 123.252363,
      "InPlanePhaseEncodingDirection": "COL",
      "MRAcquisitionType": "2D",
      "MagneticFieldStrength": 3.0,
      "Manufacturer": "SIEMENS",
      "ManufacturerModelName": "Prisma",
      "Modality": "MR",
      "NumberOfAverages": 1.0,
      "NumberOfPhaseEncodingSteps": 80,
      "PercentPhaseFieldOfView": 100.0,
      "PercentSampling": 100.0,
      "PerformedProcedureStepStartTime": "082808.930000",
      "PhotometricInterpretation": "MONOCHROME2",
      "PixelBandwidth": 2315.0,
      "PixelRepresentation": 0,
      "PixelSpacing": [3.0, 3.0],
      "ProtocolName": "func-bold_fa-77",
      "RepetitionTime": 2000.0,
      "Rows": 480,
      "SAR": 0.03228333585624,
      "SamplesPerPixel": 1,
      "ScanOptions": "FS",
      "ScanningSequence": "EP",
      "SequenceName": "*epfid2d1_80",
      "SequenceVariant": "SK",
      "SeriesDescription": "func-bold_fa-77",
      "SeriesNumber": 7,
      "SeriesTime": "083700.514000",
      "SliceLocation": -50.251888269402,
      "SliceThickness": 3.5,
      "SmallestImagePixelValue": 0,
      "SoftwareVersions": "syngo MR E11",
      "SpacingBetweenSlices": 3.9899999376228,
      "SpecificCharacterSet": "ISO_IR 100",
      "StudyID": "6",
      "StudyTime": "082808.857000",
      "TransmitCoilName": "Body",
      "VariableFlipAngleFlag": "N",
      "WindowCenterWidthExplanation": "Algo1",
      "dBdt": 0.0},
    "slices": {}
  },
  "time": {
    "samples": {
      "AcquisitionNumber": [1, 2, 3, 4, 5, 6, 7, 8, 9, 10, 11, 12, 13, 14, 15, 16, 17, 18, 19, 20, 21, 22, 23, 24, 25, 26, 27, 28, 29, 30, 31, 32, 33, 34, 35, 36, 37, 38, 39, 40, 41, 42, 43, 44, 45, 46, 47, 48, 49, 50, 51, 52, 53, 54, 55, 56, 57, 58, 59, 60, 61, 62, 63, 64, 65, 66, 67, 68, 69, 70, 71, 72, 73, 74, 75, 76, 77, 78, 79, 80, 81, 82, 83, 84, 85, 86, 87, 88, 89, 90, 91, 92, 93, 94, 95, 96, 97, 98, 99, 100, 101, 102, 103, 104, 105, 106, 107, 108, 109, 110, 111, 112, 113, 114, 115, 116, 117, 118, 119, 120, 121, 122, 123, 124, 125, 126, 127, 128, 129, 130, 131, 132, 133, 134, 135, 136, 137, 138, 139, 140, 141, 142, 143, 144, 145, 146, 147, 148, 149, 150, 151, 152, 153, 154, 155, 156, 157, 158, 159, 160, 161, 162, 163, 164, 165, 166, 167, 168, 169, 170, 171, 172, 173, 174, 175, 176, 177, 178, 179, 180, 181, 182, 183, 184, 185, 186, 187, 188, 189, 190, 191, 192, 193, 194, 195, 196, 197, 198, 199, 200],
      "AcquisitionTime": ["083634.537500", "083636.537500", "083638.537500", "083640.537500", "083642.537500", "083644.537500", "083646.537500", "083648.537500", "083650.537500", "083652.537500", "083654.537500", "083656.537500", "083658.537500", "083700.537500", "083702.537500", "083704.537500", "083706.537500", "083708.537500", "083710.537500", "083712.537500", "083714.537500", "083716.537500", "083718.537500", "083720.537500", "083722.537500", "083724.537500", "083726.537500", "083728.537500", "083730.537500", "083732.537500", "083734.537500", "083736.537500", "083738.537500", "083740.537500", "083742.537500", "083744.537500", "083746.537500", "083748.537500", "083750.537500", "083752.537500", "083754.537500", "083756.537500", "083758.537500", "083800.537500", "083802.537500", "083804.537500", "083806.537500", "083808.537500", "083810.537500", "083812.537500", "083814.537500", "083816.537500", "083818.537500", "083820.537500", "083822.537500", "083824.537500", "083826.537500", "083828.537500", "083830.537500", "083832.537500", "083834.537500", "083836.537500", "083838.537500", "083840.537500", "083842.537500", "083844.537500", "083846.537500", "083848.537500", "083850.537500", "083852.537500", "083854.537500", "083856.537500", "083858.537500", "083900.537500", "083902.537500", "083904.537500", "083906.537500", "083908.537500", "083910.537500", "083912.537500", "083914.537500", "083916.537500", "083918.537500", "083920.537500", "083922.537500", "083924.537500", "083926.537500", "083928.537500", "083930.537500", "083932.537500", "083934.537500", "083936.537500", "083938.537500", "083940.537500", "083942.537500", "083944.537500", "083946.537500", "083948.537500", "083950.537500", "083952.537500", "083954.537500", "083956.537500", "083958.537500", "084000.537500", "084002.537500", "084004.537500", "084006.537500", "084008.537500", "084010.537500", "084012.537500", "084014.537500", "084016.537500", "084018.537500", "084020.537500", "084022.537500", "084024.537500", "084026.537500", "084028.537500", "084030.537500", "084032.537500", "084034.537500", "084036.537500", "084038.537500", "084040.537500", "084042.537500", "084044.537500", "084046.537500", "084048.537500", "084050.537500", "084052.537500", "084054.537500", "084056.537500", "084058.537500", "084100.537500", "084102.537500", "084104.537500", "084106.537500", "084108.537500", "084110.537500", "084112.537500", "084114.537500", "084116.537500", "084118.537500", "084120.537500", "084122.537500", "084124.537500", "084126.537500", "084128.537500", "084130.537500", "084132.537500", "084134.537500", "084136.537500", "084138.537500", "084140.537500", "084142.537500", "084144.537500", "084146.537500", "084148.537500", "084150.537500", "084152.537500", "084154.537500", "084156.537500", "084158.537500", "084200.537500", "084202.537500", "084204.537500", "084206.537500", "084208.537500", "084210.537500", "084212.537500", "084214.537500", "084216.537500", "084218.537500", "084220.537500", "084222.537500", "084224.537500", "084226.537500", "084228.537500", "084230.537500", "084232.537500", "084234.537500", "084236.537500", "084238.537500", "084240.537500", "084242.537500", "084244.537500", "084246.537500", "084248.537500", "084250.537500", "084252.537500", "084254.537500", "084256.537500", "084258.537500", "084300.537500", "084302.537500", "084304.537500", "084306.537500", "084308.537500", "084310.537500", "084312.537500"],
      "ContentTime": ["083700.517000", "083700.521000", "083700.526000", "083700.529000", "083700.536000", "083700.538000", "083700.541000", "083700.543000", "083700.546000", "083700.548000", "083700.551000", "083700.553000", "083700.556000", "083740.512000", "083740.514000", "083740.517000", "083740.520000", "083740.522000", "083740.524000", "083740.527000", "083740.530000", "083740.532000", "083740.534000", "083740.537000", "083740.539000", "083740.542000", "083740.544000", "083740.555000", "083740.558000", "083740.561000", "083740.563000", "083740.566000", "083740.568000", "083820.511000", "083820.514000", "083820.517000", "083820.519000", "083820.522000", "083820.524000", "083820.527000", "083820.529000", "083820.532000", "083820.534000", "083820.537000", "083820.539000", "083820.542000", "083820.545000", "083820.547000", "083820.550000", "083820.552000", "083820.555000", "083820.557000", "083820.560000", "083900.512000", "083900.515000", "083900.518000", "083900.520000", "083900.523000", "083900.525000", "083900.528000", "083900.530000", "083900.533000", "083900.535000", "083900.538000", "083900.540000", "083900.543000", "083900.545000", "083900.548000", "083900.550000", "083900.553000", "083900.555000", "083900.558000", "083900.560000", "083940.512000", "083940.514000", "083940.517000", "083940.519000", "083940.522000", "083940.525000", "083940.527000", "083940.530000", "083940.532000", "083940.535000", "083940.537000", "083940.540000", "083940.542000", "083940.545000", "083940.547000", "083940.550000", "083940.552000", "083940.555000", "083940.557000", "083940.560000", "084020.511000", "084020.514000", "084020.517000", "084020.519000", "084020.522000", "084020.525000", "084020.527000", "084020.533000", "084020.536000", "084020.538000", "084020.541000", "084020.543000", "084020.546000", "084020.548000", "084020.551000", "084020.553000", "084020.556000", "084020.558000", "084020.561000", "084020.563000", "084100.512000", "084100.515000", "084100.518000", "084100.520000", "084100.523000", "084100.525000", "084100.528000", "084100.531000", "084100.533000", "084100.536000", "084100.538000", "084100.541000", "084100.543000", "084100.546000", "084100.548000", "084100.551000", "084100.553000", "084100.556000", "084100.558000", "084100.561000", "084140.512000", "084140.515000", "084140.518000", "084140.520000", "084140.523000", "084140.525000", "084140.528000", "084140.530000", "084140.533000", "084140.535000", "084140.538000", "084140.541000", "084140.543000", "084140.546000", "084140.548000", "084140.551000", "084140.553000", "084140.556000", "084140.558000", "084140.561000", "084220.512000", "084220.514000", "084220.517000", "084220.520000", "084220.522000", "084220.525000", "084220.527000", "084220.530000", "084220.532000", "084220.535000", "084220.537000", "084220.540000", "084220.542000", "084220.545000", "084220.547000", "084220.550000", "084220.552000", "084220.555000", "084220.557000", "084220.560000", "084300.511000", "084300.514000", "084300.517000", "084300.519000", "084300.522000", "084300.524000", "084300.527000", "084300.530000", "084300.532000", "084300.535000", "084300.537000", "084300.540000", "084300.542000", "084300.545000", "084300.547000", "084300.550000", "084300.552000", "084300.555000", "084300.557000", "084300.560000", "084314.290000", "084314.293000", "084314.295000", "084314.298000", "084314.300000", "084314.303000", "084314.306000"],
      "InstanceCreationTime": ["083700.517000", "083700.521000", "083700.526000", "083700.529000", "083700.536000", "083700.538000", "083700.541000", "083700.543000", "083700.546000", "083700.548000", "083700.551000", "083700.553000", "083700.556000", "083740.512000", "083740.514000", "083740.517000", "083740.520000", "083740.522000", "083740.524000", "083740.527000", "083740.530000", "083740.532000", "083740.534000", "083740.537000", "083740.539000", "083740.542000", "083740.544000", "083740.555000", "083740.558000", "083740.561000", "083740.563000", "083740.566000", "083740.568000", "083820.511000", "083820.514000", "083820.517000", "083820.519000", "083820.522000", "083820.524000", "083820.527000", "083820.529000", "083820.532000", "083820.534000", "083820.537000", "083820.539000", "083820.542000", "083820.545000", "083820.547000", "083820.550000", "083820.552000", "083820.555000", "083820.557000", "083820.560000", "083900.512000", "083900.515000", "083900.518000", "083900.520000", "083900.523000", "083900.525000", "083900.528000", "083900.530000", "083900.533000", "083900.535000", "083900.538000", "083900.540000", "083900.543000", "083900.545000", "083900.548000", "083900.550000", "083900.553000", "083900.555000", "083900.558000", "083900.560000", "083940.512000", "083940.514000", "083940.517000", "083940.519000", "083940.522000", "083940.525000", "083940.527000", "083940.530000", "083940.532000", "083940.535000", "083940.537000", "083940.540000", "083940.542000", "083940.545000", "083940.547000", "083940.550000", "083940.552000", "083940.555000", "083940.557000", "083940.560000", "084020.511000", "084020.514000", "084020.517000", "084020.519000", "084020.522000", "084020.525000", "084020.527000", "084020.533000", "084020.536000", "084020.538000", "084020.541000", "084020.543000", "084020.546000", "084020.548000", "084020.551000", "084020.553000", "084020.556000", "084020.558000", "084020.561000", "084020.563000", "084100.512000", "084100.515000", "084100.518000", "084100.520000", "084100.523000", "084100.525000", "084100.528000", "084100.531000", "084100.533000", "084100.536000", "084100.538000", "084100.541000", "084100.543000", "084100.546000", "084100.548000", "084100.551000", "084100.553000", "084100.556000", "084100.558000", "084100.561000", "084140.512000", "084140.515000", "084140.518000", "084140.520000", "084140.523000", "084140.525000", "084140.528000", "084140.530000", "084140.533000", "084140.535000", "084140.538000", "084140.541000", "084140.543000", "084140.546000", "084140.548000", "084140.551000", "084140.553000", "084140.556000", "084140.558000", "084140.561000", "084220.512000", "084220.514000", "084220.517000", "084220.520000", "084220.522000", "084220.525000", "084220.527000", "084220.530000", "084220.532000", "084220.535000", "084220.537000", "084220.540000", "084220.542000", "084220.545000", "084220.547000", "084220.550000", "084220.552000", "084220.555000", "084220.557000", "084220.560000", "084300.511000", "084300.514000", "084300.517000", "084300.519000", "084300.522000", "084300.524000", "084300.527000", "084300.530000", "084300.532000", "084300.535000", "084300.537000", "084300.540000", "084300.542000", "084300.545000", "084300.547000", "084300.550000", "084300.552000", "084300.555000", "084300.557000", "084300.560000", "084314.290000", "084314.293000", "084314.295000", "084314.298000", "084314.300000", "084314.303000", "084314.306000"],
      "InstanceNumber": [1, 2, 3, 4, 5, 6, 7, 8, 9, 10, 11, 12, 13, 14, 15, 16, 17, 18, 19, 20, 21, 22, 23, 24, 25, 26, 27, 28, 29, 30, 31, 32, 33, 34, 35, 36, 37, 38, 39, 40, 41, 42, 43, 44, 45, 46, 47, 48, 49, 50, 51, 52, 53, 54, 55, 56, 57, 58, 59, 60, 61, 62, 63, 64, 65, 66, 67, 68, 69, 70, 71, 72, 73, 74, 75, 76, 77, 78, 79, 80, 81, 82, 83, 84, 85, 86, 87, 88, 89, 90, 91, 92, 93, 94, 95, 96, 97, 98, 99, 100, 101, 102, 103, 104, 105, 106, 107, 108, 109, 110, 111, 112, 113, 114, 115, 116, 117, 118, 119, 120, 121, 122, 123, 124, 125, 126, 127, 128, 129, 130, 131, 132, 133, 134, 135, 136, 137, 138, 139, 140, 141, 142, 143, 144, 145, 146, 147, 148, 149, 150, 151, 152, 153, 154, 155, 156, 157, 158, 159, 160, 161, 162, 163, 164, 165, 166, 167, 168, 169, 170, 171, 172, 173, 174, 175, 176, 177, 178, 179, 180, 181, 182, 183, 184, 185, 186, 187, 188, 189, 190, 191, 192, 193, 194, 195, 196, 197, 198, 199, 200],
      "LargestImagePixelValue": [3712, 3714, 3712, 3712, 3708, 3707, 3713, 3708, 3718, 3711, 3709, 3716, 3714, 3716, 3717, 3714, 3715, 3717, 3712, 3713, 3713, 3713, 3714, 3715, 3715, 3715, 3712, 3719, 3712, 3717, 3714, 3711, 3714, 3711, 3709, 3708, 3708, 3709, 3711, 3714, 3711, 3715, 3722, 3723, 3723, 3726, 3719, 3717, 3717, 3709, 3712, 3715, 3711, 3713, 3708, 3708, 3707, 3710, 3710, 3704, 3707, 3704, 3706, 3705, 3708, 3709, 3705, 3708, 3705, 3703, 3706, 3701, 3707, 3706, 3707, 3708, 3707, 3704, 3706, 3711, 3709, 3706, 3708, 3709, 3711, 3708, 3703, 3710, 3709, 3706, 3707, 3705, 3704, 3705, 3713, 3715, 3719, 3717, 3716, 3717, 3720, 3717, 3726, 3720, 3715, 3715, 3715, 3714, 3717, 3716, 3715, 3713, 3711, 3710, 3716, 3734, 3739, 3727, 3710, 3708, 3708, 3721, 3720, 3720, 3716, 3718, 3712, 3714, 3717, 3719, 3720, 3722, 3724, 3710, 3708, 3705, 3706, 3711, 3725, 3727, 3721, 3715, 3705, 3706, 3705, 3707, 3706, 3714, 3718, 3729, 3729, 3715, 3717, 3708, 3709, 3724, 3728, 3732, 3723, 3709, 3708, 3711, 3721, 3722, 3731, 3721, 3715, 3731, 3731, 3713, 3707, 3698, 3706, 3711, 3713, 3723, 3720, 3715, 3710, 3710, 3708, 3708, 3725, 3747, 3735, 3719, 3716, 3709, 3711, 3716, 3722, 3716, 3716, 3709, 3704, 3710, 3728, 3740, 3730, 3714],
      "WindowCenter": [1355.0, 1354.0, 1355.0, 1355.0, 1355.0, 1355.0, 1355.0, 1355.0, 1354.0, 1354.0, 1355.0, 1354.0, 1354.0, 1354.0, 1354.0, 1354.0, 1354.0, 1354.0, 1354.0, 1354.0, 1354.0, 1354.0, 1354.0, 1354.0, 1354.0, 1353.0, 1354.0, 1354.0, 1354.0, 1353.0, 1354.0, 1354.0, 1354.0, 1354.0, 1354.0, 1354.0, 1354.0, 1354.0, 1354.0, 1353.0, 1354.0, 1353.0, 1353.0, 1354.0, 1353.0, 1353.0, 1353.0, 1353.0, 1352.0, 1353.0, 1353.0, 1353.0, 1353.0, 1353.0, 1353.0, 1353.0, 1353.0, 1353.0, 1353.0, 1353.0, 1353.0, 1352.0, 1353.0, 1353.0, 1353.0, 1353.0, 1353.0, 1352.0, 1353.0, 1352.0, 1352.0, 1352.0, 1352.0, 1353.0, 1353.0, 1352.0, 1353.0, 1352.0, 1352.0, 1352.0, 1352.0, 1352.0, 1353.0, 1352.0, 1352.0, 1352.0, 1352.0, 1352.0, 1352.0, 1352.0, 1352.0, 1352.0, 1352.0, 1352.0, 1352.0, 1351.0, 1352.0, 1352.0, 1351.0, 1351.0, 1351.0, 1351.0, 1351.0, 1351.0, 1351.0, 1352.0, 1351.0, 1352.0, 1352.0, 1351.0, 1351.0, 1351.0, 1351.0, 1351.0, 1352.0, 1352.0, 1352.0, 1351.0, 1351.0, 1351.0, 1351.0, 1351.0, 1351.0, 1351.0, 1351.0, 1351.0, 1351.0, 1351.0, 1351.0, 1351.0, 1351.0, 1351.0, 1351.0, 1351.0, 1351.0, 1351.0, 1351.0, 1351.0, 1351.0, 1351.0, 1351.0, 1351.0, 1351.0, 1351.0, 1350.0, 1350.0, 1351.0, 1350.0, 1350.0, 1351.0, 1351.0, 1351.0, 1351.0, 1351.0, 1350.0, 1351.0, 1351.0, 1350.0, 1350.0, 1350.0, 1350.0, 1350.0, 1350.0, 1350.0, 1350.0, 1350.0, 1350.0, 1350.0, 1350.0, 1350.0, 1350.0, 1350.0, 1350.0, 1350.0, 1350.0, 1350.0, 1350.0, 1350.0, 1350.0, 1350.0, 1350.0, 1350.0, 1350.0, 1350.0, 1350.0, 1350.0, 1349.0, 1350.0, 1349.0, 1350.0, 1350.0, 1349.0, 1349.0, 1350.0, 1349.0, 1349.0, 1350.0, 1351.0, 1350.0, 1350.0],
      "WindowWidth": [3249.0, 3250.0, 3250.0, 3250.0, 3250.0, 3250.0, 3250.0, 3250.0, 3250.0, 3250.0, 3249.0, 3250.0, 3250.0, 3250.0, 3250.0, 3250.0, 3250.0, 3250.0, 3250.0, 3250.0, 3250.0, 3249.0, 3249.0, 3249.0, 3249.0, 3249.0, 3249.0, 3249.0, 3249.0, 3249.0, 3249.0, 3249.0, 3249.0, 3249.0, 3249.0, 3249.0, 3249.0, 3249.0, 3249.0, 3249.0, 3249.0, 3249.0, 3249.0, 3248.0, 3249.0, 3249.0, 3249.0, 3248.0, 3248.0, 3249.0, 3249.0, 3249.0, 3249.0, 3249.0, 3249.0, 3249.0, 3248.0, 3249.0, 3249.0, 3249.0, 3249.0, 3248.0, 3249.0, 3249.0, 3249.0, 3249.0, 3249.0, 3249.0, 3248.0, 3248.0, 3248.0, 3248.0, 3248.0, 3248.0, 3248.0, 3248.0, 3248.0, 3248.0, 3248.0, 3248.0, 3248.0, 3248.0, 3248.0, 3248.0, 3248.0, 3248.0, 3248.0, 3248.0, 3248.0, 3248.0, 3248.0, 3248.0, 3248.0, 3248.0, 3248.0, 3248.0, 3248.0, 3248.0, 3248.0, 3247.0, 3248.0, 3247.0, 3247.0, 3248.0, 3247.0, 3248.0, 3247.0, 3247.0, 3247.0, 3247.0, 3247.0, 3247.0, 3246.0, 3247.0, 3247.0, 3247.0, 3247.0, 3247.0, 3247.0, 3247.0, 3247.0, 3247.0, 3247.0, 3247.0, 3247.0, 3247.0, 3247.0, 3247.0, 3247.0, 3247.0, 3246.0, 3247.0, 3247.0, 3247.0, 3246.0, 3246.0, 3246.0, 3246.0, 3246.0, 3246.0, 3246.0, 3246.0, 3246.0, 3246.0, 3246.0, 3246.0, 3246.0, 3247.0, 3246.0, 3246.0, 3246.0, 3246.0, 3246.0, 3246.0, 3246.0, 3246.0, 3246.0, 3246.0, 3245.0, 3245.0, 3245.0, 3246.0, 3246.0, 3246.0, 3246.0, 3246.0, 3246.0, 3246.0, 3246.0, 3246.0, 3246.0, 3246.0, 3246.0, 3246.0, 3245.0, 3245.0, 3245.0, 3245.0, 3245.0, 3245.0, 3245.0, 3245.0, 3245.0, 3245.0, 3245.0, 3245.0, 3245.0, 3245.0, 3245.0, 3245.0, 3245.0, 3245.0, 3245.0, 3245.0, 3245.0, 3245.0, 3245.0, 3245.0, 3245.0, 3245.0]
    },
    "slices": {}
  }
}