{
  "AcquisitionMatrixPE": 122,
  "AcquisitionNumber": 1,
  "AcquisitionTime": "10:18:17.465000",
  "BandwidthPerPixelPhaseEncode": 27.785,
  "BaseResolution": 122,
  "BodyPartExamined": "BRAIN",
  "CoilCombinationMethod": "Adaptive Combine",
  "ConsistencyInfo": "N4_VE11C_LATEST_20160120",
  "ConversionSoftware": "dcm2niix",
  "ConversionSoftwareVersion": "v1.0.20220720",
  "DerivedVendorReportedEchoSpacing": 0.000590011,
  "DeviceSerialNumber": "66112",
  "DiffusionScheme": "Monopolar",
  "DwellTime": 2e-06,
  "EchoTime": 0.068,
  "EchoTrainLength": 61,
  "EffectiveEchoSpacing": 0.000295005,
  "FlipAngle": 90,
  "HeudiconvVersion": "0.13.1",
  "ImageOrientationPatientDICOM": [0.990907, 0.134246, 0.00901446, -0.130455, 0.942208, 0.308586],
  "ImageOrientationText": "Tra>Cor(17.9)>Sag(-1.9)",
  "ImageType": [
    "ORIGINAL",
    "PRIMARY",
    "DIFFUSION",
    "NONE",
    "ND",
    "NORM"
],
  "ImagingFrequency": 123.252,
  "InPlanePhaseEncodingDirectionDICOM": "COL",
  "InstitutionAddress": "Maynard 3,Hanover,NH,US,03755",
  "InstitutionName": "Dartmouth College - PBS",
  "InstitutionalDepartmentName": "Department",
  "MRAcquisitionType": "2D",
  "MagneticFieldStrength": 3,
  "Manufacturer": "Siemens",
  "ManufacturersModelName": "Prisma",
  "Modality": "MR",
  "MultibandAccelerationFactor": 4,
  "NonlinearGradientCorrection": false,
  "ParallelReductionFactorInPlane": 2,
  "PartialFourier": 1,
  "PatientPosition": "HFS",
  "PercentPhaseFOV": 100,
  "PercentSampling": 100,
  "PhaseEncodingDirection": "j-",
  "PhaseEncodingSteps": 122,
  "PhaseResolution": 1,
  "PixelBandwidth": 2050,
  "ProcedureStepDescription": "dbic^QA",
  "ProtocolName": "dwi_acq-DTI-30-p2-s4",
  "PulseSequenceDetails": "%SiemensSeq%\\ep2d_diff",
  "ReceiveCoilActiveElements": "HEA;HEP",
  "ReceiveCoilName": "Head_32",
  "ReconMatrixPE": 122,
  "RefLinesPE": 38,
  "RepetitionTime": 3.6,
  "SAR": 0.159891,
  "ScanOptions": "FS",
  "ScanningSequence": "EP",
  "SequenceName": "*ep_b0",
  "SequenceVariant": "SK\\SP",
  "SeriesDescription": "dwi_acq-DTI-30-p2-s4",
  "SeriesNumber": 13,
  "ShimSetting": [4143, -7704, -7512, 286, -81, -137, 21, 57],
  "SliceThickness": 2,
  "SliceTiming": [2.58594, 0, 1.78906, 0.19531, 1.98438, 0.39844, 2.1875, 0.59375, 2.38281, 0.99219, 2.78125, 1.19531, 2.98438, 1.39062, 3.17969, 1.58594, 3.38281, 0.79688, 2.58594, 0, 1.78906, 0.19531, 1.98438, 0.39844, 2.1875, 0.59375, 2.38281, 0.99219, 2.78125, 1.19531, 2.98438, 1.39062, 3.17969, 1.58594, 3.38281, 0.79688, 2.58594, 0, 1.78906, 0.19531, 1.98438, 0.39844, 2.1875, 0.59375, 2.38281, 0.99219, 2.78125, 1.19531, 2.98438, 1.39062, 3.17969, 1.58594, 3.38281, 0.79688, 2.58594, 0, 1.78906, 0.19531, 1.98438, 0.39844, 2.1875, 0.59375, 2.38281, 0.99219, 2.78125, 1.19531, 2.98438, 1.39062, 3.17969, 1.58594, 3.38281, 0.79688],
  "SoftwareVersions": "syngo MR E11",
  "SpacingBetweenSlices": 2,
  "SpoilingState": true,
  "StationName": "AWP66112",
  "TotalReadoutTime": 0.0356956,
  "TxRefAmp": 220.418,
  "dcmmeta_affine": [
    [-1.949325442314148, -0.2566334903240204, -0.06586587429046631, 137.2188720703125],
    [-0.264089971780777, 1.8535239696502686, 0.6139144897460938, -105.82430267333984],
    [0.01773335598409176, -0.607055127620697, 1.9023056030273438, -32.053226470947266],
    [0.0, 0.0, 0.0, 1.0]
],
  "dcmmeta_reorient_transform": [
    [0.0, -1.0, 0.0, 121.0],
    [1.0, 0.0, 0.0, 0.0],
    [0.0, 0.0, -1.0, 71.0],
    [0.0, 0.0, 0.0, 1.0]
],
  "dcmmeta_shape": [122, 122, 72, 31],
  "dcmmeta_slice_dim": 2,
  "dcmmeta_version": 0.6,
  "global": {
    "const": {
      "AccessionNumber": "qa",
      "AcquisitionMatrix": [122, 0, 0, 122],
      "AngioFlag": "N",
      "BitsAllocated": 16,
      "BitsStored": 12,
      "BodyPartExamined": "BRAIN",
      "Columns": 122,
      "EchoNumbers": 1,
      "EchoTime": 68.0,
      "EchoTrainLength": 61,
      "FlipAngle": 90.0,
      "HighBit": 11,
      "ImageOrientationPatient": [0.99090707072541, 0.13424573277901, 0.00901445600205, -0.1304553595895, 0.94220797674885, 0.30858633752195],
      "ImageType": [
        "ORIGINAL",
        "PRIMARY",
        "DIFFUSION",
        "NONE",
        "ND",
        "NORM"
],
      "ImagedNucleus": "1H",
      "ImagingFrequency": 123.252327,
      "InPlanePhaseEncodingDirection": "COL",
      "MRAcquisitionType": "2D",
      "MagneticFieldStrength": 3.0,
      "Manufacturer": "SIEMENS",
      "ManufacturerModelName": "Prisma",
      "Modality": "MR",
      "NumberOfAverages": 1.0,
      "NumberOfPhaseEncodingSteps": 122,
      "PercentPhaseFieldOfView": 100.0,
      "PercentSampling": 100.0,
      "PerformedProcedureStepStartTime": "094212.217000",
      "PhotometricInterpretation": "MONOCHROME2",
      "PixelBandwidth": 2050.0,
      "PixelRepresentation": 0,
      "PixelSpacing": [1.9672131538391, 1.9672131538391],
      "ProtocolName": "dwi_acq-DTI-30-p2-s4",
      "RepetitionTime": 3600.0,
      "Rows": 122,
      "SAR": 0.15989060123435,
      "SamplesPerPixel": 1,
      "ScanOptions": "FS",
      "ScanningSequence": "EP",
      "SequenceVariant": [
        "SK",
        "SP"
],
      "SeriesDescription": "dwi_acq-DTI-30-p2-s4",
      "SeriesNumber": 13,
      "SeriesTime": "101826.351000",
      "SliceThickness": 2.0,
      "SmallestImagePixelValue": 0,
      "SoftwareVersions": "syngo MR E11",
      "SpacingBetweenSlices": 2.0,
      "SpecificCharacterSet": "ISO_IR 100",
      "StudyID": "2",
      "StudyTime": "094212.171000",
      "TransmitCoilName": "Body",
      "VariableFlipAngleFlag": "N",
      "WindowCenterWidthExplanation": "Algo1",
      "dBdt": 0.0},
    "slices": {
      "AcquisitionTime": ["101817.465000", "101814.880000", "101816.670000", "101815.080000", "101816.870000", "101815.277500", "101817.067500", "101815.477500", "101817.267500", "101815.875000", "101817.665000", "101816.075000", "101817.865000", "101816.272500", "101818.062500", "101816.472500", "101818.262500", "101815.677500", "101817.465000", "101814.880000", "101816.670000", "101815.080000", "101816.870000", "101815.277500", "101817.067500", "101815.477500", "101817.267500", "101815.875000", "101817.665000", "101816.075000", "101817.865000", "101816.272500", "101818.062500", "101816.472500", "101818.262500", "101815.677500", "101817.465000", "101814.880000", "101816.670000", "101815.080000", "101816.870000", "101815.277500", "101817.067500", "101815.477500", "101817.267500", "101815.875000", "101817.665000", "101816.075000", "101817.865000", "101816.272500", "101818.062500", "101816.472500", "101818.262500", "101815.677500", "101817.465000", "101814.880000", "101816.670000", "101815.080000", "101816.870000", "101815.277500", "101817.067500", "101815.477500", "101817.267500", "101815.875000", "101817.665000", "101816.075000", "101817.865000", "101816.272500", "101818.062500", "101816.472500", "101818.262500", "101815.677500", "101821.065000", "101818.480000", "101820.270000", "101818.680000", "101820.470000", "101818.877500", "101820.667500", "101819.077500", "101820.867500", "101819.475000", "101821.265000", "101819.675000", "101821.465000", "101819.872500", "101821.662500", "101820.072500", "101821.862500", "101819.277500", "101821.065000", "101818.480000", "101820.270000", "101818.680000", "101820.470000", "101818.877500", "101820.667500", "101819.077500", "101820.867500", "101819.475000", "101821.265000", "101819.675000", "101821.465000", "101819.872500", "101821.662500", "101820.072500", "101821.862500", "101819.277500", "101821.065000", "101818.480000", "101820.270000", "101818.680000", "101820.470000", "101818.877500", "101820.667500", "101819.077500", "101820.867500", "101819.475000", "101821.265000", "101819.675000", "101821.465000", "101819.872500", "101821.662500", "101820.072500", "101821.862500", "101819.277500", "101821.065000", "101818.480000", "101820.270000", "101818.680000", "101820.470000", "101818.877500", "101820.667500", "101819.077500", "101820.867500", "101819.475000", "101821.265000", "101819.675000", "101821.465000", "101819.872500", "101821.662500", "101820.072500", "101821.862500", "101819.277500", "101824.665000", "101822.080000", "101823.870000", "101822.280000", "101824.070000", "101822.477500", "101824.267500", "101822.677500", "101824.467500", "101823.075000", "101824.865000", "101823.275000", "101825.065000", "101823.472500", "101825.262500", "101823.672500", "101825.462500", "101822.877500", "101824.665000", "101822.080000", "101823.870000", "101822.280000", "101824.070000", "101822.477500", "101824.267500", "101822.677500", "101824.467500", "101823.075000", "101824.865000", "101823.275000", "101825.065000", "101823.472500", "101825.262500", "101823.672500", "101825.462500", "101822.877500", "101824.665000", "101822.080000", "101823.870000", "101822.280000", "101824.070000", "101822.477500", "101824.267500", "101822.677500", "101824.467500", "101823.075000", "101824.865000", "101823.275000", "101825.065000", "101823.472500", "101825.262500", "101823.672500", "101825.462500", "101822.877500", "101824.665000", "101822.080000", "101823.870000", "101822.280000", "101824.070000", "101822.477500", "101824.267500", "101822.677500", "101824.467500", "101823.075000", "101824.865000", "101823.275000", "101825.065000", "101823.472500", "101825.262500", "101823.672500", "101825.462500", "101822.877500", "101828.265000", "101825.680000", "101827.470000", "101825.880000", "101827.670000", "101826.077500", "101827.867500", "101826.277500", "101828.067500", "101826.675000", "101828.465000", "101826.875000", "101828.665000", "101827.072500", "101828.862500", "101827.272500", "101829.062500", "101826.477500", "101828.265000", "101825.680000", "101827.470000", "101825.880000", "101827.670000", "101826.077500", "101827.867500", "101826.277500", "101828.067500", "101826.675000", "101828.465000", "101826.875000", "101828.665000", "101827.072500", "101828.862500", "101827.272500", "101829.062500", "101826.477500", "101828.265000", "101825.680000", "101827.470000", "101825.880000", "101827.670000", "101826.077500", "101827.867500", "101826.277500", "101828.067500", "101826.675000", "101828.465000", "101826.875000", "101828.665000", "101827.072500", "101828.862500", "101827.272500", "101829.062500", "101826.477500", "101828.265000", "101825.680000", "101827.470000", "101825.880000", "101827.670000", "101826.077500", "101827.867500", "101826.277500", "101828.067500", "101826.675000", "101828.465000", "101826.875000", "101828.665000", "101827.072500", "101828.862500", "101827.272500", "101829.062500", "101826.477500", "101831.865000", "101829.280000", "101831.070000", "101829.480000", "101831.270000", "101829.677500", "101831.467500", "101829.877500", "101831.667500", "101830.275000", "101832.065000", "101830.475000", "101832.265000", "101830.672500", "101832.462500", "101830.872500", "101832.662500", "101830.077500", "101831.865000", "101829.280000", "101831.070000", "101829.480000", "101831.270000", "101829.677500", "101831.467500", "101829.877500", "101831.667500", "101830.275000", "101832.065000", "101830.475000", "101832.265000", "101830.672500", "101832.462500", "101830.872500", "101832.662500", "101830.077500", "101831.865000", "101829.280000", "101831.070000", "101829.480000", "101831.270000", "101829.677500", "101831.467500", "101829.877500", "101831.667500", "101830.275000", "101832.065000", "101830.475000", "101832.265000", "101830.672500", "101832.462500", "101830.872500", "101832.662500", "101830.077500", "101831.865000", "101829.280000", "101831.070000", "101829.480000", "101831.270000", "101829.677500", "101831.467500", "101829.877500", "101831.667500", "101830.275000", "101832.065000", "101830.475000", "101832.265000", "101830.672500", "101832.462500", "101830.872500", "101832.662500", "101830.077500", "101835.465000", "101832.880000", "101834.670000", "101833.080000", "101834.870000", "101833.277500", "101835.067500", "101833.477500", "101835.267500", "101833.875000", "101835.665000", "101834.075000", "101835.865000", "101834.272500", "101836.062500", "101834.472500", "101836.262500", "101833.677500", "101835.465000", "101832.880000", "101834.670000", "101833.080000", "101834.870000", "101833.277500", "101835.067500", "101833.477500", "101835.267500", "101833.875000", "101835.665000", "101834.075000", "101835.865000", "101834.272500", "101836.062500", "101834.472500", "101836.262500", "101833.677500", "101835.465000", "101832.880000", "101834.670000", "101833.080000", "101834.870000", "101833.277500", "101835.067500", "101833.477500", "101835.267500", "101833.875000", "101835.665000", "101834.075000", "101835.865000", "101834.272500", "101836.062500", "101834.472500", "101836.262500", "101833.677500", "101835.465000", "101832.880000", "101834.670000", "101833.080000", "101834.870000", "101833.277500", "101835.067500", "101833.477500", "101835.267500", "101833.875000", "101835.665000", "101834.075000", "101835.865000", "101834.272500", "101836.062500", "101834.472500", "101836.262500", "101833.677500", "101839.065000", "101836.480000", "101838.270000", "101836.680000", "101838.470000", "101836.877500", "101838.667500", "101837.077500", "101838.867500", "101837.475000", "101839.265000", "101837.675000", "101839.465000", "101837.872500", "101839.662500", "101838.072500", "101839.862500", "101837.277500", "101839.065000", "101836.480000", "101838.270000", "101836.680000", "101838.470000", "101836.877500", "101838.667500", "101837.077500", "101838.867500", "101837.475000", "101839.265000", "101837.675000", "101839.465000", "101837.872500", "101839.662500", "101838.072500", "101839.862500", "101837.277500", "101839.065000", "101836.480000", "101838.270000", "101836.680000", "101838.470000", "101836.877500", "101838.667500", "101837.077500", "101838.867500", "101837.475000", "101839.265000", "101837.675000", "101839.465000", "101837.872500", "101839.662500", "101838.072500", "101839.862500", "101837.277500", "101839.065000", "101836.480000", "101838.270000", "101836.680000", "101838.470000", "101836.877500", "101838.667500", "101837.077500", "101838.867500", "101837.475000", "101839.265000", "101837.675000", "101839.465000", "101837.872500", "101839.662500", "101838.072500", "101839.862500", "101837.277500", "101842.665000", "101840.080000", "101841.870000", "101840.280000", "101842.070000", "101840.477500", "101842.267500", "101840.677500", "101842.467500", "101841.075000", "101842.865000", "101841.275000", "101843.065000", "101841.472500", "101843.262500", "101841.672500", "101843.462500", "101840.877500", "101842.665000", "101840.080000", "101841.870000", "101840.280000", "101842.070000", "101840.477500", "101842.267500", "101840.677500", "101842.467500", "101841.075000", "101842.865000", "101841.275000", "101843.065000", "101841.472500", "101843.262500", "101841.672500", "101843.462500", "101840.877500", "101842.665000", "101840.080000", "101841.870000", "101840.280000", "101842.070000", "101840.477500", "101842.267500", "101840.677500", "101842.467500", "101841.075000", "101842.865000", "101841.275000", "101843.065000", "101841.472500", "101843.262500", "101841.672500", "101843.462500", "101840.877500", "101842.665000", "101840.080000", "101841.870000", "101840.280000", "101842.070000", "101840.477500", "101842.267500", "101840.677500", "101842.467500", "101841.075000", "101842.865000", "101841.275000", "101843.065000", "101841.472500", "101843.262500", "101841.672500", "101843.462500", "101840.877500", "101846.265000", "101843.680000", "101845.470000", "101843.880000", "101845.670000", "101844.077500", "101845.867500", "101844.277500", "101846.067500", "101844.675000", "101846.465000", "101844.875000", "101846.665000", "101845.072500", "101846.862500", "101845.272500", "101847.062500", "101844.477500", "101846.265000", "101843.680000", "101845.470000", "101843.880000", "101845.670000", "101844.077500", "101845.867500", "101844.277500", "101846.067500", "101844.675000", "101846.465000", "101844.875000", "101846.665000", "101845.072500", "101846.862500", "101845.272500", "101847.062500", "101844.477500", "101846.265000", "101843.680000", "101845.470000", "101843.880000", "101845.670000", "101844.077500", "101845.867500", "101844.277500", "101846.067500", "101844.675000", "101846.465000", "101844.875000", "101846.665000", "101845.072500", "101846.862500", "101845.272500", "101847.062500", "101844.477500", "101846.265000", "101843.680000", "101845.470000", "101843.880000", "101845.670000", "101844.077500", "101845.867500", "101844.277500", "101846.067500", "101844.675000", "101846.465000", "101844.875000", "101846.665000", "101845.072500", "101846.862500", "101845.272500", "101847.062500", "101844.477500", "101849.865000", "101847.280000", "101849.070000", "101847.480000", "101849.270000", "101847.677500", "101849.467500", "101847.877500", "101849.667500", "101848.275000", "101850.065000", "101848.475000", "101850.265000", "101848.672500", "101850.462500", "101848.872500", "101850.662500", "101848.077500", "101849.865000", "101847.280000", "101849.070000", "101847.480000", "101849.270000", "101847.677500", "101849.467500", "101847.877500", "101849.667500", "101848.275000", "101850.065000", "101848.475000", "101850.265000", "101848.672500", "101850.462500", "101848.872500", "101850.662500", "101848.077500", "101849.865000", "101847.280000", "101849.070000", "101847.480000", "101849.270000", "101847.677500", "101849.467500", "101847.877500", "101849.667500", "101848.275000", "101850.065000", "101848.475000", "101850.265000", "101848.672500", "101850.462500", "101848.872500", "101850.662500", "101848.077500", "101849.865000", "101847.280000", "101849.070000", "101847.480000", "101849.270000", "101847.677500", "101849.467500", "101847.877500", "101849.667500", "101848.275000", "101850.065000", "101848.475000", "101850.265000", "101848.672500", "101850.462500", "101848.872500", "101850.662500", "101848.077500", "101853.465000", "101850.880000", "101852.670000", "101851.080000", "101852.870000", "101851.277500", "101853.067500", "101851.477500", "101853.267500", "101851.875000", "101853.665000", "101852.075000", "101853.865000", "101852.272500", "101854.062500", "101852.472500", "101854.262500", "101851.677500", "101853.465000", "101850.880000", "101852.670000", "101851.080000", "101852.870000", "101851.277500", "101853.067500", "101851.477500", "101853.267500", "101851.875000", "101853.665000", "101852.075000", "101853.865000", "101852.272500", "101854.062500", "101852.472500", "101854.262500", "101851.677500", "101853.465000", "101850.880000", "101852.670000", "101851.080000", "101852.870000", "101851.277500", "101853.067500", "101851.477500", "101853.267500", "101851.875000", "101853.665000", "101852.075000", "101853.865000", "101852.272500", "101854.062500", "101852.472500", "101854.262500", "101851.677500", "101853.465000", "101850.880000", "101852.670000", "101851.080000", "101852.870000", "101851.277500", "101853.067500", "101851.477500", "101853.267500", "101851.875000", "101853.665000", "101852.075000", "101853.865000", "101852.272500", "101854.062500", "101852.472500", "101854.262500", "101851.677500", "101857.065000", "101854.480000", "101856.270000", "101854.680000", "101856.470000", "101854.877500", "101856.667500", "101855.077500", "101856.867500", "101855.475000", "101857.265000", "101855.675000", "101857.465000", "101855.872500", "101857.662500", "101856.072500", "101857.862500", "101855.277500", "101857.065000", "101854.480000", "101856.270000", "101854.680000", "101856.470000", "101854.877500", "101856.667500", "101855.077500", "101856.867500", "101855.475000", "101857.265000", "101855.675000", "101857.465000", "101855.872500", "101857.662500", "101856.072500", "101857.862500", "101855.277500", "101857.065000", "101854.480000", "101856.270000", "101854.680000", "101856.470000", "101854.877500", "101856.667500", "101855.077500", "101856.867500", "101855.475000", "101857.265000", "101855.675000", "101857.465000", "101855.872500", "101857.662500", "101856.072500", "101857.862500", "101855.277500", "101857.065000", "101854.480000", "101856.270000", "101854.680000", "101856.470000", "101854.877500", "101856.667500", "101855.077500", "101856.867500", "101855.475000", "101857.265000", "101855.675000", "101857.465000", "101855.872500", "101857.662500", "101856.072500", "101857.862500", "101855.277500", "101900.665000", "101858.080000", "101859.870000", "101858.280000", "101900.070000", "101858.477500", "101900.267500", "101858.677500", "101900.467500", "101859.075000", "101900.865000", "101859.275000", "101901.065000", "101859.472500", "101901.262500", "101859.672500", "101901.462500", "101858.877500", "101900.665000", "101858.080000", "101859.870000", "101858.280000", "101900.070000", "101858.477500", "101900.267500", "101858.677500", "101900.467500", "101859.075000", "101900.865000", "101859.275000", "101901.065000", "101859.472500", "101901.262500", "101859.672500", "101901.462500", "101858.877500", "101900.665000", "101858.080000", "101859.870000", "101858.280000", "101900.070000", "101858.477500", "101900.267500", "101858.677500", "101900.467500", "101859.075000", "101900.865000", "101859.275000", "101901.065000", "101859.472500", "101901.262500", "101859.672500", "101901.462500", "101858.877500", "101900.665000", "101858.080000", "101859.870000", "101858.280000", "101900.070000", "101858.477500", "101900.267500", "101858.677500", "101900.467500", "101859.075000", "101900.865000", "101859.275000", "101901.065000", "101859.472500", "101901.262500", "101859.672500", "101901.462500", "101858.877500", "101904.265000", "101901.680000", "101903.470000", "101901.880000", "101903.670000", "101902.077500", "101903.867500", "101902.277500", "101904.067500", "101902.675000", "101904.465000", "101902.875000", "101904.665000", "101903.072500", "101904.862500", "101903.272500", "101905.062500", "101902.477500", "101904.265000", "101901.680000", "101903.470000", "101901.880000", "101903.670000", "101902.077500", "101903.867500", "101902.277500", "101904.067500", "101902.675000", "101904.465000", "101902.875000", "101904.665000", "101903.072500", "101904.862500", "101903.272500", "101905.062500", "101902.477500", "101904.265000", "101901.680000", "101903.470000", "101901.880000", "101903.670000", "101902.077500", "101903.867500", "101902.277500", "101904.067500", "101902.675000", "101904.465000", "101902.875000", "101904.665000", "101903.072500", "101904.862500", "101903.272500", "101905.062500", "101902.477500", "101904.265000", "101901.680000", "101903.470000", "101901.880000", "101903.670000", "101902.077500", "101903.867500", "101902.277500", "101904.067500", "101902.675000", "101904.465000", "101902.875000", "101904.665000", "101903.072500", "101904.862500", "101903.272500", "101905.062500", "101902.477500", "101907.865000", "101905.280000", "101907.070000", "101905.480000", "101907.270000", "101905.677500", "101907.467500", "101905.877500", "101907.667500", "101906.275000", "101908.065000", "101906.475000", "101908.265000", "101906.672500", "101908.462500", "101906.872500", "101908.662500", "101906.077500", "101907.865000", "101905.280000", "101907.070000", "101905.480000", "101907.270000", "101905.677500", "101907.467500", "101905.877500", "101907.667500", "101906.275000", "101908.065000", "101906.475000", "101908.265000", "101906.672500", "101908.462500", "101906.872500", "101908.662500", "101906.077500", "101907.865000", "101905.280000", "101907.070000", "101905.480000", "101907.270000", "101905.677500", "101907.467500", "101905.877500", "101907.667500", "101906.275000", "101908.065000", "101906.475000", "101908.265000", "101906.672500", "101908.462500", "101906.872500", "101908.662500", "101906.077500", "101907.865000", "101905.280000", "101907.070000", "101905.480000", "101907.270000", "101905.677500", "101907.467500", "101905.877500", "101907.667500", "101906.275000", "101908.065000", "101906.475000", "101908.265000", "101906.672500", "101908.462500", "101906.872500", "101908.662500", "101906.077500", "101911.465000", "101908.880000", "101910.670000", "101909.080000", "101910.870000", "101909.277500", "101911.067500", "101909.477500", "101911.267500", "101909.875000", "101911.665000", "101910.075000", "101911.865000", "101910.272500", "101912.062500", "101910.472500", "101912.262500", "101909.677500", "101911.465000", "101908.880000", "101910.670000", "101909.080000", "101910.870000", "101909.277500", "101911.067500", "101909.477500", "101911.267500", "101909.875000", "101911.665000", "101910.075000", "101911.865000", "101910.272500", "101912.062500", "101910.472500", "101912.262500", "101909.677500", "101911.465000", "101908.880000", "101910.670000", "101909.080000", "101910.870000", "101909.277500", "101911.067500", "101909.477500", "101911.267500", "101909.875000", "101911.665000", "101910.075000", "101911.865000", "101910.272500", "101912.062500", "101910.472500", "101912.262500", "101909.677500", "101911.465000", "101908.880000", "101910.670000", "101909.080000", "101910.870000", "101909.277500", "101911.067500", "101909.477500", "101911.267500", "101909.875000", "101911.665000", "101910.075000", "101911.865000", "101910.272500", "101912.062500", "101910.472500", "101912.262500", "101909.677500", "101915.065000", "101912.480000", "101914.270000", "101912.680000", "101914.470000", "101912.877500", "101914.667500", "101913.077500", "101914.867500", "101913.475000", "101915.265000", "101913.675000", "101915.465000", "101913.872500", "101915.662500", "101914.072500", "101915.862500", "101913.277500", "101915.065000", "101912.480000", "101914.270000", "101912.680000", "101914.470000", "101912.877500", "101914.667500", "101913.077500", "101914.867500", "101913.475000", "101915.265000", "101913.675000", "101915.465000", "101913.872500", "101915.662500", "101914.072500", "101915.862500", "101913.277500", "101915.065000", "101912.480000", "101914.270000", "101912.680000", "101914.470000", "101912.877500", "101914.667500", "101913.077500", "101914.867500", "101913.475000", "101915.265000", "101913.675000", "101915.465000", "101913.872500", "101915.662500", "101914.072500", "101915.862500", "101913.277500", "101915.065000", "101912.480000", "101914.270000", "101912.680000", "101914.470000", "101912.877500", "101914.667500", "101913.077500", "101914.867500", "101913.475000", "101915.265000", "101913.675000", "101915.465000", "101913.872500", "101915.662500", "101914.072500", "101915.862500", "101913.277500", "101918.665000", "101916.080000", "101917.870000", "101916.280000", "101918.070000", "101916.477500", "101918.267500", "101916.677500", "101918.467500", "101917.075000", "101918.865000", "101917.275000", "101919.065000", "101917.472500", "101919.262500", "101917.672500", "101919.462500", "101916.877500", "101918.665000", "101916.080000", "101917.870000", "101916.280000", "101918.070000", "101916.477500", "101918.267500", "101916.677500", "101918.467500", "101917.075000", "101918.865000", "101917.275000", "101919.065000", "101917.472500", "101919.262500", "101917.672500", "101919.462500", "101916.877500", "101918.665000", "101916.080000", "101917.870000", "101916.280000", "101918.070000", "101916.477500", "101918.267500", "101916.677500", "101918.467500", "101917.075000", "101918.865000", "101917.275000", "101919.065000", "101917.472500", "101919.262500", "101917.672500", "101919.462500", "101916.877500", "101918.665000", "101916.080000", "101917.870000", "101916.280000", "101918.070000", "101916.477500", "101918.267500", "101916.677500", "101918.467500", "101917.075000", "101918.865000", "101917.275000", "101919.065000", "101917.472500", "101919.262500", "101917.672500", "101919.462500", "101916.877500", "101922.265000", "101919.680000", "101921.470000", "101919.880000", "101921.670000", "101920.077500", "101921.867500", "101920.277500", "101922.067500", "101920.675000", "101922.465000", "101920.875000", "101922.665000", "101921.072500", "101922.862500", "101921.272500", "101923.062500", "101920.477500", "101922.265000", "101919.680000", "101921.470000", "101919.880000", "101921.670000", "101920.077500", "101921.867500", "101920.277500", "101922.067500", "101920.675000", "101922.465000", "101920.875000", "101922.665000", "101921.072500", "101922.862500", "101921.272500", "101923.062500", "101920.477500", "101922.265000", "101919.680000", "101921.470000", "101919.880000", "101921.670000", "101920.077500", "101921.867500", "101920.277500", "101922.067500", "101920.675000", "101922.465000", "101920.875000", "101922.665000", "101921.072500", "101922.862500", "101921.272500", "101923.062500", "101920.477500", "101922.265000", "101919.680000", "101921.470000", "101919.880000", "101921.670000", "101920.077500", "101921.867500", "101920.277500", "101922.067500", "101920.675000", "101922.465000", "101920.875000", "101922.665000", "101921.072500", "101922.862500", "101921.272500", "101923.062500", "101920.477500", "101925.865000", "101923.280000", "101925.070000", "101923.480000", "101925.270000", "101923.677500", "101925.467500", "101923.877500", "101925.667500", "101924.275000", "101926.065000", "101924.475000", "101926.265000", "101924.672500", "101926.462500", "101924.872500", "101926.662500", "101924.077500", "101925.865000", "101923.280000", "101925.070000", "101923.480000", "101925.270000", "101923.677500", "101925.467500", "101923.877500", "101925.667500", "101924.275000", "101926.065000", "101924.475000", "101926.265000", "101924.672500", "101926.462500", "101924.872500", "101926.662500", "101924.077500", "101925.865000", "101923.280000", "101925.070000", "101923.480000", "101925.270000", "101923.677500", "101925.467500", "101923.877500", "101925.667500", "101924.275000", "101926.065000", "101924.475000", "101926.265000", "101924.672500", "101926.462500", "101924.872500", "101926.662500", "101924.077500", "101925.865000", "101923.280000", "101925.070000", "101923.480000", "101925.270000", "101923.677500", "101925.467500", "101923.877500", "101925.667500", "101924.275000", "101926.065000", "101