{
  "AcquisitionMatrixPE": 80,
  "AcquisitionNumber": 1,
  "AcquisitionTime": "09:55:22.530000",
  "BandwidthPerPixelPhaseEncode": 25,
  "BaseResolution": 80,
  "BodyPartExamined": "BRAIN",
  "CoilCombinationMethod": "Sum of Squares",
  "ConsistencyInfo": "N4_VE11C_LATEST_20160120",
  "ConversionSoftware": "dcm2niix",
  "ConversionSoftwareVersion": "v1.0.20220720",
  "DerivedVendorReportedEchoSpacing": 0.0005,
  "DeviceSerialNumber": "66112",
  "DwellTime": 2.7e-06,
  "EchoTime": 0.03,
  "EchoTrainLength": 80,
  "EffectiveEchoSpacing": 0.0005,
  "FlipAngle": 77,
  "HeudiconvVersion": "0.13.1",
  "ImageOrientationPatientDICOM": [0.999914, 0.012801, 0.00302456, -0.0130896, 0.945762, 0.324597],
  "ImageOrientationText": "Tra>Cor(18.9)>Sag(-0.1)",
  "ImageType": [
    "ORIGINAL",
    "PRIMARY",
    "M",
    "ND",
    "NORM",
    "MOSAIC"
],
  "ImagingFrequency": 123.252,
  "InPlanePhaseEncodingDirectionDICOM": "COL",
  "InstitutionAddress": "Maynard 3,Hanover,NH,US,03755",
  "InstitutionName": "Dartmouth College - PBS",
  "InstitutionalDepartmentName": "Department",
  "MRAcquisitionType": "2D",
  "MagneticFieldStrength": 3,
  "Manufacturer": "Siemens",
  "ManufacturersModelName": "Prisma",
  "MatrixCoilMode": "SENSE",
  "Modality": "MR",
  "NonlinearGradientCorrection": false,
  "PartialFourier": 1,
  "PatientPosition": "HFS",
  "PercentPhaseFOV": 100,
  "PercentSampling": 100,
  "PhaseEncodingDirection": "j-",
  "PhaseEncodingSteps": 80,
  "PhaseResolution": 1,
  "PixelBandwidth": 2315,
  "ProcedureStepDescription": "dbic^QA",
  "ProtocolName": "func-bold_fa-77",
  "PulseSequenceDetails": "%SiemensSeq%\\ep2d_bold",
  "ReceiveCoilActiveElements": "HC1-7;NC1,2",
  "ReceiveCoilName": "HeadNeck_64",
  "ReconMatrixPE": 80,
  "RepetitionTime": 2,
  "SAR": 0.0282538,
  "ScanOptions": "FS",
  "ScanningSequence": "EP",
  "SequenceName": "*epfid2d1_80",
  "SequenceVariant": "SK",
  "SeriesDescription": "func-bold_fa-77",
  "SeriesNumber": 7,
  "ShimSetting": [4140, -7698, -7517, 211, -37, -352, -84, 104],
  "SliceThickness": 3.5,
  "SliceTiming": [0.99, 0, 1.055, 0.065, 1.1225, 0.1325, 1.1875, 0.1975, 1.2525, 0.2625, 1.32, 0.33, 1.385, 0.395, 1.4525, 0.4625, 1.5175, 0.5275, 1.5825, 0.5925, 1.65, 0.66, 1.715, 0.725, 1.7825, 0.7925, 1.8475, 0.8575, 1.9125, 0.9225],
  "SoftwareVersions": "syngo MR E11",
  "SpacingBetweenSlices": 3.99,
  "StationName": "AWP66112",
  "TotalReadoutTime": 0.0395,
  "TxRefAmp": 207.988,
  "dcmmeta_affine": [
    [-2.9997403621673584, -0.03926866501569748, -0.005165638402104378, 122.98188781738281],
    [-0.03840288519859314, 2.837285280227661, 1.2951890230178833, -126.32090759277344],
    [0.009073673747479916, -0.9737918376922607, 3.7739315032958984, -22.308996200561523],
    [0.0, 0.0, 0.0, 1.0]
],
  "dcmmeta_reorient_transform": [
    [0.0, -1.0, 0.0, 79.0],
    [1.0, 0.0, 0.0, 0.0],
    [0.0, 0.0, 1.0, 0.0],
    [0.0, 0.0, 0.0, 1.0]
],
  "dcmmeta_shape": [80, 80, 30, 200],
  "dcmmeta_slice_dim": 2,
  "dcmmeta_version": 0.6,
  "global": {
    "const": {
      "AccessionNumber": "qa64",
      "AcquisitionMatrix": [80, 0, 0, 80],
      "AngioFlag": "N",
      "BitsAllocated": 16,
      "BitsStored": 12,
      "BodyPartExamined": "BRAIN",
      "Columns": 480,
      "EchoNumbers": 1,
      "EchoTime": 30.0,
      "EchoTrainLength": 80,
      "FlipAngle": 77.0,
      "HighBit": 11,
      "ImageOrientationPatient": [0.99991348997967, 0.01280096116639, 0.00302455780133, -0.013089554919, 0.94576173925054, 0.32459728298589],
      "ImagePositionPatient": [-711.97402769253, -672.96224245998, -295.81165648863],
      "ImageType": [
        "ORIGINAL",
        "PRIMARY",
        "M",
        "ND",
        "NORM",
        "MOSAIC"
],
      "ImagedNucleus": "1H",
      "ImagingFrequency": 123.252358,
      "InPlanePhaseEncodingDirection": "COL",
      "LargestImagePixelValue": 4095,
      "MRAcquisitionType": "2D",
      "MagneticFieldStrength": 3.0,
      "Manufacturer": "SIEMENS",
      "ManufacturerModelName": "Prisma",
      "Modality": "MR",
      "NumberOfAverages": 1.0,
      "NumberOfPhaseEncodingSteps": 80,
      "PercentPhaseFieldOfView": 100.0,
      "PercentSampling": 100.0,
      "PerformedProcedureStepStartTime": "094604.314000",
      "PhotometricInterpretation": "MONOCHROME2",
      "PixelBandwidth": 2315.0,
      "PixelRepresentation": 0,
      "PixelSpacing": [3.0, 3.0],
      "ProtocolName": "func-bold_fa-77",
      "RepetitionTime": 2000.0,
      "Rows": 480,
      "SAR": 0.0282538364491,
      "SamplesPerPixel": 1,
      "ScanOptions": "FS",
      "ScanningSequence": "EP",
      "SequenceName": "*epfid2d1_80",
      "SequenceVariant": "SK",
      "SeriesDescription": "func-bold_fa-77",
      "SeriesNumber": 7,
      "SeriesTime": "095605.329000",
      "SliceLocation": -62.265003659641,
      "SliceThickness": 3.5,
      "SmallestImagePixelValue": 0,
      "SoftwareVersions": "syngo MR E11",
      "SpacingBetweenSlices": 3.9899999983505,
      "SpecificCharacterSet": "ISO_IR 100",
      "StudyID": "25",
      "StudyTime": "094604.245000",
      "TransmitCoilName": "Body",
      "VariableFlipAngleFlag": "N",
      "WindowCenterWidthExplanation": "Algo1",
      "dBdt": 0.0},
    "slices": {}
  },
  "time": {
    "samples": {
      "AcquisitionNumber": [1, 2, 3, 4, 5, 6, 7, 8, 9, 10, 11, 12, 13, 14, 15, 16, 17, 18, 19, 20, 21, 22, 23, 24, 25, 26, 27, 28, 29, 30, 31, 32, 33, 34, 35, 36, 37, 38, 39, 40, 41, 42, 43, 44, 45, 46, 47, 48, 49, 50, 51, 52, 53, 54, 55, 56, 57, 58, 59, 60, 61, 62, 63, 64, 65, 66, 67, 68, 69, 70, 71, 72, 73, 74, 75, 76, 77, 78, 79, 80, 81, 82, 83, 84, 85, 86, 87, 88, 89, 90, 91, 92, 93, 94, 95, 96, 97, 98, 99, 100, 101, 102, 103, 104, 105, 106, 107, 108, 109, 110, 111, 112, 113, 114, 115, 116, 117, 118, 119, 120, 121, 122, 123, 124, 125, 126, 127, 128, 129, 130, 131, 132, 133, 134, 135, 136, 137, 138, 139, 140, 141, 142, 143, 144, 145, 146, 147, 148, 149, 150, 151, 152, 153, 154, 155, 156, 157, 158, 159, 160, 161, 162, 163, 164, 165, 166, 167, 168, 169, 170, 171, 172, 173, 174, 175, 176, 177, 178, 179, 180, 181, 182, 183, 184, 185, 186, 187, 188, 189, 190, 191, 192, 193, 194, 195, 196, 197, 198, 199, 200],
      "AcquisitionTime": ["095522.530000", "095524.530000", "095526.530000", "095528.530000", "095530.530000", "095532.530000", "095534.530000", "095536.530000", "095538.530000", "095540.530000", "095542.530000", "095544.530000", "095546.530000", "095548.530000", "095550.530000", "095552.530000", "095554.530000", "095556.530000", "095558.530000", "095600.530000", "095602.530000", "095604.530000", "095606.530000", "095608.530000", "095610.530000", "095612.530000", "095614.530000", "095616.530000", "095618.530000", "095620.530000", "095622.530000", "095624.530000", "095626.530000", "095628.530000", "095630.530000", "095632.530000", "095634.530000", "095636.530000", "095638.530000", "095640.530000", "095642.530000", "095644.530000", "095646.530000", "095648.530000", "095650.530000", "095652.530000", "095654.530000", "095656.530000", "095658.530000", "095700.530000", "095702.530000", "095704.530000", "095706.530000", "095708.530000", "095710.530000", "095712.530000", "095714.530000", "095716.530000", "095718.530000", "095720.530000", "095722.530000", "095724.530000", "095726.530000", "095728.530000", "095730.530000", "095732.530000", "095734.530000", "095736.530000", "095738.530000", "095740.530000", "095742.530000", "095744.530000", "095746.530000", "095748.530000", "095750.530000", "095752.530000", "095754.530000", "095756.530000", "095758.530000", "095800.530000", "095802.530000", "095804.530000", "095806.530000", "095808.530000", "095810.530000", "095812.530000", "095814.530000", "095816.530000", "095818.530000", "095820.530000", "095822.530000", "095824.530000", "095826.530000", "095828.530000", "095830.530000", "095832.530000", "095834.530000", "095836.530000", "095838.530000", "095840.530000", "095842.530000", "095844.530000", "095846.530000", "095848.530000", "095850.530000", "095852.530000", "095854.530000", "095856.530000", "095858.530000", "095900.530000", "095902.530000", "095904.530000", "095906.530000", "095908.530000", "095910.530000", "095912.530000", "095914.530000", "095916.530000", "095918.530000", "095920.530000", "095922.530000", "095924.530000", "095926.530000", "095928.530000", "095930.530000", "095932.530000", "095934.530000", "095936.530000", "095938.530000", "095940.530000", "095942.530000", "095944.530000", "095946.530000", "095948.530000", "095950.530000", "095952.530000", "095954.530000", "095956.530000", "095958.530000", "100000.530000", "100002.530000", "100004.530000", "100006.530000", "100008.530000", "100010.530000", "100012.530000", "100014.530000", "100016.530000", "100018.530000", "100020.530000", "100022.530000", "100024.530000", "100026.530000", "100028.530000", "100030.530000", "100032.530000", "100034.530000", "100036.530000", "100038.530000", "100040.530000", "100042.530000", "100044.530000", "100046.530000", "100048.530000", "100050.530000", "100052.530000", "100054.530000", "100056.530000", "100058.530000", "100100.530000", "100102.530000", "100104.530000", "100106.530000", "100108.530000", "100110.530000", "100112.530000", "100114.530000", "100116.530000", "100118.530000", "100120.530000", "100122.530000", "100124.530000", "100126.530000", "100128.530000", "100130.530000", "100132.530000", "100134.530000", "100136.530000", "100138.530000", "100140.530000", "100142.530000", "100144.530000", "100146.530000", "100148.530000", "100150.530000", "100152.530000", "100154.530000", "100156.530000", "100158.530000", "100200.530000"],
      "ContentTime": ["095605.338000", "095605.344000", "095605.347000", "095605.350000", "095605.352000", "095605.360000", "095605.363000", "095605.366000", "095605.368000", "095605.371000", "095605.373000", "095605.376000", "095605.379000", "095605.382000", "095605.384000", "095605.387000", "095605.389000", "095605.392000", "095605.394000", "095605.402000", "095605.405000", "095645.315000", "095645.318000", "095645.321000", "095645.324000", "095645.326000", "095645.329000", "095645.331000", "095645.334000", "095645.336000", "095645.339000", "095645.341000", "095645.344000", "095645.346000", "095645.349000", "095645.351000", "095645.354000", "095645.357000", "095645.359000", "095645.362000", "095645.364000", "095725.316000", "095725.318000", "095725.321000", "095725.324000", "095725.326000", "095725.329000", "095725.331000", "095725.334000", "095725.341000", "095725.344000", "095725.347000", "095725.349000", "095725.352000", "095725.354000", "095725.357000", "095725.360000", "095725.362000", "095725.365000", "095725.367000", "095725.370000", "095805.315000", "095805.318000", "095805.321000", "095805.324000", "095805.326000", "095805.329000", "095805.332000", "095805.334000", "095805.337000", "095805.339000", "095805.342000", "095805.344000", "095805.347000", "095805.350000", "095805.352000", "095805.355000", "095805.357000", "095805.360000", "095805.363000", "095805.365000", "095845.315000", "095845.318000", "095845.321000", "095845.324000", "095845.326000", "095845.329000", "095845.331000", "095845.334000", "095845.336000", "095845.339000", "095845.342000", "095845.344000", "095845.347000", "095845.349000", "095845.352000", "095845.354000", "095845.357000", "095845.360000", "095845.362000", "095845.365000", "095925.316000", "095925.318000", "095925.321000", "095925.324000", "095925.326000", "095925.329000", "095925.331000", "095925.334000", "095925.336000", "095925.339000", "095925.342000", "095925.344000", "095925.347000", "095925.349000", "095925.352000", "095925.355000", "095925.357000", "095925.360000", "095925.362000", "095925.365000", "100005.316000", "100005.319000", "100005.322000", "100005.325000", "100005.327000", "100005.330000", "100005.332000", "100005.335000", "100005.337000", "100005.340000", "100005.342000", "100005.345000", "100005.348000", "100005.350000", "100005.353000", "100005.355000", "100005.358000", "100005.360000", "100005.363000", "100005.366000", "100045.315000", "100045.318000", "100045.321000", "100045.323000", "100045.326000", "100045.329000", "100045.331000", "100045.334000", "100045.336000", "100045.339000", "100045.341000", "100045.344000", "100045.346000", "100045.349000", "100045.351000", "100045.354000", "100045.357000", "100045.359000", "100045.362000", "100045.364000", "100105.316000", "100105.319000", "100105.321000", "100105.324000", "100105.326000", "100105.329000", "100105.331000", "100105.334000", "100105.337000", "100105.339000", "100145.316000", "100145.318000", "100145.321000", "100145.324000", "100145.326000", "100145.329000", "100145.331000", "100145.334000", "100145.336000", "100145.339000", "100145.342000", "100145.344000", "100145.347000", "100145.349000", "100145.352000", "100145.354000", "100145.357000", "100145.359000", "100145.362000", "100145.365000", "100201.734000", "100201.737000", "100201.740000", "100201.743000", "100201.745000", "100201.748000", "100201.751000", "100201.753000", "100201.756000"],
      "InstanceCreationTime": ["095605.338000", "095605.344000", "095605.347000", "095605.350000", "095605.352000", "095605.360000", "095605.363000", "095605.366000", "095605.368000", "095605.371000", "095605.373000", "095605.376000", "095605.379000", "095605.382000", "095605.384000", "095605.387000", "095605.389000", "095605.392000", "095605.394000", "095605.402000", "095605.405000", "095645.315000", "095645.318000", "095645.321000", "095645.324000", "095645.326000", "095645.329000", "095645.331000", "095645.334000", "095645.336000", "095645.339000", "095645.341000", "095645.344000", "095645.346000", "095645.349000", "095645.351000", "095645.354000", "095645.357000", "095645.359000", "095645.362000", "095645.364000", "095725.316000", "095725.318000", "095725.321000", "095725.324000", "095725.326000", "095725.329000", "095725.331000", "095725.334000", "095725.341000", "095725.344000", "095725.347000", "095725.349000", "095725.352000", "095725.354000", "095725.357000", "095725.360000", "095725.362000", "095725.365000", "095725.367000", "095725.370000", "095805.315000", "095805.318000", "095805.321000", "095805.324000", "095805.326000", "095805.329000", "095805.332000", "095805.334000", "095805.337000", "095805.339000", "095805.342000", "095805.344000", "095805.347000", "095805.350000", "095805.352000", "095805.355000", "095805.357000", "095805.360000", "095805.363000", "095805.365000", "095845.315000", "095845.318000", "095845.321000", "095845.324000", "095845.326000", "095845.329000", "095845.331000", "095845.334000", "095845.336000", "095845.339000", "095845.342000", "095845.344000", "095845.347000", "095845.349000", "095845.352000", "095845.354000", "095845.357000", "095845.360000", "095845.362000", "095845.365000", "095925.316000", "095925.318000", "095925.321000", "095925.324000", "095925.326000", "095925.329000", "095925.331000", "095925.334000", "095925.336000", "095925.339000", "095925.342000", "095925.344000", "095925.347000", "095925.349000", "095925.352000", "095925.355000", "095925.357000", "095925.360000", "095925.362000", "095925.365000", "100005.316000", "100005.319000", "100005.322000", "100005.325000", "100005.327000", "100005.330000", "100005.332000", "100005.335000", "100005.337000", "100005.340000", "100005.342000", "100005.345000", "100005.348000", "100005.350000", "100005.353000", "100005.355000", "100005.358000", "100005.360000", "100005.363000", "100005.366000", "100045.315000", "100045.318000", "100045.321000", "100045.323000", "100045.326000", "100045.329000", "100045.331000", "100045.334000", "100045.336000", "100045.339000", "100045.341000", "100045.344000", "100045.346000", "100045.349000", "100045.351000", "100045.354000", "100045.357000", "100045.359000", "100045.362000", "100045.364000", "100105.316000", "100105.319000", "100105.321000", "100105.324000", "100105.326000", "100105.329000", "100105.331000", "100105.334000", "100105.337000", "100105.339000", "100145.316000", "100145.318000", "100145.321000", "100145.324000", "100145.326000", "100145.329000", "100145.331000", "100145.334000", "100145.336000", "100145.339000", "100145.342000", "100145.344000", "100145.347000", "100145.349000", "100145.352000", "100145.354000", "100145.357000", "100145.359000", "100145.362000", "100145.365000", "100201.734000", "100201.737000", "100201.740000", "100201.743000", "100201.745000", "100201.748000", "100201.751000", "100201.753000", "100201.756000"],
      "InstanceNumber": [1, 2, 3, 4, 5, 6, 7, 8, 9, 10, 11, 12, 13, 14, 15, 16, 17, 18, 19, 20, 21, 22, 23, 24, 25, 26, 27, 28, 29, 30, 31, 32, 33, 34, 35, 36, 37, 38, 39, 40, 41, 42, 43, 44, 45, 46, 47, 48, 49, 50, 51, 52, 53, 54, 55, 56, 57, 58, 59, 60, 61, 62, 63, 64, 65, 66, 67, 68, 69, 70, 71, 72, 73, 74, 75, 76, 77, 78, 79, 80, 81, 82, 83, 84, 85, 86, 87, 88, 89, 90, 91, 92, 93, 94, 95, 96, 97, 98, 99, 100, 101, 102, 103, 104, 105, 106, 107, 108, 109, 110, 111, 112, 113, 114, 115, 116, 117, 118, 119, 120, 121, 122, 123, 124, 125, 126, 127, 128, 129, 130, 131, 132, 133, 134, 135, 136, 137, 138, 139, 140, 141, 142, 143, 144, 145, 146, 147, 148, 149, 150, 151, 152, 153, 154, 155, 156, 157, 158, 159, 160, 161, 162, 163, 164, 165, 166, 167, 168, 169, 170, 171, 172, 173, 174, 175, 176, 177, 178, 179, 180, 181, 182, 183, 184, 185, 186, 187, 188, 189, 190, 191, 192, 193, 194, 195, 196, 197, 198, 199, 200],
      "WindowCenter": [1420.0, 1420.0, 1420.0, 1420.0, 1419.0, 1419.0, 1419.0, 1418.0, 1419.0, 1419.0, 1419.0, 1419.0, 1419.0, 1419.0, 1418.0, 1418.0, 1418.0, 1418.0, 1418.0, 1417.0, 1418.0, 1418.0, 1418.0, 1418.0, 1419.0, 1419.0, 1418.0, 1419.0, 1418.0, 1418.0, 1418.0, 1417.0, 1417.0, 1417.0, 1418.0, 1418.0, 1419.0, 1419.0, 1417.0, 1418.0, 1418.0, 1418.0, 1417.0, 1418.0, 1417.0, 1417.0, 1417.0, 1418.0, 1418.0, 1418.0, 1418.0, 1417.0, 1417.0, 1418.0, 1417.0, 1417.0, 1417.0, 1417.0, 1417.0, 1417.0, 1416.0, 1417.0, 1417.0, 1417.0, 1417.0, 1417.0, 1417.0, 1417.0, 1417.0, 1417.0, 1416.0, 1417.0, 1416.0, 1417.0, 1417.0, 1417.0, 1416.0, 1416.0, 1416.0, 1416.0, 1416.0, 1416.0, 1416.0, 1416.0, 1415.0, 1415.0, 1416.0, 1415.0, 1415.0, 1415.0, 1415.0, 1416.0, 1416.0, 1416.0, 1415.0, 1415.0, 1415.0, 1415.0, 1416.0, 1415.0, 1415.0, 1415.0, 1415.0, 1415.0, 1416.0, 1416.0, 1416.0, 1416.0, 1416.0, 1415.0, 1416.0, 1416.0, 1415.0, 1415.0, 1416.0, 1415.0, 1414.0, 1415.0, 1415.0, 1414.0, 1415.0, 1415.0, 1416.0, 1415.0, 1415.0, 1415.0, 1415.0, 1414.0, 1416.0, 1415.0, 1415.0, 1415.0, 1416.0, 1415.0, 1415.0, 1415.0, 1415.0, 1415.0, 1415.0, 1414.0, 1415.0, 1415.0, 1415.0, 1414.0, 1415.0, 1414.0, 1414.0, 1415.0, 1415.0, 1415.0, 1414.0, 1415.0, 1415.0, 1415.0, 1415.0, 1415.0, 1414.0, 1414.0, 1414.0, 1414.0, 1415.0, 1413.0, 1413.0, 1415.0, 1414.0, 1414.0, 1414.0, 1414.0, 1414.0, 1414.0, 1414.0, 1414.0, 1414.0, 1414.0, 1414.0, 1413.0, 1414.0, 1414.0, 1413.0, 1413.0, 1413.0, 1413.0, 1412.0, 1413.0, 1413.0, 1412.0, 1412.0, 1412.0, 1413.0, 1412.0, 1412.0, 1412.0, 1412.0, 1412.0, 1413.0, 1412.0, 1413.0, 1413.0, 1412.0, 1413.0],
      "WindowWidth": [3374.0, 3374.0, 3373.0, 3373.0, 3374.0, 3373.0, 3373.0, 3374.0, 3373.0, 3373.0, 3373.0, 3373.0, 3373.0, 3373.0, 3373.0, 3372.0, 3372.0, 3372.0, 3372.0, 3372.0, 3372.0, 3372.0, 3372.0, 3373.0, 3373.0, 3373.0, 3373.0, 3373.0, 3373.0, 3372.0, 3371.0, 3372.0, 3372.0, 3372.0, 3373.0, 3373.0, 3372.0, 3372.0, 3373.0, 3372.0, 3372.0, 3372.0, 3373.0, 3372.0, 3373.0, 3373.0, 3373.0, 3372.0, 3372.0, 3372.0, 3372.0, 3372.0, 3373.0, 3372.0, 3372.0, 3372.0, 3372.0, 3372.0, 3372.0, 3372.0, 3372.0, 3372.0, 3372.0, 3372.0, 3372.0, 3372.0, 3372.0, 3372.0, 3371.0, 3371.0, 3372.0, 3371.0, 3372.0, 3371.0, 3371.0, 3371.0, 3371.0, 3371.0, 3371.0, 3370.0, 3370.0, 3370.0, 3370.0, 3371.0, 3371.0, 3371.0, 3370.0, 3371.0, 3371.0, 3371.0, 3371.0, 3370.0, 3370.0, 3370.0, 3371.0, 3371.0, 3371.0, 3371.0, 3370.0, 3370.0, 3370.0, 3370.0, 3370.0, 3370.0, 3370.0, 3370.0, 3370.0, 3370.0, 3370.0, 3371.0, 3370.0, 3370.0, 3370.0, 3371.0, 3370.0, 3371.0, 3371.0, 3370.0, 3370.0, 3370.0, 3370.0, 3370.0, 3370.0, 3370.0, 3370.0, 3370.0, 3370.0, 3370.0, 3370.0, 3370.0, 3370.0, 3370.0, 3370.0, 3370.0, 3370.0, 3370.0, 3370.0, 3369.0, 3370.0, 3370.0, 3369.0, 3370.0, 3370.0, 3370.0, 3369.0, 3370.0, 3370.0, 3369.0, 3369.0, 3369.0, 3370.0, 3369.0, 3369.0, 3369.0, 3369.0, 3369.0, 3369.0, 3369.0, 3369.0, 3370.0, 3369.0, 3369.0, 3369.0, 3369.0, 3369.0, 3369.0, 3369.0, 3369.0, 3369.0, 3369.0, 3368.0, 3369.0, 3369.0, 3369.0, 3369.0, 3368.0, 3368.0, 3369.0, 3368.0, 3368.0, 3368.0, 3368.0, 3367.0, 3367.0, 3367.0, 3367.0, 3367.0, 3367.0, 3368.0, 3367.0, 3367.0, 3367.0, 3367.0, 3367.0, 3367.0, 3367.0, 3367.0, 3367.0, 3367.0, 3367.0]
    },
    "slices": {}
  }
}