{
  "AcquisitionMatrixPE": 80,
  "AcquisitionNumber": 1,
  "AcquisitionTime": "09:48:30.832500",
  "BandwidthPerPixelPhaseEncode": 48.077,
  "BaseResolution": 80,
  "BodyPartExamined": "BRAIN",
  "CoilCombinationMethod": "Sum of Squares",
  "ConsistencyInfo": "N4_VE11C_LATEST_20160120",
  "ConversionSoftware": "dcm2niix",
  "ConversionSoftwareVersion": "v1.0.20220720",
  "DerivedVendorReportedEchoSpacing": 0.000519999,
  "DeviceSerialNumber": "66112",
  "DwellTime": 2.7e-06,
  "EchoTime": 0.035,
  "EchoTrainLength": 39,
  "EffectiveEchoSpacing": 0.00026,
  "FlipAngle": 90,
  "HeudiconvVersion": "0.13.1",
  "ImageOrientationPatientDICOM": [0.999914, 0.012801, 0.00302456, -0.0130896, 0.945762, 0.324597],
  "ImageOrientationText": "Tra>Cor(18.9)>Sag(-0.1)",
  "ImageType": [
    "ORIGINAL",
    "PRIMARY",
    "M",
    "ND",
    "NORM",
    "MOSAIC"
],
  "ImagingFrequency": 123.252,
  "InPlanePhaseEncodingDirectionDICOM": "COL",
  "InstitutionAddress": "Maynard 3,Hanover,NH,US,03755",
  "InstitutionName": "Dartmouth College - PBS",
  "InstitutionalDepartmentName": "Department",
  "MRAcquisitionType": "2D",
  "MagneticFieldStrength": 3,
  "Manufacturer": "Siemens",
  "ManufacturersModelName": "Prisma",
  "MatrixCoilMode": "GRAPPA",
  "Modality": "MR",
  "NonlinearGradientCorrection": false,
  "ParallelReductionFactorInPlane": 2,
  "PartialFourier": 1,
  "PatientPosition": "HFS",
  "PercentPhaseFOV": 100,
  "PercentSampling": 100,
  "PhaseEncodingDirection": "j-",
  "PhaseEncodingSteps": 79,
  "PhaseResolution": 1,
  "PixelBandwidth": 2315,
  "ProcedureStepDescription": "dbic^QA",
  "ProtocolName": "func-bold_task-rest_acq-p2",
  "PulseSequenceDetails": "%SiemensSeq%\\ep2d_bold",
  "ReceiveCoilActiveElements": "HC1-7;NC1,2",
  "ReceiveCoilName": "HeadNeck_64",
  "ReconMatrixPE": 80,
  "RefLinesPE": 24,
  "RepetitionTime": 2,
  "SAR": 0.0359532,
  "ScanOptions": "FS",
  "ScanningSequence": "EP",
  "SequenceName": "*epfid2d1_80",
  "SequenceVariant": "SK",
  "SeriesDescription": "func-bold_task-rest_acq-p2",
  "SeriesNumber": 5,
  "ShimSetting": [4140, -7698, -7517, 210, -35, -352, -86, 104],
  "SliceThickness": 3.5,
  "SliceTiming": [0.99, 0, 1.055, 0.065, 1.1225, 0.1325, 1.1875, 0.1975, 1.2525, 0.2625, 1.32, 0.33, 1.385, 0.395, 1.4525, 0.4625, 1.5175, 0.5275, 1.5825, 0.5925, 1.65, 0.66, 1.715, 0.725, 1.7825, 0.7925, 1.8475, 0.8575, 1.9125, 0.9225],
  "SoftwareVersions": "syngo MR E11",
  "SpacingBetweenSlices": 3.99,
  "StationName": "AWP66112",
  "TaskName": "rest",
  "TotalReadoutTime": 0.02054,
  "TxRefAmp": 207.988,
  "dcmmeta_affine": [
    [-2.9997403621673584, -0.03926866501569748, -0.005165638402104378, 124.95459747314453],
    [-0.03840288519859314, 2.837285280227661, 1.2951890230178833, -130.55101013183594],
    [0.009073673747479916, -0.9737918376922607, 3.7739315032958984, -22.88231086730957],
    [0.0, 0.0, 0.0, 1.0]
],
  "dcmmeta_reorient_transform": [
    [0.0, -1.0, 0.0, 79.0],
    [1.0, 0.0, 0.0, 0.0],
    [0.0, 0.0, 1.0, 0.0],
    [0.0, 0.0, 0.0, 1.0]
],
  "dcmmeta_shape": [80, 80, 30, 200],
  "dcmmeta_slice_dim": 2,
  "dcmmeta_version": 0.6,
  "global": {
    "const": {
      "AccessionNumber": "qa64",
      "AcquisitionMatrix": [80, 0, 0, 80],
      "AngioFlag": "N",
      "BitsAllocated": 16,
      "BitsStored": 12,
      "BodyPartExamined": "BRAIN",
      "Columns": 480,
      "EchoNumbers": 1,
      "EchoTime": 35.0,
      "EchoTrainLength": 39,
      "FlipAngle": 90.0,
      "HighBit": 11,
      "ImageOrientationPatient": [0.99991348997967, 0.01280096116639, 0.00302455780133, -0.013089554919, 0.94576173925054, 0.32459728298589],
      "ImagePositionPatient": [-713.94673591778, -668.73214755031, -296.38497115537],
      "ImageType": [
        "ORIGINAL",
        "PRIMARY",
        "M",
        "ND",
        "NORM",
        "MOSAIC"
],
      "ImagedNucleus": "1H",
      "ImagingFrequency": 123.252358,
      "InPlanePhaseEncodingDirection": "COL",
      "LargestImagePixelValue": 4095,
      "MRAcquisitionType": "2D",
      "MagneticFieldStrength": 3.0,
      "Manufacturer": "SIEMENS",
      "ManufacturerModelName": "Prisma",
      "Modality": "MR",
      "NumberOfAverages": 1.0,
      "NumberOfPhaseEncodingSteps": 79,
      "PercentPhaseFieldOfView": 100.0,
      "PercentSampling": 100.0,
      "PerformedProcedureStepStartTime": "094604.314000",
      "PhotometricInterpretation": "MONOCHROME2",
      "PixelBandwidth": 2315.0,
      "PixelRepresentation": 0,
      "PixelSpacing": [3.0, 3.0],
      "ProtocolName": "func-bold_task-rest_acq-p2",
      "RepetitionTime": 2000.0,
      "Rows": 480,
      "SAR": 0.03595322213661,
      "SamplesPerPixel": 1,
      "ScanOptions": "FS",
      "ScanningSequence": "EP",
      "SequenceName": "*epfid2d1_80",
      "SequenceVariant": "SK",
      "SeriesDescription": "func-bold_task-rest_acq-p2",
      "SeriesNumber": 5,
      "SeriesTime": "094925.247000",
      "SliceLocation": -64.182951851179,
      "SliceThickness": 3.5,
      "SmallestImagePixelValue": 0,
      "SoftwareVersions": "syngo MR E11",
      "SpacingBetweenSlices": 3.9899999983505,
      "SpecificCharacterSet": "ISO_IR 100",
      "StudyID": "25",
      "StudyTime": "094604.245000",
      "TransmitCoilName": "Body",
      "VariableFlipAngleFlag": "N",
      "WindowCenterWidthExplanation": "Algo1",
      "dBdt": 0.0},
    "slices": {}
  },
  "time": {
    "samples": {
      "AcquisitionNumber": [1, 2, 3, 4, 5, 6, 7, 8, 9, 10, 11, 12, 13, 14, 15, 16, 17, 18, 19, 20, 21, 22, 23, 24, 25, 26, 27, 28, 29, 30, 31, 32, 33, 34, 35, 36, 37, 38, 39, 40, 41, 42, 43, 44, 45, 46, 47, 48, 49, 50, 51, 52, 53, 54, 55, 56, 57, 58, 59, 60, 61, 62, 63, 64, 65, 66, 67, 68, 69, 70, 71, 72, 73, 74, 75, 76, 77, 78, 79, 80, 81, 82, 83, 84, 85, 86, 87, 88, 89, 90, 91, 92, 93, 94, 95, 96, 97, 98, 99, 100, 101, 102, 103, 104, 105, 106, 107, 108, 109, 110, 111, 112, 113, 114, 115, 116, 117, 118, 119, 120, 121, 122, 123, 124, 125, 126, 127, 128, 129, 130, 131, 132, 133, 134, 135, 136, 137, 138, 139, 140, 141, 142, 143, 144, 145, 146, 147, 148, 149, 150, 151, 152, 153, 154, 155, 156, 157, 158, 159, 160, 161, 162, 163, 164, 165, 166, 167, 168, 169, 170, 171, 172, 173, 174, 175, 176, 177, 178, 179, 180, 181, 182, 183, 184, 185, 186, 187, 188, 189, 190, 191, 192, 193, 194, 195, 196, 197, 198, 199, 200],
      "AcquisitionTime": ["094830.832500", "094832.832500", "094834.832500", "094836.832500", "094838.832500", "094840.832500", "094842.832500", "094844.832500", "094846.832500", "094848.832500", "094850.832500", "094852.832500", "094854.832500", "094856.832500", "094858.832500", "094900.832500", "094902.832500", "094904.832500", "094906.832500", "094908.832500", "094910.832500", "094912.832500", "094914.832500", "094916.832500", "094918.832500", "094920.832500", "094922.832500", "094924.832500", "094926.832500", "094928.832500", "094930.832500", "094932.832500", "094934.832500", "094936.832500", "094938.832500", "094940.832500", "094942.832500", "094944.832500", "094946.832500", "094948.832500", "094950.832500", "094952.832500", "094954.832500", "094956.832500", "094958.832500", "095000.832500", "095002.832500", "095004.832500", "095006.832500", "095008.832500", "095010.832500", "095012.832500", "095014.832500", "095016.832500", "095018.832500", "095020.832500", "095022.832500", "095024.832500", "095026.832500", "095028.832500", "095030.832500", "095032.832500", "095034.832500", "095036.832500", "095038.832500", "095040.832500", "095042.832500", "095044.832500", "095046.832500", "095048.832500", "095050.832500", "095052.832500", "095054.832500", "095056.832500", "095058.832500", "095100.832500", "095102.832500", "095104.832500", "095106.832500", "095108.832500", "095110.832500", "095112.832500", "095114.832500", "095116.832500", "095118.832500", "095120.832500", "095122.832500", "095124.832500", "095126.832500", "095128.832500", "095130.832500", "095132.832500", "095134.832500", "095136.832500", "095138.832500", "095140.832500", "095142.832500", "095144.832500", "095146.832500", "095148.832500", "095150.832500", "095152.832500", "095154.832500", "095156.832500", "095158.832500", "095200.832500", "095202.832500", "095204.832500", "095206.832500", "095208.832500", "095210.832500", "095212.832500", "095214.832500", "095216.832500", "095218.832500", "095220.832500", "095222.832500", "095224.832500", "095226.832500", "095228.832500", "095230.832500", "095232.832500", "095234.832500", "095236.832500", "095238.832500", "095240.832500", "095242.832500", "095244.832500", "095246.832500", "095248.832500", "095250.832500", "095252.832500", "095254.832500", "095256.832500", "095258.832500", "095300.832500", "095302.832500", "095304.832500", "095306.832500", "095308.832500", "095310.832500", "095312.832500", "095314.832500", "095316.832500", "095318.832500", "095320.832500", "095322.832500", "095324.832500", "095326.832500", "095328.832500", "095330.832500", "095332.832500", "095334.832500", "095336.832500", "095338.832500", "095340.832500", "095342.832500", "095344.832500", "095346.832500", "095348.832500", "095350.832500", "095352.832500", "095354.832500", "095356.832500", "095358.832500", "095400.832500", "095402.832500", "095404.832500", "095406.832500", "095408.832500", "095410.832500", "095412.832500", "095414.832500", "095416.832500", "095418.832500", "095420.832500", "095422.832500", "095424.832500", "095426.832500", "095428.832500", "095430.832500", "095432.832500", "095434.832500", "095436.832500", "095438.832500", "095440.832500", "095442.832500", "095444.832500", "095446.832500", "095448.832500", "095450.832500", "095452.832500", "095454.832500", "095456.832500", "095458.832500", "095500.832500", "095502.832500", "095504.832500", "095506.832500", "095508.832500"],
      "ContentTime": ["094925.251000", "094925.254000", "094925.257000", "094925.259000", "094925.262000", "094925.265000", "094925.267000", "094925.270000", "094925.273000", "094925.275000", "094925.278000", "094925.280000", "094925.283000", "094925.285000", "094925.288000", "094925.291000", "094925.293000", "094925.296000", "094925.298000", "094925.301000", "094925.304000", "094925.306000", "094925.309000", "094925.311000", "094925.314000", "094925.317000", "094925.325000", "095005.246000", "095005.248000", "095005.251000", "095005.254000", "095005.257000", "095005.259000", "095005.262000", "095005.265000", "095005.267000", "095005.270000", "095005.273000", "095005.288000", "095005.291000", "095005.293000", "095005.296000", "095005.298000", "095005.301000", "095005.304000", "095005.306000", "095005.309000", "095045.246000", "095045.248000", "095045.251000", "095045.254000", "095045.256000", "095045.259000", "095045.262000", "095045.264000", "095045.267000", "095045.270000", "095045.272000", "095045.275000", "095045.278000", "095045.280000", "095045.283000", "095045.286000", "095045.289000", "095045.291000", "095045.294000", "095045.296000", "095125.246000", "095125.248000", "095125.251000", "095125.254000", "095125.257000", "095125.259000", "095125.262000", "095125.265000", "095125.267000", "095125.270000", "095125.272000", "095125.275000", "095125.278000", "095125.280000", "095125.283000", "095125.286000", "095125.288000", "095125.291000", "095125.294000", "095125.296000", "095205.246000", "095205.249000", "095205.251000", "095205.254000", "095205.257000", "095205.259000", "095205.262000", "095205.265000", "095205.267000", "095205.270000", "095205.272000", "095205.275000", "095205.278000", "095205.280000", "095205.283000", "095205.285000", "095205.288000", "095205.291000", "095205.293000", "095205.296000", "095245.246000", "095245.248000", "095245.251000", "095245.254000", "095245.257000", "095245.259000", "095245.262000", "095245.265000", "095245.267000", "095245.270000", "095245.273000", "095245.275000", "095245.278000", "095245.281000", "095245.283000", "095245.286000", "095245.289000", "095245.291000", "095245.294000", "095245.297000", "095325.246000", "095325.248000", "095325.251000", "095325.254000", "095325.257000", "095325.259000", "095325.262000", "095325.265000", "095325.267000", "095325.270000", "095325.272000", "095325.275000", "095325.278000", "095325.280000", "095325.283000", "095325.286000", "095325.288000", "095325.291000", "095325.293000", "095325.296000", "095405.246000", "095405.248000", "095405.251000", "095405.263000", "095405.266000", "095405.268000", "095405.271000", "095405.273000", "095405.293000", "095405.295000", "095405.298000", "095405.301000", "095405.303000", "095405.306000", "095405.308000", "095405.311000", "095405.314000", "095405.316000", "095405.319000", "095405.322000", "095445.245000", "095445.248000", "095445.251000", "095445.254000", "095445.256000", "095445.259000", "095445.261000", "095445.264000", "095445.267000", "095445.269000", "095445.272000", "095445.275000", "095445.277000", "095445.280000", "095445.283000", "095445.285000", "095445.288000", "095445.290000", "095445.293000", "095445.296000", "095510.325000", "095510.328000", "095510.331000", "095510.334000", "095510.337000", "095510.340000", "095510.342000", "095510.345000", "095510.348000", "095510.350000", "095510.363000", "095510.368000", "095510.373000"],
      "InstanceCreationTime": ["094925.251000", "094925.254000", "094925.257000", "094925.259000", "094925.262000", "094925.265000", "094925.267000", "094925.270000", "094925.273000", "094925.275000", "094925.278000", "094925.280000", "094925.283000", "094925.285000", "094925.288000", "094925.291000", "094925.293000", "094925.296000", "094925.298000", "094925.301000", "094925.304000", "094925.306000", "094925.309000", "094925.311000", "094925.314000", "094925.317000", "094925.325000", "095005.246000", "095005.248000", "095005.251000", "095005.254000", "095005.257000", "095005.259000", "095005.262000", "095005.265000", "095005.267000", "095005.270000", "095005.273000", "095005.288000", "095005.291000", "095005.293000", "095005.296000", "095005.298000", "095005.301000", "095005.304000", "095005.306000", "095005.309000", "095045.246000", "095045.248000", "095045.251000", "095045.254000", "095045.256000", "095045.259000", "095045.262000", "095045.264000", "095045.267000", "095045.270000", "095045.272000", "095045.275000", "095045.278000", "095045.280000", "095045.283000", "095045.286000", "095045.289000", "095045.291000", "095045.294000", "095045.296000", "095125.246000", "095125.248000", "095125.251000", "095125.254000", "095125.257000", "095125.259000", "095125.262000", "095125.265000", "095125.267000", "095125.270000", "095125.272000", "095125.275000", "095125.278000", "095125.280000", "095125.283000", "095125.286000", "095125.288000", "095125.291000", "095125.294000", "095125.296000", "095205.246000", "095205.249000", "095205.251000", "095205.254000", "095205.257000", "095205.259000", "095205.262000", "095205.265000", "095205.267000", "095205.270000", "095205.272000", "095205.275000", "095205.278000", "095205.280000", "095205.283000", "095205.285000", "095205.288000", "095205.291000", "095205.293000", "095205.296000", "095245.246000", "095245.248000", "095245.251000", "095245.254000", "095245.257000", "095245.259000", "095245.262000", "095245.265000", "095245.267000", "095245.270000", "095245.273000", "095245.275000", "095245.278000", "095245.281000", "095245.283000", "095245.286000", "095245.289000", "095245.291000", "095245.294000", "095245.297000", "095325.246000", "095325.248000", "095325.251000", "095325.254000", "095325.257000", "095325.259000", "095325.262000", "095325.265000", "095325.267000", "095325.270000", "095325.272000", "095325.275000", "095325.278000", "095325.280000", "095325.283000", "095325.286000", "095325.288000", "095325.291000", "095325.293000", "095325.296000", "095405.246000", "095405.248000", "095405.251000", "095405.263000", "095405.266000", "095405.268000", "095405.271000", "095405.273000", "095405.293000", "095405.295000", "095405.298000", "095405.301000", "095405.303000", "095405.306000", "095405.308000", "095405.311000", "095405.314000", "095405.316000", "095405.319000", "095405.322000", "095445.245000", "095445.248000", "095445.251000", "095445.254000", "095445.256000", "095445.259000", "095445.261000", "095445.264000", "095445.267000", "095445.269000", "095445.272000", "095445.275000", "095445.277000", "095445.280000", "095445.283000", "095445.285000", "095445.288000", "095445.290000", "095445.293000", "095445.296000", "095510.325000", "095510.328000", "095510.331000", "095510.334000", "095510.337000", "095510.340000", "095510.342000", "095510.345000", "095510.348000", "095510.350000", "095510.363000", "095510.368000", "095510.373000"],
      "InstanceNumber": [1, 2, 3, 4, 5, 6, 7, 8, 9, 10, 11, 12, 13, 14, 15, 16, 17, 18, 19, 20, 21, 22, 23, 24, 25, 26, 27, 28, 29, 30, 31, 32, 33, 34, 35, 36, 37, 38, 39, 40, 41, 42, 43, 44, 45, 46, 47, 48, 49, 50, 51, 52, 53, 54, 55, 56, 57, 58, 59, 60, 61, 62, 63, 64, 65, 66, 67, 68, 69, 70, 71, 72, 73, 74, 75, 76, 77, 78, 79, 80, 81, 82, 83, 84, 85, 86, 87, 88, 89, 90, 91, 92, 93, 94, 95, 96, 97, 98, 99, 100, 101, 102, 103, 104, 105, 106, 107, 108, 109, 110, 111, 112, 113, 114, 115, 116, 117, 118, 119, 120, 121, 122, 123, 124, 125, 126, 127, 128, 129, 130, 131, 132, 133, 134, 135, 136, 137, 138, 139, 140, 141, 142, 143, 144, 145, 146, 147, 148, 149, 150, 151, 152, 153, 154, 155, 156, 157, 158, 159, 160, 161, 162, 163, 164, 165, 166, 167, 168, 169, 170, 171, 172, 173, 174, 175, 176, 177, 178, 179, 180, 181, 182, 183, 184, 185, 186, 187, 188, 189, 190, 191, 192, 193, 194, 195, 196, 197, 198, 199, 200],
      "WindowCenter": [1507.0, 1506.0, 1507.0, 1506.0, 1506.0, 1506.0, 1506.0, 1506.0, 1506.0, 1505.0, 1506.0, 1506.0, 1506.0, 1506.0, 1506.0, 1505.0, 1505.0, 1506.0, 1505.0, 1505.0, 1506.0, 1506.0, 1506.0, 1506.0, 1505.0, 1505.0, 1506.0, 1506.0, 1505.0, 1505.0, 1506.0, 1506.0, 1506.0, 1506.0, 1505.0, 1505.0, 1504.0, 1505.0, 1505.0, 1505.0, 1505.0, 1505.0, 1505.0, 1505.0, 1505.0, 1505.0, 1506.0, 1505.0, 1505.0, 1505.0, 1504.0, 1505.0, 1505.0, 1505.0, 1504.0, 1505.0, 1504.0, 1505.0, 1504.0, 1504.0, 1504.0, 1504.0, 1504.0, 1504.0, 1504.0, 1505.0, 1504.0, 1504.0, 1504.0, 1503.0, 1503.0, 1504.0, 1503.0, 1503.0, 1504.0, 1504.0, 1503.0, 1503.0, 1502.0, 1503.0, 1503.0, 1504.0, 1503.0, 1504.0, 1503.0, 1503.0, 1504.0, 1503.0, 1503.0, 1503.0, 1504.0, 1503.0, 1503.0, 1503.0, 1503.0, 1503.0, 1503.0, 1502.0, 1503.0, 1502.0, 1503.0, 1502.0, 1502.0, 1503.0, 1502.0, 1502.0, 1503.0, 1502.0, 1503.0, 1502.0, 1502.0, 1502.0, 1503.0, 1502.0, 1502.0, 1502.0, 1502.0, 1503.0, 1502.0, 1502.0, 1502.0, 1501.0, 1503.0, 1502.0, 1502.0, 1502.0, 1502.0, 1502.0, 1502.0, 1502.0, 1502.0, 1502.0, 1502.0, 1502.0, 1503.0, 1502.0, 1502.0, 1502.0, 1502.0, 1502.0, 1503.0, 1502.0, 1501.0, 1501.0, 1502.0, 1501.0, 1501.0, 1502.0, 1501.0, 1501.0, 1502.0, 1501.0, 1500.0, 1501.0, 1502.0, 1501.0, 1501.0, 1502.0, 1501.0, 1501.0, 1501.0, 1501.0, 1502.0, 1500.0, 1501.0, 1501.0, 1501.0, 1501.0, 1501.0, 1501.0, 1501.0, 1501.0, 1500.0, 1501.0, 1501.0, 1501.0, 1501.0, 1500.0, 1501.0, 1501.0, 1500.0, 1500.0, 1501.0, 1500.0, 1501.0, 1500.0, 1500.0, 1500.0, 1500.0, 1500.0, 1500.0, 1500.0, 1500.0, 1499.0, 1501.0, 1501.0, 1501.0, 1500.0, 1500.0, 1501.0],
      "WindowWidth": [3421.0, 3421.0, 3420.0, 3420.0, 3420.0, 3420.0, 3420.0, 3420.0, 3420.0, 3420.0, 3420.0, 3420.0, 3420.0, 3420.0, 3420.0, 3420.0, 3420.0, 3420.0, 3420.0, 3420.0, 3420.0, 3420.0, 3420.0, 3420.0, 3420.0, 3420.0, 3420.0, 3420.0, 3420.0, 3420.0, 3420.0, 3420.0, 3420.0, 3420.0, 3420.0, 3420.0, 3420.0, 3420.0, 3420.0, 3420.0, 3420.0, 3420.0, 3420.0, 3420.0, 3420.0, 3420.0, 3419.0, 3420.0, 3419.0, 3419.0, 3420.0, 3419.0, 3419.0, 3419.0, 3419.0, 3419.0, 3419.0, 3419.0, 3419.0, 3419.0, 3419.0, 3419.0, 3419.0, 3419.0, 3419.0, 3419.0, 3419.0, 3419.0, 3419.0, 3419.0, 3419.0, 3418.0, 3419.0, 3419.0, 3418.0, 3418.0, 3419.0, 3418.0, 3419.0, 3418.0, 3418.0, 3418.0, 3418.0, 3418.0, 3418.0, 3418.0, 3418.0, 3418.0, 3418.0, 3418.0, 3418.0, 3418.0, 3418.0, 3418.0, 3418.0, 3418.0, 3418.0, 3418.0, 3417.0, 3418.0, 3417.0, 3418.0, 3418.0, 3417.0, 3418.0, 3418.0, 3417.0, 3417.0, 3417.0, 3417.0, 3417.0, 3417.0, 3417.0, 3417.0, 3417.0, 3417.0, 3417.0, 3417.0, 3417.0, 3417.0, 3417.0, 3418.0, 3417.0, 3417.0, 3417.0, 3417.0, 3417.0, 3417.0, 3417.0, 3417.0, 3417.0, 3417.0, 3417.0, 3417.0, 3417.0, 3417.0, 3417.0, 3417.0, 3417.0, 3417.0, 3417.0, 3417.0, 3417.0, 3417.0, 3417.0, 3417.0, 3417.0, 3417.0, 3417.0, 3417.0, 3417.0, 3417.0, 3417.0, 3417.0, 3417.0, 3417.0, 3417.0, 3416.0, 3417.0, 3416.0, 3416.0, 3416.0, 3416.0, 3417.0, 3416.0, 3416.0, 3416.0, 3416.0, 3416.0, 3416.0, 3416.0, 3416.0, 3417.0, 3416.0, 3416.0, 3416.0, 3416.0, 3416.0, 3416.0, 3416.0, 3416.0, 3416.0, 3416.0, 3417.0, 3416.0, 3416.0, 3416.0, 3416.0, 3416.0, 3416.0, 3416.0, 3416.0, 3416.0, 3416.0, 3416.0, 3416.0, 3416.0, 3416.0, 3416.0, 3416.0]
    },
    "slices": {}
  }
}