{
  "AcquisitionMatrixPE": 80,
  "AcquisitionNumber": 1,
  "AcquisitionTime": "10:02:8.547500",
  "BandwidthPerPixelPhaseEncode": 25,
  "BaseResolution": 80,
  "BodyPartExamined": "BRAIN",
  "CoilCombinationMethod": "Sum of Squares",
  "ConsistencyInfo": "N4_VE11C_LATEST_20160120",
  "ConversionSoftware": "dcm2niix",
  "ConversionSoftwareVersion": "v1.0.20220720",
  "DerivedVendorReportedEchoSpacing": 0.0005,
  "DeviceSerialNumber": "66112",
  "DwellTime": 2.7e-06,
  "EchoTime": 0.03,
  "EchoTrainLength": 80,
  "EffectiveEchoSpacing": 0.0005,
  "FlipAngle": 10,
  "HeudiconvVersion": "0.13.1",
  "ImageOrientationPatientDICOM": [0.999914, 0.012801, 0.00302456, -0.0130896, 0.945762, 0.324597],
  "ImageOrientationText": "Tra>Cor(18.9)>Sag(-0.1)",
  "ImageType": [
    "ORIGINAL",
    "PRIMARY",
    "M",
    "ND",
    "NORM",
    "MOSAIC"
],
  "ImagingFrequency": 123.252,
  "InPlanePhaseEncodingDirectionDICOM": "COL",
  "InstitutionAddress": "Maynard 3,Hanover,NH,US,03755",
  "InstitutionName": "Dartmouth College - PBS",
  "InstitutionalDepartmentName": "Department",
  "MRAcquisitionType": "2D",
  "MagneticFieldStrength": 3,
  "Manufacturer": "Siemens",
  "ManufacturersModelName": "Prisma",
  "MatrixCoilMode": "SENSE",
  "Modality": "MR",
  "NonlinearGradientCorrection": false,
  "PartialFourier": 1,
  "PatientPosition": "HFS",
  "PercentPhaseFOV": 100,
  "PercentSampling": 100,
  "PhaseEncodingDirection": "j-",
  "PhaseEncodingSteps": 80,
  "PhaseResolution": 1,
  "PixelBandwidth": 2315,
  "ProcedureStepDescription": "dbic^QA",
  "ProtocolName": "func-bold_fa-10",
  "PulseSequenceDetails": "%SiemensSeq%\\ep2d_bold",
  "ReceiveCoilActiveElements": "HC1-7;NC1,2",
  "ReceiveCoilName": "HeadNeck_64",
  "ReconMatrixPE": 80,
  "RepetitionTime": 2,
  "SAR": 0.00757907,
  "ScanOptions": "FS",
  "ScanningSequence": "EP",
  "SequenceName": "*epfid2d1_80",
  "SequenceVariant": "SK",
  "SeriesDescription": "func-bold_fa-10",
  "SeriesNumber": 9,
  "ShimSetting": [4140, -7698, -7517, 211, -37, -352, -84, 104],
  "SliceThickness": 3.5,
  "SliceTiming": [0.99, 0, 1.055, 0.065, 1.12, 0.13, 1.1875, 0.1975, 1.2525, 0.2625, 1.32, 0.33, 1.385, 0.395, 1.45, 0.46, 1.5175, 0.5275, 1.5825, 0.5925, 1.65, 0.66, 1.715, 0.725, 1.78, 0.79, 1.8475, 0.8575, 1.9125, 0.9225],
  "SoftwareVersions": "syngo MR E11",
  "SpacingBetweenSlices": 3.99,
  "StationName": "AWP66112",
  "TotalReadoutTime": 0.0395,
  "TxRefAmp": 207.988,
  "dcmmeta_affine": [
    [-2.9997403621673584, -0.03926866501569748, -0.005165638402104378, 122.98188781738281],
    [-0.03840288519859314, 2.837285280227661, 1.2951890230178833, -126.32090759277344],
    [0.009073673747479916, -0.9737918376922607, 3.7739315032958984, -22.308996200561523],
    [0.0, 0.0, 0.0, 1.0]
],
  "dcmmeta_reorient_transform": [
    [0.0, -1.0, 0.0, 79.0],
    [1.0, 0.0, 0.0, 0.0],
    [0.0, 0.0, 1.0, 0.0],
    [0.0, 0.0, 0.0, 1.0]
],
  "dcmmeta_shape": [80, 80, 30, 200],
  "dcmmeta_slice_dim": 2,
  "dcmmeta_version": 0.6,
  "global": {
    "const": {
      "AccessionNumber": "qa64",
      "AcquisitionMatrix": [80, 0, 0, 80],
      "AngioFlag": "N",
      "BitsAllocated": 16,
      "BitsStored": 12,
      "BodyPartExamined": "BRAIN",
      "Columns": 480,
      "EchoNumbers": 1,
      "EchoTime": 30.0,
      "EchoTrainLength": 80,
      "FlipAngle": 10.0,
      "HighBit": 11,
      "ImageOrientationPatient": [0.99991348997967, 0.01280096116639, 0.00302455780133, -0.013089554919, 0.94576173925054, 0.32459728298589],
      "ImagePositionPatient": [-711.97402769253, -672.96224245998, -295.81165648863],
      "ImageType": [
        "ORIGINAL",
        "PRIMARY",
        "M",
        "ND",
        "NORM",
        "MOSAIC"
],
      "ImagedNucleus": "1H",
      "ImagingFrequency": 123.252362,
      "InPlanePhaseEncodingDirection": "COL",
      "MRAcquisitionType": "2D",
      "MagneticFieldStrength": 3.0,
      "Manufacturer": "SIEMENS",
      "ManufacturerModelName": "Prisma",
      "Modality": "MR",
      "NumberOfAverages": 1.0,
      "NumberOfPhaseEncodingSteps": 80,
      "PercentPhaseFieldOfView": 100.0,
      "PercentSampling": 100.0,
      "PerformedProcedureStepStartTime": "094604.314000",
      "PhotometricInterpretation": "MONOCHROME2",
      "PixelBandwidth": 2315.0,
      "PixelRepresentation": 0,
      "PixelSpacing": [3.0, 3.0],
      "ProtocolName": "func-bold_fa-10",
      "RepetitionTime": 2000.0,
      "Rows": 480,
      "SAR": 0.00757906606059,
      "SamplesPerPixel": 1,
      "ScanOptions": "FS",
      "ScanningSequence": "EP",
      "SequenceName": "*epfid2d1_80",
      "SequenceVariant": "SK",
      "SeriesDescription": "func-bold_fa-10",
      "SeriesNumber": 9,
      "SeriesTime": "100305.177000",
      "SliceLocation": -62.265003659641,
      "SliceThickness": 3.5,
      "SmallestImagePixelValue": 0,
      "SoftwareVersions": "syngo MR E11",
      "SpacingBetweenSlices": 3.9899999983505,
      "SpecificCharacterSet": "ISO_IR 100",
      "StudyID": "25",
      "StudyTime": "094604.245000",
      "TransmitCoilName": "Body",
      "VariableFlipAngleFlag": "N",
      "WindowCenterWidthExplanation": "Algo1",
      "dBdt": 0.0},
    "slices": {}
  },
  "time": {
    "samples": {
      "AcquisitionNumber": [1, 2, 3, 4, 5, 6, 7, 8, 9, 10, 11, 12, 13, 14, 15, 16, 17, 18, 19, 20, 21, 22, 23, 24, 25, 26, 27, 28, 29, 30, 31, 32, 33, 34, 35, 36, 37, 38, 39, 40, 41, 42, 43, 44, 45, 46, 47, 48, 49, 50, 51, 52, 53, 54, 55, 56, 57, 58, 59, 60, 61, 62, 63, 64, 65, 66, 67, 68, 69, 70, 71, 72, 73, 74, 75, 76, 77, 78, 79, 80, 81, 82, 83, 84, 85, 86, 87, 88, 89, 90, 91, 92, 93, 94, 95, 96, 97, 98, 99, 100, 101, 102, 103, 104, 105, 106, 107, 108, 109, 110, 111, 112, 113, 114, 115, 116, 117, 118, 119, 120, 121, 122, 123, 124, 125, 126, 127, 128, 129, 130, 131, 132, 133, 134, 135, 136, 137, 138, 139, 140, 141, 142, 143, 144, 145, 146, 147, 148, 149, 150, 151, 152, 153, 154, 155, 156, 157, 158, 159, 160, 161, 162, 163, 164, 165, 166, 167, 168, 169, 170, 171, 172, 173, 174, 175, 176, 177, 178, 179, 180, 181, 182, 183, 184, 185, 186, 187, 188, 189, 190, 191, 192, 193, 194, 195, 196, 197, 198, 199, 200],
      "AcquisitionTime": ["100208.547500", "100210.547500", "100212.547500", "100214.547500", "100216.547500", "100218.547500", "100220.547500", "100222.547500", "100224.547500", "100226.547500", "100228.547500", "100230.547500", "100232.547500", "100234.547500", "100236.547500", "100238.547500", "100240.547500", "100242.547500", "100244.547500", "100246.547500", "100248.547500", "100250.547500", "100252.547500", "100254.547500", "100256.547500", "100258.547500", "100300.547500", "100302.547500", "100304.547500", "100306.547500", "100308.547500", "100310.547500", "100312.547500", "100314.547500", "100316.547500", "100318.547500", "100320.547500", "100322.547500", "100324.547500", "100326.547500", "100328.547500", "100330.547500", "100332.547500", "100334.547500", "100336.547500", "100338.547500", "100340.547500", "100342.547500", "100344.547500", "100346.547500", "100348.547500", "100350.547500", "100352.547500", "100354.547500", "100356.547500", "100358.547500", "100400.547500", "100402.547500", "100404.547500", "100406.547500", "100408.547500", "100410.547500", "100412.547500", "100414.547500", "100416.547500", "100418.547500", "100420.547500", "100422.547500", "100424.547500", "100426.547500", "100428.547500", "100430.547500", "100432.547500", "100434.547500", "100436.547500", "100438.547500", "100440.547500", "100442.547500", "100444.547500", "100446.547500", "100448.547500", "100450.547500", "100452.547500", "100454.547500", "100456.547500", "100458.547500", "100500.547500", "100502.547500", "100504.547500", "100506.547500", "100508.547500", "100510.547500", "100512.547500", "100514.547500", "100516.547500", "100518.547500", "100520.547500", "100522.547500", "100524.547500", "100526.547500", "100528.547500", "100530.547500", "100532.547500", "100534.547500", "100536.547500", "100538.547500", "100540.547500", "100542.547500", "100544.547500", "100546.547500", "100548.547500", "100550.547500", "100552.547500", "100554.547500", "100556.547500", "100558.547500", "100600.547500", "100602.547500", "100604.547500", "100606.547500", "100608.547500", "100610.547500", "100612.547500", "100614.547500", "100616.547500", "100618.547500", "100620.547500", "100622.547500", "100624.547500", "100626.547500", "100628.547500", "100630.547500", "100632.547500", "100634.547500", "100636.547500", "100638.547500", "100640.547500", "100642.547500", "100644.547500", "100646.547500", "100648.547500", "100650.547500", "100652.547500", "100654.547500", "100656.547500", "100658.547500", "100700.547500", "100702.547500", "100704.547500", "100706.547500", "100708.547500", "100710.547500", "100712.547500", "100714.547500", "100716.547500", "100718.547500", "100720.547500", "100722.547500", "100724.547500", "100726.547500", "100728.547500", "100730.547500", "100732.547500", "100734.547500", "100736.547500", "100738.547500", "100740.547500", "100742.547500", "100744.547500", "100746.547500", "100748.547500", "100750.547500", "100752.547500", "100754.547500", "100756.547500", "100758.547500", "100800.547500", "100802.547500", "100804.547500", "100806.547500", "100808.547500", "100810.547500", "100812.547500", "100814.547500", "100816.547500", "100818.547500", "100820.547500", "100822.547500", "100824.547500", "100826.547500", "100828.547500", "100830.547500", "100832.547500", "100834.547500", "100836.547500", "100838.547500", "100840.547500", "100842.547500", "100844.547500", "100846.547500"],
      "ContentTime": ["100305.183000", "100305.186000", "100305.189000", "100305.192000", "100305.194000", "100305.197000", "100305.199000", "100305.202000", "100305.204000", "100305.207000", "100305.209000", "100305.212000", "100305.215000", "100305.217000", "100305.220000", "100305.222000", "100305.225000", "100305.227000", "100305.238000", "100305.240000", "100305.243000", "100305.245000", "100305.248000", "100305.250000", "100305.253000", "100305.255000", "100305.258000", "100305.261000", "100345.175000", "100345.178000", "100345.181000", "100345.183000", "100345.186000", "100345.188000", "100345.191000", "100345.193000", "100345.196000", "100345.198000", "100345.201000", "100345.211000", "100345.213000", "100345.216000", "100345.218000", "100345.221000", "100345.223000", "100345.226000", "100345.228000", "100345.231000", "100425.175000", "100425.178000", "100425.181000", "100425.183000", "100425.186000", "100425.188000", "100425.191000", "100425.193000", "100425.196000", "100425.199000", "100425.201000", "100425.204000", "100425.206000", "100425.209000", "100425.227000", "100425.229000", "100425.232000", "100425.234000", "100425.237000", "100425.239000", "100505.175000", "100505.178000", "100505.181000", "100505.183000", "100505.191000", "100505.194000", "100505.196000", "100505.199000", "100505.201000", "100505.204000", "100505.206000", "100505.209000", "100505.212000", "100505.214000", "100505.217000", "100505.219000", "100505.222000", "100505.239000", "100505.242000", "100505.244000", "100545.176000", "100545.178000", "100545.181000", "100545.183000", "100545.186000", "100545.189000", "100545.191000", "100545.194000", "100545.196000", "100545.199000", "100545.201000", "100545.204000", "100545.207000", "100545.209000", "100545.212000", "100545.214000", "100545.217000", "100545.219000", "100545.222000", "100545.225000", "100625.175000", "100625.178000", "100625.181000", "100625.183000", "100625.186000", "100625.189000", "100625.191000", "100625.194000", "100625.196000", "100625.199000", "100625.201000", "100625.204000", "100625.206000", "100625.209000", "100625.212000", "100625.214000", "100625.217000", "100625.220000", "100625.222000", "100625.225000", "100705.176000", "100705.179000", "100705.182000", "100705.185000", "100705.187000", "100705.190000", "100705.192000", "100705.195000", "100705.198000", "100705.200000", "100705.203000", "100705.205000", "100705.208000", "100705.210000", "100705.213000", "100705.215000", "100705.218000", "100705.221000", "100705.223000", "100705.226000", "100745.175000", "100745.178000", "100745.181000", "100745.183000", "100745.186000", "100745.188000", "100745.191000", "100745.194000", "100745.196000", "100745.199000", "100745.201000", "100745.204000", "100745.206000", "100745.209000", "100745.212000", "100745.214000", "100745.217000", "100745.220000", "100745.222000", "100745.225000", "100825.175000", "100825.178000", "100825.181000", "100825.183000", "100825.186000", "100825.189000", "100825.191000", "100825.194000", "100825.196000", "100825.199000", "100825.201000", "100825.204000", "100825.206000", "100825.209000", "100825.211000", "100825.214000", "100825.217000", "100825.219000", "100825.222000", "100825.224000", "100848.288000", "100848.291000", "100848.294000", "100848.296000", "100848.299000", "100848.301000", "100848.304000", "100848.306000", "100848.309000", "100848.311000", "100848.314000", "100848.324000"],
      "InstanceCreationTime": ["100305.183000", "100305.186000", "100305.189000", "100305.192000", "100305.194000", "100305.197000", "100305.199000", "100305.202000", "100305.204000", "100305.207000", "100305.209000", "100305.212000", "100305.215000", "100305.217000", "100305.220000", "100305.222000", "100305.225000", "100305.227000", "100305.238000", "100305.240000", "100305.243000", "100305.245000", "100305.248000", "100305.250000", "100305.253000", "100305.255000", "100305.258000", "100305.261000", "100345.175000", "100345.178000", "100345.181000", "100345.183000", "100345.186000", "100345.188000", "100345.191000", "100345.193000", "100345.196000", "100345.198000", "100345.201000", "100345.211000", "100345.213000", "100345.216000", "100345.218000", "100345.221000", "100345.223000", "100345.226000", "100345.228000", "100345.231000", "100425.175000", "100425.178000", "100425.181000", "100425.183000", "100425.186000", "100425.188000", "100425.191000", "100425.193000", "100425.196000", "100425.199000", "100425.201000", "100425.204000", "100425.206000", "100425.209000", "100425.227000", "100425.229000", "100425.232000", "100425.234000", "100425.237000", "100425.239000", "100505.175000", "100505.178000", "100505.181000", "100505.183000", "100505.191000", "100505.194000", "100505.196000", "100505.199000", "100505.201000", "100505.204000", "100505.206000", "100505.209000", "100505.212000", "100505.214000", "100505.217000", "100505.219000", "100505.222000", "100505.239000", "100505.242000", "100505.244000", "100545.176000", "100545.178000", "100545.181000", "100545.183000", "100545.186000", "100545.189000", "100545.191000", "100545.194000", "100545.196000", "100545.199000", "100545.201000", "100545.204000", "100545.207000", "100545.209000", "100545.212000", "100545.214000", "100545.217000", "100545.219000", "100545.222000", "100545.225000", "100625.175000", "100625.178000", "100625.181000", "100625.183000", "100625.186000", "100625.189000", "100625.191000", "100625.194000", "100625.196000", "100625.199000", "100625.201000", "100625.204000", "100625.206000", "100625.209000", "100625.212000", "100625.214000", "100625.217000", "100625.220000", "100625.222000", "100625.225000", "100705.176000", "100705.179000", "100705.182000", "100705.185000", "100705.187000", "100705.190000", "100705.192000", "100705.195000", "100705.198000", "100705.200000", "100705.203000", "100705.205000", "100705.208000", "100705.210000", "100705.213000", "100705.215000", "100705.218000", "100705.221000", "100705.223000", "100705.226000", "100745.175000", "100745.178000", "100745.181000", "100745.183000", "100745.186000", "100745.188000", "100745.191000", "100745.194000", "100745.196000", "100745.199000", "100745.201000", "100745.204000", "100745.206000", "100745.209000", "100745.212000", "100745.214000", "100745.217000", "100745.220000", "100745.222000", "100745.225000", "100825.175000", "100825.178000", "100825.181000", "100825.183000", "100825.186000", "100825.189000", "100825.191000", "100825.194000", "100825.196000", "100825.199000", "100825.201000", "100825.204000", "100825.206000", "100825.209000", "100825.211000", "100825.214000", "100825.217000", "100825.219000", "100825.222000", "100825.224000", "100848.288000", "100848.291000", "100848.294000", "100848.296000", "100848.299000", "100848.301000", "100848.304000", "100848.306000", "100848.309000", "100848.311000", "100848.314000", "100848.324000"],
      "InstanceNumber": [1, 2, 3, 4, 5, 6, 7, 8, 9, 10, 11, 12, 13, 14, 15, 16, 17, 18, 19, 20, 21, 22, 23, 24, 25, 26, 27, 28, 29, 30, 31, 32, 33, 34, 35, 36, 37, 38, 39, 40, 41, 42, 43, 44, 45, 46, 47, 48, 49, 50, 51, 52, 53, 54, 55, 56, 57, 58, 59, 60, 61, 62, 63, 64, 65, 66, 67, 68, 69, 70, 71, 72, 73, 74, 75, 76, 77, 78, 79, 80, 81, 82, 83, 84, 85, 86, 87, 88, 89, 90, 91, 92, 93, 94, 95, 96, 97, 98, 99, 100, 101, 102, 103, 104, 105, 106, 107, 108, 109, 110, 111, 112, 113, 114, 115, 116, 117, 118, 119, 120, 121, 122, 123, 124, 125, 126, 127, 128, 129, 130, 131, 132, 133, 134, 135, 136, 137, 138, 139, 140, 141, 142, 143, 144, 145, 146, 147, 148, 149, 150, 151, 152, 153, 154, 155, 156, 157, 158, 159, 160, 161, 162, 163, 164, 165, 166, 167, 168, 169, 170, 171, 172, 173, 174, 175, 176, 177, 178, 179, 180, 181, 182, 183, 184, 185, 186, 187, 188, 189, 190, 191, 192, 193, 194, 195, 196, 197, 198, 199, 200],
      "LargestImagePixelValue": [696, 701, 695, 701, 700, 699, 700, 700, 701, 700, 697, 697, 697, 698, 699, 701, 698, 703, 704, 708, 696, 700, 699, 703, 703, 703, 699, 701, 699, 703, 704, 704, 702, 704, 704, 706, 704, 705, 704, 701, 705, 702, 701, 698, 699, 698, 704, 700, 705, 700, 703, 704, 703, 700, 700, 699, 703, 697, 699, 699, 696, 696, 699, 704, 699, 702, 702, 697, 701, 696, 702, 702, 704, 701, 698, 698, 699, 705, 698, 699, 704, 699, 702, 703, 704, 703, 701, 702, 701, 702, 703, 702, 702, 702, 703, 702, 704, 700, 701, 706, 701, 702, 701, 704, 700, 703, 704, 705, 705, 705, 702, 704, 702, 703, 703, 703, 700, 704, 702, 703, 703, 702, 705, 703, 700, 700, 706, 700, 701, 703, 700, 703, 699, 701, 700, 703, 699, 700, 702, 700, 698, 696, 698, 697, 698, 699, 698, 701, 698, 700, 699, 698, 698, 696, 703, 698, 702, 702, 701, 698, 701, 697, 699, 698, 697, 698, 700, 698, 698, 698, 701, 701, 701, 696, 698, 698, 696, 697, 700, 699, 699, 699, 696, 699, 701, 698, 702, 702, 703, 702, 702, 700, 698, 698, 697, 699, 696, 699, 697, 700],
      "WindowCenter": [461.0, 461.0, 462.0, 462.0, 461.0, 461.0, 461.0, 461.0, 462.0, 464.0, 461.0, 461.0, 461.0, 463.0, 461.0, 461.0, 461.0, 464.0, 463.0, 462.0, 461.0, 462.0, 461.0, 464.0, 464.0, 464.0, 463.0, 462.0, 461.0, 464.0, 465.0, 465.0, 465.0, 465.0, 465.0, 465.0, 465.0, 465.0, 465.0, 465.0, 465.0, 465.0, 463.0, 462.0, 462.0, 462.0, 463.0, 464.0, 463.0, 465.0, 465.0, 465.0, 465.0, 462.0, 462.0, 462.0, 463.0, 462.0, 462.0, 462.0, 461.0, 462.0, 462.0, 464.0, 462.0, 465.0, 465.0, 462.0, 464.0, 463.0, 463.0, 465.0, 465.0, 464.0, 462.0, 462.0, 463.0, 463.0, 464.0, 462.0, 464.0, 465.0, 465.0, 465.0, 465.0, 465.0, 464.0, 465.0, 464.0, 464.0, 464.0, 464.0, 464.0, 464.0, 464.0, 464.0, 464.0, 464.0, 464.0, 464.0, 464.0, 464.0, 464.0, 464.0, 464.0, 464.0, 464.0, 464.0, 464.0, 464.0, 464.0, 464.0, 464.0, 464.0, 464.0, 464.0, 464.0, 464.0, 464.0, 464.0, 464.0, 464.0, 464.0, 464.0, 464.0, 464.0, 464.0, 464.0, 464.0, 464.0, 464.0, 464.0, 462.0, 464.0, 462.0, 463.0, 463.0, 461.0, 462.0, 463.0, 462.0, 462.0, 461.0, 462.0, 462.0, 461.0, 461.0, 463.0, 461.0, 461.0, 461.0, 461.0, 462.0, 461.0, 462.0, 462.0, 461.0, 463.0, 462.0, 461.0, 462.0, 463.0, 463.0, 461.0, 461.0, 461.0, 464.0, 461.0, 461.0, 462.0, 464.0, 462.0, 461.0, 461.0, 462.0, 461.0, 461.0, 461.0, 461.0, 464.0, 461.0, 461.0, 461.0, 461.0, 461.0, 461.0, 463.0, 462.0, 464.0, 464.0, 462.0, 461.0, 461.0, 461.0, 461.0, 461.0, 461.0, 461.0, 461.0, 461.0],
      "WindowWidth": [958.0, 958.0, 959.0, 959.0, 958.0, 958.0, 958.0, 958.0, 959.0, 964.0, 958.0, 958.0, 958.0, 960.0, 958.0, 958.0, 958.0, 962.0, 961.0, 960.0, 958.0, 959.0, 958.0, 963.0, 964.0, 964.0, 961.0, 959.0, 958.0, 963.0, 965.0, 965.0, 964.0, 965.0, 965.0, 965.0, 965.0, 964.0, 964.0, 964.0, 965.0, 965.0, 961.0, 959.0, 959.0, 959.0, 960.0, 963.0, 961.0, 965.0, 964.0, 964.0, 964.0, 959.0, 959.0, 959.0, 961.0, 959.0, 959.0, 959.0, 958.0, 959.0, 959.0, 962.0, 959.0, 964.0, 964.0, 960.0, 962.0, 962.0, 961.0, 964.0, 964.0, 964.0, 959.0, 959.0, 960.0, 961.0, 962.0, 959.0, 964.0, 964.0, 964.0, 964.0, 964.0, 964.0, 964.0, 964.0, 964.0, 964.0, 964.0, 964.0, 964.0, 964.0, 964.0, 964.0, 964.0, 964.0, 964.0, 964.0, 964.0, 964.0, 964.0, 964.0, 964.0, 964.0, 964.0, 964.0, 964.0, 964.0, 964.0, 964.0, 964.0, 964.0, 963.0, 964.0, 964.0, 964.0, 964.0, 964.0, 964.0, 963.0, 964.0, 964.0, 963.0, 964.0, 964.0, 964.0, 964.0, 964.0, 963.0, 962.0, 959.0, 962.0, 959.0, 961.0, 961.0, 958.0, 959.0, 961.0, 959.0, 959.0, 958.0, 959.0, 959.0, 958.0, 958.0, 961.0, 958.0, 958.0, 958.0, 958.0, 959.0, 958.0, 959.0, 959.0, 958.0, 960.0, 960.0, 958.0, 959.0, 960.0, 961.0, 958.0, 958.0, 958.0, 963.0, 958.0, 958.0, 959.0, 963.0, 960.0, 958.0, 958.0, 959.0, 958.0, 958.0, 958.0, 958.0, 962.0, 958.0, 958.0, 958.0, 958.0, 958.0, 958.0, 961.0, 959.0, 962.0, 963.0, 959.0, 958.0, 958.0, 958.0, 958.0, 958.0, 958.0, 958.0, 958.0, 958.0]
    },
    "slices": {}
  }
}