{
  "AcquisitionMatrixPE": 80,
  "AcquisitionNumber": 1,
  "AcquisitionTime": "09:38:0.477500",
  "BandwidthPerPixelPhaseEncode": 25,
  "BaseResolution": 80,
  "BodyPartExamined": "BRAIN",
  "CoilCombinationMethod": "Sum of Squares",
  "ConsistencyInfo": "N4_VE11E_LATEST_20181129",
  "ConversionSoftware": "dcm2niix",
  "ConversionSoftwareVersion": "v1.0.20220720",
  "DerivedVendorReportedEchoSpacing": 0.0005,
  "DeviceSerialNumber": "66112",
  "DwellTime": 2.7e-06,
  "EchoTime": 0.03,
  "EchoTrainLength": 80,
  "EffectiveEchoSpacing": 0.0005,
  "FlipAngle": 10,
  "HeudiconvVersion": "0.13.1",
  "ImageOrientationPatientDICOM": [0.999957, 0.00862536, 0.0034111, -0.00925012, 0.954465, 0.298179],
  "ImageOrientationText": "Tra>Cor(17.3)>Sag(0.0)",
  "ImageType": [
    "ORIGINAL",
    "PRIMARY",
    "M",
    "ND",
    "NORM",
    "MOSAIC"
],
  "ImagingFrequency": 123.252,
  "InPlanePhaseEncodingDirectionDICOM": "COL",
  "InstitutionAddress": "Maynard 3,Hanover,NH,US,03755",
  "InstitutionName": "Dartmouth College - PBS",
  "InstitutionalDepartmentName": "Department",
  "MRAcquisitionType": "2D",
  "MagneticFieldStrength": 3,
  "Manufacturer": "Siemens",
  "ManufacturersModelName": "Prisma",
  "MatrixCoilMode": "SENSE",
  "Modality": "MR",
  "NonlinearGradientCorrection": false,
  "PartialFourier": 1,
  "PatientPosition": "HFS",
  "PercentPhaseFOV": 100,
  "PercentSampling": 100,
  "PhaseEncodingDirection": "j-",
  "PhaseEncodingSteps": 80,
  "PhaseResolution": 1,
  "PixelBandwidth": 2315,
  "ProcedureStepDescription": "dbic^QA",
  "ProtocolName": "func-bold_fa-10",
  "PulseSequenceDetails": "%SiemensSeq%\\ep2d_bold",
  "ReceiveCoilActiveElements": "HEA;HEP",
  "ReceiveCoilName": "Head_32",
  "ReconMatrixPE": 80,
  "RepetitionTime": 2,
  "SAR": 0.0116084,
  "ScanOptions": "FS",
  "ScanningSequence": "EP",
  "SequenceName": "*epfid2d1_80",
  "SequenceVariant": "SK",
  "SeriesDescription": "func-bold_fa-10",
  "SeriesNumber": 10,
  "ShimSetting": [4154, -7701, -7519, 284, -23, -156, -35, 82],
  "SliceThickness": 3.5,
  "SliceTiming": [0.99, 0, 1.055, 0.065, 1.1225, 0.1325, 1.1875, 0.1975, 1.2525, 0.2625, 1.32, 0.33, 1.385, 0.395, 1.4525, 0.4625, 1.5175, 0.5275, 1.5825, 0.5925, 1.65, 0.66, 1.715, 0.725, 1.7825, 0.7925, 1.8475, 0.8575, 1.9125, 0.9225],
  "SoftwareVersions": "syngo MR E11",
  "SpacingBetweenSlices": 3.99,
  "StationName": "AWP66112",
  "TotalReadoutTime": 0.0395,
  "TxRefAmp": 225.479,
  "dcmmeta_affine": [
    [-2.999871015548706, -0.027750354260206223, 0.0027286531403660774, 121.5721206665039],
    [-0.025876067578792572, 2.8633952140808105, 1.1898102760314941, -126.79767608642578],
    [0.010233300738036633, -0.8945380449295044, 3.8084700107574463, -21.53413963317871],
    [0.0, 0.0, 0.0, 1.0]
],
  "dcmmeta_reorient_transform": [
    [0.0, -1.0, 0.0, 79.0],
    [1.0, 0.0, 0.0, 0.0],
    [0.0, 0.0, 1.0, 0.0],
    [0.0, 0.0, 0.0, 1.0]
],
  "dcmmeta_shape": [80, 80, 30, 200],
  "dcmmeta_slice_dim": 2,
  "dcmmeta_version": 0.6,
  "global": {
    "const": {
      "AccessionNumber": "qa",
      "AcquisitionMatrix": [80, 0, 0, 80],
      "AngioFlag": "N",
      "BitsAllocated": 16,
      "BitsStored": 12,
      "BodyPartExamined": "BRAIN",
      "Columns": 480,
      "EchoNumbers": 1,
      "EchoTime": 30.0,
      "EchoTrainLength": 80,
      "FlipAngle": 10.0,
      "HighBit": 11,
      "ImageOrientationPatient": [0.99995698289095, 0.00862535578067, 0.00341110030336, -0.0092501181281, 0.95446503783583, 0.29817935351675],
      "ImagePositionPatient": [-713.8039618565, -677.26477075129, -273.15691797973],
      "ImageType": [
        "ORIGINAL",
        "PRIMARY",
        "M",
        "ND",
        "NORM",
        "MOSAIC"
],
      "ImagedNucleus": "1H",
      "ImagingFrequency": 123.252475,
      "InPlanePhaseEncodingDirection": "COL",
      "MRAcquisitionType": "2D",
      "MagneticFieldStrength": 3.0,
      "Manufacturer": "SIEMENS",
      "ManufacturerModelName": "Prisma",
      "Modality": "MR",
      "NumberOfAverages": 1.0,
      "NumberOfPhaseEncodingSteps": 80,
      "PercentPhaseFieldOfView": 100.0,
      "PercentSampling": 100.0,
      "PerformedProcedureStepStartTime": "091411.626000",
      "PhotometricInterpretation": "MONOCHROME2",
      "PixelBandwidth": 2315.0,
      "PixelRepresentation": 0,
      "PixelSpacing": [3.0, 3.0],
      "ProtocolName": "func-bold_fa-10",
      "RepetitionTime": 2000.0,
      "Rows": 480,
      "SAR": 0.01160837670885,
      "SamplesPerPixel": 1,
      "ScanOptions": "FS",
      "ScanningSequence": "EP",
      "SequenceName": "*epfid2d1_80",
      "SequenceVariant": "SK",
      "SeriesDescription": "func-bold_fa-10",
      "SeriesNumber": 10,
      "SeriesTime": "093849.210000",
      "SliceLocation": -58.282101288018,
      "SliceThickness": 3.5,
      "SmallestImagePixelValue": 0,
      "SoftwareVersions": "syngo MR E11",
      "SpacingBetweenSlices": 3.9899999651761,
      "SpecificCharacterSet": "ISO_IR 100",
      "StudyID": "1",
      "StudyTime": "091411.532000",
      "TransmitCoilName": "Body",
      "VariableFlipAngleFlag": "N",
      "WindowCenterWidthExplanation": "Algo1"
    },
    "slices": {}
  },
  "time": {
    "samples": {
      "AcquisitionNumber": [1, 2, 3, 4, 5, 6, 7, 8, 9, 10, 11, 12, 13, 14, 15, 16, 17, 18, 19, 20, 21, 22, 23, 24, 25, 26, 27, 28, 29, 30, 31, 32, 33, 34, 35, 36, 37, 38, 39, 40, 41, 42, 43, 44, 45, 46, 47, 48, 49, 50, 51, 52, 53, 54, 55, 56, 57, 58, 59, 60, 61, 62, 63, 64, 65, 66, 67, 68, 69, 70, 71, 72, 73, 74, 75, 76, 77, 78, 79, 80, 81, 82, 83, 84, 85, 86, 87, 88, 89, 90, 91, 92, 93, 94, 95, 96, 97, 98, 99, 100, 101, 102, 103, 104, 105, 106, 107, 108, 109, 110, 111, 112, 113, 114, 115, 116, 117, 118, 119, 120, 121, 122, 123, 124, 125, 126, 127, 128, 129, 130, 131, 132, 133, 134, 135, 136, 137, 138, 139, 140, 141, 142, 143, 144, 145, 146, 147, 148, 149, 150, 151, 152, 153, 154, 155, 156, 157, 158, 159, 160, 161, 162, 163, 164, 165, 166, 167, 168, 169, 170, 171, 172, 173, 174, 175, 176, 177, 178, 179, 180, 181, 182, 183, 184, 185, 186, 187, 188, 189, 190, 191, 192, 193, 194, 195, 196, 197, 198, 199, 200],
      "AcquisitionTime": ["093800.477500", "093802.477500", "093804.477500", "093806.477500", "093808.477500", "093810.477500", "093812.477500", "093814.477500", "093816.477500", "093818.477500", "093820.477500", "093822.477500", "093824.477500", "093826.477500", "093828.477500", "093830.477500", "093832.477500", "093834.477500", "093836.477500", "093838.477500", "093840.477500", "093842.477500", "093844.477500", "093846.477500", "093848.477500", "093850.477500", "093852.477500", "093854.477500", "093856.477500", "093858.477500", "093900.477500", "093902.477500", "093904.477500", "093906.477500", "093908.477500", "093910.477500", "093912.477500", "093914.477500", "093916.477500", "093918.477500", "093920.477500", "093922.477500", "093924.477500", "093926.477500", "093928.477500", "093930.477500", "093932.477500", "093934.477500", "093936.477500", "093938.477500", "093940.477500", "093942.477500", "093944.477500", "093946.477500", "093948.477500", "093950.477500", "093952.477500", "093954.477500", "093956.477500", "093958.477500", "094000.477500", "094002.477500", "094004.477500", "094006.477500", "094008.477500", "094010.477500", "094012.477500", "094014.477500", "094016.477500", "094018.477500", "094020.477500", "094022.477500", "094024.477500", "094026.477500", "094028.477500", "094030.477500", "094032.477500", "094034.477500", "094036.477500", "094038.477500", "094040.477500", "094042.477500", "094044.477500", "094046.477500", "094048.477500", "094050.477500", "094052.477500", "094054.477500", "094056.477500", "094058.477500", "094100.477500", "094102.477500", "094104.477500", "094106.477500", "094108.477500", "094110.477500", "094112.477500", "094114.477500", "094116.477500", "094118.477500", "094120.477500", "094122.477500", "094124.477500", "094126.477500", "094128.477500", "094130.477500", "094132.477500", "094134.477500", "094136.477500", "094138.477500", "094140.477500", "094142.477500", "094144.477500", "094146.477500", "094148.477500", "094150.477500", "094152.477500", "094154.477500", "094156.477500", "094158.477500", "094200.477500", "094202.477500", "094204.477500", "094206.477500", "094208.477500", "094210.477500", "094212.477500", "094214.477500", "094216.477500", "094218.477500", "094220.477500", "094222.477500", "094224.477500", "094226.477500", "094228.477500", "094230.477500", "094232.477500", "094234.477500", "094236.477500", "094238.477500", "094240.477500", "094242.477500", "094244.477500", "094246.477500", "094248.477500", "094250.477500", "094252.477500", "094254.477500", "094256.477500", "094258.477500", "094300.477500", "094302.477500", "094304.477500", "094306.477500", "094308.477500", "094310.477500", "094312.477500", "094314.477500", "094316.477500", "094318.477500", "094320.477500", "094322.477500", "094324.477500", "094326.477500", "094328.477500", "094330.477500", "094332.477500", "094334.477500", "094336.477500", "094338.477500", "094340.477500", "094342.477500", "094344.477500", "094346.477500", "094348.477500", "094350.477500", "094352.477500", "094354.477500", "094356.477500", "094358.477500", "094400.477500", "094402.477500", "094404.477500", "094406.477500", "094408.477500", "094410.477500", "094412.477500", "094414.477500", "094416.477500", "094418.477500", "094420.477500", "094422.477500", "094424.477500", "094426.477500", "094428.477500", "094430.477500", "094432.477500", "094434.477500", "094436.477500", "094438.477500"],
      "ContentTime": ["093849.213000", "093849.216000", "093849.229000", "093849.231000", "093849.234000", "093849.236000", "093849.238000", "093849.241000", "093849.243000", "093849.245000", "093849.247000", "093849.250000", "093849.252000", "093849.254000", "093849.256000", "093849.259000", "093849.261000", "093849.263000", "093849.265000", "093849.268000", "093849.270000", "093849.272000", "093849.274000", "093849.277000", "093929.208000", "093929.211000", "093929.213000", "093929.215000", "093929.218000", "093929.220000", "093929.222000", "093929.224000", "093929.227000", "093929.229000", "093929.231000", "093929.233000", "093929.236000", "093929.238000", "093929.240000", "093929.242000", "093929.245000", "093929.247000", "093929.249000", "093929.251000", "094009.224000", "094009.226000", "094009.228000", "094009.231000", "094009.233000", "094009.235000", "094009.237000", "094009.240000", "094009.242000", "094009.244000", "094009.246000", "094009.249000", "094009.251000", "094009.253000", "094009.255000", "094009.258000", "094009.260000", "094009.262000", "094009.264000", "094009.267000", "094049.208000", "094049.211000", "094049.213000", "094049.216000", "094049.218000", "094049.220000", "094049.222000", "094049.225000", "094049.227000", "094049.229000", "094049.231000", "094049.234000", "094049.236000", "094049.238000", "094049.240000", "094049.243000", "094049.245000", "094049.247000", "094049.249000", "094049.252000", "094129.208000", "094129.211000", "094129.213000", "094129.215000", "094129.217000", "094129.220000", "094129.222000", "094129.224000", "094129.226000", "094129.229000", "094129.231000", "094129.233000", "094129.236000", "094129.238000", "094129.240000", "094129.242000", "094129.245000", "094129.247000", "094129.249000", "094129.251000", "094209.208000", "094209.211000", "094209.213000", "094209.224000", "094209.227000", "094209.229000", "094209.231000", "094209.234000", "094209.236000", "094209.238000", "094209.240000", "094209.243000", "094209.245000", "094209.247000", "094209.249000", "094209.252000", "094209.254000", "094209.256000", "094209.259000", "094209.261000", "094249.208000", "094249.211000", "094249.213000", "094249.215000", "094249.217000", "094249.220000", "094249.222000", "094249.224000", "094249.226000", "094249.229000", "094249.231000", "094249.233000", "094249.236000", "094249.238000", "094249.240000", "094249.242000", "094249.245000", "094249.247000", "094249.249000", "094249.251000", "094329.208000", "094329.211000", "094329.213000", "094329.215000", "094329.218000", "094329.220000", "094329.222000", "094329.224000", "094329.227000", "094329.229000", "094329.231000", "094329.233000", "094329.236000", "094329.238000", "094329.240000", "094329.242000", "094329.245000", "094329.247000", "094329.249000", "094329.251000", "094409.209000", "094409.211000", "094409.213000", "094409.216000", "094409.218000", "094409.220000", "094409.223000", "094409.225000", "094409.227000", "094409.229000", "094409.232000", "094409.234000", "094409.236000", "094409.238000", "094409.241000", "094409.243000", "094409.245000", "094409.247000", "094409.250000", "094409.252000", "094440.488000", "094440.490000", "094440.493000", "094440.495000", "094440.497000", "094440.500000", "094440.502000", "094440.505000", "094440.507000", "094440.509000", "094440.512000", "094440.514000", "094440.516000", "094440.521000", "094440.524000", "094440.526000"],
      "InstanceCreationTime": ["093849.213000", "093849.216000", "093849.229000", "093849.231000", "093849.234000", "093849.236000", "093849.238000", "093849.241000", "093849.243000", "093849.245000", "093849.247000", "093849.250000", "093849.252000", "093849.254000", "093849.256000", "093849.259000", "093849.261000", "093849.263000", "093849.265000", "093849.268000", "093849.270000", "093849.272000", "093849.274000", "093849.277000", "093929.208000", "093929.211000", "093929.213000", "093929.215000", "093929.218000", "093929.220000", "093929.222000", "093929.224000", "093929.227000", "093929.229000", "093929.231000", "093929.233000", "093929.236000", "093929.238000", "093929.240000", "093929.242000", "093929.245000", "093929.247000", "093929.249000", "093929.251000", "094009.224000", "094009.226000", "094009.228000", "094009.231000", "094009.233000", "094009.235000", "094009.237000", "094009.240000", "094009.242000", "094009.244000", "094009.246000", "094009.249000", "094009.251000", "094009.253000", "094009.255000", "094009.258000", "094009.260000", "094009.262000", "094009.264000", "094009.267000", "094049.208000", "094049.211000", "094049.213000", "094049.216000", "094049.218000", "094049.220000", "094049.222000", "094049.225000", "094049.227000", "094049.229000", "094049.231000", "094049.234000", "094049.236000", "094049.238000", "094049.240000", "094049.243000", "094049.245000", "094049.247000", "094049.249000", "094049.252000", "094129.208000", "094129.211000", "094129.213000", "094129.215000", "094129.217000", "094129.220000", "094129.222000", "094129.224000", "094129.226000", "094129.229000", "094129.231000", "094129.233000", "094129.236000", "094129.238000", "094129.240000", "094129.242000", "094129.245000", "094129.247000", "094129.249000", "094129.251000", "094209.208000", "094209.211000", "094209.213000", "094209.224000", "094209.227000", "094209.229000", "094209.231000", "094209.234000", "094209.236000", "094209.238000", "094209.240000", "094209.243000", "094209.245000", "094209.247000", "094209.249000", "094209.252000", "094209.254000", "094209.256000", "094209.259000", "094209.261000", "094249.208000", "094249.211000", "094249.213000", "094249.215000", "094249.217000", "094249.220000", "094249.222000", "094249.224000", "094249.226000", "094249.229000", "094249.231000", "094249.233000", "094249.236000", "094249.238000", "094249.240000", "094249.242000", "094249.245000", "094249.247000", "094249.249000", "094249.251000", "094329.208000", "094329.211000", "094329.213000", "094329.215000", "094329.218000", "094329.220000", "094329.222000", "094329.224000", "094329.227000", "094329.229000", "094329.231000", "094329.233000", "094329.236000", "094329.238000", "094329.240000", "094329.242000", "094329.245000", "094329.247000", "094329.249000", "094329.251000", "094409.209000", "094409.211000", "094409.213000", "094409.216000", "094409.218000", "094409.220000", "094409.223000", "094409.225000", "094409.227000", "094409.229000", "094409.232000", "094409.234000", "094409.236000", "094409.238000", "094409.241000", "094409.243000", "094409.245000", "094409.247000", "094409.250000", "094409.252000", "094440.488000", "094440.490000", "094440.493000", "094440.495000", "094440.497000", "094440.500000", "094440.502000", "094440.505000", "094440.507000", "094440.509000", "094440.512000", "094440.514000", "094440.516000", "094440.521000", "094440.524000", "094440.526000"],
      "InstanceNumber": [1, 2, 3, 4, 5, 6, 7, 8, 9, 10, 11, 12, 13, 14, 15, 16, 17, 18, 19, 20, 21, 22, 23, 24, 25, 26, 27, 28, 29, 30, 31, 32, 33, 34, 35, 36, 37, 38, 39, 40, 41, 42, 43, 44, 45, 46, 47, 48, 49, 50, 51, 52, 53, 54, 55, 56, 57, 58, 59, 60, 61, 62, 63, 64, 65, 66, 67, 68, 69, 70, 71, 72, 73, 74, 75, 76, 77, 78, 79, 80, 81, 82, 83, 84, 85, 86, 87, 88, 89, 90, 91, 92, 93, 94, 95, 96, 97, 98, 99, 100, 101, 102, 103, 104, 105, 106, 107, 108, 109, 110, 111, 112, 113, 114, 115, 116, 117, 118, 119, 120, 121, 122, 123, 124, 125, 126, 127, 128, 129, 130, 131, 132, 133, 134, 135, 136, 137, 138, 139, 140, 141, 142, 143, 144, 145, 146, 147, 148, 149, 150, 151, 152, 153, 154, 155, 156, 157, 158, 159, 160, 161, 162, 163, 164, 165, 166, 167, 168, 169, 170, 171, 172, 173, 174, 175, 176, 177, 178, 179, 180, 181, 182, 183, 184, 185, 186, 187, 188, 189, 190, 191, 192, 193, 194, 195, 196, 197, 198, 199, 200],
      "LargestImagePixelValue": [370, 368, 369, 371, 370, 371, 373, 372, 369, 370, 371, 368, 368, 369, 370, 369, 370, 370, 370, 369, 369, 369, 371, 369, 367, 370, 369, 371, 371, 370, 369, 368, 370, 369, 369, 369, 370, 369, 370, 369, 370, 371, 370, 370, 369, 372, 371, 368, 371, 369, 369, 368, 369, 369, 368, 371, 369, 370, 368, 371, 370, 369, 369, 373, 368, 368, 371, 370, 370, 368, 369, 371, 370, 371, 372, 370, 368, 371, 370, 369, 368, 370, 371, 369, 370, 371, 370, 370, 369, 369, 370, 368, 370, 372, 369, 369, 371, 369, 369, 369, 370, 370, 369, 370, 370, 370, 369, 370, 372, 369, 367, 370, 369, 369, 369, 371, 369, 369, 370, 369, 371, 369, 370, 370, 369, 369, 370, 371, 369, 367, 370, 368, 370, 370, 371, 369, 369, 369, 371, 371, 368, 371, 369, 368, 367, 370, 371, 368, 369, 371, 369, 368, 368, 371, 369, 368, 371, 371, 367, 369, 368, 370, 370, 369, 369, 370, 370, 369, 370, 369, 369, 369, 370, 369, 366, 370, 370, 370, 368, 369, 370, 369, 370, 369, 369, 367, 370, 371, 369, 368, 370, 369, 369, 368, 369, 370, 370, 370, 371, 368],
      "WindowCenter": [294.0, 294.0, 294.0, 294.0, 294.0, 294.0, 294.0, 294.0, 294.0, 294.0, 294.0, 294.0, 294.0, 294.0, 294.0, 294.0, 294.0, 294.0, 294.0, 294.0, 293.0, 294.0, 294.0, 293.0, 293.0, 294.0, 293.0, 294.0, 294.0, 294.0, 293.0, 293.0, 294.0, 294.0, 293.0, 294.0, 294.0, 294.0, 294.0, 294.0, 294.0, 294.0, 294.0, 294.0, 294.0, 294.0, 294.0, 293.0, 294.0, 294.0, 293.0, 293.0, 293.0, 293.0, 294.0, 294.0, 293.0, 294.0, 294.0, 294.0, 294.0, 293.0, 293.0, 294.0, 293.0, 293.0, 294.0, 294.0, 294.0, 292.0, 293.0, 294.0, 294.0, 294.0, 294.0, 294.0, 293.0, 294.0, 294.0, 293.0, 293.0, 294.0, 294.0, 294.0, 294.0, 294.0, 294.0, 294.0, 293.0, 293.0, 294.0, 293.0, 294.0, 294.0, 294.0, 293.0, 294.0, 294.0, 293.0, 293.0, 294.0, 294.0, 293.0, 294.0, 294.0, 294.0, 293.0, 294.0, 294.0, 293.0, 293.0, 294.0, 294.0, 293.0, 293.0, 294.0, 293.0, 293.0, 294.0, 293.0, 294.0, 293.0, 294.0, 294.0, 293.0, 293.0, 294.0, 294.0, 293.0, 293.0, 294.0, 293.0, 294.0, 293.0, 293.0, 293.0, 293.0, 293.0, 294.0, 294.0, 293.0, 293.0, 293.0, 293.0, 293.0, 293.0, 293.0, 293.0, 293.0, 294.0, 293.0, 293.0, 293.0, 293.0, 293.0, 293.0, 293.0, 294.0, 293.0, 293.0, 293.0, 293.0, 293.0, 292.0, 293.0, 294.0, 293.0, 293.0, 294.0, 293.0, 292.0, 293.0, 294.0, 293.0, 293.0, 293.0, 293.0, 293.0, 293.0, 293.0, 294.0, 293.0, 293.0, 293.0, 293.0, 293.0, 293.0, 293.0, 293.0, 293.0, 293.0, 293.0, 293.0, 293.0, 293.0, 294.0, 293.0, 293.0, 293.0, 293.0],
      "WindowWidth": [639.0, 638.0, 638.0, 639.0, 639.0, 639.0, 639.0, 639.0, 638.0, 639.0, 639.0, 638.0, 638.0, 638.0, 639.0, 638.0, 639.0, 639.0, 639.0, 638.0, 638.0, 638.0, 639.0, 638.0, 638.0, 639.0, 638.0, 639.0, 639.0, 639.0, 638.0, 638.0, 639.0, 638.0, 638.0, 638.0, 639.0, 638.0, 639.0, 638.0, 639.0, 639.0, 639.0, 639.0, 638.0, 639.0, 639.0, 638.0, 638.0, 638.0, 638.0, 637.0, 638.0, 638.0, 638.0, 639.0, 638.0, 638.0, 638.0, 639.0, 639.0, 638.0, 638.0, 639.0, 638.0, 638.0, 639.0, 639.0, 639.0, 636.0, 638.0, 639.0, 639.0, 638.0, 639.0, 639.0, 637.0, 639.0, 639.0, 638.0, 637.0, 639.0, 639.0, 638.0, 639.0, 639.0, 639.0, 639.0, 637.0, 638.0, 639.0, 637.0, 639.0, 639.0, 638.0, 637.0, 639.0, 638.0, 638.0, 637.0, 639.0, 639.0, 637.0, 638.0, 639.0, 639.0, 637.0, 639.0, 639.0, 638.0, 637.0, 639.0, 638.0, 637.0, 637.0, 638.0, 637.0, 637.0, 638.0, 637.0, 639.0, 637.0, 639.0, 638.0, 637.0, 637.0, 639.0, 639.0, 637.0, 637.0, 639.0, 637.0, 639.0, 638.0, 638.0, 637.0, 637.0, 637.0, 639.0, 638.0, 637.0, 638.0, 637.0, 637.0, 637.0, 638.0, 638.0, 637.0, 637.0, 639.0, 637.0, 636.0, 637.0, 638.0, 637.0, 637.0, 637.0, 639.0, 637.0, 637.0, 637.0, 638.0, 637.0, 636.0, 637.0, 638.0, 637.0, 637.0, 638.0, 637.0, 636.0, 637.0, 638.0, 637.0, 637.0, 638.0, 638.0, 637.0, 637.0, 637.0, 638.0, 637.0, 637.0, 637.0, 637.0, 637.0, 637.0, 637.0, 637.0, 637.0, 638.0, 637.0, 637.0, 636.0, 637.0, 638.0, 638.0, 637.0, 638.0, 636.0]
    },
    "slices": {}
  }
}