{
  "AcquisitionMatrixPE": 80,
  "AcquisitionNumber": 1,
  "AcquisitionTime": "09:17:31.912500",
  "BandwidthPerPixelPhaseEncode": 48.077,
  "BaseResolution": 80,
  "BodyPartExamined": "BRAIN",
  "CoilCombinationMethod": "Sum of Squares",
  "ConsistencyInfo": "N4_VE11E_LATEST_20181129",
  "ConversionSoftware": "dcm2niix",
  "ConversionSoftwareVersion": "v1.0.20220720",
  "DerivedVendorReportedEchoSpacing": 0.000519999,
  "DeviceSerialNumber": "66112",
  "DwellTime": 2.7e-06,
  "EchoTime": 0.035,
  "EchoTrainLength": 39,
  "EffectiveEchoSpacing": 0.00026,
  "FlipAngle": 90,
  "HeudiconvVersion": "0.13.1",
  "ImageOrientationPatientDICOM": [0.999957, 0.00862536, 0.0034111, -0.00925012, 0.954465, 0.298179],
  "ImageOrientationText": "Tra>Cor(17.3)>Sag(0.0)",
  "ImageType": [
    "ORIGINAL",
    "PRIMARY",
    "M",
    "ND",
    "NORM",
    "MOSAIC"
],
  "ImagingFrequency": 123.252,
  "InPlanePhaseEncodingDirectionDICOM": "COL",
  "InstitutionAddress": "Maynard 3,Hanover,NH,US,03755",
  "InstitutionName": "Dartmouth College - PBS",
  "InstitutionalDepartmentName": "Department",
  "MRAcquisitionType": "2D",
  "MagneticFieldStrength": 3,
  "Manufacturer": "Siemens",
  "ManufacturersModelName": "Prisma",
  "MatrixCoilMode": "GRAPPA",
  "Modality": "MR",
  "NonlinearGradientCorrection": false,
  "ParallelReductionFactorInPlane": 2,
  "PartialFourier": 1,
  "PatientPosition": "HFS",
  "PercentPhaseFOV": 100,
  "PercentSampling": 100,
  "PhaseEncodingDirection": "j-",
  "PhaseEncodingSteps": 79,
  "PhaseResolution": 1,
  "PixelBandwidth": 2315,
  "ProcedureStepDescription": "dbic^QA",
  "ProtocolName": "func-bold_task-rest_acq-p2",
  "PulseSequenceDetails": "%SiemensSeq%\\ep2d_bold",
  "ReceiveCoilActiveElements": "HEA;HEP",
  "ReceiveCoilName": "Head_32",
  "ReconMatrixPE": 80,
  "RefLinesPE": 24,
  "RepetitionTime": 2,
  "SAR": 0.0550673,
  "ScanOptions": "FS",
  "ScanningSequence": "EP",
  "SequenceName": "*epfid2d1_80",
  "SequenceVariant": "SK",
  "SeriesDescription": "func-bold_task-rest_acq-p2",
  "SeriesNumber": 5,
  "ShimSetting": [4154, -7701, -7519, 285, -20, -157, -34, 80],
  "SliceThickness": 3.5,
  "SliceTiming": [0.99, 0, 1.055, 0.065, 1.1225, 0.1325, 1.1875, 0.1975, 1.255, 0.265, 1.32, 0.33, 1.385, 0.395, 1.4525, 0.4625, 1.5175, 0.5275, 1.585, 0.595, 1.65, 0.66, 1.715, 0.725, 1.7825, 0.7925, 1.8475, 0.8575, 1.915, 0.925],
  "SoftwareVersions": "syngo MR E11",
  "SpacingBetweenSlices": 3.99,
  "StationName": "AWP66112",
  "TaskName": "rest",
  "TotalReadoutTime": 0.02054,
  "TxRefAmp": 225.479,
  "dcmmeta_affine": [
    [-2.999871015548706, -0.027750354260206223, 0.0027286531403660774, 121.58478546142578],
    [-0.025876067578792572, 2.8633952140808105, 1.1898102760314941, -127.6366958618164],
    [0.010233300738036633, -0.8945380449295044, 3.8084700107574463, -19.939363479614258],
    [0.0, 0.0, 0.0, 1.0]
],
  "dcmmeta_reorient_transform": [
    [0.0, -1.0, 0.0, 79.0],
    [1.0, 0.0, 0.0, 0.0],
    [0.0, 0.0, 1.0, 0.0],
    [0.0, 0.0, 0.0, 1.0]
],
  "dcmmeta_shape": [80, 80, 30, 200],
  "dcmmeta_slice_dim": 2,
  "dcmmeta_version": 0.6,
  "global": {
    "const": {
      "AccessionNumber": "qa",
      "AcquisitionMatrix": [80, 0, 0, 80],
      "AngioFlag": "N",
      "BitsAllocated": 16,
      "BitsStored": 12,
      "BodyPartExamined": "BRAIN",
      "Columns": 480,
      "EchoNumbers": 1,
      "EchoTime": 35.0,
      "EchoTrainLength": 39,
      "FlipAngle": 90.0,
      "HighBit": 11,
      "ImageOrientationPatient": [0.99995698289095, 0.00862535578067, 0.00341110030336, -0.0092501181281, 0.95446503783583, 0.29817935351675],
      "ImagePositionPatient": [-713.81662292614, -676.42575288325, -271.56214182616],
      "ImageType": [
        "ORIGINAL",
        "PRIMARY",
        "M",
        "ND",
        "NORM",
        "MOSAIC"
],
      "ImagedNucleus": "1H",
      "ImagingFrequency": 123.252469,
      "InPlanePhaseEncodingDirection": "COL",
      "MRAcquisitionType": "2D",
      "MagneticFieldStrength": 3.0,
      "Manufacturer": "SIEMENS",
      "ManufacturerModelName": "Prisma",
      "Modality": "MR",
      "NumberOfAverages": 1.0,
      "NumberOfPhaseEncodingSteps": 79,
      "PercentPhaseFieldOfView": 100.0,
      "PercentSampling": 100.0,
      "PerformedProcedureStepStartTime": "091411.626000",
      "PhotometricInterpretation": "MONOCHROME2",
      "PixelBandwidth": 2315.0,
      "PixelRepresentation": 0,
      "PixelSpacing": [3.0, 3.0],
      "ProtocolName": "func-bold_task-rest_acq-p2",
      "RepetitionTime": 2000.0,
      "Rows": 480,
      "SAR": 0.05506727235682,
      "SamplesPerPixel": 1,
      "ScanOptions": "FS",
      "ScanningSequence": "EP",
      "SequenceName": "*epfid2d1_80",
      "SequenceVariant": "SK",
      "SeriesDescription": "func-bold_task-rest_acq-p2",
      "SeriesNumber": 5,
      "SeriesTime": "091829.210000",
      "SliceLocation": -57.01006630359,
      "SliceThickness": 3.5,
      "SmallestImagePixelValue": 0,
      "SoftwareVersions": "syngo MR E11",
      "SpacingBetweenSlices": 3.9899999651768,
      "SpecificCharacterSet": "ISO_IR 100",
      "StudyID": "1",
      "StudyTime": "091411.532000",
      "TransmitCoilName": "Body",
      "VariableFlipAngleFlag": "N",
      "WindowCenterWidthExplanation": "Algo1"
    },
    "slices": {}
  },
  "time": {
    "samples": {
      "AcquisitionNumber": [1, 2, 3, 4, 5, 6, 7, 8, 9, 10, 11, 12, 13, 14, 15, 16, 17, 18, 19, 20, 21, 22, 23, 24, 25, 26, 27, 28, 29, 30, 31, 32, 33, 34, 35, 36, 37, 38, 39, 40, 41, 42, 43, 44, 45, 46, 47, 48, 49, 50, 51, 52, 53, 54, 55, 56, 57, 58, 59, 60, 61, 62, 63, 64, 65, 66, 67, 68, 69, 70, 71, 72, 73, 74, 75, 76, 77, 78, 79, 80, 81, 82, 83, 84, 85, 86, 87, 88, 89, 90, 91, 92, 93, 94, 95, 96, 97, 98, 99, 100, 101, 102, 103, 104, 105, 106, 107, 108, 109, 110, 111, 112, 113, 114, 115, 116, 117, 118, 119, 120, 121, 122, 123, 124, 125, 126, 127, 128, 129, 130, 131, 132, 133, 134, 135, 136, 137, 138, 139, 140, 141, 142, 143, 144, 145, 146, 147, 148, 149, 150, 151, 152, 153, 154, 155, 156, 157, 158, 159, 160, 161, 162, 163, 164, 165, 166, 167, 168, 169, 170, 171, 172, 173, 174, 175, 176, 177, 178, 179, 180, 181, 182, 183, 184, 185, 186, 187, 188, 189, 190, 191, 192, 193, 194, 195, 196, 197, 198, 199, 200],
      "AcquisitionTime": ["091731.912500", "091733.912500", "091735.912500", "091737.912500", "091739.912500", "091741.912500", "091743.912500", "091745.912500", "091747.912500", "091749.912500", "091751.912500", "091753.912500", "091755.912500", "091757.912500", "091759.912500", "091801.912500", "091803.912500", "091805.912500", "091807.912500", "091809.912500", "091811.912500", "091813.912500", "091815.912500", "091817.912500", "091819.912500", "091821.912500", "091823.912500", "091825.912500", "091827.912500", "091829.912500", "091831.912500", "091833.912500", "091835.912500", "091837.912500", "091839.912500", "091841.912500", "091843.912500", "091845.912500", "091847.912500", "091849.912500", "091851.912500", "091853.912500", "091855.912500", "091857.912500", "091859.912500", "091901.912500", "091903.912500", "091905.912500", "091907.912500", "091909.912500", "091911.912500", "091913.912500", "091915.912500", "091917.912500", "091919.912500", "091921.912500", "091923.912500", "091925.912500", "091927.912500", "091929.912500", "091931.912500", "091933.912500", "091935.912500", "091937.912500", "091939.912500", "091941.912500", "091943.912500", "091945.912500", "091947.912500", "091949.912500", "091951.912500", "091953.912500", "091955.912500", "091957.912500", "091959.912500", "092001.912500", "092003.912500", "092005.912500", "092007.912500", "092009.912500", "092011.912500", "092013.912500", "092015.912500", "092017.912500", "092019.912500", "092021.912500", "092023.912500", "092025.912500", "092027.912500", "092029.912500", "092031.912500", "092033.912500", "092035.912500", "092037.912500", "092039.912500", "092041.912500", "092043.912500", "092045.912500", "092047.912500", "092049.912500", "092051.912500", "092053.912500", "092055.912500", "092057.912500", "092059.912500", "092101.912500", "092103.912500", "092105.912500", "092107.912500", "092109.912500", "092111.912500", "092113.912500", "092115.912500", "092117.912500", "092119.912500", "092121.912500", "092123.912500", "092125.912500", "092127.912500", "092129.912500", "092131.912500", "092133.912500", "092135.912500", "092137.912500", "092139.912500", "092141.912500", "092143.912500", "092145.912500", "092147.912500", "092149.912500", "092151.912500", "092153.912500", "092155.912500", "092157.912500", "092159.912500", "092201.912500", "092203.912500", "092205.912500", "092207.912500", "092209.912500", "092211.912500", "092213.912500", "092215.912500", "092217.912500", "092219.912500", "092221.912500", "092223.912500", "092225.912500", "092227.912500", "092229.912500", "092231.912500", "092233.912500", "092235.912500", "092237.912500", "092239.912500", "092241.912500", "092243.912500", "092245.912500", "092247.912500", "092249.912500", "092251.912500", "092253.912500", "092255.912500", "092257.912500", "092259.912500", "092301.912500", "092303.912500", "092305.912500", "092307.912500", "092309.912500", "092311.912500", "092313.912500", "092315.912500", "092317.912500", "092319.912500", "092321.912500", "092323.912500", "092325.912500", "092327.912500", "092329.912500", "092331.912500", "092333.912500", "092335.912500", "092337.912500", "092339.912500", "092341.912500", "092343.912500", "092345.912500", "092347.912500", "092349.912500", "092351.912500", "092353.912500", "092355.912500", "092357.912500", "092359.912500", "092401.912500", "092403.912500", "092405.912500", "092407.912500", "092409.912500"],
      "ContentTime": ["091829.221000", "091829.224000", "091829.227000", "091829.229000", "091829.231000", "091829.234000", "091829.236000", "091829.238000", "091829.240000", "091829.243000", "091829.245000", "091829.248000", "091829.250000", "091829.252000", "091829.255000", "091829.257000", "091829.259000", "091829.262000", "091829.264000", "091829.267000", "091829.269000", "091829.272000", "091829.274000", "091829.276000", "091829.278000", "091829.281000", "091829.283000", "091829.285000", "091829.289000", "091909.208000", "091909.211000", "091909.213000", "091909.215000", "091909.218000", "091909.220000", "091909.222000", "091909.225000", "091909.227000", "091909.229000", "091909.232000", "091909.234000", "091909.236000", "091909.239000", "091909.241000", "091909.243000", "091909.246000", "091909.248000", "091909.250000", "091909.253000", "091949.208000", "091949.211000", "091949.213000", "091949.215000", "091949.217000", "091949.220000", "091949.222000", "091949.224000", "091949.227000", "091949.229000", "091949.231000", "091949.234000", "091949.236000", "091949.238000", "091949.240000", "091949.243000", "091949.248000", "091949.250000", "091949.252000", "091949.255000", "092029.208000", "092029.211000", "092029.213000", "092029.215000", "092029.218000", "092029.220000", "092029.222000", "092029.224000", "092029.227000", "092029.229000", "092029.231000", "092029.234000", "092029.236000", "092029.238000", "092029.241000", "092029.243000", "092029.245000", "092029.248000", "092029.250000", "092029.252000", "092109.208000", "092109.211000", "092109.213000", "092109.215000", "092109.218000", "092109.220000", "092109.222000", "092109.224000", "092109.227000", "092109.229000", "092109.231000", "092109.234000", "092109.236000", "092109.238000", "092109.241000", "092109.243000", "092109.245000", "092109.248000", "092109.250000", "092109.252000", "092149.208000", "092149.211000", "092149.213000", "092149.215000", "092149.217000", "092149.220000", "092149.222000", "092149.224000", "092149.227000", "092149.229000", "092149.231000", "092149.234000", "092149.236000", "092149.238000", "092149.241000", "092149.243000", "092149.245000", "092149.248000", "092149.250000", "092149.252000", "092229.208000", "092229.211000", "092229.213000", "092229.215000", "092229.218000", "092229.220000", "092229.222000", "092229.224000", "092229.227000", "092229.229000", "092229.231000", "092229.234000", "092229.236000", "092229.238000", "092229.241000", "092229.243000", "092229.245000", "092229.248000", "092229.250000", "092229.253000", "092309.209000", "092309.211000", "092309.213000", "092309.216000", "092309.218000", "092309.220000", "092309.223000", "092309.225000", "092309.227000", "092309.229000", "092309.232000", "092309.234000", "092309.236000", "092309.239000", "092309.241000", "092309.243000", "092309.246000", "092309.248000", "092309.250000", "092309.253000", "092349.208000", "092349.211000", "092349.213000", "092349.216000", "092349.218000", "092349.220000", "092349.222000", "092349.225000", "092349.227000", "092349.229000", "092349.232000", "092349.234000", "092349.236000", "092349.238000", "092349.241000", "092349.243000", "092349.246000", "092349.248000", "092349.250000", "092349.253000", "092411.174000", "092411.179000", "092411.187000", "092411.192000", "092411.196000", "092411.199000", "092411.202000", "092411.205000", "092411.207000", "092411.209000", "092411.212000"],
      "InstanceCreationTime": ["091829.221000", "091829.224000", "091829.227000", "091829.229000", "091829.231000", "091829.234000", "091829.236000", "091829.238000", "091829.240000", "091829.243000", "091829.245000", "091829.248000", "091829.250000", "091829.252000", "091829.255000", "091829.257000", "091829.259000", "091829.262000", "091829.264000", "091829.267000", "091829.269000", "091829.272000", "091829.274000", "091829.276000", "091829.278000", "091829.281000", "091829.283000", "091829.285000", "091829.289000", "091909.208000", "091909.211000", "091909.213000", "091909.215000", "091909.218000", "091909.220000", "091909.222000", "091909.225000", "091909.227000", "091909.229000", "091909.232000", "091909.234000", "091909.236000", "091909.239000", "091909.241000", "091909.243000", "091909.246000", "091909.248000", "091909.250000", "091909.253000", "091949.208000", "091949.211000", "091949.213000", "091949.215000", "091949.217000", "091949.220000", "091949.222000", "091949.224000", "091949.227000", "091949.229000", "091949.231000", "091949.234000", "091949.236000", "091949.238000", "091949.240000", "091949.243000", "091949.248000", "091949.250000", "091949.252000", "091949.255000", "092029.208000", "092029.211000", "092029.213000", "092029.215000", "092029.218000", "092029.220000", "092029.222000", "092029.224000", "092029.227000", "092029.229000", "092029.231000", "092029.234000", "092029.236000", "092029.238000", "092029.241000", "092029.243000", "092029.245000", "092029.248000", "092029.250000", "092029.252000", "092109.208000", "092109.211000", "092109.213000", "092109.215000", "092109.218000", "092109.220000", "092109.222000", "092109.224000", "092109.227000", "092109.229000", "092109.231000", "092109.234000", "092109.236000", "092109.238000", "092109.241000", "092109.243000", "092109.245000", "092109.248000", "092109.250000", "092109.252000", "092149.208000", "092149.211000", "092149.213000", "092149.215000", "092149.217000", "092149.220000", "092149.222000", "092149.224000", "092149.227000", "092149.229000", "092149.231000", "092149.234000", "092149.236000", "092149.238000", "092149.241000", "092149.243000", "092149.245000", "092149.248000", "092149.250000", "092149.252000", "092229.208000", "092229.211000", "092229.213000", "092229.215000", "092229.218000", "092229.220000", "092229.222000", "092229.224000", "092229.227000", "092229.229000", "092229.231000", "092229.234000", "092229.236000", "092229.238000", "092229.241000", "092229.243000", "092229.245000", "092229.248000", "092229.250000", "092229.253000", "092309.209000", "092309.211000", "092309.213000", "092309.216000", "092309.218000", "092309.220000", "092309.223000", "092309.225000", "092309.227000", "092309.229000", "092309.232000", "092309.234000", "092309.236000", "092309.239000", "092309.241000", "092309.243000", "092309.246000", "092309.248000", "092309.250000", "092309.253000", "092349.208000", "092349.211000", "092349.213000", "092349.216000", "092349.218000", "092349.220000", "092349.222000", "092349.225000", "092349.227000", "092349.229000", "092349.232000", "092349.234000", "092349.236000", "092349.238000", "092349.241000", "092349.243000", "092349.246000", "092349.248000", "092349.250000", "092349.253000", "092411.174000", "092411.179000", "092411.187000", "092411.192000", "092411.196000", "092411.199000", "092411.202000", "092411.205000", "092411.207000", "092411.209000", "092411.212000"],
      "InstanceNumber": [1, 2, 3, 4, 5, 6, 7, 8, 9, 10, 11, 12, 13, 14, 15, 16, 17, 18, 19, 20, 21, 22, 23, 24, 25, 26, 27, 28, 29, 30, 31, 32, 33, 34, 35, 36, 37, 38, 39, 40, 41, 42, 43, 44, 45, 46, 47, 48, 49, 50, 51, 52, 53, 54, 55, 56, 57, 58, 59, 60, 61, 62, 63, 64, 65, 66, 67, 68, 69, 70, 71, 72, 73, 74, 75, 76, 77, 78, 79, 80, 81, 82, 83, 84, 85, 86, 87, 88, 89, 90, 91, 92, 93, 94, 95, 96, 97, 98, 99, 100, 101, 102, 103, 104, 105, 106, 107, 108, 109, 110, 111, 112, 113, 114, 115, 116, 117, 118, 119, 120, 121, 122, 123, 124, 125, 126, 127, 128, 129, 130, 131, 132, 133, 134, 135, 136, 137, 138, 139, 140, 141, 142, 143, 144, 145, 146, 147, 148, 149, 150, 151, 152, 153, 154, 155, 156, 157, 158, 159, 160, 161, 162, 163, 164, 165, 166, 167, 168, 169, 170, 171, 172, 173, 174, 175, 176, 177, 178, 179, 180, 181, 182, 183, 184, 185, 186, 187, 188, 189, 190, 191, 192, 193, 194, 195, 196, 197, 198, 199, 200],
      "LargestImagePixelValue": [2235, 2235, 2238, 2241, 2233, 2241, 2235, 2235, 2234, 2235, 2238, 2235, 2239, 2231, 2234, 2233, 2239, 2241, 2240, 2234, 2236, 2235, 2236, 2234, 2236, 2241, 2234, 2235, 2232, 2234, 2235, 2239, 2232, 2231, 2235, 2229, 2236, 2234, 2230, 2230, 2234, 2233, 2236, 2234, 2233, 2233, 2238, 2235, 2237, 2233, 2238, 2239, 2235, 2237, 2238, 2234, 2234, 2238, 2240, 2235, 2236, 2233, 2238, 2234, 2234, 2240, 2239, 2235, 2234, 2239, 2240, 2232, 2237, 2234, 2238, 2235, 2237, 2237, 2234, 2236, 2237, 2237, 2239, 2240, 2237, 2237, 2236, 2236, 2237, 2238, 2243, 2236, 2236, 2240, 2241, 2238, 2241, 2241, 2239, 2234, 2232, 2238, 2240, 2235, 2233, 2236, 2237, 2241, 2241, 2237, 2234, 2238, 2244, 2238, 2232, 2239, 2235, 2239, 2238, 2239, 2237, 2239, 2240, 2236, 2238, 2238, 2236, 2240, 2238, 2237, 2236, 2239, 2237, 2236, 2244, 2242, 2239, 2236, 2240, 2240, 2237, 2238, 2241, 2238, 2238, 2236, 2234, 2236, 2237, 2241, 2239, 2242, 2243, 2240, 2238, 2241, 2236, 2241, 2235, 2236, 2234, 2238, 2235, 2241, 2239, 2239, 2244, 2237, 2239, 2240, 2239, 2242, 2237, 2242, 2239, 2235, 2236, 2236, 2237, 2237, 2238, 2235, 2237, 2238, 2237, 2237, 2232, 2242, 2238, 2237, 2239, 2238, 2238, 2242, 2232, 2238, 2235, 2238, 2236, 2240],
      "WindowCenter": [1023.0, 1023.0, 1023.0, 1023.0, 1023.0, 1024.0, 1023.0, 1023.0, 1023.0, 1023.0, 1023.0, 1023.0, 1023.0, 1023.0, 1023.0, 1023.0, 1023.0, 1023.0, 1024.0, 1023.0, 1023.0, 1023.0, 1023.0, 1023.0, 1023.0, 1023.0, 1023.0, 1023.0, 1023.0, 1023.0, 1024.0, 1023.0, 1024.0, 1023.0, 1023.0, 1023.0, 1023.0, 1023.0, 1023.0, 1024.0, 1023.0, 1023.0, 1023.0, 1023.0, 1023.0, 1023.0, 1023.0, 1023.0, 1023.0, 1023.0, 1023.0, 1023.0, 1023.0, 1023.0, 1023.0, 1023.0, 1023.0, 1023.0, 1023.0, 1023.0, 1023.0, 1023.0, 1023.0, 1023.0, 1023.0, 1023.0, 1023.0, 1023.0, 1023.0, 1023.0, 1023.0, 1023.0, 1023.0, 1023.0, 1023.0, 1023.0, 1023.0, 1023.0, 1023.0, 1023.0, 1023.0, 1023.0, 1023.0, 1023.0, 1023.0, 1023.0, 1024.0, 1023.0, 1023.0, 1023.0, 1023.0, 1023.0, 1023.0, 1023.0, 1023.0, 1023.0, 1024.0, 1023.0, 1023.0, 1023.0, 1023.0, 1023.0, 1023.0, 1024.0, 1023.0, 1023.0, 1022.0, 1023.0, 1023.0, 1023.0, 1023.0, 1023.0, 1023.0, 1023.0, 1023.0, 1023.0, 1023.0, 1023.0, 1023.0, 1023.0, 1023.0, 1024.0, 1023.0, 1023.0, 1023.0, 1023.0, 1023.0, 1023.0, 1022.0, 1023.0, 1022.0, 1022.0, 1023.0, 1023.0, 1023.0, 1023.0, 1023.0, 1022.0, 1022.0, 1023.0, 1023.0, 1023.0, 1023.0, 1023.0, 1022.0, 1023.0, 1023.0, 1023.0, 1023.0, 1023.0, 1022.0, 1022.0, 1023.0, 1023.0, 1022.0, 1023.0, 1023.0, 1023.0, 1022.0, 1022.0, 1023.0, 1023.0, 1022.0, 1023.0, 1022.0, 1023.0, 1022.0, 1022.0, 1022.0, 1022.0, 1022.0, 1022.0, 1022.0, 1022.0, 1022.0, 1022.0, 1022.0, 1022.0, 1022.0, 1023.0, 1022.0, 1022.0, 1023.0, 1022.0, 1022.0, 1022.0, 1022.0, 1022.0, 1022.0, 1022.0, 1022.0, 1022.0, 1022.0, 1022.0, 1022.0, 1022.0, 1022.0, 1022.0, 1022.0, 1022.0],
      "WindowWidth": [2269.0, 2269.0, 2269.0, 2268.0, 2269.0, 2270.0, 2268.0, 2268.0, 2269.0, 2269.0, 2269.0, 2268.0, 2268.0, 2269.0, 2269.0, 2268.0, 2269.0, 2268.0, 2269.0, 2268.0, 2269.0, 2268.0, 2268.0, 2268.0, 2268.0, 2269.0, 2268.0, 2268.0, 2268.0, 2268.0, 2269.0, 2268.0, 2269.0, 2268.0, 2268.0, 2268.0, 2269.0, 2269.0, 2268.0, 2269.0, 2268.0, 2268.0, 2269.0, 2269.0, 2268.0, 2269.0, 2269.0, 2269.0, 2269.0, 2269.0, 2269.0, 2269.0, 2269.0, 2269.0, 2269.0, 2269.0, 2269.0, 2269.0, 2269.0, 2269.0, 2269.0, 2269.0, 2269.0, 2269.0, 2269.0, 2269.0, 2269.0, 2269.0, 2269.0, 2269.0, 2269.0, 2269.0, 2269.0, 2269.0, 2269.0, 2269.0, 2269.0, 2269.0, 2269.0, 2269.0, 2269.0, 2269.0, 2269.0, 2269.0, 2269.0, 2269.0, 2270.0, 2269.0, 2269.0, 2269.0, 2269.0, 2269.0, 2269.0, 2269.0, 2269.0, 2269.0, 2269.0, 2269.0, 2269.0, 2269.0, 2269.0, 2269.0, 2269.0, 2269.0, 2269.0, 2269.0, 2269.0, 2269.0, 2268.0, 2269.0, 2269.0, 2269.0, 2268.0, 2268.0, 2269.0, 2268.0, 2268.0, 2269.0, 2269.0, 2269.0, 2269.0, 2269.0, 2269.0, 2269.0, 2268.0, 2268.0, 2269.0, 2268.0, 2269.0, 2269.0, 2269.0, 2269.0, 2268.0, 2268.0, 2269.0, 2269.0, 2268.0, 2268.0, 2268.0, 2268.0, 2268.0, 2268.0, 2268.0, 2268.0, 2269.0, 2268.0, 2268.0, 2268.0, 2268.0, 2268.0, 2268.0, 2268.0, 2268.0, 2268.0, 2268.0, 2268.0, 2268.0, 2268.0, 2269.0, 2268.0, 2268.0, 2268.0, 2268.0, 2268.0, 2268.0, 2269.0, 2268.0, 2268.0, 2268.0, 2268.0, 2268.0, 2268.0, 2268.0, 2268.0, 2268.0, 2268.0, 2268.0, 2268.0, 2268.0, 2268.0, 2268.0, 2268.0, 2268.0, 2268.0, 2268.0, 2268.0, 2268.0, 2268.0, 2268.0, 2268.0, 2268.0, 2268.0, 2268.0, 2268.0, 2267.0, 2268.0, 2268.0, 2268.0, 2267.0, 2268.0]
    },
    "slices": {}
  }
}