{
  "AcquisitionMatrixPE": 80,
  "AcquisitionNumber": 1,
  "AcquisitionTime": "09:31:14.447500",
  "BandwidthPerPixelPhaseEncode": 25,
  "BaseResolution": 80,
  "BodyPartExamined": "BRAIN",
  "CoilCombinationMethod": "Sum of Squares",
  "ConsistencyInfo": "N4_VE11E_LATEST_20181129",
  "ConversionSoftware": "dcm2niix",
  "ConversionSoftwareVersion": "v1.0.20220720",
  "DerivedVendorReportedEchoSpacing": 0.0005,
  "DeviceSerialNumber": "66112",
  "DwellTime": 2.7e-06,
  "EchoTime": 0.03,
  "EchoTrainLength": 80,
  "EffectiveEchoSpacing": 0.0005,
  "FlipAngle": 77,
  "HeudiconvVersion": "0.13.1",
  "ImageOrientationPatientDICOM": [0.999957, 0.00862536, 0.0034111, -0.00925012, 0.954465, 0.298179],
  "ImageOrientationText": "Tra>Cor(17.3)>Sag(0.0)",
  "ImageType": [
    "ORIGINAL",
    "PRIMARY",
    "M",
    "ND",
    "NORM",
    "MOSAIC"
],
  "ImagingFrequency": 123.252,
  "InPlanePhaseEncodingDirectionDICOM": "COL",
  "InstitutionAddress": "Maynard 3,Hanover,NH,US,03755",
  "InstitutionName": "Dartmouth College - PBS",
  "InstitutionalDepartmentName": "Department",
  "MRAcquisitionType": "2D",
  "MagneticFieldStrength": 3,
  "Manufacturer": "Siemens",
  "ManufacturersModelName": "Prisma",
  "MatrixCoilMode": "SENSE",
  "Modality": "MR",
  "NonlinearGradientCorrection": false,
  "PartialFourier": 1,
  "PatientPosition": "HFS",
  "PercentPhaseFOV": 100,
  "PercentSampling": 100,
  "PhaseEncodingDirection": "j-",
  "PhaseEncodingSteps": 80,
  "PhaseResolution": 1,
  "PixelBandwidth": 2315,
  "ProcedureStepDescription": "dbic^QA",
  "ProtocolName": "func-bold_fa-77",
  "PulseSequenceDetails": "%SiemensSeq%\\ep2d_bold",
  "ReceiveCoilActiveElements": "HEA;HEP",
  "ReceiveCoilName": "Head_32",
  "ReconMatrixPE": 80,
  "RepetitionTime": 2,
  "SAR": 0.0432746,
  "ScanOptions": "FS",
  "ScanningSequence": "EP",
  "SequenceName": "*epfid2d1_80",
  "SequenceVariant": "SK",
  "SeriesDescription": "func-bold_fa-77",
  "SeriesNumber": 8,
  "ShimSetting": [4154, -7701, -7519, 284, -23, -156, -35, 82],
  "SliceThickness": 3.5,
  "SliceTiming": [0.99, 0, 1.0575, 0.0675, 1.1225, 0.1325, 1.1875, 0.1975, 1.255, 0.265, 1.32, 0.33, 1.3875, 0.3975, 1.4525, 0.4625, 1.5175, 0.5275, 1.585, 0.595, 1.65, 0.66, 1.7175, 0.7275, 1.7825, 0.7925, 1.8475, 0.8575, 1.915, 0.925],
  "SoftwareVersions": "syngo MR E11",
  "SpacingBetweenSlices": 3.99,
  "StationName": "AWP66112",
  "TotalReadoutTime": 0.0395,
  "TxRefAmp": 225.479,
  "dcmmeta_affine": [
    [-2.999871015548706, -0.027750354260206223, 0.0027286531403660774, 121.5721206665039],
    [-0.025876067578792572, 2.8633952140808105, 1.1898102760314941, -126.79767608642578],
    [0.010233300738036633, -0.8945380449295044, 3.8084700107574463, -21.53413963317871],
    [0.0, 0.0, 0.0, 1.0]
],
  "dcmmeta_reorient_transform": [
    [0.0, -1.0, 0.0, 79.0],
    [1.0, 0.0, 0.0, 0.0],
    [0.0, 0.0, 1.0, 0.0],
    [0.0, 0.0, 0.0, 1.0]
],
  "dcmmeta_shape": [80, 80, 30, 200],
  "dcmmeta_slice_dim": 2,
  "dcmmeta_version": 0.6,
  "global": {
    "const": {
      "AccessionNumber": "qa",
      "AcquisitionMatrix": [80, 0, 0, 80],
      "AngioFlag": "N",
      "BitsAllocated": 16,
      "BitsStored": 12,
      "BodyPartExamined": "BRAIN",
      "Columns": 480,
      "EchoNumbers": 1,
      "EchoTime": 30.0,
      "EchoTrainLength": 80,
      "FlipAngle": 77.0,
      "HighBit": 11,
      "ImageOrientationPatient": [0.99995698289095, 0.00862535578067, 0.00341110030336, -0.0092501181281, 0.95446503783583, 0.29817935351675],
      "ImagePositionPatient": [-713.8039618565, -677.26477075129, -273.15691797973],
      "ImageType": [
        "ORIGINAL",
        "PRIMARY",
        "M",
        "ND",
        "NORM",
        "MOSAIC"
],
      "ImagedNucleus": "1H",
      "ImagingFrequency": 123.252469,
      "InPlanePhaseEncodingDirection": "COL",
      "MRAcquisitionType": "2D",
      "MagneticFieldStrength": 3.0,
      "Manufacturer": "SIEMENS",
      "ManufacturerModelName": "Prisma",
      "Modality": "MR",
      "NumberOfAverages": 1.0,
      "NumberOfPhaseEncodingSteps": 80,
      "PercentPhaseFieldOfView": 100.0,
      "PercentSampling": 100.0,
      "PerformedProcedureStepStartTime": "091411.626000",
      "PhotometricInterpretation": "MONOCHROME2",
      "PixelBandwidth": 2315.0,
      "PixelRepresentation": 0,
      "PixelSpacing": [3.0, 3.0],
      "ProtocolName": "func-bold_fa-77",
      "RepetitionTime": 2000.0,
      "Rows": 480,
      "SAR": 0.04327461466447,
      "SamplesPerPixel": 1,
      "ScanOptions": "FS",
      "ScanningSequence": "EP",
      "SequenceName": "*epfid2d1_80",
      "SequenceVariant": "SK",
      "SeriesDescription": "func-bold_fa-77",
      "SeriesNumber": 8,
      "SeriesTime": "093209.135000",
      "SliceLocation": -58.282101288018,
      "SliceThickness": 3.5,
      "SmallestImagePixelValue": 0,
      "SoftwareVersions": "syngo MR E11",
      "SpacingBetweenSlices": 3.9899999651761,
      "SpecificCharacterSet": "ISO_IR 100",
      "StudyID": "1",
      "StudyTime": "091411.532000",
      "TransmitCoilName": "Body",
      "VariableFlipAngleFlag": "N",
      "WindowCenterWidthExplanation": "Algo1"
    },
    "slices": {}
  },
  "time": {
    "samples": {
      "AcquisitionNumber": [1, 2, 3, 4, 5, 6, 7, 8, 9, 10, 11, 12, 13, 14, 15, 16, 17, 18, 19, 20, 21, 22, 23, 24, 25, 26, 27, 28, 29, 30, 31, 32, 33, 34, 35, 36, 37, 38, 39, 40, 41, 42, 43, 44, 45, 46, 47, 48, 49, 50, 51, 52, 53, 54, 55, 56, 57, 58, 59, 60, 61, 62, 63, 64, 65, 66, 67, 68, 69, 70, 71, 72, 73, 74, 75, 76, 77, 78, 79, 80, 81, 82, 83, 84, 85, 86, 87, 88, 89, 90, 91, 92, 93, 94, 95, 96, 97, 98, 99, 100, 101, 102, 103, 104, 105, 106, 107, 108, 109, 110, 111, 112, 113, 114, 115, 116, 117, 118, 119, 120, 121, 122, 123, 124, 125, 126, 127, 128, 129, 130, 131, 132, 133, 134, 135, 136, 137, 138, 139, 140, 141, 142, 143, 144, 145, 146, 147, 148, 149, 150, 151, 152, 153, 154, 155, 156, 157, 158, 159, 160, 161, 162, 163, 164, 165, 166, 167, 168, 169, 170, 171, 172, 173, 174, 175, 176, 177, 178, 179, 180, 181, 182, 183, 184, 185, 186, 187, 188, 189, 190, 191, 192, 193, 194, 195, 196, 197, 198, 199, 200],
      "AcquisitionTime": ["093114.447500", "093116.447500", "093118.447500", "093120.447500", "093122.447500", "093124.447500", "093126.447500", "093128.447500", "093130.447500", "093132.447500", "093134.447500", "093136.447500", "093138.447500", "093140.447500", "093142.447500", "093144.447500", "093146.447500", "093148.447500", "093150.447500", "093152.447500", "093154.447500", "093156.447500", "093158.447500", "093200.447500", "093202.447500", "093204.447500", "093206.447500", "093208.447500", "093210.447500", "093212.447500", "093214.447500", "093216.447500", "093218.447500", "093220.447500", "093222.447500", "093224.447500", "093226.447500", "093228.447500", "093230.447500", "093232.447500", "093234.447500", "093236.447500", "093238.447500", "093240.447500", "093242.447500", "093244.447500", "093246.447500", "093248.447500", "093250.447500", "093252.447500", "093254.447500", "093256.447500", "093258.447500", "093300.447500", "093302.447500", "093304.447500", "093306.447500", "093308.447500", "093310.447500", "093312.447500", "093314.447500", "093316.447500", "093318.447500", "093320.447500", "093322.447500", "093324.447500", "093326.447500", "093328.447500", "093330.447500", "093332.447500", "093334.447500", "093336.447500", "093338.447500", "093340.447500", "093342.447500", "093344.447500", "093346.447500", "093348.447500", "093350.447500", "093352.447500", "093354.447500", "093356.447500", "093358.447500", "093400.447500", "093402.447500", "093404.447500", "093406.447500", "093408.447500", "093410.447500", "093412.447500", "093414.447500", "093416.447500", "093418.447500", "093420.447500", "093422.447500", "093424.447500", "093426.447500", "093428.447500", "093430.447500", "093432.447500", "093434.447500", "093436.447500", "093438.447500", "093440.447500", "093442.447500", "093444.447500", "093446.447500", "093448.447500", "093450.447500", "093452.447500", "093454.447500", "093456.447500", "093458.447500", "093500.447500", "093502.447500", "093504.447500", "093506.447500", "093508.447500", "093510.447500", "093512.447500", "093514.447500", "093516.447500", "093518.447500", "093520.447500", "093522.447500", "093524.447500", "093526.447500", "093528.447500", "093530.447500", "093532.447500", "093534.447500", "093536.447500", "093538.447500", "093540.447500", "093542.447500", "093544.447500", "093546.447500", "093548.447500", "093550.447500", "093552.447500", "093554.447500", "093556.447500", "093558.447500", "093600.447500", "093602.447500", "093604.447500", "093606.447500", "093608.447500", "093610.447500", "093612.447500", "093614.447500", "093616.447500", "093618.447500", "093620.447500", "093622.447500", "093624.447500", "093626.447500", "093628.447500", "093630.447500", "093632.447500", "093634.447500", "093636.447500", "093638.447500", "093640.447500", "093642.447500", "093644.447500", "093646.447500", "093648.447500", "093650.447500", "093652.447500", "093654.447500", "093656.447500", "093658.447500", "093700.447500", "093702.447500", "093704.447500", "093706.447500", "093708.447500", "093710.447500", "093712.447500", "093714.447500", "093716.447500", "093718.447500", "093720.447500", "093722.447500", "093724.447500", "093726.447500", "093728.447500", "093730.447500", "093732.447500", "093734.447500", "093736.447500", "093738.447500", "093740.447500", "093742.447500", "093744.447500", "093746.447500", "093748.447500", "093750.447500", "093752.447500"],
      "ContentTime": ["093209.138000", "093209.141000", "093209.144000", "093209.146000", "093209.148000", "093209.151000", "093209.153000", "093209.155000", "093209.157000", "093209.160000", "093209.162000", "093209.164000", "093209.166000", "093209.169000", "093209.171000", "093209.173000", "093209.175000", "093209.178000", "093209.180000", "093209.182000", "093209.185000", "093209.187000", "093209.189000", "093209.192000", "093209.194000", "093209.196000", "093209.199000", "093249.122000", "093249.125000", "093249.127000", "093249.129000", "093249.131000", "093249.134000", "093249.136000", "093249.138000", "093249.141000", "093249.143000", "093249.145000", "093249.147000", "093249.150000", "093249.152000", "093249.154000", "093249.157000", "093249.159000", "093249.161000", "093249.163000", "093249.166000", "093329.122000", "093329.125000", "093329.127000", "093329.129000", "093329.131000", "093329.134000", "093329.136000", "093329.138000", "093329.141000", "093329.143000", "093329.145000", "093329.147000", "093329.150000", "093329.152000", "093329.154000", "093329.157000", "093329.159000", "093329.161000", "093329.163000", "093329.166000", "093409.123000", "093409.126000", "093409.128000", "093409.131000", "093409.133000", "093409.135000", "093409.137000", "093409.140000", "093409.142000", "093409.144000", "093409.146000", "093409.149000", "093409.151000", "093409.153000", "093409.156000", "093409.158000", "093409.160000", "093409.163000", "093409.165000", "093409.167000", "093449.122000", "093449.125000", "093449.127000", "093449.130000", "093449.132000", "093449.134000", "093449.136000", "093449.139000", "093449.141000", "093449.143000", "093449.145000", "093449.148000", "093449.150000", "093449.152000", "093449.155000", "093449.157000", "093449.159000", "093449.162000", "093449.164000", "093449.166000", "093529.122000", "093529.125000", "093529.127000", "093529.129000", "093529.132000", "093529.134000", "093529.136000", "093529.138000", "093529.141000", "093529.143000", "093529.145000", "093529.148000", "093529.150000", "093529.152000", "093529.154000", "093529.157000", "093529.159000", "093529.161000", "093529.163000", "093529.166000", "093609.122000", "093609.125000", "093609.127000", "093609.129000", "093609.132000", "093609.134000", "093609.136000", "093609.138000", "093609.141000", "093609.143000", "093609.145000", "093609.148000", "093609.150000", "093609.152000", "093609.154000", "093609.157000", "093609.159000", "093609.161000", "093609.163000", "093609.166000", "093649.122000", "093649.125000", "093649.127000", "093649.130000", "093649.132000", "093649.134000", "093649.136000", "093649.139000", "093649.141000", "093649.143000", "093649.146000", "093649.148000", "093649.150000", "093649.152000", "093649.155000", "093649.157000", "093649.159000", "093649.161000", "093649.164000", "093649.166000", "093729.122000", "093729.125000", "093729.127000", "093729.130000", "093729.132000", "093729.134000", "093729.137000", "093729.139000", "093729.141000", "093729.143000", "093729.146000", "093729.148000", "093729.150000", "093729.153000", "093729.155000", "093729.157000", "093729.159000", "093729.162000", "093729.164000", "093729.166000", "093754.049000", "093754.051000", "093754.054000", "093754.056000", "093754.058000", "093754.061000", "093754.063000", "093754.065000", "093754.068000", "093754.070000", "093754.072000", "093754.075000", "093754.077000"],
      "InstanceCreationTime": ["093209.138000", "093209.141000", "093209.144000", "093209.146000", "093209.148000", "093209.151000", "093209.153000", "093209.155000", "093209.157000", "093209.160000", "093209.162000", "093209.164000", "093209.166000", "093209.169000", "093209.171000", "093209.173000", "093209.175000", "093209.178000", "093209.180000", "093209.182000", "093209.185000", "093209.187000", "093209.189000", "093209.192000", "093209.194000", "093209.196000", "093209.199000", "093249.122000", "093249.125000", "093249.127000", "093249.129000", "093249.131000", "093249.134000", "093249.136000", "093249.138000", "093249.141000", "093249.143000", "093249.145000", "093249.147000", "093249.150000", "093249.152000", "093249.154000", "093249.157000", "093249.159000", "093249.161000", "093249.163000", "093249.166000", "093329.122000", "093329.125000", "093329.127000", "093329.129000", "093329.131000", "093329.134000", "093329.136000", "093329.138000", "093329.141000", "093329.143000", "093329.145000", "093329.147000", "093329.150000", "093329.152000", "093329.154000", "093329.157000", "093329.159000", "093329.161000", "093329.163000", "093329.166000", "093409.123000", "093409.126000", "093409.128000", "093409.131000", "093409.133000", "093409.135000", "093409.137000", "093409.140000", "093409.142000", "093409.144000", "093409.146000", "093409.149000", "093409.151000", "093409.153000", "093409.156000", "093409.158000", "093409.160000", "093409.163000", "093409.165000", "093409.167000", "093449.122000", "093449.125000", "093449.127000", "093449.130000", "093449.132000", "093449.134000", "093449.136000", "093449.139000", "093449.141000", "093449.143000", "093449.145000", "093449.148000", "093449.150000", "093449.152000", "093449.155000", "093449.157000", "093449.159000", "093449.162000", "093449.164000", "093449.166000", "093529.122000", "093529.125000", "093529.127000", "093529.129000", "093529.132000", "093529.134000", "093529.136000", "093529.138000", "093529.141000", "093529.143000", "093529.145000", "093529.148000", "093529.150000", "093529.152000", "093529.154000", "093529.157000", "093529.159000", "093529.161000", "093529.163000", "093529.166000", "093609.122000", "093609.125000", "093609.127000", "093609.129000", "093609.132000", "093609.134000", "093609.136000", "093609.138000", "093609.141000", "093609.143000", "093609.145000", "093609.148000", "093609.150000", "093609.152000", "093609.154000", "093609.157000", "093609.159000", "093609.161000", "093609.163000", "093609.166000", "093649.122000", "093649.125000", "093649.127000", "093649.130000", "093649.132000", "093649.134000", "093649.136000", "093649.139000", "093649.141000", "093649.143000", "093649.146000", "093649.148000", "093649.150000", "093649.152000", "093649.155000", "093649.157000", "093649.159000", "093649.161000", "093649.164000", "093649.166000", "093729.122000", "093729.125000", "093729.127000", "093729.130000", "093729.132000", "093729.134000", "093729.137000", "093729.139000", "093729.141000", "093729.143000", "093729.146000", "093729.148000", "093729.150000", "093729.153000", "093729.155000", "093729.157000", "093729.159000", "093729.162000", "093729.164000", "093729.166000", "093754.049000", "093754.051000", "093754.054000", "093754.056000", "093754.058000", "093754.061000", "093754.063000", "093754.065000", "093754.068000", "093754.070000", "093754.072000", "093754.075000", "093754.077000"],
      "InstanceNumber": [1, 2, 3, 4, 5, 6, 7, 8, 9, 10, 11, 12, 13, 14, 15, 16, 17, 18, 19, 20, 21, 22, 23, 24, 25, 26, 27, 28, 29, 30, 31, 32, 33, 34, 35, 36, 37, 38, 39, 40, 41, 42, 43, 44, 45, 46, 47, 48, 49, 50, 51, 52, 53, 54, 55, 56, 57, 58, 59, 60, 61, 62, 63, 64, 65, 66, 67, 68, 69, 70, 71, 72, 73, 74, 75, 76, 77, 78, 79, 80, 81, 82, 83, 84, 85, 86, 87, 88, 89, 90, 91, 92, 93, 94, 95, 96, 97, 98, 99, 100, 101, 102, 103, 104, 105, 106, 107, 108, 109, 110, 111, 112, 113, 114, 115, 116, 117, 118, 119, 120, 121, 122, 123, 124, 125, 126, 127, 128, 129, 130, 131, 132, 133, 134, 135, 136, 137, 138, 139, 140, 141, 142, 143, 144, 145, 146, 147, 148, 149, 150, 151, 152, 153, 154, 155, 156, 157, 158, 159, 160, 161, 162, 163, 164, 165, 166, 167, 168, 169, 170, 171, 172, 173, 174, 175, 176, 177, 178, 179, 180, 181, 182, 183, 184, 185, 186, 187, 188, 189, 190, 191, 192, 193, 194, 195, 196, 197, 198, 199, 200],
      "LargestImagePixelValue": [2177, 2177, 2180, 2176, 2177, 2179, 2177, 2175, 2177, 2175, 2176, 2175, 2176, 2175, 2176, 2172, 2176, 2176, 2175, 2177, 2177, 2176, 2176, 2177, 2178, 2177, 2177, 2178, 2174, 2173, 2175, 2175, 2175, 2176, 2177, 2177, 2177, 2174, 2173, 2175, 2175, 2176, 2174, 2173, 2175, 2176, 2176, 2178, 2176, 2177, 2178, 2176, 2175, 2175, 2176, 2176, 2176, 2176, 2173, 2174, 2176, 2176, 2175, 2174, 2173, 2174, 2174, 2175, 2177, 2173, 2174, 2175, 2174, 2173, 2172, 2172, 2174, 2175, 2172, 2173, 2171, 2175, 2175, 2175, 2174, 2176, 2174, 2174, 2172, 2174, 2175, 2177, 2174, 2175, 2171, 2178, 2172, 2174, 2175, 2173, 2175, 2173, 2175, 2173, 2176, 2175, 2176, 2172, 2173, 2175, 2174, 2172, 2174, 2175, 2174, 2176, 2174, 2177, 2174, 2175, 2171, 2175, 2174, 2174, 2175, 2172, 2172, 2174, 2175, 2170, 2171, 2173, 2173, 2173, 2172, 2172, 2174, 2171, 2175, 2174, 2172, 2172, 2173, 2173, 2173, 2173, 2172, 2175, 2172, 2174, 2174, 2171, 2173, 2171, 2171, 2172, 2173, 2173, 2173, 2173, 2172, 2171, 2172, 2173, 2175, 2172, 2171, 2175, 2174, 2172, 2173, 2172, 2171, 2172, 2173, 2173, 2172, 2173, 2174, 2172, 2171, 2173, 2170, 2174, 2172, 2170, 2173, 2174, 2174, 2172, 2171, 2171, 2170, 2173, 2171, 2173, 2172, 2173, 2173, 2171],
      "WindowCenter": [1007.0, 1007.0, 1006.0, 1006.0, 1007.0, 1008.0, 1006.0, 1007.0, 1007.0, 1007.0, 1007.0, 1006.0, 1006.0, 1006.0, 1007.0, 1007.0, 1006.0, 1007.0, 1006.0, 1006.0, 1006.0, 1006.0, 1007.0, 1006.0, 1007.0, 1006.0, 1007.0, 1006.0, 1005.0, 1006.0, 1007.0, 1007.0, 1006.0, 1006.0, 1006.0, 1006.0, 1006.0, 1006.0, 1005.0, 1006.0, 1005.0, 1005.0, 1006.0, 1006.0, 1006.0, 1005.0, 1006.0, 1006.0, 1006.0, 1006.0, 1005.0, 1007.0, 1005.0, 1006.0, 1007.0, 1005.0, 1006.0, 1005.0, 1006.0, 1005.0, 1006.0, 1007.0, 1006.0, 1005.0, 1006.0, 1006.0, 1005.0, 1006.0, 1007.0, 1007.0, 1006.0, 1006.0, 1006.0, 1006.0, 1007.0, 1005.0, 1006.0, 1006.0, 1005.0, 1006.0, 1007.0, 1005.0, 1005.0, 1006.0, 1006.0, 1006.0, 1005.0, 1005.0, 1005.0, 1005.0, 1007.0, 1006.0, 1006.0, 1005.0, 1006.0, 1006.0, 1005.0, 1007.0, 1006.0, 1006.0, 1005.0, 1006.0, 1006.0, 1006.0, 1007.0, 1007.0, 1006.0, 1006.0, 1006.0, 1005.0, 1006.0, 1005.0, 1006.0, 1006.0, 1005.0, 1006.0, 1006.0, 1005.0, 1005.0, 1006.0, 1005.0, 1006.0, 1006.0, 1006.0, 1005.0, 1006.0, 1006.0, 1005.0, 1006.0, 1006.0, 1006.0, 1005.0, 1005.0, 1006.0, 1005.0, 1005.0, 1005.0, 1006.0, 1005.0, 1005.0, 1004.0, 1006.0, 1005.0, 1005.0, 1005.0, 1005.0, 1006.0, 1005.0, 1005.0, 1005.0, 1005.0, 1006.0, 1005.0, 1005.0, 1005.0, 1005.0, 1005.0, 1005.0, 1006.0, 1005.0, 1004.0, 1005.0, 1004.0, 1005.0, 1004.0, 1005.0, 1006.0, 1005.0, 1005.0, 1005.0, 1005.0, 1004.0, 1004.0, 1004.0, 1004.0, 1006.0, 1005.0, 1006.0, 1006.0, 1005.0, 1005.0, 1006.0, 1005.0, 1006.0, 1006.0, 1005.0, 1004.0, 1004.0, 1005.0, 1005.0, 1005.0, 1005.0, 1006.0, 1005.0, 1005.0, 1005.0, 1006.0, 1005.0, 1004.0, 1005.0],
      "WindowWidth": [2235.0, 2235.0, 2234.0, 2234.0, 2235.0, 2236.0, 2234.0, 2235.0, 2235.0, 2235.0, 2235.0, 2235.0, 2235.0, 2235.0, 2235.0, 2235.0, 2235.0, 2235.0, 2235.0, 2235.0, 2234.0, 2235.0, 2235.0, 2235.0, 2235.0, 2235.0, 2235.0, 2234.0, 2233.0, 2235.0, 2235.0, 2235.0, 2234.0, 2235.0, 2233.0, 2233.0, 2233.0, 2234.0, 2233.0, 2234.0, 2234.0, 2234.0, 2234.0, 2234.0, 2234.0, 2234.0, 2234.0, 2234.0, 2234.0, 2234.0, 2233.0, 2235.0, 2234.0, 2234.0, 2235.0, 2233.0, 2234.0, 2233.0, 2234.0, 2233.0, 2234.0, 2235.0, 2234.0, 2233.0, 2234.0, 2233.0, 2233.0, 2233.0, 2234.0, 2234.0, 2234.0, 2233.0, 2233.0, 2233.0, 2234.0, 2233.0, 2233.0, 2233.0, 2233.0, 2233.0, 2234.0, 2233.0, 2233.0, 2233.0, 2233.0, 2233.0, 2233.0, 2232.0, 2232.0, 2232.0, 2234.0, 2233.0, 2233.0, 2232.0, 2233.0, 2233.0, 2233.0, 2234.0, 2233.0, 2233.0, 2233.0, 2233.0, 2233.0, 2233.0, 2234.0, 2234.0, 2233.0, 2233.0, 2233.0, 2232.0, 2234.0, 2232.0, 2233.0, 2233.0, 2232.0, 2233.0, 2232.0, 2232.0, 2232.0, 2232.0, 2233.0, 2234.0, 2233.0, 2233.0, 2232.0, 2234.0, 2234.0, 2233.0, 2233.0, 2234.0, 2234.0, 2232.0, 2232.0, 2234.0, 2232.0, 2232.0, 2232.0, 2233.0, 2233.0, 2233.0, 2232.0, 2234.0, 2233.0, 2232.0, 2232.0, 2232.0, 2233.0, 2232.0, 2233.0, 2233.0, 2232.0, 2232.0, 2233.0, 2233.0, 2233.0, 2233.0, 2232.0, 2232.0, 2233.0, 2233.0, 2232.0, 2233.0, 2231.0, 2232.0, 2232.0, 2232.0, 2233.0, 2232.0, 2232.0, 2232.0, 2232.0, 2231.0, 2231.0, 2231.0, 2231.0, 2233.0, 2232.0, 2233.0, 2233.0, 2232.0, 2232.0, 2233.0, 2232.0, 2233.0, 2233.0, 2232.0, 2231.0, 2231.0, 2232.0, 2232.0, 2232.0, 2232.0, 2233.0, 2232.0, 2232.0, 2232.0, 2232.0, 2232.0, 2231.0, 2232.0]
    },
    "slices": {}
  }
}