{
  "AcquisitionMatrixPE": 122,
  "AcquisitionNumber": 1,
  "AcquisitionTime": "09:07:19.467500",
  "BandwidthPerPixelPhaseEncode": 27.785,
  "BaseResolution": 122,
  "BodyPartExamined": "BRAIN",
  "CoilCombinationMethod": "Adaptive Combine",
  "ConsistencyInfo": "N4_VE11C_LATEST_20160120",
  "ConversionSoftware": "dcm2niix",
  "ConversionSoftwareVersion": "v1.0.20220720",
  "DerivedVendorReportedEchoSpacing": 0.000590011,
  "DeviceSerialNumber": "66112",
  "DiffusionScheme": "Monopolar",
  "DwellTime": 2e-06,
  "EchoTime": 0.068,
  "EchoTrainLength": 61,
  "EffectiveEchoSpacing": 0.000295005,
  "FlipAngle": 90,
  "HeudiconvVersion": "0.13.1",
  "ImageOrientationPatientDICOM": [0.986908, 0.160858, 0.011689, -0.157194, 0.943145, 0.292861],
  "ImageOrientationText": "Tra>Cor(16.9)>Sag(-2.1)",
  "ImageType": [
    "ORIGINAL",
    "PRIMARY",
    "DIFFUSION",
    "NONE",
    "ND",
    "NORM"
],
  "ImagingFrequency": 123.252,
  "InPlanePhaseEncodingDirectionDICOM": "COL",
  "InstitutionAddress": "Maynard 3,Hanover,NH,US,03755",
  "InstitutionName": "Dartmouth College - PBS",
  "InstitutionalDepartmentName": "Department",
  "MRAcquisitionType": "2D",
  "MagneticFieldStrength": 3,
  "Manufacturer": "Siemens",
  "ManufacturersModelName": "Prisma",
  "Modality": "MR",
  "MultibandAccelerationFactor": 4,
  "NonlinearGradientCorrection": false,
  "ParallelReductionFactorInPlane": 2,
  "PartialFourier": 1,
  "PatientPosition": "HFS",
  "PercentPhaseFOV": 100,
  "PercentSampling": 100,
  "PhaseEncodingDirection": "j-",
  "PhaseEncodingSteps": 122,
  "PhaseResolution": 1,
  "PixelBandwidth": 2050,
  "ProcedureStepDescription": "dbic^QA",
  "ProtocolName": "dwi_acq-DTI-30-p2-s4",
  "PulseSequenceDetails": "%SiemensSeq%\\ep2d_diff",
  "ReceiveCoilActiveElements": "HEA;HEP",
  "ReceiveCoilName": "Head_32",
  "ReconMatrixPE": 122,
  "RefLinesPE": 38,
  "RepetitionTime": 3.6,
  "SAR": 0.160584,
  "ScanOptions": "FS",
  "ScanningSequence": "EP",
  "SequenceName": "*ep_b0",
  "SequenceVariant": "SK\\SP",
  "SeriesDescription": "dwi_acq-DTI-30-p2-s4",
  "SeriesNumber": 9,
  "ShimSetting": [4146, -7698, -7508, 340, -24, -142, -54, 58],
  "SliceThickness": 2,
  "SliceTiming": [2.58594, 0, 1.78906, 0.20312, 1.99219, 0.39844, 2.1875, 0.59375, 2.39062, 0.99219, 2.78125, 1.19531, 2.98438, 1.39062, 3.17969, 1.59375, 3.38281, 0.79688, 2.58594, 0, 1.78906, 0.20312, 1.99219, 0.39844, 2.1875, 0.59375, 2.39062, 0.99219, 2.78125, 1.19531, 2.98438, 1.39062, 3.17969, 1.59375, 3.38281, 0.79688, 2.58594, 0, 1.78906, 0.20312, 1.99219, 0.39844, 2.1875, 0.59375, 2.39062, 0.99219, 2.78125, 1.19531, 2.98438, 1.39062, 3.17969, 1.59375, 3.38281, 0.79688, 2.58594, 0, 1.78906, 0.20312, 1.99219, 0.39844, 2.1875, 0.59375, 2.39062, 0.99219, 2.78125, 1.19531, 2.98438, 1.39062, 3.17969, 1.59375, 3.38281, 0.79688],
  "SoftwareVersions": "syngo MR E11",
  "SpacingBetweenSlices": 2,
  "SpoilingState": true,
  "StationName": "AWP66112",
  "TotalReadoutTime": 0.0356956,
  "TxRefAmp": 235.255,
  "dcmmeta_affine": [
    [-1.9414589405059814, -0.3092338740825653, -0.07216930389404297, 146.34600830078125],
    [-0.3164425194263458, 1.8553674221038818, 0.5817279815673828, -117.62382507324219],
    [0.02299479767680168, -0.5761194825172424, 1.9121627807617188, -26.349390029907227],
    [0.0, 0.0, 0.0, 1.0]
],
  "dcmmeta_reorient_transform": [
    [0.0, -1.0, 0.0, 121.0],
    [1.0, 0.0, 0.0, 0.0],
    [0.0, 0.0, -1.0, 71.0],
    [0.0, 0.0, 0.0, 1.0]
],
  "dcmmeta_shape": [122, 122, 72, 31],
  "dcmmeta_slice_dim": 2,
  "dcmmeta_version": 0.6,
  "global": {
    "const": {
      "AccessionNumber": "qa",
      "AcquisitionMatrix": [122, 0, 0, 122],
      "AngioFlag": "N",
      "BitsAllocated": 16,
      "BitsStored": 12,
      "BodyPartExamined": "BRAIN",
      "Columns": 122,
      "EchoNumbers": 1,
      "EchoTime": 68.0,
      "EchoTrainLength": 61,
      "FlipAngle": 90.0,
      "HighBit": 11,
      "ImageOrientationPatient": [0.98690829483769, 0.16085827408738, 0.01168902212317, -0.157193883816, 0.94314509482544, 0.29286073993889],
      "ImageType": [
        "ORIGINAL",
        "PRIMARY",
        "DIFFUSION",
        "NONE",
        "ND",
        "NORM"
],
      "ImagedNucleus": "1H",
      "ImagingFrequency": 123.252481,
      "InPlanePhaseEncodingDirection": "COL",
      "MRAcquisitionType": "2D",
      "MagneticFieldStrength": 3.0,
      "Manufacturer": "SIEMENS",
      "ManufacturerModelName": "Prisma",
      "Modality": "MR",
      "NumberOfAverages": 1.0,
      "NumberOfPhaseEncodingSteps": 122,
      "PercentPhaseFieldOfView": 100.0,
      "PercentSampling": 100.0,
      "PerformedProcedureStepStartTime": "084109.967000",
      "PhotometricInterpretation": "MONOCHROME2",
      "PixelBandwidth": 2050.0,
      "PixelRepresentation": 0,
      "PixelSpacing": [1.9672131538391, 1.9672131538391],
      "ProtocolName": "dwi_acq-DTI-30-p2-s4",
      "RepetitionTime": 3600.0,
      "Rows": 122,
      "SAR": 0.16058399841881,
      "SamplesPerPixel": 1,
      "ScanOptions": "FS",
      "ScanningSequence": "EP",
      "SequenceVariant": [
        "SK",
        "SP"
],
      "SeriesDescription": "dwi_acq-DTI-30-p2-s4",
      "SeriesNumber": 9,
      "SeriesTime": "090728.331000",
      "SliceThickness": 2.0,
      "SmallestImagePixelValue": 0,
      "SoftwareVersions": "syngo MR E11",
      "SpacingBetweenSlices": 2.0,
      "SpecificCharacterSet": "ISO_IR 100",
      "StudyID": "48",
      "StudyTime": "084109.901000",
      "TransmitCoilName": "Body",
      "VariableFlipAngleFlag": "N",
      "WindowCenterWidthExplanation": "Algo1",
      "dBdt": 0.0},
    "slices": {
      "AcquisitionTime": ["090719.467500", "090716.882500", "090718.672500", "090717.082500", "090718.872500", "090717.280000", "090719.070000", "090717.480000", "090719.270000", "090717.877500", "090719.667500", "090718.077500", "090719.867500", "090718.275000", "090720.065000", "090718.475000", "090720.265000", "090717.680000", "090719.467500", "090716.882500", "090718.672500", "090717.082500", "090718.872500", "090717.280000", "090719.070000", "090717.480000", "090719.270000", "090717.877500", "090719.667500", "090718.077500", "090719.867500", "090718.275000", "090720.065000", "090718.475000", "090720.265000", "090717.680000", "090719.467500", "090716.882500", "090718.672500", "090717.082500", "090718.872500", "090717.280000", "090719.070000", "090717.480000", "090719.270000", "090717.877500", "090719.667500", "090718.077500", "090719.867500", "090718.275000", "090720.065000", "090718.475000", "090720.265000", "090717.680000", "090719.467500", "090716.882500", "090718.672500", "090717.082500", "090718.872500", "090717.280000", "090719.070000", "090717.480000", "090719.270000", "090717.877500", "090719.667500", "090718.077500", "090719.867500", "090718.275000", "090720.065000", "090718.475000", "090720.265000", "090717.680000", "090723.067500", "090720.482500", "090722.272500", "090720.682500", "090722.472500", "090720.880000", "090722.670000", "090721.080000", "090722.870000", "090721.477500", "090723.267500", "090721.677500", "090723.467500", "090721.875000", "090723.665000", "090722.075000", "090723.865000", "090721.280000", "090723.067500", "090720.482500", "090722.272500", "090720.682500", "090722.472500", "090720.880000", "090722.670000", "090721.080000", "090722.870000", "090721.477500", "090723.267500", "090721.677500", "090723.467500", "090721.875000", "090723.665000", "090722.075000", "090723.865000", "090721.280000", "090723.067500", "090720.482500", "090722.272500", "090720.682500", "090722.472500", "090720.880000", "090722.670000", "090721.080000", "090722.870000", "090721.477500", "090723.267500", "090721.677500", "090723.467500", "090721.875000", "090723.665000", "090722.075000", "090723.865000", "090721.280000", "090723.067500", "090720.482500", "090722.272500", "090720.682500", "090722.472500", "090720.880000", "090722.670000", "090721.080000", "090722.870000", "090721.477500", "090723.267500", "090721.677500", "090723.467500", "090721.875000", "090723.665000", "090722.075000", "090723.865000", "090721.280000", "090726.667500", "090724.082500", "090725.872500", "090724.282500", "090726.072500", "090724.480000", "090726.270000", "090724.680000", "090726.470000", "090725.077500", "090726.867500", "090725.277500", "090727.067500", "090725.475000", "090727.265000", "090725.675000", "090727.465000", "090724.880000", "090726.667500", "090724.082500", "090725.872500", "090724.282500", "090726.072500", "090724.480000", "090726.270000", "090724.680000", "090726.470000", "090725.077500", "090726.867500", "090725.277500", "090727.067500", "090725.475000", "090727.265000", "090725.675000", "090727.465000", "090724.880000", "090726.667500", "090724.082500", "090725.872500", "090724.282500", "090726.072500", "090724.480000", "090726.270000", "090724.680000", "090726.470000", "090725.077500", "090726.867500", "090725.277500", "090727.067500", "090725.475000", "090727.265000", "090725.675000", "090727.465000", "090724.880000", "090726.667500", "090724.082500", "090725.872500", "090724.282500", "090726.072500", "090724.480000", "090726.270000", "090724.680000", "090726.470000", "090725.077500", "090726.867500", "090725.277500", "090727.067500", "090725.475000", "090727.265000", "090725.675000", "090727.465000", "090724.880000", "090730.267500", "090727.682500", "090729.472500", "090727.882500", "090729.672500", "090728.080000", "090729.870000", "090728.280000", "090730.070000", "090728.677500", "090730.467500", "090728.877500", "090730.667500", "090729.075000", "090730.865000", "090729.275000", "090731.065000", "090728.480000", "090730.267500", "090727.682500", "090729.472500", "090727.882500", "090729.672500", "090728.080000", "090729.870000", "090728.280000", "090730.070000", "090728.677500", "090730.467500", "090728.877500", "090730.667500", "090729.075000", "090730.865000", "090729.275000", "090731.065000", "090728.480000", "090730.267500", "090727.682500", "090729.472500", "090727.882500", "090729.672500", "090728.080000", "090729.870000", "090728.280000", "090730.070000", "090728.677500", "090730.467500", "090728.877500", "090730.667500", "090729.075000", "090730.865000", "090729.275000", "090731.065000", "090728.480000", "090730.267500", "090727.682500", "090729.472500", "090727.882500", "090729.672500", "090728.080000", "090729.870000", "090728.280000", "090730.070000", "090728.677500", "090730.467500", "090728.877500", "090730.667500", "090729.075000", "090730.865000", "090729.275000", "090731.065000", "090728.480000", "090733.867500", "090731.282500", "090733.072500", "090731.482500", "090733.272500", "090731.680000", "090733.470000", "090731.880000", "090733.670000", "090732.277500", "090734.067500", "090732.477500", "090734.267500", "090732.675000", "090734.465000", "090732.875000", "090734.665000", "090732.080000", "090733.867500", "090731.282500", "090733.072500", "090731.482500", "090733.272500", "090731.680000", "090733.470000", "090731.880000", "090733.670000", "090732.277500", "090734.067500", "090732.477500", "090734.267500", "090732.675000", "090734.465000", "090732.875000", "090734.665000", "090732.080000", "090733.867500", "090731.282500", "090733.072500", "090731.482500", "090733.272500", "090731.680000", "090733.470000", "090731.880000", "090733.670000", "090732.277500", "090734.067500", "090732.477500", "090734.267500", "090732.675000", "090734.465000", "090732.875000", "090734.665000", "090732.080000", "090733.867500", "090731.282500", "090733.072500", "090731.482500", "090733.272500", "090731.680000", "090733.470000", "090731.880000", "090733.670000", "090732.277500", "090734.067500", "090732.477500", "090734.267500", "090732.675000", "090734.465000", "090732.875000", "090734.665000", "090732.080000", "090737.467500", "090734.882500", "090736.672500", "090735.082500", "090736.872500", "090735.280000", "090737.070000", "090735.480000", "090737.270000", "090735.877500", "090737.667500", "090736.077500", "090737.867500", "090736.275000", "090738.065000", "090736.475000", "090738.265000", "090735.680000", "090737.467500", "090734.882500", "090736.672500", "090735.082500", "090736.872500", "090735.280000", "090737.070000", "090735.480000", "090737.270000", "090735.877500", "090737.667500", "090736.077500", "090737.867500", "090736.275000", "090738.065000", "090736.475000", "090738.265000", "090735.680000", "090737.467500", "090734.882500", "090736.672500", "090735.082500", "090736.872500", "090735.280000", "090737.070000", "090735.480000", "090737.270000", "090735.877500", "090737.667500", "090736.077500", "090737.867500", "090736.275000", "090738.065000", "090736.475000", "090738.265000", "090735.680000", "090737.467500", "090734.882500", "090736.672500", "090735.082500", "090736.872500", "090735.280000", "090737.070000", "090735.480000", "090737.270000", "090735.877500", "090737.667500", "090736.077500", "090737.867500", "090736.275000", "090738.065000", "090736.475000", "090738.265000", "090735.680000", "090741.067500", "090738.482500", "090740.272500", "090738.682500", "090740.472500", "090738.880000", "090740.670000", "090739.080000", "090740.870000", "090739.477500", "090741.267500", "090739.677500", "090741.467500", "090739.875000", "090741.665000", "090740.075000", "090741.865000", "090739.280000", "090741.067500", "090738.482500", "090740.272500", "090738.682500", "090740.472500", "090738.880000", "090740.670000", "090739.080000", "090740.870000", "090739.477500", "090741.267500", "090739.677500", "090741.467500", "090739.875000", "090741.665000", "090740.075000", "090741.865000", "090739.280000", "090741.067500", "090738.482500", "090740.272500", "090738.682500", "090740.472500", "090738.880000", "090740.670000", "090739.080000", "090740.870000", "090739.477500", "090741.267500", "090739.677500", "090741.467500", "090739.875000", "090741.665000", "090740.075000", "090741.865000", "090739.280000", "090741.067500", "090738.482500", "090740.272500", "090738.682500", "090740.472500", "090738.880000", "090740.670000", "090739.080000", "090740.870000", "090739.477500", "090741.267500", "090739.677500", "090741.467500", "090739.875000", "090741.665000", "090740.075000", "090741.865000", "090739.280000", "090744.667500", "090742.082500", "090743.872500", "090742.282500", "090744.072500", "090742.480000", "090744.270000", "090742.680000", "090744.470000", "090743.077500", "090744.867500", "090743.277500", "090745.067500", "090743.475000", "090745.265000", "090743.675000", "090745.465000", "090742.880000", "090744.667500", "090742.082500", "090743.872500", "090742.282500", "090744.072500", "090742.480000", "090744.270000", "090742.680000", "090744.470000", "090743.077500", "090744.867500", "090743.277500", "090745.067500", "090743.475000", "090745.265000", "090743.675000", "090745.465000", "090742.880000", "090744.667500", "090742.082500", "090743.872500", "090742.282500", "090744.072500", "090742.480000", "090744.270000", "090742.680000", "090744.470000", "090743.077500", "090744.867500", "090743.277500", "090745.067500", "090743.475000", "090745.265000", "090743.675000", "090745.465000", "090742.880000", "090744.667500", "090742.082500", "090743.872500", "090742.282500", "090744.072500", "090742.480000", "090744.270000", "090742.680000", "090744.470000", "090743.077500", "090744.867500", "090743.277500", "090745.067500", "090743.475000", "090745.265000", "090743.675000", "090745.465000", "090742.880000", "090748.267500", "090745.682500", "090747.472500", "090745.882500", "090747.672500", "090746.080000", "090747.870000", "090746.280000", "090748.070000", "090746.677500", "090748.467500", "090746.877500", "090748.667500", "090747.075000", "090748.865000", "090747.275000", "090749.065000", "090746.480000", "090748.267500", "090745.682500", "090747.472500", "090745.882500", "090747.672500", "090746.080000", "090747.870000", "090746.280000", "090748.070000", "090746.677500", "090748.467500", "090746.877500", "090748.667500", "090747.075000", "090748.865000", "090747.275000", "090749.065000", "090746.480000", "090748.267500", "090745.682500", "090747.472500", "090745.882500", "090747.672500", "090746.080000", "090747.870000", "090746.280000", "090748.070000", "090746.677500", "090748.467500", "090746.877500", "090748.667500", "090747.075000", "090748.865000", "090747.275000", "090749.065000", "090746.480000", "090748.267500", "090745.682500", "090747.472500", "090745.882500", "090747.672500", "090746.080000", "090747.870000", "090746.280000", "090748.070000", "090746.677500", "090748.467500", "090746.877500", "090748.667500", "090747.075000", "090748.865000", "090747.275000", "090749.065000", "090746.480000", "090751.867500", "090749.282500", "090751.072500", "090749.482500", "090751.272500", "090749.680000", "090751.470000", "090749.880000", "090751.670000", "090750.277500", "090752.067500", "090750.477500", "090752.267500", "090750.675000", "090752.465000", "090750.875000", "090752.665000", "090750.080000", "090751.867500", "090749.282500", "090751.072500", "090749.482500", "090751.272500", "090749.680000", "090751.470000", "090749.880000", "090751.670000", "090750.277500", "090752.067500", "090750.477500", "090752.267500", "090750.675000", "090752.465000", "090750.875000", "090752.665000", "090750.080000", "090751.867500", "090749.282500", "090751.072500", "090749.482500", "090751.272500", "090749.680000", "090751.470000", "090749.880000", "090751.670000", "090750.277500", "090752.067500", "090750.477500", "090752.267500", "090750.675000", "090752.465000", "090750.875000", "090752.665000", "090750.080000", "090751.867500", "090749.282500", "090751.072500", "090749.482500", "090751.272500", "090749.680000", "090751.470000", "090749.880000", "090751.670000", "090750.277500", "090752.067500", "090750.477500", "090752.267500", "090750.675000", "090752.465000", "090750.875000", "090752.665000", "090750.080000", "090755.467500", "090752.882500", "090754.672500", "090753.082500", "090754.872500", "090753.280000", "090755.070000", "090753.480000", "090755.270000", "090753.877500", "090755.667500", "090754.077500", "090755.867500", "090754.275000", "090756.065000", "090754.475000", "090756.265000", "090753.680000", "090755.467500", "090752.882500", "090754.672500", "090753.082500", "090754.872500", "090753.280000", "090755.070000", "090753.480000", "090755.270000", "090753.877500", "090755.667500", "090754.077500", "090755.867500", "090754.275000", "090756.065000", "090754.475000", "090756.265000", "090753.680000", "090755.467500", "090752.882500", "090754.672500", "090753.082500", "090754.872500", "090753.280000", "090755.070000", "090753.480000", "090755.270000", "090753.877500", "090755.667500", "090754.077500", "090755.867500", "090754.275000", "090756.065000", "090754.475000", "090756.265000", "090753.680000", "090755.467500", "090752.882500", "090754.672500", "090753.082500", "090754.872500", "090753.280000", "090755.070000", "090753.480000", "090755.270000", "090753.877500", "090755.667500", "090754.077500", "090755.867500", "090754.275000", "090756.065000", "090754.475000", "090756.265000", "090753.680000", "090759.067500", "090756.482500", "090758.272500", "090756.682500", "090758.472500", "090756.880000", "090758.670000", "090757.080000", "090758.870000", "090757.477500", "090759.267500", "090757.677500", "090759.467500", "090757.875000", "090759.665000", "090758.075000", "090759.865000", "090757.280000", "090759.067500", "090756.482500", "090758.272500", "090756.682500", "090758.472500", "090756.880000", "090758.670000", "090757.080000", "090758.870000", "090757.477500", "090759.267500", "090757.677500", "090759.467500", "090757.875000", "090759.665000", "090758.075000", "090759.865000", "090757.280000", "090759.067500", "090756.482500", "090758.272500", "090756.682500", "090758.472500", "090756.880000", "090758.670000", "090757.080000", "090758.870000", "090757.477500", "090759.267500", "090757.677500", "090759.467500", "090757.875000", "090759.665000", "090758.075000", "090759.865000", "090757.280000", "090759.067500", "090756.482500", "090758.272500", "090756.682500", "090758.472500", "090756.880000", "090758.670000", "090757.080000", "090758.870000", "090757.477500", "090759.267500", "090757.677500", "090759.467500", "090757.875000", "090759.665000", "090758.075000", "090759.865000", "090757.280000", "090802.667500", "090800.082500", "090801.872500", "090800.282500", "090802.072500", "090800.480000", "090802.270000", "090800.680000", "090802.470000", "090801.077500", "090802.867500", "090801.277500", "090803.067500", "090801.475000", "090803.265000", "090801.675000", "090803.465000", "090800.880000", "090802.667500", "090800.082500", "090801.872500", "090800.282500", "090802.072500", "090800.480000", "090802.270000", "090800.680000", "090802.470000", "090801.077500", "090802.867500", "090801.277500", "090803.067500", "090801.475000", "090803.265000", "090801.675000", "090803.465000", "090800.880000", "090802.667500", "090800.082500", "090801.872500", "090800.282500", "090802.072500", "090800.480000", "090802.270000", "090800.680000", "090802.470000", "090801.077500", "090802.867500", "090801.277500", "090803.067500", "090801.475000", "090803.265000", "090801.675000", "090803.465000", "090800.880000", "090802.667500", "090800.082500", "090801.872500", "090800.282500", "090802.072500", "090800.480000", "090802.270000", "090800.680000", "090802.470000", "090801.077500", "090802.867500", "090801.277500", "090803.067500", "090801.475000", "090803.265000", "090801.675000", "090803.465000", "090800.880000", "090806.267500", "090803.682500", "090805.472500", "090803.882500", "090805.672500", "090804.080000", "090805.870000", "090804.280000", "090806.070000", "090804.677500", "090806.467500", "090804.877500", "090806.667500", "090805.075000", "090806.865000", "090805.275000", "090807.065000", "090804.480000", "090806.267500", "090803.682500", "090805.472500", "090803.882500", "090805.672500", "090804.080000", "090805.870000", "090804.280000", "090806.070000", "090804.677500", "090806.467500", "090804.877500", "090806.667500", "090805.075000", "090806.865000", "090805.275000", "090807.065000", "090804.480000", "090806.267500", "090803.682500", "090805.472500", "090803.882500", "090805.672500", "090804.080000", "090805.870000", "090804.280000", "090806.070000", "090804.677500", "090806.467500", "090804.877500", "090806.667500", "090805.075000", "090806.865000", "090805.275000", "090807.065000", "090804.480000", "090806.267500", "090803.682500", "090805.472500", "090803.882500", "090805.672500", "090804.080000", "090805.870000", "090804.280000", "090806.070000", "090804.677500", "090806.467500", "090804.877500", "090806.667500", "090805.075000", "090806.865000", "090805.275000", "090807.065000", "090804.480000", "090809.867500", "090807.282500", "090809.072500", "090807.482500", "090809.272500", "090807.680000", "090809.470000", "090807.880000", "090809.670000", "090808.277500", "090810.067500", "090808.477500", "090810.267500", "090808.675000", "090810.465000", "090808.875000", "090810.665000", "090808.080000", "090809.867500", "090807.282500", "090809.072500", "090807.482500", "090809.272500", "090807.680000", "090809.470000", "090807.880000", "090809.670000", "090808.277500", "090810.067500", "090808.477500", "090810.267500", "090808.675000", "090810.465000", "090808.875000", "090810.665000", "090808.080000", "090809.867500", "090807.282500", "090809.072500", "090807.482500", "090809.272500", "090807.680000", "090809.470000", "090807.880000", "090809.670000", "090808.277500", "090810.067500", "090808.477500", "090810.267500", "090808.675000", "090810.465000", "090808.875000", "090810.665000", "090808.080000", "090809.867500", "090807.282500", "090809.072500", "090807.482500", "090809.272500", "090807.680000", "090809.470000", "090807.880000", "090809.670000", "090808.277500", "090810.067500", "090808.477500", "090810.267500", "090808.675000", "090810.465000", "090808.875000", "090810.665000", "090808.080000", "090813.467500", "090810.882500", "090812.672500", "090811.082500", "090812.872500", "090811.280000", "090813.070000", "090811.480000", "090813.270000", "090811.877500", "090813.667500", "090812.077500", "090813.867500", "090812.275000", "090814.065000", "090812.475000", "090814.265000", "090811.680000", "090813.467500", "090810.882500", "090812.672500", "090811.082500", "090812.872500", "090811.280000", "090813.070000", "090811.480000", "090813.270000", "090811.877500", "090813.667500", "090812.077500", "090813.867500", "090812.275000", "090814.065000", "090812.475000", "090814.265000", "090811.680000", "090813.467500", "090810.882500", "090812.672500", "090811.082500", "090812.872500", "090811.280000", "090813.070000", "090811.480000", "090813.270000", "090811.877500", "090813.667500", "090812.077500", "090813.867500", "090812.275000", "090814.065000", "090812.475000", "090814.265000", "090811.680000", "090813.467500", "090810.882500", "090812.672500", "090811.082500", "090812.872500", "090811.280000", "090813.070000", "090811.480000", "090813.270000", "090811.877500", "090813.667500", "090812.077500", "090813.867500", "090812.275000", "090814.065000", "090812.475000", "090814.265000", "090811.680000", "090817.067500", "090814.482500", "090816.272500", "090814.682500", "090816.472500", "090814.880000", "090816.670000", "090815.080000", "090816.870000", "090815.477500", "090817.267500", "090815.677500", "090817.467500", "090815.875000", "090817.665000", "090816.075000", "090817.865000", "090815.280000", "090817.067500", "090814.482500", "090816.272500", "090814.682500", "090816.472500", "090814.880000", "090816.670000", "090815.080000", "090816.870000", "090815.477500", "090817.267500", "090815.677500", "090817.467500", "090815.875000", "090817.665000", "090816.075000", "090817.865000", "090815.280000", "090817.067500", "090814.482500", "090816.272500", "090814.682500", "090816.472500", "090814.880000", "090816.670000", "090815.080000", "090816.870000", "090815.477500", "090817.267500", "090815.677500", "090817.467500", "090815.875000", "090817.665000", "090816.075000", "090817.865000", "090815.280000", "090817.067500", "090814.482500", "090816.272500", "090814.682500", "090816.472500", "090814.880000", "090816.670000", "090815.080000", "090816.870000", "090815.477500", "090817.267500", "090815.677500", "090817.467500", "090815.875000", "090817.665000", "090816.075000", "090817.865000", "090815.280000", "090820.667500", "090818.082500", "090819.872500", "090818.282500", "090820.072500", "090818.480000", "090820.270000", "090818.680000", "090820.470000", "090819.077500", "090820.867500", "090819.277500", "090821.067500", "090819.475000", "090821.265000", "090819.675000", "090821.465000", "090818.880000", "090820.667500", "090818.082500", "090819.872500", "090818.282500", "090820.072500", "090818.480000", "090820.270000", "090818.680000", "090820.470000", "090819.077500", "090820.867500", "090819.277500", "090821.067500", "090819.475000", "090821.265000", "090819.675000", "090821.465000", "090818.880000", "090820.667500", "090818.082500", "090819.872500", "090818.282500", "090820.072500", "090818.480000", "090820.270000", "090818.680000", "090820.470000", "090819.077500", "090820.867500", "090819.277500", "090821.067500", "090819.475000", "090821.265000", "090819.675000", "090821.465000", "090818.880000", "090820.667500", "090818.082500", "090819.872500", "090818.282500", "090820.072500", "090818.480000", "090820.270000", "090818.680000", "090820.470000", "090819.077500", "090820.867500", "090819.277500", "090821.067500", "090819.475000", "090821.265000", "090819.675000", "090821.465000", "090818.880000", "090824.267500", "090821.682500", "090823.472500", "090821.882500", "090823.672500", "090822.080000", "090823.870000", "090822.280000", "090824.070000", "090822.677500", "090824.467500", "090822.877500", "090824.667500", "090823.075000", "090824.865000", "090823.275000", "090825.065000", "090822.480000", "090824.267500", "090821.682500", "090823.472500", "090821.882500", "090823.672500", "090822.080000", "090823.870000", "090822.280000", "090824.070000", "090822.677500", "090824.467500", "090822.877500", "090824.667500", "090823.075000", "090824.865000", "090823.275000", "090825.065000", "090822.480000", "090824.267500", "090821.682500", "090823.472500", "090821.882500", "090823.672500", "090822.080000", "090823.870000", "090822.280000", "090824.070000", "090822.677500", "090824.467500", "090822.877500", "090824.667500", "090823.075000", "090824.865000", "090823.275000", "090825.065000", "090822.480000", "090824.267500", "090821.682500", "090823.472500", "090821.882500", "090823.672500", "090822.080000", "090823.870000", "090822.280000", "090824.070000", "090822.677500", "090824.467500", "090822.877500", "090824.667500", "090823.075000", "090824.865000", "090823.275000", "090825.065000", "090822.480000", "090827.867500", "090825.282500", "090827.072500", "090825.482500", "090827.272500", "090825.680000", "090827.470000", "090825.880000", "090827.670000", "090826.277500", "090828.067500", "090826.477500", "090828.267500", "090826.675000", "090828.465000", "090826.875000", "090828.665000", "090826.080000", "090827.867500", "090825.282500", "090827.072500", "090825.482500", "090827.272500", "090825.680000", "090827.470000", "090825.880000", "090827.670000", "090826.277500", "090828.067500", "090826.477500", "090828.267500", "090826.675000", "090828.465000", "090826.875000", "090828.665000", "090826.080000", "090827.867500", "090825.282500", "090827.072500", "090825.482500", "090827.272500", "090825.680000", "090827.470000", "090825.880000", "090827.670000", "090826.277500", "090828.067500", "090826.477500", "090828.267500", "090826.675000", "090828.465000", "090826.875000", "090828.665000", "090826.080000", "090827.867500", "090825.282500", "090827.072500", "090825.482500", "090827.272500", "090825.680000", "090827.470000", "090825.880000", "090827.670000", "090826.277500", "090828.067500", "09