{
  "AcquisitionMatrixPE": 122,
  "AcquisitionNumber": 1,
  "AcquisitionTime": "09:03:0.047500",
  "BandwidthPerPixelPhaseEncode": 28.76,
  "BaseResolution": 122,
  "BodyPartExamined": "BRAIN",
  "CoilCombinationMethod": "Adaptive Combine",
  "ConsistencyInfo": "N4_VE11C_LATEST_20160120",
  "ConversionSoftware": "dcm2niix",
  "ConversionSoftwareVersion": "v1.0.20220720",
  "DerivedVendorReportedEchoSpacing": 0.000570008,
  "DeviceSerialNumber": "66112",
  "DiffusionScheme": "Monopolar",
  "DwellTime": 2e-06,
  "EchoTime": 0.075,
  "EchoTrainLength": 61,
  "EffectiveEchoSpacing": 0.000285004,
  "FlipAngle": 90,
  "HeudiconvVersion": "0.13.1",
  "ImageOrientationPatientDICOM": [0.986908, 0.160858, 0.011689, -0.157194, 0.943145, 0.292861],
  "ImageOrientationText": "Tra>Cor(16.9)>Sag(-2.1)",
  "ImageType": [
    "ORIGINAL",
    "PRIMARY",
    "DIFFUSION",
    "NONE",
    "ND",
    "NORM"
],
  "ImagingFrequency": 123.252,
  "InPlanePhaseEncodingDirectionDICOM": "COL",
  "InstitutionAddress": "Maynard 3,Hanover,NH,US,03755",
  "InstitutionName": "Dartmouth College - PBS",
  "InstitutionalDepartmentName": "Department",
  "MRAcquisitionType": "2D",
  "MagneticFieldStrength": 3,
  "Manufacturer": "Siemens",
  "ManufacturersModelName": "Prisma",
  "MatrixCoilMode": "GRAPPA",
  "Modality": "MR",
  "NonlinearGradientCorrection": false,
  "ParallelReductionFactorInPlane": 2,
  "PartialFourier": 1,
  "PatientPosition": "HFS",
  "PercentPhaseFOV": 100,
  "PercentSampling": 100,
  "PhaseEncodingDirection": "j-",
  "PhaseEncodingSteps": 122,
  "PhaseResolution": 1,
  "PixelBandwidth": 2050,
  "ProcedureStepDescription": "dbic^QA",
  "ProtocolName": "dwi_acq-DTI-30-p2",
  "PulseSequenceDetails": "%SiemensSeq%\\ep2d_diff",
  "ReceiveCoilActiveElements": "HEA;HEP",
  "ReceiveCoilName": "Head_32",
  "ReconMatrixPE": 122,
  "RefLinesPE": 38,
  "RepetitionTime": 7.7,
  "SAR": 0.101649,
  "ScanOptions": "FS",
  "ScanningSequence": "EP",
  "SequenceName": "*ep_b0",
  "SequenceVariant": "SK\\SP",
  "SeriesDescription": "dwi_acq-DTI-30-p2",
  "SeriesNumber": 8,
  "ShimSetting": [4146, -7698, -7508, 341, -23, -143, -54, 58],
  "SliceThickness": 2,
  "SliceTiming": [3.83594, 0, 3.94531, 0.10938, 4.05469, 0.21094, 4.16406, 0.32031, 4.27344, 0.4375, 4.38281, 0.54688, 4.49219, 0.65625, 4.60156, 0.76562, 4.71094, 0.875, 4.82031, 0.98438, 4.92969, 1.09375, 5.03906, 1.20312, 5.14844, 1.3125, 5.25781, 1.42188, 5.375, 1.53125, 5.48438, 1.64062, 5.59375, 1.75, 5.70312, 1.85938, 5.8125, 1.96875, 5.92188, 2.07812, 6.03125, 2.1875, 6.14062, 2.29688, 6.25, 2.40625, 6.35938, 2.51562, 6.46875, 2.63281, 6.57812, 2.74219, 6.6875, 2.85156, 6.79688, 2.95312, 6.90625, 3.07031, 7.01562, 3.17969, 7.125, 3.28906, 7.23438, 3.39844, 7.34375, 3.50781, 7.45312, 3.61719, 7.57031, 3.72656],
  "SoftwareVersions": "syngo MR E11",
  "SpacingBetweenSlices": 2,
  "SpoilingState": true,
  "StationName": "AWP66112",
  "TotalReadoutTime": 0.0344855,
  "TxRefAmp": 235.255,
  "dcmmeta_affine": [
    [-1.9414589405059814, -0.3092338740825653, -0.07216930389404297, 146.27383422851562],
    [-0.3164425194263458, 1.8553674221038818, 0.5817279815673828, -117.0420913696289],
    [0.02299479767680168, -0.5761194825172424, 1.91217041015625, -24.437753677368164],
    [0.0, 0.0, 0.0, 1.0]
],
  "dcmmeta_reorient_transform": [
    [0.0, -1.0, 0.0, 121.0],
    [1.0, 0.0, 0.0, 0.0],
    [0.0, 0.0, -1.0, 69.0],
    [0.0, 0.0, 0.0, 1.0]
],
  "dcmmeta_shape": [122, 122, 70, 31],
  "dcmmeta_slice_dim": 2,
  "dcmmeta_version": 0.6,
  "global": {
    "const": {
      "AccessionNumber": "qa",
      "AcquisitionMatrix": [122, 0, 0, 122],
      "AngioFlag": "N",
      "BitsAllocated": 16,
      "BitsStored": 12,
      "BodyPartExamined": "BRAIN",
      "Columns": 122,
      "EchoNumbers": 1,
      "EchoTime": 75.0,
      "EchoTrainLength": 61,
      "FlipAngle": 90.0,
      "HighBit": 11,
      "ImageOrientationPatient": [0.98690829483769, 0.16085827408738, 0.01168902212317, -0.157193883816, 0.94314509482544, 0.29286073993889],
      "ImageType": [
        "ORIGINAL",
        "PRIMARY",
        "DIFFUSION",
        "NONE",
        "ND",
        "NORM"
],
      "ImagedNucleus": "1H",
      "ImagingFrequency": 123.252481,
      "InPlanePhaseEncodingDirection": "COL",
      "MRAcquisitionType": "2D",
      "MagneticFieldStrength": 3.0,
      "Manufacturer": "SIEMENS",
      "ManufacturerModelName": "Prisma",
      "Modality": "MR",
      "NumberOfAverages": 1.0,
      "NumberOfPhaseEncodingSteps": 122,
      "PercentPhaseFieldOfView": 100.0,
      "PercentSampling": 100.0,
      "PerformedProcedureStepStartTime": "084109.967000",
      "PhotometricInterpretation": "MONOCHROME2",
      "PixelBandwidth": 2050.0,
      "PixelRepresentation": 0,
      "PixelSpacing": [1.9672131538391, 1.9672131538391],
      "ProtocolName": "dwi_acq-DTI-30-p2",
      "RepetitionTime": 7700.0,
      "Rows": 122,
      "SAR": 0.10164941467822,
      "SamplesPerPixel": 1,
      "ScanOptions": "FS",
      "ScanningSequence": "EP",
      "SequenceVariant": [
        "SK",
        "SP"
],
      "SeriesDescription": "dwi_acq-DTI-30-p2",
      "SeriesNumber": 8,
      "SeriesTime": "090308.926000",
      "SliceThickness": 2.0,
      "SmallestImagePixelValue": 0,
      "SoftwareVersions": "syngo MR E11",
      "SpacingBetweenSlices": 2.0,
      "SpecificCharacterSet": "ISO_IR 100",
      "StudyID": "48",
      "StudyTime": "084109.901000",
      "TransmitCoilName": "Body",
      "VariableFlipAngleFlag": "N",
      "WindowCenterWidthExplanation": "Algo1",
      "dBdt": 0.0},
    "slices": {
      "AcquisitionTime": ["090300.047500", "090256.207500", "090300.155000", "090256.317500", "090300.265000", "090256.425000", "090300.375000", "090256.535000", "090300.485000", "090256.645000", "090300.595000", "090256.755000", "090300.705000", "090256.865000", "090300.815000", "090256.975000", "090300.925000", "090257.085000", "090301.035000", "090257.195000", "090301.142500", "090257.302500", "090301.252500", "090257.412500", "090301.362500", "090257.522500", "090301.472500", "090257.632500", "090301.582500", "090257.742500", "090301.692500", "090257.852500", "090301.802500", "090257.962500", "090301.912500", "090258.072500", "090302.020000", "090258.182500", "090302.130000", "090258.290000", "090302.240000", "090258.400000", "090302.350000", "090258.510000", "090302.460000", "090258.620000", "090302.570000", "090258.730000", "090302.680000", "090258.840000", "090302.790000", "090258.950000", "090302.900000", "090259.060000", "090303.007500", "090259.167500", "090303.117500", "090259.277500", "090303.227500", "090259.387500", "090303.337500", "090259.497500", "090303.447500", "090259.607500", "090303.557500", "090259.717500", "090303.667500", "090259.827500", "090303.777500", "090259.937500", "090307.747500", "090303.907500", "090307.855000", "090304.017500", "090307.965000", "090304.125000", "090308.075000", "090304.235000", "090308.185000", "090304.345000", "090308.295000", "090304.455000", "090308.405000", "090304.565000", "090308.515000", "090304.675000", "090308.625000", "090304.785000", "090308.735000", "090304.895000", "090308.842500", "090305.002500", "090308.952500", "090305.112500", "090309.062500", "090305.222500", "090309.172500", "090305.332500", "090309.282500", "090305.442500", "090309.392500", "090305.552500", "090309.502500", "090305.662500", "090309.612500", "090305.772500", "090309.720000", "090305.882500", "090309.830000", "090305.990000", "090309.940000", "090306.100000", "090310.050000", "090306.210000", "090310.160000", "090306.320000", "090310.270000", "090306.430000", "090310.380000", "090306.540000", "090310.490000", "090306.650000", "090310.600000", "090306.760000", "090310.707500", "090306.867500", "090310.817500", "090306.977500", "090310.927500", "090307.087500", "090311.037500", "090307.197500", "090311.147500", "090307.307500", "090311.257500", "090307.417500", "090311.367500", "090307.527500", "090311.477500", "090307.637500", "090315.447500", "090311.607500", "090315.555000", "090311.717500", "090315.665000", "090311.825000", "090315.775000", "090311.935000", "090315.885000", "090312.045000", "090315.995000", "090312.155000", "090316.105000", "090312.265000", "090316.215000", "090312.375000", "090316.325000", "090312.485000", "090316.435000", "090312.595000", "090316.542500", "090312.702500", "090316.652500", "090312.812500", "090316.762500", "090312.922500", "090316.872500", "090313.032500", "090316.982500", "090313.142500", "090317.092500", "090313.252500", "090317.202500", "090313.362500", "090317.312500", "090313.472500", "090317.420000", "090313.582500", "090317.530000", "090313.690000", "090317.640000", "090313.800000", "090317.750000", "090313.910000", "090317.860000", "090314.020000", "090317.970000", "090314.130000", "090318.080000", "090314.240000", "090318.190000", "090314.350000", "090318.300000", "090314.460000", "090318.407500", "090314.567500", "090318.517500", "090314.677500", "090318.627500", "090314.787500", "090318.737500", "090314.897500", "090318.847500", "090315.007500", "090318.957500", "090315.117500", "090319.067500", "090315.227500", "090319.177500", "090315.337500", "090323.147500", "090319.307500", "090323.255000", "090319.417500", "090323.365000", "090319.525000", "090323.475000", "090319.635000", "090323.585000", "090319.745000", "090323.695000", "090319.855000", "090323.805000", "090319.965000", "090323.915000", "090320.075000", "090324.025000", "090320.185000", "090324.135000", "090320.295000", "090324.242500", "090320.402500", "090324.352500", "090320.512500", "090324.462500", "090320.622500", "090324.572500", "090320.732500", "090324.682500", "090320.842500", "090324.792500", "090320.952500", "090324.902500", "090321.062500", "090325.012500", "090321.172500", "090325.120000", "090321.282500", "090325.230000", "090321.390000", "090325.340000", "090321.500000", "090325.450000", "090321.610000", "090325.560000", "090321.720000", "090325.670000", "090321.830000", "090325.780000", "090321.940000", "090325.890000", "090322.050000", "090326.000000", "090322.160000", "090326.107500", "090322.267500", "090326.217500", "090322.377500", "090326.327500", "090322.487500", "090326.437500", "090322.597500", "090326.547500", "090322.707500", "090326.657500", "090322.817500", "090326.767500", "090322.927500", "090326.877500", "090323.037500", "090330.847500", "090327.007500", "090330.955000", "090327.117500", "090331.065000", "090327.225000", "090331.175000", "090327.335000", "090331.285000", "090327.445000", "090331.395000", "090327.555000", "090331.505000", "090327.665000", "090331.615000", "090327.775000", "090331.725000", "090327.885000", "090331.835000", "090327.995000", "090331.942500", "090328.102500", "090332.052500", "090328.212500", "090332.162500", "090328.322500", "090332.272500", "090328.432500", "090332.382500", "090328.542500", "090332.492500", "090328.652500", "090332.602500", "090328.762500", "090332.712500", "090328.872500", "090332.820000", "090328.982500", "090332.930000", "090329.090000", "090333.040000", "090329.200000", "090333.150000", "090329.310000", "090333.260000", "090329.420000", "090333.370000", "090329.530000", "090333.480000", "090329.640000", "090333.590000", "090329.750000", "090333.700000", "090329.860000", "090333.807500", "090329.967500", "090333.917500", "090330.077500", "090334.027500", "090330.187500", "090334.137500", "090330.297500", "090334.247500", "090330.407500", "090334.357500", "090330.517500", "090334.467500", "090330.627500", "090334.577500", "090330.737500", "090338.547500", "090334.707500", "090338.655000", "090334.817500", "090338.765000", "090334.925000", "090338.875000", "090335.035000", "090338.985000", "090335.145000", "090339.095000", "090335.255000", "090339.205000", "090335.365000", "090339.315000", "090335.475000", "090339.425000", "090335.585000", "090339.535000", "090335.695000", "090339.642500", "090335.802500", "090339.752500", "090335.912500", "090339.862500", "090336.022500", "090339.972500", "090336.132500", "090340.082500", "090336.242500", "090340.192500", "090336.352500", "090340.302500", "090336.462500", "090340.412500", "090336.572500", "090340.520000", "090336.682500", "090340.630000", "090336.790000", "090340.740000", "090336.900000", "090340.850000", "090337.010000", "090340.960000", "090337.120000", "090341.070000", "090337.230000", "090341.180000", "090337.340000", "090341.290000", "090337.450000", "090341.400000", "090337.560000", "090341.507500", "090337.667500", "090341.617500", "090337.777500", "090341.727500", "090337.887500", "090341.837500", "090337.997500", "090341.947500", "090338.107500", "090342.057500", "090338.217500", "090342.167500", "090338.327500", "090342.277500", "090338.437500", "090346.247500", "090342.407500", "090346.355000", "090342.517500", "090346.465000", "090342.625000", "090346.575000", "090342.735000", "090346.685000", "090342.845000", "090346.795000", "090342.955000", "090346.905000", "090343.065000", "090347.015000", "090343.175000", "090347.125000", "090343.285000", "090347.235000", "090343.395000", "090347.342500", "090343.502500", "090347.452500", "090343.612500", "090347.562500", "090343.722500", "090347.672500", "090343.832500", "090347.782500", "090343.942500", "090347.892500", "090344.052500", "090348.002500", "090344.162500", "090348.112500", "090344.272500", "090348.220000", "090344.382500", "090348.330000", "090344.490000", "090348.440000", "090344.600000", "090348.550000", "090344.710000", "090348.660000", "090344.820000", "090348.770000", "090344.930000", "090348.880000", "090345.040000", "090348.990000", "090345.150000", "090349.100000", "090345.260000", "090349.207500", "090345.367500", "090349.317500", "090345.477500", "090349.427500", "090345.587500", "090349.537500", "090345.697500", "090349.647500", "090345.807500", "090349.757500", "090345.917500", "090349.867500", "090346.027500", "090349.977500", "090346.137500", "090353.947500", "090350.107500", "090354.055000", "090350.217500", "090354.165000", "090350.325000", "090354.275000", "090350.435000", "090354.385000", "090350.545000", "090354.495000", "090350.655000", "090354.605000", "090350.765000", "090354.715000", "090350.875000", "090354.825000", "090350.985000", "090354.935000", "090351.095000", "090355.042500", "090351.202500", "090355.152500", "090351.312500", "090355.262500", "090351.422500", "090355.372500", "090351.532500", "090355.482500", "090351.642500", "090355.592500", "090351.752500", "090355.702500", "090351.862500", "090355.812500", "090351.972500", "090355.920000", "090352.082500", "090356.030000", "090352.190000", "090356.140000", "090352.300000", "090356.250000", "090352.410000", "090356.360000", "090352.520000", "090356.470000", "090352.630000", "090356.580000", "090352.740000", "090356.690000", "090352.850000", "090356.800000", "090352.960000", "090356.907500", "090353.067500", "090357.017500", "090353.177500", "090357.127500", "090353.287500", "090357.237500", "090353.397500", "090357.347500", "090353.507500", "090357.457500", "090353.617500", "090357.567500", "090353.727500", "090357.677500", "090353.837500", "090401.647500", "090357.807500", "090401.755000", "090357.917500", "090401.865000", "090358.025000", "090401.975000", "090358.135000", "090402.085000", "090358.245000", "090402.195000", "090358.355000", "090402.305000", "090358.465000", "090402.415000", "090358.575000", "090402.525000", "090358.685000", "090402.635000", "090358.795000", "090402.742500", "090358.902500", "090402.852500", "090359.012500", "090402.962500", "090359.122500", "090403.072500", "090359.232500", "090403.182500", "090359.342500", "090403.292500", "090359.452500", "090403.402500", "090359.562500", "090403.512500", "090359.672500", "090403.620000", "090359.782500", "090403.730000", "090359.890000", "090403.840000", "090400.000000", "090403.950000", "090400.110000", "090404.060000", "090400.220000", "090404.170000", "090400.330000", "090404.280000", "090400.440000", "090404.390000", "090400.550000", "090404.500000", "090400.660000", "090404.607500", "090400.767500", "090404.717500", "090400.877500", "090404.827500", "090400.987500", "090404.937500", "090401.097500", "090405.047500", "090401.207500", "090405.157500", "090401.317500", "090405.267500", "090401.427500", "090405.377500", "090401.537500", "090409.347500", "090405.507500", "090409.455000", "090405.617500", "090409.565000", "090405.725000", "090409.675000", "090405.835000", "090409.785000", "090405.945000", "090409.895000", "090406.055000", "090410.005000", "090406.165000", "090410.115000", "090406.275000", "090410.225000", "090406.385000", "090410.335000", "090406.495000", "090410.442500", "090406.602500", "090410.552500", "090406.712500", "090410.662500", "090406.822500", "090410.772500", "090406.932500", "090410.882500", "090407.042500", "090410.992500", "090407.152500", "090411.102500", "090407.262500", "090411.212500", "090407.372500", "090411.320000", "090407.482500", "090411.430000", "090407.590000", "090411.540000", "090407.700000", "090411.650000", "090407.810000", "090411.760000", "090407.920000", "090411.870000", "090408.030000", "090411.980000", "090408.140000", "090412.090000", "090408.250000", "090412.200000", "090408.360000", "090412.307500", "090408.467500", "090412.417500", "090408.577500", "090412.527500", "090408.687500", "090412.637500", "090408.797500", "090412.747500", "090408.907500", "090412.857500", "090409.017500", "090412.967500", "090409.127500", "090413.077500", "090409.237500", "090417.047500", "090413.207500", "090417.155000", "090413.317500", "090417.265000", "090413.425000", "090417.375000", "090413.535000", "090417.485000", "090413.645000", "090417.595000", "090413.755000", "090417.705000", "090413.865000", "090417.815000", "090413.975000", "090417.925000", "090414.085000", "090418.035000", "090414.195000", "090418.142500", "090414.302500", "090418.252500", "090414.412500", "090418.362500", "090414.522500", "090418.472500", "090414.632500", "090418.582500", "090414.742500", "090418.692500", "090414.852500", "090418.802500", "090414.962500", "090418.912500", "090415.072500", "090419.020000", "090415.182500", "090419.130000", "090415.290000", "090419.240000", "090415.400000", "090419.350000", "090415.510000", "090419.460000", "090415.620000", "090419.570000", "090415.730000", "090419.680000", "090415.840000", "090419.790000", "090415.950000", "090419.900000", "090416.060000", "090420.007500", "090416.167500", "090420.117500", "090416.277500", "090420.227500", "090416.387500", "090420.337500", "090416.497500", "090420.447500", "090416.607500", "090420.557500", "090416.717500", "090420.667500", "090416.827500", "090420.777500", "090416.937500", "090424.747500", "090420.907500", "090424.855000", "090421.017500", "090424.965000", "090421.125000", "090425.075000", "090421.235000", "090425.185000", "090421.345000", "090425.295000", "090421.455000", "090425.405000", "090421.565000", "090425.515000", "090421.675000", "090425.625000", "090421.785000", "090425.735000", "090421.895000", "090425.842500", "090422.002500", "090425.952500", "090422.112500", "090426.062500", "090422.222500", "090426.172500", "090422.332500", "090426.282500", "090422.442500", "090426.392500", "090422.552500", "090426.502500", "090422.662500", "090426.612500", "090422.772500", "090426.720000", "090422.882500", "090426.830000", "090422.990000", "090426.940000", "090423.100000", "090427.050000", "090423.210000", "090427.160000", "090423.320000", "090427.270000", "090423.430000", "090427.380000", "090423.540000", "090427.490000", "090423.650000", "090427.600000", "090423.760000", "090427.707500", "090423.867500", "090427.817500", "090423.977500", "090427.927500", "090424.087500", "090428.037500", "090424.197500", "090428.147500", "090424.307500", "090428.257500", "090424.417500", "090428.367500", "090424.527500", "090428.477500", "090424.637500", "090432.447500", "090428.607500", "090432.555000", "090428.717500", "090432.665000", "090428.825000", "090432.775000", "090428.935000", "090432.885000", "090429.045000", "090432.995000", "090429.155000", "090433.105000", "090429.265000", "090433.215000", "090429.375000", "090433.325000", "090429.485000", "090433.435000", "090429.595000", "090433.542500", "090429.702500", "090433.652500", "090429.812500", "090433.762500", "090429.922500", "090433.872500", "090430.032500", "090433.982500", "090430.142500", "090434.092500", "090430.252500", "090434.202500", "090430.362500", "090434.312500", "090430.472500", "090434.420000", "090430.582500", "090434.530000", "090430.690000", "090434.640000", "090430.800000", "090434.750000", "090430.910000", "090434.860000", "090431.020000", "090434.970000", "090431.130000", "090435.080000", "090431.240000", "090435.190000", "090431.350000", "090435.300000", "090431.460000", "090435.407500", "090431.567500", "090435.517500", "090431.677500", "090435.627500", "090431.787500", "090435.737500", "090431.897500", "090435.847500", "090432.007500", "090435.957500", "090432.117500", "090436.067500", "090432.227500", "090436.177500", "090432.337500", "090440.147500", "090436.307500", "090440.255000", "090436.417500", "090440.365000", "090436.525000", "090440.475000", "090436.635000", "090440.585000", "090436.745000", "090440.695000", "090436.855000", "090440.805000", "090436.965000", "090440.915000", "090437.075000", "090441.025000", "090437.185000", "090441.135000", "090437.295000", "090441.242500", "090437.402500", "090441.352500", "090437.512500", "090441.462500", "090437.622500", "090441.572500", "090437.732500", "090441.682500", "090437.842500", "090441.792500", "090437.952500", "090441.902500", "090438.062500", "090442.012500", "090438.172500", "090442.120000", "090438.282500", "090442.230000", "090438.390000", "090442.340000", "090438.500000", "090442.450000", "090438.610000", "090442.560000", "090438.720000", "090442.670000", "090438.830000", "090442.780000", "090438.940000", "090442.890000", "090439.050000", "090443.000000", "090439.160000", "090443.107500", "090439.267500", "090443.217500", "090439.377500", "090443.327500", "090439.487500", "090443.437500", "090439.597500", "090443.547500", "090439.707500", "090443.657500", "090439.817500", "090443.767500", "090439.927500", "090443.877500", "090440.037500", "090447.847500", "090444.007500", "090447.955000", "090444.117500", "090448.065000", "090444.225000", "090448.175000", "090444.335000", "090448.285000", "090444.445000", "090448.395000", "090444.555000", "090448.505000", "090444.665000", "090448.615000", "090444.775000", "090448.725000", "090444.885000", "090448.835000", "090444.995000", "090448.942500", "090445.102500", "090449.052500", "090445.212500", "090449.162500", "090445.322500", "090449.272500", "090445.432500", "090449.382500", "090445.542500", "090449.492500", "090445.652500", "090449.602500", "090445.762500", "090449.712500", "090445.872500", "090449.820000", "090445.982500", "090449.930000", "090446.090000", "090450.040000", "090446.200000", "090450.150000", "090446.310000", "090450.260000", "090446.420000", "090450.370000", "090446.530000", "090450.480000", "090446.640000", "090450.590000", "090446.750000", "090450.700000", "090446.860000", "090450.807500", "090446.967500", "090450.917500", "090447.077500", "090451.027500", "090447.187500", "090451.137500", "090447.297500", "090451.247500", "090447.407500", "090451.357500", "090447.517500", "090451.467500", "090447.627500", "090451.577500", "090447.737500", "090455.547500", "090451.707500", "090455.655000", "090451.817500", "090455.765000", "090451.925000", "090455.875000", "090452.035000", "090455.985000", "090452.145000", "090456.095000", "090452.255000", "090456.205000", "090452.365000", "090456.315000", "090452.475000", "090456.425000", "090452.585000", "090456.535000", "090452.695000", "090456.642500", "090452.802500", "090456.752500", "090452.912500", "090456.862500", "090453.022500", "090456.972500", "090453.132500", "090457.082500", "090453.242500", "090457.192500", "090453.352500", "090457.302500", "090453.462500", "090457.412500", "090453.572500", "090457.520000", "090453.682500", "090457.630000", "090453.790000", "090457.740000", "090453.900000", "090457.850000", "090454.010000", "090457.960000", "090454.120000", "090458.070000", "090454.230000", "090458.180000", "090454.340000", "090458.290000", "090454.450000", "090458.400000", "090454.560000", "090458.507500", "090454.667500", "090458.617500", "090454.777500", "090458.727500", "090454.887500", "090458.837500", "090454.997500", "090458.947500", "090455.107500", "090459.057500", "090455.217500", "090459.167500", "090455.327500", "090459.277500", "090455.437500", "090503.247500", "090459.407500", "090503.355000", "090459.517500", "090503.465000", "090459.625000", "090503.575000", "090459.735000", "090503.685000", "090459.845000", "090503.795000", "090459.955000", "090503.905000", "090500.065000", "090504.015000", "090500.175000", "090504.125000", "090500.285000", "090504.235000", "090500.395000", "090504.342500", "090500.502500", "090504.452500", "090500.612500", "090504.562500", "090500.722500", "090504.672500", "090500.832500", "090504.782500", "090500.942500", "090504.892500", "090501.052500", "090505.002500", "090501.162500", "090505.112500", "090501.272500", "090505.220000", "090501.382500", "090505.330000", "090501.490000", "090505.440000", "090501.600000", "090505.550000", "090501.710000", "090505.660000", "090501.820000", "090505.770000", "090501.930000", "090505.880000", "090502.040000", "090505.990000", "090502.150000", "090506.100000", "090502.260000", "090506.207500", "090502.367500", "090506.317500", "090502.477500", "090506.427500", "090502.587500", "090506.537500", "090502.697500", "090506.647500", "090502.807500", "090506.757500", "090502.917500", "090506.867500", "090503.027500", "090506.977500", "090503.137500", "090510.947500", "090507.107500", "090511.055000", "090507.217500", "090511.165000", "090507.325000", "090511.275000", "090507.435000", "090511.385000", "090507.545000", "090511.495000", "090507.655000", "090511.605000", "090507.765000", "090511.715000", "090507.875000", "090511.825000", "090507.985000", "090511.935000", "090508.095000", "090512.042500", "090508.202500", "090512.152500", "090508.312500", "090512.262500", "090508.422500", "090512.372500", "090508.532500", "090512.482500", "090508.642500", "090512.592500", "090508.752500", "090512.702500", "090508.862500", "090512.812500", "090508.972500", "090512.920000", "090509.082500", "090513.030000", "090509.190000", "090513.140000", "090509.300000", "090513.250000", "090509.410000", "090513.360000", "090509.520000", "090513.470000", "090509.630000", "090513.580000", "090509.740000", "090513.690000", "090509.850000", "090513.800000", "090509.960000", "090513.907500", "090510.067500", "090514.017500", "090510.177500", "090514.127500", "090510.287500", "090514.237500", "090510.397500", "090514.347500", "090510.507500", "090514.457500", "090510.617500", "090514.567500", "090510.727500", "090514.677500", "090510.837500", "090518.647500", "090514.807500", "090518.755000", "090514.917500", "090518.865000", "090515.025000", "090518.975000", "090515.135000", "090519.085000", "090515.245000", "090519.195000", "090515.355000", "090519.305000", "090515.465000", "090519.415000", "090515.575000", "090519.525000", "090515.685000", "090519.635000", "090515.795000", "090519.742500", "090515.902500", "090519.852500", "090516.012500", "090519.962500", "090516.122500", "090520.072500", "090516.232500", "090520.182500", "090516.342500", "090520.292500", "090516.452500", "090520.402500", "090516.562500", "090520.512500", "090516.672500", "090520.620000", "090516.782500", "090520.730000", "090516.890000", "090520.840000", "090517.000000", "090520.950000", "090517.110000", "090521.060000", "090517.220000", "090521.170000", "090517.330000", "090521.280000", "090517.440000", "090521.390000", "090517.550000", "090521.500000", "090517.660000", "090521.607500", "090517.767500", "090521.717500", "090517.877500", "090521.827500", "090517.987500", "090521.937500", "090518.097500", "090522.047500", "090518.207500", "090522.157500", "090518.317500", "090522.267500", "090518.427500", "090522.377500", "090518.537500", "090526.347500", "090522.507500", "090526.455000", "090522.617500", "090526.565000", "090522.725000", "090526.675000", "090522.835000", "090526.785000", "090522.945000", "090526.895000", "090523.055000", "090527.005000", "090523.165000", "090527.115000", "090523.275000", "090527.225000", "090523.385000", "090527.335000", "090523.495000", "090527.442500", "090523.602500", "090527.552500", "090523.712500", "090527.662500", "090523.822500", "090527.772500", "090523.932500", "090527.882500", "090524.042500", "090527.992500", "090524.152500", "090528.102500", "090524.262500", "090528.212500", "090524.372500", "090528.320000", "090524.482500", "090528.430000", "090524.590000", "090528.540000", "090524.700000", "090528.650000", "090524.810000", "090528.760000", "090524.920000", "090528.870000", "090525.030000", "090528.980000", "090525.140000", "090529.090000", "090525.250000", "090529.200000", "090525.360000", "090529.307500", "090525.467500", "090529.417500", "090525.577500", "090529.527500", "090525.687500", "090529.637500", "090525.797500", "090529.747500", "090525.907500", "090529.857500", "090526.017500", "090529.967500", "090526.127500", "090530.077500", "090526.237500", "090534.047500", "090530.207500", "090534.155000", "090530.317500", "090534.265000", "090530.425000", "090534.375000", "090530.535000", "090534.485000", "090530.645000", "090534.595000", "090530.755000", "090534.705000", "090530.865000", "090534.815000", "090530.975000", "090534.925000", "090531.085000", "090535.035000", "090531.195000", "090535.142500", "090531.302500", "090535.252500", "090531.412500", "090535.362500", "090531.522500", "090535.472500", "090531.632500", "090535.582500", "090531.742500", "090535.692500", "090531.852500", "090535.802500", "090531.962500", "090535.912500", "0905