{
  "AcquisitionMatrixPE": 80,
  "AcquisitionNumber": 1,
  "AcquisitionTime": "10:03:3.152500",
  "BandwidthPerPixelPhaseEncode": 44.643,
  "BaseResolution": 80,
  "BodyPartExamined": "BRAIN",
  "CoilCombinationMethod": "Sum of Squares",
  "ConsistencyInfo": "N4_VE11C_LATEST_20160120",
  "ConversionSoftware": "dcm2niix",
  "ConversionSoftwareVersion": "v1.0.20220720",
  "DerivedVendorReportedEchoSpacing": 0.000559998,
  "DeviceSerialNumber": "66112",
  "DwellTime": 2.7e-06,
  "EchoTime": 0.035,
  "EchoTrainLength": 39,
  "EffectiveEchoSpacing": 0.000279999,
  "FlipAngle": 90,
  "HeudiconvVersion": "0.13.1",
  "ImageOrientationPatientDICOM": [0.981522, 0.190913, 0.012938, -0.185993, 0.935968, 0.29895],
  "ImageOrientationText": "Tra>Cor(17.2)>Sag(-2.6)",
  "ImageType": [
    "ORIGINAL",
    "PRIMARY",
    "M",
    "ND",
    "NORM",
    "MOSAIC"
],
  "ImagingFrequency": 123.252,
  "InPlanePhaseEncodingDirectionDICOM": "COL",
  "InstitutionAddress": "Maynard 3,Hanover,NH,US,03755",
  "InstitutionName": "Dartmouth College - PBS",
  "InstitutionalDepartmentName": "Department",
  "MRAcquisitionType": "2D",
  "MagneticFieldStrength": 3,
  "Manufacturer": "Siemens",
  "ManufacturersModelName": "Prisma",
  "Modality": "MR",
  "MultibandAccelerationFactor": 4,
  "NonlinearGradientCorrection": false,
  "ParallelReductionFactorInPlane": 2,
  "PartialFourier": 1,
  "PatientPosition": "HFS",
  "PercentPhaseFOV": 100,
  "PercentSampling": 100,
  "PhaseEncodingDirection": "j-",
  "PhaseEncodingSteps": 79,
  "PhaseResolution": 1,
  "PixelBandwidth": 2315,
  "ProcedureStepDescription": "dbic^QA",
  "ProtocolName": "func-bold_task-rest_acq-p2-s4-3.5mm",
  "PulseSequenceDetails": "%SiemensSeq%\\ep2d_bold",
  "ReceiveCoilActiveElements": "HEA;HEP",
  "ReceiveCoilName": "Head_32",
  "ReconMatrixPE": 80,
  "RefLinesPE": 24,
  "RepetitionTime": 2,
  "SAR": 0.0209808,
  "ScanOptions": "FS",
  "ScanningSequence": "EP",
  "SequenceName": "*epfid2d1_80",
  "SequenceVariant": "SK",
  "SeriesDescription": "func-bold_task-rest_acq-p2-s4-3.5mm",
  "SeriesNumber": 7,
  "ShimSetting": [4145, -7686, -7505, 299, -28, -140, -38, 69],
  "SliceThickness": 3.5,
  "SliceTiming": [1.485, 0, 0.99, 0.2475, 1.2375, 0.7425, 1.7325, 0.495, 1.485, 0, 0.99, 0.2475, 1.2375, 0.7425, 1.7325, 0.495, 1.485, 0, 0.99, 0.2475, 1.2375, 0.7425, 1.7325, 0.495, 1.485, 0, 0.99, 0.2475, 1.2375, 0.7425, 1.7325, 0.495],
  "SoftwareVersions": "syngo MR E11",
  "SpacingBetweenSlices": 3.99,
  "StationName": "AWP66112",
  "TaskName": "rest",
  "TotalReadoutTime": 0.0221199,
  "TxRefAmp": 231.567,
  "dcmmeta_affine": [
    [-2.9445652961730957, -0.5579783320426941, -0.17940594255924225, 145.9899139404297],
    [-0.5727382302284241, 2.8079025745391846, 1.1803728342056274, -95.46910858154297],
    [0.038814060389995575, -0.8968515396118164, 3.8071818351745605, -27.7290096282959],
    [0.0, 0.0, 0.0, 1.0]
],
  "dcmmeta_reorient_transform": [
    [0.0, -1.0, 0.0, 79.0],
    [1.0, 0.0, 0.0, 0.0],
    [0.0, 0.0, 1.0, 0.0],
    [0.0, 0.0, 0.0, 1.0]
],
  "dcmmeta_shape": [80, 80, 32, 200],
  "dcmmeta_slice_dim": 2,
  "dcmmeta_version": 0.6,
  "global": {
    "const": {
      "AccessionNumber": "qa",
      "AcquisitionMatrix": [80, 0, 0, 80],
      "AngioFlag": "N",
      "BitsAllocated": 16,
      "BitsStored": 12,
      "BodyPartExamined": "BRAIN",
      "Columns": 480,
      "EchoNumbers": 1,
      "EchoTime": 35.0,
      "EchoTrainLength": 39,
      "FlipAngle": 90.0,
      "HighBit": 11,
      "ImageOrientationPatient": [0.98152174265877, 0.1909127452741, 0.01293802071422, -0.1859927872792, 0.93596756255934, 0.29895050579793],
      "ImagePositionPatient": [-579.22699912984, -802.48338974005, -285.71339509461],
      "ImageType": [
        "ORIGINAL",
        "PRIMARY",
        "M",
        "ND",
        "NORM",
        "MOSAIC"
],
      "ImagedNucleus": "1H",
      "ImagingFrequency": 123.252425,
      "InPlanePhaseEncodingDirection": "COL",
      "MRAcquisitionType": "2D",
      "MagneticFieldStrength": 3.0,
      "Manufacturer": "SIEMENS",
      "ManufacturerModelName": "Prisma",
      "Modality": "MR",
      "NumberOfAverages": 1.0,
      "NumberOfPhaseEncodingSteps": 79,
      "PercentPhaseFieldOfView": 100.0,
      "PercentSampling": 100.0,
      "PerformedProcedureStepStartTime": "095446.404000",
      "PhotometricInterpretation": "MONOCHROME2",
      "PixelBandwidth": 2315.0,
      "PixelRepresentation": 0,
      "PixelSpacing": [3.0, 3.0],
      "ProtocolName": "func-bold_task-rest_acq-p2-s4-3.5mm",
      "RepetitionTime": 2000.0,
      "Rows": 480,
      "SAR": 0.0209808476825,
      "SamplesPerPixel": 1,
      "ScanOptions": "FS",
      "ScanningSequence": "EP",
      "SequenceName": "*epfid2d1_80",
      "SequenceVariant": "SK",
      "SeriesDescription": "func-bold_task-rest_acq-p2-s4-3.5mm",
      "SeriesNumber": 7,
      "SeriesTime": "100359.989000",
      "SliceLocation": -61.265659703366,
      "SliceThickness": 3.5,
      "SmallestImagePixelValue": 0,
      "SoftwareVersions": "syngo MR E11",
      "SpacingBetweenSlices": 3.9899999972342,
      "SpecificCharacterSet": "ISO_IR 100",
      "StudyID": "102",
      "StudyTime": "095446.325000",
      "TransmitCoilName": "Body",
      "VariableFlipAngleFlag": "N",
      "WindowCenterWidthExplanation": "Algo1",
      "dBdt": 0.0},
    "slices": {}
  },
  "time": {
    "samples": {
      "AcquisitionNumber": [1, 2, 3, 4, 5, 6, 7, 8, 9, 10, 11, 12, 13, 14, 15, 16, 17, 18, 19, 20, 21, 22, 23, 24, 25, 26, 27, 28, 29, 30, 31, 32, 33, 34, 35, 36, 37, 38, 39, 40, 41, 42, 43, 44, 45, 46, 47, 48, 49, 50, 51, 52, 53, 54, 55, 56, 57, 58, 59, 60, 61, 62, 63, 64, 65, 66, 67, 68, 69, 70, 71, 72, 73, 74, 75, 76, 77, 78, 79, 80, 81, 82, 83, 84, 85, 86, 87, 88, 89, 90, 91, 92, 93, 94, 95, 96, 97, 98, 99, 100, 101, 102, 103, 104, 105, 106, 107, 108, 109, 110, 111, 112, 113, 114, 115, 116, 117, 118, 119, 120, 121, 122, 123, 124, 125, 126, 127, 128, 129, 130, 131, 132, 133, 134, 135, 136, 137, 138, 139, 140, 141, 142, 143, 144, 145, 146, 147, 148, 149, 150, 151, 152, 153, 154, 155, 156, 157, 158, 159, 160, 161, 162, 163, 164, 165, 166, 167, 168, 169, 170, 171, 172, 173, 174, 175, 176, 177, 178, 179, 180, 181, 182, 183, 184, 185, 186, 187, 188, 189, 190, 191, 192, 193, 194, 195, 196, 197, 198, 199, 200],
      "AcquisitionTime": ["100303.152500", "100305.152500", "100307.152500", "100309.152500", "100311.152500", "100313.152500", "100315.152500", "100317.152500", "100319.152500", "100321.152500", "100323.152500", "100325.152500", "100327.152500", "100329.152500", "100331.152500", "100333.152500", "100335.152500", "100337.152500", "100339.152500", "100341.152500", "100343.152500", "100345.152500", "100347.152500", "100349.152500", "100351.152500", "100353.152500", "100355.152500", "100357.152500", "100359.152500", "100401.152500", "100403.152500", "100405.152500", "100407.152500", "100409.152500", "100411.152500", "100413.152500", "100415.152500", "100417.152500", "100419.152500", "100421.152500", "100423.152500", "100425.152500", "100427.152500", "100429.152500", "100431.152500", "100433.152500", "100435.152500", "100437.152500", "100439.152500", "100441.152500", "100443.152500", "100445.152500", "100447.152500", "100449.152500", "100451.152500", "100453.152500", "100455.152500", "100457.152500", "100459.152500", "100501.152500", "100503.152500", "100505.152500", "100507.152500", "100509.152500", "100511.152500", "100513.152500", "100515.152500", "100517.152500", "100519.152500", "100521.152500", "100523.152500", "100525.152500", "100527.152500", "100529.152500", "100531.152500", "100533.152500", "100535.152500", "100537.152500", "100539.152500", "100541.152500", "100543.152500", "100545.152500", "100547.152500", "100549.152500", "100551.152500", "100553.152500", "100555.152500", "100557.152500", "100559.152500", "100601.152500", "100603.152500", "100605.152500", "100607.152500", "100609.152500", "100611.152500", "100613.152500", "100615.152500", "100617.152500", "100619.152500", "100621.152500", "100623.152500", "100625.152500", "100627.152500", "100629.152500", "100631.152500", "100633.152500", "100635.152500", "100637.152500", "100639.152500", "100641.152500", "100643.152500", "100645.152500", "100647.152500", "100649.152500", "100651.152500", "100653.152500", "100655.152500", "100657.152500", "100659.152500", "100701.152500", "100703.152500", "100705.152500", "100707.152500", "100709.152500", "100711.152500", "100713.152500", "100715.152500", "100717.152500", "100719.152500", "100721.152500", "100723.152500", "100725.152500", "100727.152500", "100729.152500", "100731.152500", "100733.152500", "100735.152500", "100737.152500", "100739.152500", "100741.152500", "100743.152500", "100745.152500", "100747.152500", "100749.152500", "100751.152500", "100753.152500", "100755.152500", "100757.152500", "100759.152500", "100801.152500", "100803.152500", "100805.152500", "100807.152500", "100809.152500", "100811.152500", "100813.152500", "100815.152500", "100817.152500", "100819.152500", "100821.152500", "100823.152500", "100825.152500", "100827.152500", "100829.152500", "100831.152500", "100833.152500", "100835.152500", "100837.152500", "100839.152500", "100841.152500", "100843.152500", "100845.152500", "100847.152500", "100849.152500", "100851.152500", "100853.152500", "100855.152500", "100857.152500", "100859.152500", "100901.152500", "100903.152500", "100905.152500", "100907.152500", "100909.152500", "100911.152500", "100913.152500", "100915.152500", "100917.152500", "100919.152500", "100921.152500", "100923.152500", "100925.152500", "100927.152500", "100929.152500", "100931.152500", "100933.152500", "100935.152500", "100937.152500", "100939.152500", "100941.152500"],
      "ContentTime": ["100359.992000", "100359.996000", "100359.998000", "100400.002000", "100400.005000", "100400.007000", "100400.010000", "100400.012000", "100400.015000", "100400.018000", "100400.020000", "100400.023000", "100400.025000", "100400.028000", "100400.031000", "100400.033000", "100400.036000", "100400.038000", "100400.050000", "100400.052000", "100400.055000", "100400.058000", "100400.060000", "100400.063000", "100400.065000", "100400.068000", "100400.071000", "100400.073000", "100439.987000", "100439.990000", "100439.993000", "100439.996000", "100439.998000", "100440.002000", "100440.004000", "100440.007000", "100440.010000", "100440.012000", "100440.015000", "100440.017000", "100440.020000", "100440.023000", "100440.025000", "100440.028000", "100440.030000", "100440.033000", "100440.036000", "100440.038000", "100519.989000", "100519.991000", "100519.994000", "100519.997000", "100519.999000", "100520.002000", "100520.005000", "100520.007000", "100520.010000", "100520.012000", "100520.015000", "100520.018000", "100520.020000", "100520.023000", "100520.025000", "100520.028000", "100520.031000", "100520.033000", "100520.036000", "100520.039000", "100559.988000", "100559.991000", "100559.993000", "100559.996000", "100559.998000", "100600.001000", "100600.003000", "100600.006000", "100600.009000", "100600.011000", "100600.014000", "100600.016000", "100600.019000", "100600.022000", "100600.024000", "100600.027000", "100600.029000", "100600.032000", "100600.035000", "100600.037000", "100639.987000", "100639.990000", "100639.993000", "100639.996000", "100639.998000", "100640.002000", "100640.004000", "100640.007000", "100640.010000", "100640.012000", "100640.015000", "100640.017000", "100640.020000", "100640.023000", "100640.025000", "100640.028000", "100640.030000", "100640.033000", "100640.036000", "100640.038000", "100719.988000", "100719.990000", "100719.993000", "100719.996000", "100719.998000", "100720.002000", "100720.004000", "100720.007000", "100720.010000", "100720.012000", "100720.015000", "100720.018000", "100720.020000", "100720.023000", "100720.025000", "100720.028000", "100720.031000", "100720.034000", "100720.036000", "100720.039000", "100759.989000", "100759.991000", "100759.994000", "100759.997000", "100759.999000", "100800.002000", "100800.004000", "100800.007000", "100800.010000", "100800.012000", "100800.015000", "100800.018000", "100800.020000", "100800.023000", "100800.025000", "100800.028000", "100800.031000", "100800.033000", "100800.036000", "100800.038000", "100839.987000", "100839.990000", "100839.993000", "100839.996000", "100839.998000", "100840.002000", "100840.005000", "100840.007000", "100840.010000", "100840.012000", "100840.015000", "100840.018000", "100840.020000", "100840.023000", "100840.025000", "100840.028000", "100840.030000", "100840.033000", "100840.036000", "100840.038000", "100919.988000", "100919.990000", "100919.993000", "100919.996000", "100919.998000", "100920.002000", "100920.005000", "100920.007000", "100920.010000", "100920.013000", "100920.015000", "100920.018000", "100920.020000", "100920.023000", "100920.026000", "100920.028000", "100920.031000", "100920.033000", "100920.036000", "100920.039000", "100942.611000", "100942.614000", "100942.617000", "100942.620000", "100942.623000", "100942.625000", "100942.628000", "100942.631000", "100942.633000", "100942.636000", "100942.638000", "100942.641000"],
      "InstanceCreationTime": ["100359.992000", "100359.996000", "100359.998000", "100400.002000", "100400.005000", "100400.007000", "100400.010000", "100400.012000", "100400.015000", "100400.018000", "100400.020000", "100400.023000", "100400.025000", "100400.028000", "100400.031000", "100400.033000", "100400.036000", "100400.038000", "100400.050000", "100400.052000", "100400.055000", "100400.058000", "100400.060000", "100400.063000", "100400.065000", "100400.068000", "100400.071000", "100400.073000", "100439.987000", "100439.990000", "100439.993000", "100439.996000", "100439.998000", "100440.002000", "100440.004000", "100440.007000", "100440.010000", "100440.012000", "100440.015000", "100440.017000", "100440.020000", "100440.023000", "100440.025000", "100440.028000", "100440.030000", "100440.033000", "100440.036000", "100440.038000", "100519.989000", "100519.991000", "100519.994000", "100519.997000", "100519.999000", "100520.002000", "100520.005000", "100520.007000", "100520.010000", "100520.012000", "100520.015000", "100520.018000", "100520.020000", "100520.023000", "100520.025000", "100520.028000", "100520.031000", "100520.033000", "100520.036000", "100520.039000", "100559.988000", "100559.991000", "100559.993000", "100559.996000", "100559.998000", "100600.001000", "100600.003000", "100600.006000", "100600.009000", "100600.011000", "100600.014000", "100600.016000", "100600.019000", "100600.022000", "100600.024000", "100600.027000", "100600.029000", "100600.032000", "100600.035000", "100600.037000", "100639.987000", "100639.990000", "100639.993000", "100639.996000", "100639.998000", "100640.002000", "100640.004000", "100640.007000", "100640.010000", "100640.012000", "100640.015000", "100640.017000", "100640.020000", "100640.023000", "100640.025000", "100640.028000", "100640.030000", "100640.033000", "100640.036000", "100640.038000", "100719.988000", "100719.990000", "100719.993000", "100719.996000", "100719.998000", "100720.002000", "100720.004000", "100720.007000", "100720.010000", "100720.012000", "100720.015000", "100720.018000", "100720.020000", "100720.023000", "100720.025000", "100720.028000", "100720.031000", "100720.034000", "100720.036000", "100720.039000", "100759.989000", "100759.991000", "100759.994000", "100759.997000", "100759.999000", "100800.002000", "100800.004000", "100800.007000", "100800.010000", "100800.012000", "100800.015000", "100800.018000", "100800.020000", "100800.023000", "100800.025000", "100800.028000", "100800.031000", "100800.033000", "100800.036000", "100800.038000", "100839.987000", "100839.990000", "100839.993000", "100839.996000", "100839.998000", "100840.002000", "100840.005000", "100840.007000", "100840.010000", "100840.012000", "100840.015000", "100840.018000", "100840.020000", "100840.023000", "100840.025000", "100840.028000", "100840.030000", "100840.033000", "100840.036000", "100840.038000", "100919.988000", "100919.990000", "100919.993000", "100919.996000", "100919.998000", "100920.002000", "100920.005000", "100920.007000", "100920.010000", "100920.013000", "100920.015000", "100920.018000", "100920.020000", "100920.023000", "100920.026000", "100920.028000", "100920.031000", "100920.033000", "100920.036000", "100920.039000", "100942.611000", "100942.614000", "100942.617000", "100942.620000", "100942.623000", "100942.625000", "100942.628000", "100942.631000", "100942.633000", "100942.636000", "100942.638000", "100942.641000"],
      "InstanceNumber": [1, 2, 3, 4, 5, 6, 7, 8, 9, 10, 11, 12, 13, 14, 15, 16, 17, 18, 19, 20, 21, 22, 23, 24, 25, 26, 27, 28, 29, 30, 31, 32, 33, 34, 35, 36, 37, 38, 39, 40, 41, 42, 43, 44, 45, 46, 47, 48, 49, 50, 51, 52, 53, 54, 55, 56, 57, 58, 59, 60, 61, 62, 63, 64, 65, 66, 67, 68, 69, 70, 71, 72, 73, 74, 75, 76, 77, 78, 79, 80, 81, 82, 83, 84, 85, 86, 87, 88, 89, 90, 91, 92, 93, 94, 95, 96, 97, 98, 99, 100, 101, 102, 103, 104, 105, 106, 107, 108, 109, 110, 111, 112, 113, 114, 115, 116, 117, 118, 119, 120, 121, 122, 123, 124, 125, 126, 127, 128, 129, 130, 131, 132, 133, 134, 135, 136, 137, 138, 139, 140, 141, 142, 143, 144, 145, 146, 147, 148, 149, 150, 151, 152, 153, 154, 155, 156, 157, 158, 159, 160, 161, 162, 163, 164, 165, 166, 167, 168, 169, 170, 171, 172, 173, 174, 175, 176, 177, 178, 179, 180, 181, 182, 183, 184, 185, 186, 187, 188, 189, 190, 191, 192, 193, 194, 195, 196, 197, 198, 199, 200],
      "LargestImagePixelValue": [1924, 1929, 1925, 1931, 1931, 1923, 1927, 1931, 1931, 1929, 1930, 1926, 1932, 1931, 1929, 1933, 1928, 1928, 1923, 1925, 1926, 1928, 1932, 1930, 1929, 1928, 1928, 1926, 1932, 1929, 1929, 1928, 1926, 1933, 1931, 1924, 1930, 1927, 1930, 1931, 1930, 1932, 1934, 1930, 1931, 1926, 1929, 1928, 1927, 1935, 1927, 1923, 1932, 1932, 1935, 1929, 1930, 1938, 1927, 1930, 1931, 1927, 1930, 1925, 1930, 1928, 1934, 1928, 1932, 1930, 1932, 1921, 1927, 1924, 1933, 1932, 1930, 1928, 1930, 1929, 1927, 1935, 1929, 1928, 1930, 1928, 1929, 1930, 1933, 1932, 1933, 1932, 1934, 1922, 1933, 1926, 1925, 1930, 1930, 1930, 1932, 1935, 1931, 1933, 1924, 1927, 1929, 1933, 1927, 1930, 1929, 1925, 1923, 1932, 1933, 1930, 1931, 1930, 1932, 1934, 1930, 1934, 1935, 1929, 1930, 1929, 1928, 1928, 1928, 1932, 1929, 1931, 1929, 1929, 1930, 1922, 1929, 1931, 1932, 1930, 1927, 1930, 1928, 1931, 1929, 1932, 1929, 1936, 1933, 1932, 1933, 1935, 1934, 1934, 1929, 1928, 1936, 1928, 1933, 1930, 1934, 1925, 1931, 1929, 1930, 1931, 1932, 1932, 1933, 1936, 1926, 1924, 1937, 1928, 1934, 1930, 1932, 1932, 1929, 1933, 1928, 1931, 1929, 1933, 1927, 1935, 1932, 1930, 1934, 1938, 1932, 1923, 1937, 1929, 1928, 1932, 1929, 1926, 1930, 1931],
      "WindowCenter": [902.0, 902.0, 902.0, 902.0, 902.0, 902.0, 902.0, 902.0, 902.0, 902.0, 902.0, 902.0, 902.0, 902.0, 902.0, 902.0, 902.0, 902.0, 902.0, 902.0, 902.0, 902.0, 902.0, 902.0, 902.0, 902.0, 902.0, 902.0, 902.0, 902.0, 902.0, 902.0, 902.0, 902.0, 902.0, 902.0, 902.0, 902.0, 902.0, 902.0, 902.0, 902.0, 902.0, 902.0, 902.0, 902.0, 902.0, 902.0, 902.0, 902.0, 902.0, 902.0, 902.0, 902.0, 902.0, 902.0, 902.0, 902.0, 902.0, 902.0, 902.0, 902.0, 902.0, 902.0, 902.0, 902.0, 902.0, 902.0, 902.0, 902.0, 902.0, 902.0, 902.0, 902.0, 902.0, 902.0, 902.0, 902.0, 902.0, 902.0, 902.0, 902.0, 902.0, 902.0, 902.0, 902.0, 902.0, 902.0, 902.0, 902.0, 902.0, 902.0, 902.0, 902.0, 902.0, 902.0, 902.0, 902.0, 902.0, 902.0, 902.0, 902.0, 902.0, 902.0, 902.0, 902.0, 902.0, 902.0, 902.0, 902.0, 902.0, 902.0, 902.0, 902.0, 902.0, 902.0, 902.0, 902.0, 902.0, 902.0, 902.0, 902.0, 902.0, 902.0, 902.0, 902.0, 902.0, 902.0, 902.0, 902.0, 902.0, 902.0, 902.0, 902.0, 902.0, 902.0, 902.0, 902.0, 902.0, 902.0, 902.0, 902.0, 902.0, 902.0, 902.0, 902.0, 902.0, 902.0, 902.0, 902.0, 902.0, 902.0, 902.0, 902.0, 902.0, 902.0, 902.0, 902.0, 902.0, 902.0, 902.0, 902.0, 902.0, 902.0, 902.0, 902.0, 902.0, 902.0, 902.0, 902.0, 902.0, 902.0, 902.0, 902.0, 902.0, 902.0, 902.0, 903.0, 902.0, 902.0, 902.0, 902.0, 902.0, 902.0, 902.0, 902.0, 902.0, 902.0, 902.0, 902.0, 902.0, 902.0, 902.0, 902.0, 902.0, 902.0, 902.0, 902.0, 902.0, 902.0],
      "WindowWidth": [2029.0, 2029.0, 2029.0, 2029.0, 2029.0, 2029.0, 2029.0, 2029.0, 2029.0, 2029.0, 2029.0, 2029.0, 2029.0, 2029.0, 2029.0, 2029.0, 2029.0, 2029.0, 2029.0, 2029.0, 2029.0, 2029.0, 2029.0, 2029.0, 2029.0, 2029.0, 2029.0, 2029.0, 2029.0, 2029.0, 2030.0, 2029.0, 2030.0, 2030.0, 2030.0, 2029.0, 2029.0, 2030.0, 2029.0, 2029.0, 2029.0, 2029.0, 2029.0, 2030.0, 2029.0, 2029.0, 2029.0, 2029.0, 2030.0, 2029.0, 2029.0, 2029.0, 2030.0, 2029.0, 2029.0, 2029.0, 2029.0, 2029.0, 2029.0, 2030.0, 2029.0, 2029.0, 2029.0, 2029.0, 2030.0, 2029.0, 2029.0, 2029.0, 2029.0, 2029.0, 2029.0, 2029.0, 2029.0, 2029.0, 2029.0, 2029.0, 2030.0, 2030.0, 2030.0, 2029.0, 2030.0, 2029.0, 2029.0, 2029.0, 2029.0, 2029.0, 2030.0, 2030.0, 2030.0, 2030.0, 2030.0, 2030.0, 2029.0, 2029.0, 2030.0, 2029.0, 2029.0, 2030.0, 2029.0, 2030.0, 2030.0, 2030.0, 2029.0, 2029.0, 2029.0, 2029.0, 2030.0, 2030.0, 2029.0, 2029.0, 2029.0, 2029.0, 2029.0, 2029.0, 2030.0, 2030.0, 2029.0, 2029.0, 2030.0, 2029.0, 2029.0, 2029.0, 2029.0, 2030.0, 2030.0, 2030.0, 2030.0, 2029.0, 2030.0, 2029.0, 2029.0, 2030.0, 2029.0, 2029.0, 2029.0, 2030.0, 2029.0, 2030.0, 2029.0, 2030.0, 2029.0, 2030.0, 2029.0, 2030.0, 2029.0, 2029.0, 2029.0, 2029.0, 2029.0, 2030.0, 2029.0, 2029.0, 2030.0, 2030.0, 2029.0, 2030.0, 2029.0, 2030.0, 2030.0, 2029.0, 2029.0, 2030.0, 2030.0, 2029.0, 2029.0, 2030.0, 2030.0, 2029.0, 2029.0, 2029.0, 2029.0, 2029.0, 2029.0, 2029.0, 2029.0, 2030.0, 2029.0, 2030.0, 2029.0, 2029.0, 2029.0, 2029.0, 2029.0, 2029.0, 2029.0, 2029.0, 2029.0, 2029.0, 2029.0, 2029.0, 2030.0, 2029.0, 2029.0, 2029.0, 2029.0, 2030.0, 2029.0, 2029.0, 2029.0, 2029.0]
    },
    "slices": {}
  }
}