{
  "AcquisitionMatrixPE": 80,
  "AcquisitionNumber": 1,
  "AcquisitionTime": "09:28:49.187500",
  "BandwidthPerPixelPhaseEncode": 48.077,
  "BaseResolution": 80,
  "BodyPartExamined": "BRAIN",
  "CoilCombinationMethod": "Sum of Squares",
  "ConsistencyInfo": "N4_VE11C_LATEST_20160120",
  "ConversionSoftware": "dcm2niix",
  "ConversionSoftwareVersion": "v1.0.20220720",
  "DerivedVendorReportedEchoSpacing": 0.000519999,
  "DeviceSerialNumber": "66112",
  "DwellTime": 2.7e-06,
  "EchoTime": 0.035,
  "EchoTrainLength": 39,
  "EffectiveEchoSpacing": 0.00026,
  "FlipAngle": 90,
  "HeudiconvVersion": "0.13.1",
  "ImageOrientationPatientDICOM": [0.980932, 0.193977, 0.0120922, -0.188187, 0.932422, 0.308503],
  "ImageOrientationText": "Tra>Cor(17.8)>Sag(-2.8)",
  "ImageType": [
    "ORIGINAL",
    "PRIMARY",
    "M",
    "ND",
    "NORM",
    "MOSAIC"
],
  "ImagingFrequency": 123.252,
  "InPlanePhaseEncodingDirectionDICOM": "COL",
  "InstitutionAddress": "Maynard 3,Hanover,NH,US,03755",
  "InstitutionName": "Dartmouth College - PBS",
  "InstitutionalDepartmentName": "Department",
  "MRAcquisitionType": "2D",
  "MagneticFieldStrength": 3,
  "Manufacturer": "Siemens",
  "ManufacturersModelName": "Prisma",
  "MatrixCoilMode": "GRAPPA",
  "Modality": "MR",
  "NonlinearGradientCorrection": false,
  "ParallelReductionFactorInPlane": 2,
  "PartialFourier": 1,
  "PatientPosition": "HFS",
  "PercentPhaseFOV": 100,
  "PercentSampling": 100,
  "PhaseEncodingDirection": "j-",
  "PhaseEncodingSteps": 79,
  "PhaseResolution": 1,
  "PixelBandwidth": 2315,
  "ProcedureStepDescription": "dbic^QA",
  "ProtocolName": "func-bold_task-rest_acq-p2",
  "PulseSequenceDetails": "%SiemensSeq%\\ep2d_bold",
  "ReceiveCoilActiveElements": "HEA;HEP",
  "ReceiveCoilName": "Head_32",
  "ReconMatrixPE": 80,
  "RefLinesPE": 24,
  "RepetitionTime": 2,
  "SAR": 0.0557276,
  "ScanOptions": "FS",
  "ScanningSequence": "EP",
  "SequenceName": "*epfid2d1_80",
  "SequenceVariant": "SK",
  "SeriesDescription": "func-bold_task-rest_acq-p2",
  "SeriesNumber": 5,
  "ShimSetting": [4145, -7687, -7506, 269, -44, -149, -46, 60],
  "SliceThickness": 3.5,
  "SliceTiming": [0.99, 0, 1.055, 0.065, 1.1225, 0.1325, 1.1875, 0.1975, 1.255, 0.265, 1.32, 0.33, 1.385, 0.395, 1.4525, 0.4625, 1.5175, 0.5275, 1.585, 0.595, 1.65, 0.66, 1.715, 0.725, 1.7825, 0.7925, 1.8475, 0.8575, 1.915, 0.925],
  "SoftwareVersions": "syngo MR E11",
  "SpacingBetweenSlices": 3.99,
  "StationName": "AWP66112",
  "TaskName": "rest",
  "TotalReadoutTime": 0.02054,
  "TxRefAmp": 227.035,
  "dcmmeta_affine": [
    [-2.9427945613861084, -0.5645624399185181, -0.19378437101840973, 146.82308959960938],
    [-0.5819312930107117, 2.797266960144043, 1.2165348529815674, -97.51274871826172],
    [0.03627651929855347, -0.9255090951919556, 3.795074462890625, -21.736106872558594],
    [0.0, 0.0, 0.0, 1.0]
],
  "dcmmeta_reorient_transform": [
    [0.0, -1.0, 0.0, 79.0],
    [1.0, 0.0, 0.0, 0.0],
    [0.0, 0.0, 1.0, 0.0],
    [0.0, 0.0, 0.0, 1.0]
],
  "dcmmeta_shape": [80, 80, 30, 200],
  "dcmmeta_slice_dim": 2,
  "dcmmeta_version": 0.6,
  "global": {
    "const": {
      "AccessionNumber": "qa",
      "AcquisitionMatrix": [80, 0, 0, 80],
      "AngioFlag": "N",
      "BitsAllocated": 16,
      "BitsStored": 12,
      "BodyPartExamined": "BRAIN",
      "Columns": 480,
      "EchoNumbers": 1,
      "EchoTime": 35.0,
      "EchoTrainLength": 39,
      "FlipAngle": 90.0,
      "HighBit": 11,
      "ImageOrientationPatient": [0.98093153055992, 0.19397709065683, 0.01209217324063, -0.1881874843979, 0.93242229930259, 0.30850304128039],
      "ImagePositionPatient": [-577.86908748894, -799.31097130087, -287.20845634112],
      "ImageType": [
        "ORIGINAL",
        "PRIMARY",
        "M",
        "ND",
        "NORM",
        "MOSAIC"
],
      "ImagedNucleus": "1H",
      "ImagingFrequency": 123.25242,
      "InPlanePhaseEncodingDirection": "COL",
      "MRAcquisitionType": "2D",
      "MagneticFieldStrength": 3.0,
      "Manufacturer": "SIEMENS",
      "ManufacturerModelName": "Prisma",
      "Modality": "MR",
      "NumberOfAverages": 1.0,
      "NumberOfPhaseEncodingSteps": 79,
      "PercentPhaseFieldOfView": 100.0,
      "PercentSampling": 100.0,
      "PerformedProcedureStepStartTime": "090712.000000",
      "PhotometricInterpretation": "MONOCHROME2",
      "PixelBandwidth": 2315.0,
      "PixelRepresentation": 0,
      "PixelSpacing": [3.0, 3.0],
      "ProtocolName": "func-bold_task-rest_acq-p2",
      "RepetitionTime": 2000.0,
      "Rows": 480,
      "SAR": 0.05572760080719,
      "SamplesPerPixel": 1,
      "ScanOptions": "FS",
      "ScanningSequence": "EP",
      "SequenceName": "*epfid2d1_80",
      "SequenceVariant": "SK",
      "SeriesDescription": "func-bold_task-rest_acq-p2",
      "SeriesNumber": 5,
      "SeriesTime": "092940.335000",
      "SliceLocation": -57.536296363397,
      "SliceThickness": 3.5,
      "SmallestImagePixelValue": 0,
      "SoftwareVersions": "syngo MR E11",
      "SpacingBetweenSlices": 3.9899999599023,
      "SpecificCharacterSet": "ISO_IR 100",
      "StudyID": "95",
      "StudyTime": "090711.923000",
      "TransmitCoilName": "Body",
      "VariableFlipAngleFlag": "N",
      "WindowCenterWidthExplanation": "Algo1",
      "dBdt": 0.0},
    "slices": {}
  },
  "time": {
    "samples": {
      "AcquisitionNumber": [1, 2, 3, 4, 5, 6, 7, 8, 9, 10, 11, 12, 13, 14, 15, 16, 17, 18, 19, 20, 21, 22, 23, 24, 25, 26, 27, 28, 29, 30, 31, 32, 33, 34, 35, 36, 37, 38, 39, 40, 41, 42, 43, 44, 45, 46, 47, 48, 49, 50, 51, 52, 53, 54, 55, 56, 57, 58, 59, 60, 61, 62, 63, 64, 65, 66, 67, 68, 69, 70, 71, 72, 73, 74, 75, 76, 77, 78, 79, 80, 81, 82, 83, 84, 85, 86, 87, 88, 89, 90, 91, 92, 93, 94, 95, 96, 97, 98, 99, 100, 101, 102, 103, 104, 105, 106, 107, 108, 109, 110, 111, 112, 113, 114, 115, 116, 117, 118, 119, 120, 121, 122, 123, 124, 125, 126, 127, 128, 129, 130, 131, 132, 133, 134, 135, 136, 137, 138, 139, 140, 141, 142, 143, 144, 145, 146, 147, 148, 149, 150, 151, 152, 153, 154, 155, 156, 157, 158, 159, 160, 161, 162, 163, 164, 165, 166, 167, 168, 169, 170, 171, 172, 173, 174, 175, 176, 177, 178, 179, 180, 181, 182, 183, 184, 185, 186, 187, 188, 189, 190, 191, 192, 193, 194, 195, 196, 197, 198, 199, 200],
      "AcquisitionTime": ["092849.187500", "092851.187500", "092853.187500", "092855.187500", "092857.187500", "092859.187500", "092901.187500", "092903.187500", "092905.187500", "092907.187500", "092909.187500", "092911.187500", "092913.187500", "092915.187500", "092917.187500", "092919.187500", "092921.187500", "092923.187500", "092925.187500", "092927.187500", "092929.187500", "092931.187500", "092933.187500", "092935.187500", "092937.187500", "092939.187500", "092941.187500", "092943.187500", "092945.187500", "092947.187500", "092949.187500", "092951.187500", "092953.187500", "092955.187500", "092957.187500", "092959.187500", "093001.187500", "093003.187500", "093005.187500", "093007.187500", "093009.187500", "093011.187500", "093013.187500", "093015.187500", "093017.187500", "093019.187500", "093021.187500", "093023.187500", "093025.187500", "093027.187500", "093029.187500", "093031.187500", "093033.187500", "093035.187500", "093037.187500", "093039.187500", "093041.187500", "093043.187500", "093045.187500", "093047.187500", "093049.187500", "093051.187500", "093053.187500", "093055.187500", "093057.187500", "093059.187500", "093101.187500", "093103.187500", "093105.187500", "093107.187500", "093109.187500", "093111.187500", "093113.187500", "093115.187500", "093117.187500", "093119.187500", "093121.187500", "093123.187500", "093125.187500", "093127.187500", "093129.187500", "093131.187500", "093133.187500", "093135.187500", "093137.187500", "093139.187500", "093141.187500", "093143.187500", "093145.187500", "093147.187500", "093149.187500", "093151.187500", "093153.187500", "093155.187500", "093157.187500", "093159.187500", "093201.187500", "093203.187500", "093205.187500", "093207.187500", "093209.187500", "093211.187500", "093213.187500", "093215.187500", "093217.187500", "093219.187500", "093221.187500", "093223.187500", "093225.187500", "093227.187500", "093229.187500", "093231.187500", "093233.187500", "093235.187500", "093237.187500", "093239.187500", "093241.187500", "093243.187500", "093245.187500", "093247.187500", "093249.187500", "093251.187500", "093253.187500", "093255.187500", "093257.187500", "093259.187500", "093301.187500", "093303.187500", "093305.187500", "093307.187500", "093309.187500", "093311.187500", "093313.187500", "093315.187500", "093317.187500", "093319.187500", "093321.187500", "093323.187500", "093325.187500", "093327.187500", "093329.187500", "093331.187500", "093333.187500", "093335.187500", "093337.187500", "093339.187500", "093341.187500", "093343.187500", "093345.187500", "093347.187500", "093349.187500", "093351.187500", "093353.187500", "093355.187500", "093357.187500", "093359.187500", "093401.187500", "093403.187500", "093405.187500", "093407.187500", "093409.187500", "093411.187500", "093413.187500", "093415.187500", "093417.187500", "093419.187500", "093421.187500", "093423.187500", "093425.187500", "093427.187500", "093429.187500", "093431.187500", "093433.187500", "093435.187500", "093437.187500", "093439.187500", "093441.187500", "093443.187500", "093445.187500", "093447.187500", "093449.187500", "093451.187500", "093453.187500", "093455.187500", "093457.187500", "093459.187500", "093501.187500", "093503.187500", "093505.187500", "093507.187500", "093509.187500", "093511.187500", "093513.187500", "093515.187500", "093517.187500", "093519.187500", "093521.187500", "093523.187500", "093525.187500", "093527.187500"],
      "ContentTime": ["092940.338000", "092940.342000", "092940.345000", "092940.347000", "092940.350000", "092940.353000", "092940.355000", "092940.358000", "092940.360000", "092940.363000", "092940.365000", "092940.368000", "092940.370000", "092940.373000", "092940.375000", "092940.378000", "092940.380000", "092940.383000", "092940.385000", "092940.388000", "092940.390000", "092940.393000", "092940.395000", "092940.398000", "092940.400000", "092940.403000", "093020.335000", "093020.337000", "093020.340000", "093020.342000", "093020.345000", "093020.347000", "093020.350000", "093020.352000", "093020.355000", "093020.357000", "093020.360000", "093020.363000", "093020.365000", "093020.368000", "093020.370000", "093020.373000", "093020.375000", "093020.378000", "093020.380000", "093020.382000", "093100.333000", "093100.336000", "093100.339000", "093100.341000", "093100.344000", "093100.346000", "093100.349000", "093100.352000", "093100.354000", "093100.357000", "093100.359000", "093100.362000", "093100.365000", "093100.367000", "093100.370000", "093100.372000", "093100.375000", "093100.377000", "093100.380000", "093100.383000", "093140.334000", "093140.336000", "093140.339000", "093140.342000", "093140.344000", "093140.347000", "093140.349000", "093140.352000", "093140.355000", "093140.357000", "093140.360000", "093140.362000", "093140.365000", "093140.368000", "093140.370000", "093140.373000", "093140.375000", "093140.378000", "093140.381000", "093140.383000", "093220.335000", "093220.337000", "093220.340000", "093220.342000", "093220.345000", "093220.347000", "093220.350000", "093220.353000", "093220.355000", "093220.358000", "093220.360000", "093220.363000", "093220.365000", "093220.368000", "093220.370000", "093220.373000", "093220.375000", "093220.378000", "093220.380000", "093220.383000", "093300.333000", "093300.336000", "093300.339000", "093300.341000", "093300.344000", "093300.346000", "093300.349000", "093300.351000", "093300.354000", "093300.357000", "093300.359000", "093300.362000", "093300.364000", "093300.367000", "093300.369000", "093300.372000", "093300.374000", "093300.377000", "093300.379000", "093300.382000", "093340.333000", "093340.336000", "093340.339000", "093340.341000", "093340.344000", "093340.346000", "093340.349000", "093340.351000", "093340.354000", "093340.356000", "093340.359000", "093340.361000", "093340.364000", "093340.367000", "093340.369000", "093340.372000", "093340.381000", "093340.384000", "093340.386000", "093340.389000", "093420.333000", "093420.336000", "093420.339000", "093420.341000", "093420.344000", "093420.346000", "093420.349000", "093420.351000", "093420.354000", "093420.357000", "093420.359000", "093420.362000", "093420.364000", "093420.367000", "093420.369000", "093420.372000", "093420.374000", "093420.377000", "093420.379000", "093420.382000", "093500.334000", "093500.337000", "093500.340000", "093500.342000", "093500.345000", "093500.347000", "093500.350000", "093500.352000", "093500.355000", "093500.358000", "093500.360000", "093500.363000", "093500.365000", "093500.368000", "093500.370000", "093500.373000", "093500.375000", "093500.378000", "093500.380000", "093500.383000", "093528.237000", "093528.240000", "093528.242000", "093528.245000", "093528.248000", "093528.250000", "093528.253000", "093528.255000", "093528.258000", "093528.260000", "093528.263000", "093528.271000", "093528.275000", "093528.278000"],
      "InstanceCreationTime": ["092940.338000", "092940.342000", "092940.345000", "092940.347000", "092940.350000", "092940.353000", "092940.355000", "092940.358000", "092940.360000", "092940.363000", "092940.365000", "092940.368000", "092940.370000", "092940.373000", "092940.375000", "092940.378000", "092940.380000", "092940.383000", "092940.385000", "092940.388000", "092940.390000", "092940.393000", "092940.395000", "092940.398000", "092940.400000", "092940.403000", "093020.335000", "093020.337000", "093020.340000", "093020.342000", "093020.345000", "093020.347000", "093020.350000", "093020.352000", "093020.355000", "093020.357000", "093020.360000", "093020.363000", "093020.365000", "093020.368000", "093020.370000", "093020.373000", "093020.375000", "093020.378000", "093020.380000", "093020.382000", "093100.333000", "093100.336000", "093100.339000", "093100.341000", "093100.344000", "093100.346000", "093100.349000", "093100.352000", "093100.354000", "093100.357000", "093100.359000", "093100.362000", "093100.365000", "093100.367000", "093100.370000", "093100.372000", "093100.375000", "093100.377000", "093100.380000", "093100.383000", "093140.334000", "093140.336000", "093140.339000", "093140.342000", "093140.344000", "093140.347000", "093140.349000", "093140.352000", "093140.355000", "093140.357000", "093140.360000", "093140.362000", "093140.365000", "093140.368000", "093140.370000", "093140.373000", "093140.375000", "093140.378000", "093140.381000", "093140.383000", "093220.335000", "093220.337000", "093220.340000", "093220.342000", "093220.345000", "093220.347000", "093220.350000", "093220.353000", "093220.355000", "093220.358000", "093220.360000", "093220.363000", "093220.365000", "093220.368000", "093220.370000", "093220.373000", "093220.375000", "093220.378000", "093220.380000", "093220.383000", "093300.333000", "093300.336000", "093300.339000", "093300.341000", "093300.344000", "093300.346000", "093300.349000", "093300.351000", "093300.354000", "093300.357000", "093300.359000", "093300.362000", "093300.364000", "093300.367000", "093300.369000", "093300.372000", "093300.374000", "093300.377000", "093300.379000", "093300.382000", "093340.333000", "093340.336000", "093340.339000", "093340.341000", "093340.344000", "093340.346000", "093340.349000", "093340.351000", "093340.354000", "093340.356000", "093340.359000", "093340.361000", "093340.364000", "093340.367000", "093340.369000", "093340.372000", "093340.381000", "093340.384000", "093340.386000", "093340.389000", "093420.333000", "093420.336000", "093420.339000", "093420.341000", "093420.344000", "093420.346000", "093420.349000", "093420.351000", "093420.354000", "093420.357000", "093420.359000", "093420.362000", "093420.364000", "093420.367000", "093420.369000", "093420.372000", "093420.374000", "093420.377000", "093420.379000", "093420.382000", "093500.334000", "093500.337000", "093500.340000", "093500.342000", "093500.345000", "093500.347000", "093500.350000", "093500.352000", "093500.355000", "093500.358000", "093500.360000", "093500.363000", "093500.365000", "093500.368000", "093500.370000", "093500.373000", "093500.375000", "093500.378000", "093500.380000", "093500.383000", "093528.237000", "093528.240000", "093528.242000", "093528.245000", "093528.248000", "093528.250000", "093528.253000", "093528.255000", "093528.258000", "093528.260000", "093528.263000", "093528.271000", "093528.275000", "093528.278000"],
      "InstanceNumber": [1, 2, 3, 4, 5, 6, 7, 8, 9, 10, 11, 12, 13, 14, 15, 16, 17, 18, 19, 20, 21, 22, 23, 24, 25, 26, 27, 28, 29, 30, 31, 32, 33, 34, 35, 36, 37, 38, 39, 40, 41, 42, 43, 44, 45, 46, 47, 48, 49, 50, 51, 52, 53, 54, 55, 56, 57, 58, 59, 60, 61, 62, 63, 64, 65, 66, 67, 68, 69, 70, 71, 72, 73, 74, 75, 76, 77, 78, 79, 80, 81, 82, 83, 84, 85, 86, 87, 88, 89, 90, 91, 92, 93, 94, 95, 96, 97, 98, 99, 100, 101, 102, 103, 104, 105, 106, 107, 108, 109, 110, 111, 112, 113, 114, 115, 116, 117, 118, 119, 120, 121, 122, 123, 124, 125, 126, 127, 128, 129, 130, 131, 132, 133, 134, 135, 136, 137, 138, 139, 140, 141, 142, 143, 144, 145, 146, 147, 148, 149, 150, 151, 152, 153, 154, 155, 156, 157, 158, 159, 160, 161, 162, 163, 164, 165, 166, 167, 168, 169, 170, 171, 172, 173, 174, 175, 176, 177, 178, 179, 180, 181, 182, 183, 184, 185, 186, 187, 188, 189, 190, 191, 192, 193, 194, 195, 196, 197, 198, 199, 200],
      "LargestImagePixelValue": [1916, 1906, 1913, 1907, 1909, 1910, 1903, 1908, 1908, 1912, 1916, 1906, 1913, 1917, 1908, 1913, 1918, 1906, 1904, 1920, 1911, 1913, 1907, 1901, 1915, 1904, 1907, 1917, 1911, 1906, 1908, 1911, 1914, 1909, 1915, 1917, 1909, 1907, 1919, 1913, 1910, 1914, 1908, 1913, 1912, 1909, 1914, 1909, 1913, 1909, 1914, 1912, 1903, 1920, 1915, 1910, 1908, 1908, 1913, 1916, 1913, 1914, 1913, 1910, 1915, 1909, 1918, 1912, 1907, 1915, 1909, 1912, 1912, 1913, 1908, 1913, 1906, 1914, 1917, 1908, 1914, 1903, 1913, 1912, 1910, 1910, 1916, 1921, 1918, 1916, 1914, 1913, 1919, 1911, 1912, 1912, 1914, 1916, 1912, 1913, 1921, 1910, 1912, 1906, 1912, 1909, 1916, 1911, 1911, 1909, 1916, 1911, 1915, 1912, 1915, 1909, 1914, 1909, 1910, 1903, 1911, 1915, 1915, 1910, 1912, 1922, 1918, 1909, 1918, 1910, 1909, 1915, 1909, 1913, 1906, 1916, 1910, 1903, 1913, 1912, 1914, 1913, 1916, 1912, 1903, 1922, 1911, 1902, 1912, 1919, 1909, 1919, 1915, 1910, 1913, 1919, 1921, 1915, 1915, 1913, 1919, 1914, 1917, 1912, 1904, 1909, 1918, 1922, 1909, 1912, 1915, 1921, 1909, 1914, 1917, 1912, 1915, 1912, 1902, 1917, 1909, 1913, 1912, 1910, 1918, 1909, 1911, 1909, 1921, 1905, 1916, 1909, 1916, 1910, 1919, 1915, 1920, 1922, 1915, 1910],
      "WindowCenter": [963.0, 963.0, 963.0, 962.0, 962.0, 964.0, 962.0, 962.0, 962.0, 962.0, 963.0, 962.0, 962.0, 962.0, 962.0, 963.0, 962.0, 962.0, 963.0, 962.0, 963.0, 962.0, 963.0, 963.0, 962.0, 963.0, 962.0, 962.0, 962.0, 962.0, 963.0, 963.0, 963.0, 963.0, 963.0, 963.0, 963.0, 962.0, 963.0, 962.0, 962.0, 963.0, 962.0, 963.0, 963.0, 963.0, 962.0, 962.0, 963.0, 963.0, 962.0, 962.0, 962.0, 962.0, 962.0, 962.0, 962.0, 962.0, 962.0, 962.0, 962.0, 962.0, 962.0, 962.0, 962.0, 962.0, 963.0, 962.0, 962.0, 962.0, 962.0, 962.0, 962.0, 961.0, 963.0, 961.0, 962.0, 962.0, 962.0, 962.0, 962.0, 961.0, 962.0, 962.0, 962.0, 962.0, 961.0, 963.0, 961.0, 962.0, 962.0, 962.0, 962.0, 962.0, 962.0, 962.0, 963.0, 961.0, 961.0, 962.0, 961.0, 962.0, 961.0, 961.0, 961.0, 962.0, 961.0, 962.0, 961.0, 962.0, 962.0, 961.0, 961.0, 962.0, 962.0, 962.0, 961.0, 961.0, 962.0, 964.0, 963.0, 961.0, 961.0, 962.0, 961.0, 962.0, 961.0, 961.0, 961.0, 961.0, 962.0, 961.0, 962.0, 962.0, 962.0, 961.0, 962.0, 961.0, 961.0, 962.0, 961.0, 962.0, 961.0, 963.0, 962.0, 962.0, 961.0, 962.0, 962.0, 961.0, 961.0, 961.0, 962.0, 963.0, 963.0, 961.0, 962.0, 961.0, 962.0, 961.0, 962.0, 961.0, 962.0, 962.0, 961.0, 961.0, 961.0, 961.0, 961.0, 961.0, 961.0, 962.0, 961.0, 961.0, 961.0, 961.0, 961.0, 961.0, 961.0, 962.0, 961.0, 962.0, 961.0, 961.0, 963.0, 962.0, 961.0, 961.0, 961.0, 961.0, 961.0, 962.0, 961.0, 962.0, 961.0, 961.0, 962.0, 962.0, 962.0, 961.0],
      "WindowWidth": [2093.0, 2092.0, 2092.0, 2090.0, 2091.0, 2092.0, 2090.0, 2091.0, 2090.0, 2090.0, 2092.0, 2091.0, 2090.0, 2090.0, 2090.0, 2091.0, 2090.0, 2090.0, 2091.0, 2090.0, 2091.0, 2090.0, 2091.0, 2091.0, 2090.0, 2091.0, 2090.0, 2090.0, 2090.0, 2090.0, 2091.0, 2091.0, 2091.0, 2091.0, 2091.0, 2091.0, 2091.0, 2090.0, 2091.0, 2090.0, 2090.0, 2091.0, 2090.0, 2091.0, 2091.0, 2091.0, 2090.0, 2090.0, 2091.0, 2091.0, 2091.0, 2091.0, 2090.0, 2091.0, 2090.0, 2090.0, 2090.0, 2090.0, 2090.0, 2090.0, 2090.0, 2089.0, 2090.0, 2090.0, 2091.0, 2090.0, 2091.0, 2090.0, 2090.0, 2090.0, 2090.0, 2089.0, 2089.0, 2090.0, 2091.0, 2090.0, 2090.0, 2090.0, 2089.0, 2089.0, 2090.0, 2090.0, 2090.0, 2089.0, 2090.0, 2090.0, 2090.0, 2090.0, 2090.0, 2090.0, 2090.0, 2090.0, 2090.0, 2090.0, 2090.0, 2090.0, 2090.0, 2089.0, 2090.0, 2090.0, 2090.0, 2090.0, 2090.0, 2089.0, 2090.0, 2090.0, 2090.0, 2090.0, 2090.0, 2090.0, 2090.0, 2090.0, 2089.0, 2090.0, 2090.0, 2090.0, 2089.0, 2089.0, 2090.0, 2091.0, 2091.0, 2090.0, 2089.0, 2090.0, 2089.0, 2090.0, 2089.0, 2089.0, 2089.0, 2089.0, 2090.0, 2089.0, 2090.0, 2090.0, 2090.0, 2089.0, 2090.0, 2089.0, 2089.0, 2090.0, 2089.0, 2090.0, 2089.0, 2090.0, 2089.0, 2090.0, 2089.0, 2090.0, 2090.0, 2089.0, 2089.0, 2089.0, 2090.0, 2090.0, 2091.0, 2089.0, 2090.0, 2089.0, 2090.0, 2089.0, 2089.0, 2089.0, 2089.0, 2090.0, 2089.0, 2089.0, 2089.0, 2089.0, 2089.0, 2089.0, 2089.0, 2089.0, 2089.0, 2089.0, 2089.0, 2089.0, 2089.0, 2089.0, 2089.0, 2090.0, 2089.0, 2090.0, 2089.0, 2089.0, 2090.0, 2089.0, 2089.0, 2089.0, 2089.0, 2089.0, 2090.0, 2090.0, 2089.0, 2090.0, 2089.0, 2089.0, 2089.0, 2089.0, 2089.0, 2089.0]
    },
    "slices": {}
  }
}