{
  "AcquisitionMatrixPE": 80,
  "AcquisitionNumber": 1,
  "AcquisitionTime": "10:06:42.395000",
  "BandwidthPerPixelPhaseEncode": 25,
  "BaseResolution": 80,
  "BodyPartExamined": "BRAIN",
  "CoilCombinationMethod": "Sum of Squares",
  "ConsistencyInfo": "N4_VE11E_LATEST_20181129",
  "ConversionSoftware": "dcm2niix",
  "ConversionSoftwareVersion": "v1.0.20220720",
  "DerivedVendorReportedEchoSpacing": 0.0005,
  "DeviceSerialNumber": "66112",
  "DwellTime": 2.7e-06,
  "EchoTime": 0.03,
  "EchoTrainLength": 80,
  "EffectiveEchoSpacing": 0.0005,
  "FlipAngle": 77,
  "HeudiconvVersion": "0.13.1",
  "ImageOrientationPatientDICOM": [0.999959, 0.00804746, 0.00408272, -0.00890108, 0.954009, 0.299645],
  "ImageOrientationText": "Tra>Cor(17.4)>Sag(0.1)",
  "ImageType": [
    "ORIGINAL",
    "PRIMARY",
    "M",
    "ND",
    "NORM",
    "MOSAIC"
],
  "ImagingFrequency": 123.261,
  "InPlanePhaseEncodingDirectionDICOM": "COL",
  "InstitutionAddress": "Maynard 3,Hanover,NH,US,03755",
  "InstitutionName": "Dartmouth College - PBS",
  "InstitutionalDepartmentName": "Department",
  "MRAcquisitionType": "2D",
  "MagneticFieldStrength": 3,
  "Manufacturer": "Siemens",
  "ManufacturersModelName": "Prisma",
  "MatrixCoilMode": "SENSE",
  "Modality": "MR",
  "NonlinearGradientCorrection": false,
  "PartialFourier": 1,
  "PatientPosition": "HFS",
  "PercentPhaseFOV": 100,
  "PercentSampling": 100,
  "PhaseEncodingDirection": "j-",
  "PhaseEncodingSteps": 80,
  "PhaseResolution": 1,
  "PixelBandwidth": 2315,
  "ProcedureStepDescription": "dbic^QA",
  "ProtocolName": "func-bold_fa-77",
  "PulseSequenceDetails": "%SiemensSeq%\\ep2d_bold",
  "ReceiveCoilActiveElements": "HEA;HEP",
  "ReceiveCoilName": "Head_32",
  "ReconMatrixPE": 80,
  "RepetitionTime": 2,
  "SAR": 0.0367805,
  "ScanOptions": "FS",
  "ScanningSequence": "EP",
  "SequenceName": "*epfid2d1_80",
  "SequenceVariant": "SK",
  "SeriesDescription": "func-bold_fa-77",
  "SeriesNumber": 7,
  "ShimSetting": [4247, -7732, -7484, -34, -187, -71, -20, 78],
  "SliceThickness": 3.5,
  "SliceTiming": [0.99, 0, 1.055, 0.065, 1.1225, 0.1325, 1.1875, 0.1975, 1.2525, 0.265, 1.32, 0.33, 1.385, 0.395, 1.4525, 0.4625, 1.5175, 0.5275, 1.5825, 0.595, 1.65, 0.66, 1.715, 0.725, 1.7825, 0.7925, 1.8475, 0.8575, 1.9125, 0.925],
  "SoftwareVersions": "syngo MR E11",
  "SpacingBetweenSlices": 3.99,
  "StationName": "AWP66112",
  "TotalReadoutTime": 0.0395,
  "TxRefAmp": 220.618,
  "dcmmeta_affine": [
    [-2.9998779296875, -0.02670324221253395, 0.005919415503740311, 121.84285736083984],
    [-0.02414238266646862, 2.862027406692505, 1.1956816911697388, -123.66893768310547],
    [0.01224814634770155, -0.8989363312721252, 3.806627035140991, -20.645599365234375],
    [0.0, 0.0, 0.0, 1.0]
],
  "dcmmeta_reorient_transform": [
    [0.0, -1.0, 0.0, 79.0],
    [1.0, 0.0, 0.0, 0.0],
    [0.0, 0.0, 1.0, 0.0],
    [0.0, 0.0, 0.0, 1.0]
],
  "dcmmeta_shape": [80, 80, 30, 200],
  "dcmmeta_slice_dim": 2,
  "dcmmeta_version": 0.6,
  "global": {
    "const": {
      "AccessionNumber": "qa",
      "AcquisitionMatrix": [80, 0, 0, 80],
      "AngioFlag": "N",
      "BitsAllocated": 16,
      "BitsStored": 12,
      "BodyPartExamined": "BRAIN",
      "Columns": 480,
      "EchoNumbers": 1,
      "EchoTime": 30.0,
      "EchoTrainLength": 80,
      "FlipAngle": 77.0,
      "HighBit": 11,
      "ImageOrientationPatient": [0.99995928407506, 0.00804746083635, 0.0040827155414, -0.0089010804761, 0.95400910564671, 0.29964545234246],
      "ImagePositionPatient": [-714.36822660285, -679.66516390296, -273.89847231315],
      "ImageType": [
        "ORIGINAL",
        "PRIMARY",
        "M",
        "ND",
        "NORM",
        "MOSAIC"
],
      "ImagedNucleus": "1H",
      "ImagingFrequency": 123.261257,
      "InPlanePhaseEncodingDirection": "COL",
      "MRAcquisitionType": "2D",
      "MagneticFieldStrength": 3.0,
      "Manufacturer": "SIEMENS",
      "ManufacturerModelName": "Prisma",
      "Modality": "MR",
      "NumberOfAverages": 1.0,
      "NumberOfPhaseEncodingSteps": 80,
      "PercentPhaseFieldOfView": 100.0,
      "PercentSampling": 100.0,
      "PerformedProcedureStepStartTime": "094143.184000",
      "PhotometricInterpretation": "MONOCHROME2",
      "PixelBandwidth": 2315.0,
      "PixelRepresentation": 0,
      "PixelSpacing": [3.0, 3.0],
      "ProtocolName": "func-bold_fa-77",
      "RepetitionTime": 2000.0,
      "Rows": 480,
      "SAR": 0.03678045991036,
      "SamplesPerPixel": 1,
      "ScanOptions": "FS",
      "ScanningSequence": "EP",
      "SequenceName": "*epfid2d1_80",
      "SequenceVariant": "SK",
      "SeriesDescription": "func-bold_fa-77",
      "SeriesNumber": 7,
      "SeriesTime": "100724.720000",
      "SliceLocation": -56.575824263991,
      "SliceThickness": 3.5,
      "SmallestImagePixelValue": 0,
      "SoftwareVersions": "syngo MR E11",
      "SpacingBetweenSlices": 3.9899999241898,
      "SpecificCharacterSet": "ISO_IR 100",
      "StudyID": "36",
      "StudyTime": "094143.121000",
      "TransmitCoilName": "Body",
      "VariableFlipAngleFlag": "N",
      "WindowCenterWidthExplanation": "Algo1"
    },
    "slices": {}
  },
  "time": {
    "samples": {
      "AcquisitionNumber": [1, 2, 3, 4, 5, 6, 7, 8, 9, 10, 11, 12, 13, 14, 15, 16, 17, 18, 19, 20, 21, 22, 23, 24, 25, 26, 27, 28, 29, 30, 31, 32, 33, 34, 35, 36, 37, 38, 39, 40, 41, 42, 43, 44, 45, 46, 47, 48, 49, 50, 51, 52, 53, 54, 55, 56, 57, 58, 59, 60, 61, 62, 63, 64, 65, 66, 67, 68, 69, 70, 71, 72, 73, 74, 75, 76, 77, 78, 79, 80, 81, 82, 83, 84, 85, 86, 87, 88, 89, 90, 91, 92, 93, 94, 95, 96, 97, 98, 99, 100, 101, 102, 103, 104, 105, 106, 107, 108, 109, 110, 111, 112, 113, 114, 115, 116, 117, 118, 119, 120, 121, 122, 123, 124, 125, 126, 127, 128, 129, 130, 131, 132, 133, 134, 135, 136, 137, 138, 139, 140, 141, 142, 143, 144, 145, 146, 147, 148, 149, 150, 151, 152, 153, 154, 155, 156, 157, 158, 159, 160, 161, 162, 163, 164, 165, 166, 167, 168, 169, 170, 171, 172, 173, 174, 175, 176, 177, 178, 179, 180, 181, 182, 183, 184, 185, 186, 187, 188, 189, 190, 191, 192, 193, 194, 195, 196, 197, 198, 199, 200],
      "AcquisitionTime": ["100642.395000", "100644.395000", "100646.395000", "100648.395000", "100650.395000", "100652.395000", "100654.395000", "100656.395000", "100658.395000", "100700.395000", "100702.395000", "100704.395000", "100706.395000", "100708.395000", "100710.395000", "100712.395000", "100714.395000", "100716.395000", "100718.395000", "100720.395000", "100722.395000", "100724.395000", "100726.395000", "100728.395000", "100730.395000", "100732.395000", "100734.395000", "100736.395000", "100738.395000", "100740.395000", "100742.395000", "100744.395000", "100746.395000", "100748.395000", "100750.395000", "100752.395000", "100754.395000", "100756.395000", "100758.395000", "100800.395000", "100802.395000", "100804.395000", "100806.395000", "100808.395000", "100810.395000", "100812.395000", "100814.395000", "100816.395000", "100818.395000", "100820.395000", "100822.395000", "100824.395000", "100826.395000", "100828.395000", "100830.395000", "100832.395000", "100834.395000", "100836.395000", "100838.395000", "100840.395000", "100842.395000", "100844.395000", "100846.395000", "100848.395000", "100850.395000", "100852.395000", "100854.395000", "100856.395000", "100858.395000", "100900.395000", "100902.395000", "100904.395000", "100906.395000", "100908.395000", "100910.395000", "100912.395000", "100914.395000", "100916.395000", "100918.395000", "100920.395000", "100922.395000", "100924.395000", "100926.395000", "100928.395000", "100930.395000", "100932.395000", "100934.395000", "100936.395000", "100938.395000", "100940.395000", "100942.395000", "100944.395000", "100946.395000", "100948.395000", "100950.395000", "100952.395000", "100954.395000", "100956.395000", "100958.395000", "101000.395000", "101002.395000", "101004.395000", "101006.395000", "101008.395000", "101010.395000", "101012.395000", "101014.395000", "101016.395000", "101018.395000", "101020.395000", "101022.395000", "101024.395000", "101026.395000", "101028.395000", "101030.395000", "101032.395000", "101034.395000", "101036.395000", "101038.395000", "101040.395000", "101042.395000", "101044.395000", "101046.395000", "101048.395000", "101050.395000", "101052.395000", "101054.395000", "101056.395000", "101058.395000", "101100.395000", "101102.395000", "101104.395000", "101106.395000", "101108.395000", "101110.395000", "101112.395000", "101114.395000", "101116.395000", "101118.395000", "101120.395000", "101122.395000", "101124.395000", "101126.395000", "101128.395000", "101130.395000", "101132.395000", "101134.395000", "101136.395000", "101138.395000", "101140.395000", "101142.395000", "101144.395000", "101146.395000", "101148.395000", "101150.395000", "101152.395000", "101154.395000", "101156.395000", "101158.395000", "101200.395000", "101202.395000", "101204.395000", "101206.395000", "101208.395000", "101210.395000", "101212.395000", "101214.395000", "101216.395000", "101218.395000", "101220.395000", "101222.395000", "101224.395000", "101226.395000", "101228.395000", "101230.395000", "101232.395000", "101234.395000", "101236.395000", "101238.395000", "101240.395000", "101242.395000", "101244.395000", "101246.395000", "101248.395000", "101250.395000", "101252.395000", "101254.395000", "101256.395000", "101258.395000", "101300.395000", "101302.395000", "101304.395000", "101306.395000", "101308.395000", "101310.395000", "101312.395000", "101314.395000", "101316.395000", "101318.395000", "101320.395000"],
      "ContentTime": ["100724.723000", "100724.726000", "100724.728000", "100724.731000", "100724.733000", "100724.736000", "100724.738000", "100724.740000", "100724.742000", "100724.745000", "100724.747000", "100724.749000", "100724.752000", "100724.754000", "100724.762000", "100724.764000", "100724.773000", "100724.775000", "100724.778000", "100724.780000", "100724.782000", "100804.728000", "100804.730000", "100804.733000", "100804.735000", "100804.737000", "100804.740000", "100804.742000", "100804.744000", "100804.746000", "100804.749000", "100804.751000", "100804.754000", "100804.756000", "100804.759000", "100804.761000", "100804.764000", "100804.766000", "100804.768000", "100804.770000", "100804.773000", "100844.718000", "100844.721000", "100844.723000", "100844.725000", "100844.727000", "100844.730000", "100844.732000", "100844.734000", "100844.737000", "100844.739000", "100844.741000", "100844.744000", "100844.746000", "100844.748000", "100844.751000", "100844.753000", "100844.755000", "100844.774000", "100844.776000", "100844.778000", "100924.719000", "100924.722000", "100924.724000", "100924.726000", "100924.728000", "100924.731000", "100924.733000", "100924.735000", "100924.738000", "100924.740000", "100924.742000", "100924.744000", "100924.747000", "100924.749000", "100924.751000", "100924.754000", "100924.756000", "100924.758000", "100924.761000", "100924.763000", "101004.718000", "101004.721000", "101004.723000", "101004.725000", "101004.727000", "101004.730000", "101004.732000", "101004.734000", "101004.737000", "101004.739000", "101004.741000", "101004.743000", "101004.746000", "101004.748000", "101004.750000", "101004.753000", "101004.755000", "101004.757000", "101004.760000", "101004.762000", "101044.718000", "101044.721000", "101044.723000", "101044.725000", "101044.728000", "101044.730000", "101044.732000", "101044.735000", "101044.737000", "101044.745000", "101044.747000", "101044.749000", "101044.752000", "101044.754000", "101044.756000", "101044.759000", "101044.762000", "101044.764000", "101044.766000", "101044.769000", "101124.719000", "101124.722000", "101124.724000", "101124.727000", "101124.729000", "101124.731000", "101124.734000", "101124.736000", "101124.738000", "101124.740000", "101124.743000", "101124.745000", "101124.747000", "101124.750000", "101124.752000", "101124.754000", "101124.757000", "101124.760000", "101124.764000", "101124.766000", "101204.718000", "101204.721000", "101204.723000", "101204.725000", "101204.728000", "101204.730000", "101204.732000", "101204.735000", "101204.737000", "101204.739000", "101204.742000", "101204.744000", "101204.746000", "101204.749000", "101204.751000", "101204.753000", "101204.756000", "101204.758000", "101204.760000", "101204.763000", "101244.718000", "101244.721000", "101244.723000", "101244.726000", "101244.728000", "101244.730000", "101244.733000", "101244.735000", "101244.737000", "101244.740000", "101244.742000", "101244.744000", "101244.747000", "101244.749000", "101244.751000", "101244.754000", "101244.756000", "101244.759000", "101244.761000", "101244.763000", "101321.748000", "101321.750000", "101321.753000", "101321.755000", "101321.758000", "101321.760000", "101321.762000", "101321.764000", "101321.767000", "101321.769000", "101321.772000", "101321.774000", "101321.776000", "101321.781000", "101321.785000", "101321.789000", "101321.795000", "101321.801000", "101321.804000"],
      "InstanceCreationTime": ["100724.723000", "100724.726000", "100724.728000", "100724.731000", "100724.733000", "100724.736000", "100724.738000", "100724.740000", "100724.742000", "100724.745000", "100724.747000", "100724.749000", "100724.752000", "100724.754000", "100724.762000", "100724.764000", "100724.773000", "100724.775000", "100724.778000", "100724.780000", "100724.782000", "100804.728000", "100804.730000", "100804.733000", "100804.735000", "100804.737000", "100804.740000", "100804.742000", "100804.744000", "100804.746000", "100804.749000", "100804.751000", "100804.754000", "100804.756000", "100804.759000", "100804.761000", "100804.764000", "100804.766000", "100804.768000", "100804.770000", "100804.773000", "100844.718000", "100844.721000", "100844.723000", "100844.725000", "100844.727000", "100844.730000", "100844.732000", "100844.734000", "100844.737000", "100844.739000", "100844.741000", "100844.744000", "100844.746000", "100844.748000", "100844.751000", "100844.753000", "100844.755000", "100844.774000", "100844.776000", "100844.778000", "100924.719000", "100924.722000", "100924.724000", "100924.726000", "100924.728000", "100924.731000", "100924.733000", "100924.735000", "100924.738000", "100924.740000", "100924.742000", "100924.744000", "100924.747000", "100924.749000", "100924.751000", "100924.754000", "100924.756000", "100924.758000", "100924.761000", "100924.763000", "101004.718000", "101004.721000", "101004.723000", "101004.725000", "101004.727000", "101004.730000", "101004.732000", "101004.734000", "101004.737000", "101004.739000", "101004.741000", "101004.743000", "101004.746000", "101004.748000", "101004.750000", "101004.753000", "101004.755000", "101004.757000", "101004.760000", "101004.762000", "101044.718000", "101044.721000", "101044.723000", "101044.725000", "101044.728000", "101044.730000", "101044.732000", "101044.735000", "101044.737000", "101044.745000", "101044.747000", "101044.749000", "101044.752000", "101044.754000", "101044.756000", "101044.759000", "101044.762000", "101044.764000", "101044.766000", "101044.769000", "101124.719000", "101124.722000", "101124.724000", "101124.727000", "101124.729000", "101124.731000", "101124.734000", "101124.736000", "101124.738000", "101124.740000", "101124.743000", "101124.745000", "101124.747000", "101124.750000", "101124.752000", "101124.754000", "101124.757000", "101124.760000", "101124.764000", "101124.766000", "101204.718000", "101204.721000", "101204.723000", "101204.725000", "101204.728000", "101204.730000", "101204.732000", "101204.735000", "101204.737000", "101204.739000", "101204.742000", "101204.744000", "101204.746000", "101204.749000", "101204.751000", "101204.753000", "101204.756000", "101204.758000", "101204.760000", "101204.763000", "101244.718000", "101244.721000", "101244.723000", "101244.726000", "101244.728000", "101244.730000", "101244.733000", "101244.735000", "101244.737000", "101244.740000", "101244.742000", "101244.744000", "101244.747000", "101244.749000", "101244.751000", "101244.754000", "101244.756000", "101244.759000", "101244.761000", "101244.763000", "101321.748000", "101321.750000", "101321.753000", "101321.755000", "101321.758000", "101321.760000", "101321.762000", "101321.764000", "101321.767000", "101321.769000", "101321.772000", "101321.774000", "101321.776000", "101321.781000", "101321.785000", "101321.789000", "101321.795000", "101321.801000", "101321.804000"],
      "InstanceNumber": [1, 2, 3, 4, 5, 6, 7, 8, 9, 10, 11, 12, 13, 14, 15, 16, 17, 18, 19, 20, 21, 22, 23, 24, 25, 26, 27, 28, 29, 30, 31, 32, 33, 34, 35, 36, 37, 38, 39, 40, 41, 42, 43, 44, 45, 46, 47, 48, 49, 50, 51, 52, 53, 54, 55, 56, 57, 58, 59, 60, 61, 62, 63, 64, 65, 66, 67, 68, 69, 70, 71, 72, 73, 74, 75, 76, 77, 78, 79, 80, 81, 82, 83, 84, 85, 86, 87, 88, 89, 90, 91, 92, 93, 94, 95, 96, 97, 98, 99, 100, 101, 102, 103, 104, 105, 106, 107, 108, 109, 110, 111, 112, 113, 114, 115, 116, 117, 118, 119, 120, 121, 122, 123, 124, 125, 126, 127, 128, 129, 130, 131, 132, 133, 134, 135, 136, 137, 138, 139, 140, 141, 142, 143, 144, 145, 146, 147, 148, 149, 150, 151, 152, 153, 154, 155, 156, 157, 158, 159, 160, 161, 162, 163, 164, 165, 166, 167, 168, 169, 170, 171, 172, 173, 174, 175, 176, 177, 178, 179, 180, 181, 182, 183, 184, 185, 186, 187, 188, 189, 190, 191, 192, 193, 194, 195, 196, 197, 198, 199, 200],
      "LargestImagePixelValue": [2103, 2100, 2101, 2101, 2102, 2102, 2102, 2102, 2103, 2102, 2102, 2103, 2104, 2102, 2102, 2105, 2103, 2104, 2104, 2103, 2105, 2103, 2104, 2101, 2104, 2104, 2101, 2103, 2104, 2104, 2103, 2102, 2103, 2102, 2104, 2100, 2102, 2103, 2101, 2102, 2102, 2102, 2102, 2102, 2102, 2104, 2103, 2103, 2101, 2102, 2100, 2101, 2102, 2101, 2101, 2101, 2101, 2101, 2101, 2100, 2101, 2102, 2101, 2103, 2101, 2104, 2102, 2103, 2102, 2101, 2102, 2102, 2102, 2101, 2101, 2102, 2101, 2101, 2101, 2099, 2101, 2101, 2101, 2101, 2102, 2099, 2102, 2100, 2102, 2101, 2101, 2101, 2100, 2100, 2100, 2102, 2100, 2102, 2101, 2104, 2101, 2100, 2099, 2101, 2100, 2099, 2101, 2102, 2100, 2100, 2101, 2101, 2099, 2100, 2100, 2098, 2100, 2100, 2097, 2099, 2101, 2099, 2101, 2099, 2102, 2100, 2100, 2102, 2100, 2099, 2100, 2100, 2098, 2101, 2101, 2098, 2101, 2101, 2099, 2100, 2098, 2099, 2100, 2098, 2099, 2099, 2101, 2098, 2101, 2101, 2100, 2101, 2100, 2099, 2099, 2099, 2099, 2102, 2099, 2101, 2100, 2100, 2099, 2098, 2098, 2099, 2099, 2097, 2099, 2099, 2099, 2101, 2100, 2101, 2100, 2101, 2100, 2099, 2099, 2098, 2099, 2099, 2098, 2099, 2097, 2101, 2098, 2099, 2098, 2098, 2099, 2099, 2099, 2098, 2098, 2098, 2100, 2101, 2098, 2099],
      "WindowCenter": [1009.0, 1008.0, 1010.0, 1009.0, 1009.0, 1007.0, 1009.0, 1009.0, 1007.0, 1009.0, 1010.0, 1009.0, 1007.0, 1008.0, 1008.0, 1008.0, 1008.0, 1009.0, 1009.0, 1009.0, 1009.0, 1009.0, 1009.0, 1008.0, 1008.0, 1007.0, 1009.0, 1009.0, 1008.0, 1009.0, 1008.0, 1009.0, 1008.0, 1008.0, 1008.0, 1008.0, 1008.0, 1008.0, 1008.0, 1008.0, 1008.0, 1009.0, 1009.0, 1008.0, 1007.0, 1007.0, 1009.0, 1007.0, 1008.0, 1007.0, 1009.0, 1008.0, 1006.0, 1009.0, 1008.0, 1006.0, 1007.0, 1007.0, 1008.0, 1007.0, 1008.0, 1007.0, 1007.0, 1009.0, 1008.0, 1008.0, 1008.0, 1008.0, 1009.0, 1009.0, 1008.0, 1009.0, 1006.0, 1008.0, 1007.0, 1007.0, 1007.0, 1006.0, 1008.0, 1008.0, 1007.0, 1008.0, 1008.0, 1008.0, 1008.0, 1007.0, 1007.0, 1006.0, 1006.0, 1008.0, 1007.0, 1008.0, 1007.0, 1006.0, 1008.0, 1007.0, 1007.0, 1008.0, 1007.0, 1007.0, 1008.0, 1006.0, 1007.0, 1008.0, 1008.0, 1008.0, 1006.0, 1008.0, 1007.0, 1007.0, 1006.0, 1008.0, 1008.0, 1006.0, 1008.0, 1007.0, 1007.0, 1008.0, 1007.0, 1007.0, 1008.0, 1007.0, 1007.0, 1007.0, 1007.0, 1007.0, 1008.0, 1007.0, 1007.0, 1007.0, 1007.0, 1007.0, 1008.0, 1007.0, 1008.0, 1007.0, 1007.0, 1007.0, 1007.0, 1008.0, 1007.0, 1007.0, 1007.0, 1007.0, 1007.0, 1007.0, 1006.0, 1007.0, 1007.0, 1006.0, 1006.0, 1006.0, 1007.0, 1007.0, 1007.0, 1008.0, 1006.0, 1006.0, 1007.0, 1007.0, 1007.0, 1007.0, 1007.0, 1006.0, 1006.0, 1008.0, 1007.0, 1007.0, 1007.0, 1006.0, 1006.0, 1007.0, 1007.0, 1007.0, 1007.0, 1007.0, 1006.0, 1007.0, 1006.0, 1007.0, 1006.0, 1007.0, 1006.0, 1006.0, 1007.0, 1008.0, 1006.0, 1007.0, 1006.0, 1006.0, 1007.0, 1007.0, 1007.0, 1006.0, 1006.0, 1005.0, 1007.0, 1008.0, 1006.0, 1005.0],
      "WindowWidth": [2248.0, 2247.0, 2249.0, 2248.0, 2248.0, 2247.0, 2249.0, 2248.0, 2247.0, 2248.0, 2249.0, 2248.0, 2247.0, 2247.0, 2247.0, 2247.0, 2247.0, 2248.0, 2248.0, 2248.0, 2248.0, 2248.0, 2248.0, 2247.0, 2247.0, 2247.0, 2248.0, 2248.0, 2247.0, 2248.0, 2247.0, 2248.0, 2247.0, 2247.0, 2247.0, 2248.0, 2248.0, 2248.0, 2247.0, 2248.0, 2248.0, 2248.0, 2248.0, 2248.0, 2247.0, 2247.0, 2248.0, 2247.0, 2248.0, 2247.0, 2248.0, 2248.0, 2246.0, 2248.0, 2248.0, 2246.0, 2247.0, 2247.0, 2247.0, 2246.0, 2247.0, 2247.0, 2246.0, 2248.0, 2247.0, 2247.0, 2247.0, 2247.0, 2248.0, 2248.0, 2247.0, 2248.0, 2245.0, 2247.0, 2246.0, 2246.0, 2246.0, 2245.0, 2247.0, 2247.0, 2246.0, 2247.0, 2247.0, 2247.0, 2247.0, 2246.0, 2246.0, 2245.0, 2245.0, 2247.0, 2246.0, 2247.0, 2246.0, 2245.0, 2247.0, 2246.0, 2246.0, 2246.0, 2246.0, 2246.0, 2246.0, 2245.0, 2246.0, 2246.0, 2246.0, 2246.0, 2245.0, 2246.0, 2246.0, 2246.0, 2245.0, 2246.0, 2246.0, 2245.0, 2246.0, 2245.0, 2245.0, 2246.0, 2245.0, 2245.0, 2246.0, 2245.0, 2245.0, 2245.0, 2245.0, 2246.0, 2247.0, 2245.0, 2245.0, 2246.0, 2245.0, 2246.0, 2246.0, 2245.0, 2246.0, 2245.0, 2246.0, 2246.0, 2246.0, 2246.0, 2246.0, 2245.0, 2245.0, 2245.0, 2246.0, 2245.0, 2245.0, 2245.0, 2245.0, 2244.0, 2245.0, 2245.0, 2245.0, 2245.0, 2245.0, 2246.0, 2244.0, 2245.0, 2245.0, 2245.0, 2245.0, 2245.0, 2245.0, 2245.0, 2244.0, 2246.0, 2245.0, 2245.0, 2245.0, 2245.0, 2244.0, 2245.0, 2245.0, 2245.0, 2245.0, 2245.0, 2244.0, 2245.0, 2244.0, 2245.0, 2244.0, 2245.0, 2244.0, 2244.0, 2245.0, 2246.0, 2244.0, 2245.0, 2244.0, 2244.0, 2245.0, 2245.0, 2245.0, 2244.0, 2244.0, 2244.0, 2245.0, 2246.0, 2244.0, 2243.0]
    },
    "slices": {}
  }
}