{
  "AcquisitionMatrixPE": 80,
  "AcquisitionNumber": 1,
  "AcquisitionTime": "09:52:58.797500",
  "BandwidthPerPixelPhaseEncode": 48.077,
  "BaseResolution": 80,
  "BodyPartExamined": "BRAIN",
  "CoilCombinationMethod": "Sum of Squares",
  "ConsistencyInfo": "N4_VE11E_LATEST_20181129",
  "ConversionSoftware": "dcm2niix",
  "ConversionSoftwareVersion": "v1.0.20220720",
  "DerivedVendorReportedEchoSpacing": 0.000519999,
  "DeviceSerialNumber": "66112",
  "DwellTime": 2.7e-06,
  "EchoTime": 0.035,
  "EchoTrainLength": 39,
  "EffectiveEchoSpacing": 0.00026,
  "FlipAngle": 90,
  "HeudiconvVersion": "0.13.1",
  "ImageOrientationPatientDICOM": [0.999959, 0.00804746, 0.00408272, -0.00890108, 0.954009, 0.299645],
  "ImageOrientationText": "Tra>Cor(17.4)>Sag(0.1)",
  "ImageType": [
    "ORIGINAL",
    "PRIMARY",
    "M",
    "ND",
    "NORM",
    "MOSAIC"
],
  "ImagingFrequency": 123.261,
  "InPlanePhaseEncodingDirectionDICOM": "COL",
  "InstitutionAddress": "Maynard 3,Hanover,NH,US,03755",
  "InstitutionName": "Dartmouth College - PBS",
  "InstitutionalDepartmentName": "Department",
  "MRAcquisitionType": "2D",
  "MagneticFieldStrength": 3,
  "Manufacturer": "Siemens",
  "ManufacturersModelName": "Prisma",
  "MatrixCoilMode": "GRAPPA",
  "Modality": "MR",
  "NonlinearGradientCorrection": false,
  "ParallelReductionFactorInPlane": 2,
  "PartialFourier": 1,
  "PatientPosition": "HFS",
  "PercentPhaseFOV": 100,
  "PercentSampling": 100,
  "PhaseEncodingDirection": "j-",
  "PhaseEncodingSteps": 79,
  "PhaseResolution": 1,
  "PixelBandwidth": 2315,
  "ProcedureStepDescription": "dbic^QA",
  "ProtocolName": "func-bold_task-rest_acq-p2",
  "PulseSequenceDetails": "%SiemensSeq%\\ep2d_bold",
  "ReceiveCoilActiveElements": "HEA;HEP",
  "ReceiveCoilName": "Head_32",
  "ReconMatrixPE": 80,
  "RefLinesPE": 24,
  "RepetitionTime": 2,
  "SAR": 0.0468034,
  "ScanOptions": "FS",
  "ScanningSequence": "EP",
  "SequenceName": "*epfid2d1_80",
  "SequenceVariant": "SK",
  "SeriesDescription": "func-bold_task-rest_acq-p2",
  "SeriesNumber": 5,
  "ShimSetting": [4247, -7732, -7484, -38, -189, -72, -23, 78],
  "SliceThickness": 3.5,
  "SliceTiming": [0.99, 0, 1.055, 0.0675, 1.1225, 0.1325, 1.1875, 0.1975, 1.255, 0.265, 1.32, 0.33, 1.385, 0.3975, 1.4525, 0.4625, 1.5175, 0.5275, 1.585, 0.595, 1.65, 0.66, 1.715, 0.7275, 1.7825, 0.7925, 1.8475, 0.8575, 1.915, 0.925],
  "SoftwareVersions": "syngo MR E11",
  "SpacingBetweenSlices": 3.99,
  "StationName": "AWP66112",
  "TaskName": "rest",
  "TotalReadoutTime": 0.02054,
  "TxRefAmp": 220.618,
  "dcmmeta_affine": [
    [-2.9998779296875, -0.02670324221253395, 0.005919415503740311, 121.85437774658203],
    [-0.02414238266646862, 2.862027406692505, 1.1956816911697388, -126.65064239501953],
    [0.01224814634770155, -0.8989363312721252, 3.806627035140991, -23.740081787109375],
    [0.0, 0.0, 0.0, 1.0]
],
  "dcmmeta_reorient_transform": [
    [0.0, -1.0, 0.0, 79.0],
    [1.0, 0.0, 0.0, 0.0],
    [0.0, 0.0, 1.0, 0.0],
    [0.0, 0.0, 0.0, 1.0]
],
  "dcmmeta_shape": [80, 80, 30, 200],
  "dcmmeta_slice_dim": 2,
  "dcmmeta_version": 0.6,
  "global": {
    "const": {
      "AccessionNumber": "qa",
      "AcquisitionMatrix": [80, 0, 0, 80],
      "AngioFlag": "N",
      "BitsAllocated": 16,
      "BitsStored": 12,
      "BodyPartExamined": "BRAIN",
      "Columns": 480,
      "EchoNumbers": 1,
      "EchoTime": 35.0,
      "EchoTrainLength": 39,
      "FlipAngle": 90.0,
      "HighBit": 11,
      "ImageOrientationPatient": [0.99995928407506, 0.00804746083635, 0.0040827155414, -0.0089010804761, 0.95400910564671, 0.29964545234246],
      "ImagePositionPatient": [-714.37974603492, -676.68345442267, -276.99295473502],
      "ImageType": [
        "ORIGINAL",
        "PRIMARY",
        "M",
        "ND",
        "NORM",
        "MOSAIC"
],
      "ImagedNucleus": "1H",
      "ImagingFrequency": 123.261257,
      "InPlanePhaseEncodingDirection": "COL",
      "MRAcquisitionType": "2D",
      "MagneticFieldStrength": 3.0,
      "Manufacturer": "SIEMENS",
      "ManufacturerModelName": "Prisma",
      "Modality": "MR",
      "NumberOfAverages": 1.0,
      "NumberOfPhaseEncodingSteps": 79,
      "PercentPhaseFieldOfView": 100.0,
      "PercentSampling": 100.0,
      "PerformedProcedureStepStartTime": "094143.184000",
      "PhotometricInterpretation": "MONOCHROME2",
      "PixelBandwidth": 2315.0,
      "PixelRepresentation": 0,
      "PixelSpacing": [3.0, 3.0],
      "ProtocolName": "func-bold_task-rest_acq-p2",
      "RepetitionTime": 2000.0,
      "Rows": 480,
      "SAR": 0.04680341733764,
      "SamplesPerPixel": 1,
      "ScanOptions": "FS",
      "ScanningSequence": "EP",
      "SequenceName": "*epfid2d1_80",
      "SequenceVariant": "SK",
      "SeriesDescription": "func-bold_task-rest_acq-p2",
      "SeriesNumber": 5,
      "SeriesTime": "095344.805000",
      "SliceLocation": -60.421600708138,
      "SliceThickness": 3.5,
      "SmallestImagePixelValue": 0,
      "SoftwareVersions": "syngo MR E11",
      "SpacingBetweenSlices": 3.9899999340415,
      "SpecificCharacterSet": "ISO_IR 100",
      "StudyID": "36",
      "StudyTime": "094143.121000",
      "TransmitCoilName": "Body",
      "VariableFlipAngleFlag": "N",
      "WindowCenterWidthExplanation": "Algo1"
    },
    "slices": {}
  },
  "time": {
    "samples": {
      "AcquisitionNumber": [1, 2, 3, 4, 5, 6, 7, 8, 9, 10, 11, 12, 13, 14, 15, 16, 17, 18, 19, 20, 21, 22, 23, 24, 25, 26, 27, 28, 29, 30, 31, 32, 33, 34, 35, 36, 37, 38, 39, 40, 41, 42, 43, 44, 45, 46, 47, 48, 49, 50, 51, 52, 53, 54, 55, 56, 57, 58, 59, 60, 61, 62, 63, 64, 65, 66, 67, 68, 69, 70, 71, 72, 73, 74, 75, 76, 77, 78, 79, 80, 81, 82, 83, 84, 85, 86, 87, 88, 89, 90, 91, 92, 93, 94, 95, 96, 97, 98, 99, 100, 101, 102, 103, 104, 105, 106, 107, 108, 109, 110, 111, 112, 113, 114, 115, 116, 117, 118, 119, 120, 121, 122, 123, 124, 125, 126, 127, 128, 129, 130, 131, 132, 133, 134, 135, 136, 137, 138, 139, 140, 141, 142, 143, 144, 145, 146, 147, 148, 149, 150, 151, 152, 153, 154, 155, 156, 157, 158, 159, 160, 161, 162, 163, 164, 165, 166, 167, 168, 169, 170, 171, 172, 173, 174, 175, 176, 177, 178, 179, 180, 181, 182, 183, 184, 185, 186, 187, 188, 189, 190, 191, 192, 193, 194, 195, 196, 197, 198, 199, 200],
      "AcquisitionTime": ["095258.797500", "095300.797500", "095302.797500", "095304.797500", "095306.797500", "095308.797500", "095310.797500", "095312.797500", "095314.797500", "095316.797500", "095318.797500", "095320.797500", "095322.797500", "095324.797500", "095326.797500", "095328.797500", "095330.797500", "095332.797500", "095334.797500", "095336.797500", "095338.797500", "095340.797500", "095342.797500", "095344.797500", "095346.797500", "095348.797500", "095350.797500", "095352.797500", "095354.797500", "095356.797500", "095358.797500", "095400.797500", "095402.797500", "095404.797500", "095406.797500", "095408.797500", "095410.797500", "095412.797500", "095414.797500", "095416.797500", "095418.797500", "095420.797500", "095422.797500", "095424.797500", "095426.797500", "095428.797500", "095430.797500", "095432.797500", "095434.797500", "095436.797500", "095438.797500", "095440.797500", "095442.797500", "095444.797500", "095446.797500", "095448.797500", "095450.797500", "095452.797500", "095454.797500", "095456.797500", "095458.797500", "095500.797500", "095502.797500", "095504.797500", "095506.797500", "095508.797500", "095510.797500", "095512.797500", "095514.797500", "095516.797500", "095518.797500", "095520.797500", "095522.797500", "095524.797500", "095526.797500", "095528.797500", "095530.797500", "095532.797500", "095534.797500", "095536.797500", "095538.797500", "095540.797500", "095542.797500", "095544.797500", "095546.797500", "095548.797500", "095550.797500", "095552.797500", "095554.797500", "095556.797500", "095558.797500", "095600.797500", "095602.797500", "095604.797500", "095606.797500", "095608.797500", "095610.797500", "095612.797500", "095614.797500", "095616.797500", "095618.797500", "095620.797500", "095622.797500", "095624.797500", "095626.797500", "095628.797500", "095630.797500", "095632.797500", "095634.797500", "095636.797500", "095638.797500", "095640.797500", "095642.797500", "095644.797500", "095646.797500", "095648.797500", "095650.797500", "095652.797500", "095654.797500", "095656.797500", "095658.797500", "095700.797500", "095702.797500", "095704.797500", "095706.797500", "095708.797500", "095710.797500", "095712.797500", "095714.797500", "095716.797500", "095718.797500", "095720.797500", "095722.797500", "095724.797500", "095726.797500", "095728.797500", "095730.797500", "095732.797500", "095734.797500", "095736.797500", "095738.797500", "095740.797500", "095742.797500", "095744.797500", "095746.797500", "095748.797500", "095750.797500", "095752.797500", "095754.797500", "095756.797500", "095758.797500", "095800.797500", "095802.797500", "095804.797500", "095806.797500", "095808.797500", "095810.797500", "095812.797500", "095814.797500", "095816.797500", "095818.797500", "095820.797500", "095822.797500", "095824.797500", "095826.797500", "095828.797500", "095830.797500", "095832.797500", "095834.797500", "095836.797500", "095838.797500", "095840.797500", "095842.797500", "095844.797500", "095846.797500", "095848.797500", "095850.797500", "095852.797500", "095854.797500", "095856.797500", "095858.797500", "095900.797500", "095902.797500", "095904.797500", "095906.797500", "095908.797500", "095910.797500", "095912.797500", "095914.797500", "095916.797500", "095918.797500", "095920.797500", "095922.797500", "095924.797500", "095926.797500", "095928.797500", "095930.797500", "095932.797500", "095934.797500", "095936.797500"],
      "ContentTime": ["095344.808000", "095344.811000", "095344.814000", "095344.816000", "095344.818000", "095344.821000", "095344.823000", "095344.825000", "095344.828000", "095344.830000", "095344.832000", "095344.835000", "095344.837000", "095344.839000", "095344.841000", "095344.844000", "095344.854000", "095344.857000", "095344.859000", "095344.861000", "095344.864000", "095344.866000", "095344.868000", "095424.803000", "095424.806000", "095424.808000", "095424.810000", "095424.813000", "095424.815000", "095424.817000", "095424.820000", "095424.822000", "095424.824000", "095424.826000", "095424.829000", "095424.831000", "095424.833000", "095424.836000", "095424.838000", "095424.840000", "095424.842000", "095424.845000", "095424.847000", "095504.804000", "095504.807000", "095504.809000", "095504.811000", "095504.814000", "095504.816000", "095504.818000", "095504.821000", "095504.823000", "095504.836000", "095504.838000", "095504.840000", "095504.842000", "095504.845000", "095504.847000", "095504.850000", "095504.852000", "095504.854000", "095504.856000", "095504.859000", "095524.805000", "095524.807000", "095524.809000", "095524.812000", "095524.814000", "095524.817000", "095524.819000", "095524.821000", "095524.823000", "095524.826000", "095604.803000", "095604.806000", "095604.808000", "095604.810000", "095604.813000", "095604.815000", "095604.817000", "095604.820000", "095604.822000", "095604.824000", "095604.826000", "095604.829000", "095604.831000", "095604.833000", "095604.840000", "095604.843000", "095604.845000", "095604.847000", "095604.850000", "095604.852000", "095644.803000", "095644.806000", "095644.808000", "095644.810000", "095644.813000", "095644.815000", "095644.817000", "095644.820000", "095644.822000", "095644.824000", "095644.827000", "095644.829000", "095644.831000", "095644.834000", "095644.836000", "095644.844000", "095644.846000", "095644.848000", "095644.851000", "095644.853000", "095724.804000", "095724.807000", "095724.809000", "095724.811000", "095724.814000", "095724.816000", "095724.818000", "095724.821000", "095724.823000", "095724.825000", "095724.827000", "095724.830000", "095724.832000", "095724.834000", "095724.837000", "095724.839000", "095724.841000", "095724.844000", "095724.846000", "095724.848000", "095804.803000", "095804.806000", "095804.808000", "095804.811000", "095804.813000", "095804.815000", "095804.817000", "095804.820000", "095804.822000", "095804.824000", "095804.827000", "095804.829000", "095804.831000", "095804.834000", "095804.836000", "095804.838000", "095804.841000", "095804.843000", "095804.845000", "095804.848000", "095844.803000", "095844.806000", "095844.808000", "095844.810000", "095844.813000", "095844.815000", "095844.817000", "095844.820000", "095844.822000", "095844.824000", "095844.826000", "095844.829000", "095844.831000", "095844.833000", "095844.836000", "095844.838000", "095844.840000", "095844.843000", "095844.845000", "095844.847000", "095924.803000", "095924.806000", "095924.808000", "095924.810000", "095924.813000", "095924.815000", "095924.817000", "095924.820000", "095924.822000", "095924.824000", "095924.827000", "095924.829000", "095924.831000", "095924.833000", "095924.836000", "095924.838000", "095924.840000", "095924.843000", "095924.845000", "095924.847000", "095937.847000", "095937.849000", "095937.852000", "095937.854000", "095937.856000", "095937.859000", "095937.861000"],
      "InstanceCreationTime": ["095344.808000", "095344.811000", "095344.814000", "095344.816000", "095344.818000", "095344.821000", "095344.823000", "095344.825000", "095344.828000", "095344.830000", "095344.832000", "095344.835000", "095344.837000", "095344.839000", "095344.841000", "095344.844000", "095344.854000", "095344.857000", "095344.859000", "095344.861000", "095344.864000", "095344.866000", "095344.868000", "095424.803000", "095424.806000", "095424.808000", "095424.810000", "095424.813000", "095424.815000", "095424.817000", "095424.820000", "095424.822000", "095424.824000", "095424.826000", "095424.829000", "095424.831000", "095424.833000", "095424.836000", "095424.838000", "095424.840000", "095424.842000", "095424.845000", "095424.847000", "095504.804000", "095504.807000", "095504.809000", "095504.811000", "095504.814000", "095504.816000", "095504.818000", "095504.821000", "095504.823000", "095504.836000", "095504.838000", "095504.840000", "095504.842000", "095504.845000", "095504.847000", "095504.850000", "095504.852000", "095504.854000", "095504.856000", "095504.859000", "095524.805000", "095524.807000", "095524.809000", "095524.812000", "095524.814000", "095524.817000", "095524.819000", "095524.821000", "095524.823000", "095524.826000", "095604.803000", "095604.806000", "095604.808000", "095604.810000", "095604.813000", "095604.815000", "095604.817000", "095604.820000", "095604.822000", "095604.824000", "095604.826000", "095604.829000", "095604.831000", "095604.833000", "095604.840000", "095604.843000", "095604.845000", "095604.847000", "095604.850000", "095604.852000", "095644.803000", "095644.806000", "095644.808000", "095644.810000", "095644.813000", "095644.815000", "095644.817000", "095644.820000", "095644.822000", "095644.824000", "095644.827000", "095644.829000", "095644.831000", "095644.834000", "095644.836000", "095644.844000", "095644.846000", "095644.848000", "095644.851000", "095644.853000", "095724.804000", "095724.807000", "095724.809000", "095724.811000", "095724.814000", "095724.816000", "095724.818000", "095724.821000", "095724.823000", "095724.825000", "095724.827000", "095724.830000", "095724.832000", "095724.834000", "095724.837000", "095724.839000", "095724.841000", "095724.844000", "095724.846000", "095724.848000", "095804.803000", "095804.806000", "095804.808000", "095804.811000", "095804.813000", "095804.815000", "095804.817000", "095804.820000", "095804.822000", "095804.824000", "095804.827000", "095804.829000", "095804.831000", "095804.834000", "095804.836000", "095804.838000", "095804.841000", "095804.843000", "095804.845000", "095804.848000", "095844.803000", "095844.806000", "095844.808000", "095844.810000", "095844.813000", "095844.815000", "095844.817000", "095844.820000", "095844.822000", "095844.824000", "095844.826000", "095844.829000", "095844.831000", "095844.833000", "095844.836000", "095844.838000", "095844.840000", "095844.843000", "095844.845000", "095844.847000", "095924.803000", "095924.806000", "095924.808000", "095924.810000", "095924.813000", "095924.815000", "095924.817000", "095924.820000", "095924.822000", "095924.824000", "095924.827000", "095924.829000", "095924.831000", "095924.833000", "095924.836000", "095924.838000", "095924.840000", "095924.843000", "095924.845000", "095924.847000", "095937.847000", "095937.849000", "095937.852000", "095937.854000", "095937.856000", "095937.859000", "095937.861000"],
      "InstanceNumber": [1, 2, 3, 4, 5, 6, 7, 8, 9, 10, 11, 12, 13, 14, 15, 16, 17, 18, 19, 20, 21, 22, 23, 24, 25, 26, 27, 28, 29, 30, 31, 32, 33, 34, 35, 36, 37, 38, 39, 40, 41, 42, 43, 44, 45, 46, 47, 48, 49, 50, 51, 52, 53, 54, 55, 56, 57, 58, 59, 60, 61, 62, 63, 64, 65, 66, 67, 68, 69, 70, 71, 72, 73, 74, 75, 76, 77, 78, 79, 80, 81, 82, 83, 84, 85, 86, 87, 88, 89, 90, 91, 92, 93, 94, 95, 96, 97, 98, 99, 100, 101, 102, 103, 104, 105, 106, 107, 108, 109, 110, 111, 112, 113, 114, 115, 116, 117, 118, 119, 120, 121, 122, 123, 124, 125, 126, 127, 128, 129, 130, 131, 132, 133, 134, 135, 136, 137, 138, 139, 140, 141, 142, 143, 144, 145, 146, 147, 148, 149, 150, 151, 152, 153, 154, 155, 156, 157, 158, 159, 160, 161, 162, 163, 164, 165, 166, 167, 168, 169, 170, 171, 172, 173, 174, 175, 176, 177, 178, 179, 180, 181, 182, 183, 184, 185, 186, 187, 188, 189, 190, 191, 192, 193, 194, 195, 196, 197, 198, 199, 200],
      "LargestImagePixelValue": [2152, 2150, 2153, 2155, 2148, 2153, 2150, 2143, 2150, 2158, 2152, 2153, 2150, 2147, 2149, 2146, 2152, 2150, 2153, 2149, 2152, 2154, 2152, 2146, 2144, 2151, 2146, 2148, 2145, 2153, 2149, 2152, 2145, 2146, 2156, 2148, 2160, 2154, 2151, 2156, 2149, 2152, 2150, 2147, 2144, 2145, 2149, 2147, 2152, 2143, 2143, 2150, 2153, 2149, 2153, 2146, 2149, 2147, 2147, 2148, 2149, 2149, 2154, 2148, 2154, 2150, 2153, 2148, 2146, 2143, 2150, 2145, 2153, 2147, 2152, 2145, 2149, 2147, 2142, 2151, 2143, 2144, 2154, 2144, 2148, 2148, 2142, 2148, 2141, 2150, 2147, 2141, 2150, 2150, 2142, 2145, 2147, 2146, 2155, 2145, 2142, 2148, 2146, 2144, 2144, 2150, 2150, 2147, 2149, 2142, 2150, 2151, 2153, 2148, 2150, 2146, 2141, 2152, 2148, 2139, 2148, 2147, 2140, 2145, 2151, 2142, 2140, 2146, 2146, 2147, 2141, 2143, 2145, 2143, 2155, 2141, 2146, 2146, 2146, 2151, 2139, 2148, 2147, 2151, 2150, 2149, 2147, 2148, 2150, 2147, 2151, 2145, 2154, 2136, 2148, 2147, 2149, 2147, 2149, 2149, 2144, 2147, 2145, 2144, 2146, 2143, 2140, 2152, 2150, 2144, 2150, 2139, 2144, 2146, 2144, 2144, 2153, 2143, 2143, 2148, 2143, 2143, 2146, 2138, 2142, 2141, 2149, 2144, 2147, 2151, 2151, 2147, 2150, 2149, 2148, 2140, 2147, 2143, 2137, 2145],
      "WindowCenter": [1021.0, 1021.0, 1021.0, 1021.0, 1021.0, 1021.0, 1021.0, 1021.0, 1021.0, 1021.0, 1021.0, 1021.0, 1021.0, 1021.0, 1022.0, 1021.0, 1021.0, 1021.0, 1021.0, 1021.0, 1021.0, 1021.0, 1021.0, 1021.0, 1021.0, 1021.0, 1021.0, 1021.0, 1022.0, 1021.0, 1021.0, 1021.0, 1021.0, 1021.0, 1021.0, 1021.0, 1021.0, 1021.0, 1021.0, 1021.0, 1021.0, 1021.0, 1021.0, 1021.0, 1021.0, 1021.0, 1021.0, 1021.0, 1021.0, 1021.0, 1021.0, 1021.0, 1021.0, 1021.0, 1021.0, 1021.0, 1021.0, 1021.0, 1021.0, 1021.0, 1021.0, 1021.0, 1021.0, 1021.0, 1021.0, 1021.0, 1021.0, 1021.0, 1021.0, 1021.0, 1021.0, 1021.0, 1021.0, 1021.0, 1020.0, 1022.0, 1021.0, 1021.0, 1020.0, 1021.0, 1020.0, 1021.0, 1021.0, 1020.0, 1020.0, 1021.0, 1022.0, 1021.0, 1020.0, 1020.0, 1020.0, 1021.0, 1020.0, 1021.0, 1021.0, 1021.0, 1020.0, 1020.0, 1021.0, 1021.0, 1020.0, 1020.0, 1021.0, 1020.0, 1020.0, 1020.0, 1020.0, 1020.0, 1020.0, 1021.0, 1020.0, 1020.0, 1020.0, 1021.0, 1020.0, 1020.0, 1020.0, 1020.0, 1020.0, 1020.0, 1020.0, 1020.0, 1020.0, 1020.0, 1020.0, 1020.0, 1020.0, 1020.0, 1020.0, 1020.0, 1020.0, 1020.0, 1020.0, 1020.0, 1020.0, 1020.0, 1020.0, 1020.0, 1020.0, 1020.0, 1020.0, 1020.0, 1020.0, 1020.0, 1020.0, 1020.0, 1020.0, 1020.0, 1020.0, 1020.0, 1020.0, 1020.0, 1020.0, 1021.0, 1021.0, 1020.0, 1020.0, 1020.0, 1020.0, 1020.0, 1020.0, 1020.0, 1020.0, 1020.0, 1020.0, 1021.0, 1020.0, 1020.0, 1020.0, 1021.0, 1020.0, 1020.0, 1020.0, 1020.0, 1020.0, 1020.0, 1020.0, 1020.0, 1020.0, 1020.0, 1020.0, 1020.0, 1020.0, 1020.0, 1020.0, 1020.0, 1020.0, 1020.0, 1020.0, 1020.0, 1020.0, 1020.0, 1020.0, 1020.0, 1021.0, 1020.0, 1020.0, 1020.0, 1020.0, 1020.0],
      "WindowWidth": [2277.0, 2276.0, 2276.0, 2276.0, 2276.0, 2276.0, 2276.0, 2276.0, 2276.0, 2275.0, 2276.0, 2275.0, 2276.0, 2275.0, 2276.0, 2276.0, 2276.0, 2275.0, 2276.0, 2276.0, 2275.0, 2275.0, 2276.0, 2275.0, 2276.0, 2275.0, 2275.0, 2275.0, 2276.0, 2275.0, 2275.0, 2275.0, 2275.0, 2275.0, 2275.0, 2275.0, 2275.0, 2275.0, 2275.0, 2275.0, 2275.0, 2275.0, 2275.0, 2275.0, 2275.0, 2275.0, 2275.0, 2275.0, 2275.0, 2275.0, 2275.0, 2275.0, 2275.0, 2275.0, 2275.0, 2275.0, 2275.0, 2275.0, 2275.0, 2275.0, 2275.0, 2275.0, 2275.0, 2275.0, 2275.0, 2275.0, 2275.0, 2275.0, 2275.0, 2275.0, 2275.0, 2275.0, 2275.0, 2274.0, 2275.0, 2275.0, 2275.0, 2275.0, 2275.0, 2276.0, 2275.0, 2275.0, 2276.0, 2275.0, 2275.0, 2274.0, 2275.0, 2274.0, 2275.0, 2275.0, 2275.0, 2274.0, 2275.0, 2274.0, 2274.0, 2274.0, 2275.0, 2275.0, 2274.0, 2274.0, 2275.0, 2275.0, 2274.0, 2274.0, 2274.0, 2275.0, 2274.0, 2274.0, 2275.0, 2275.0, 2275.0, 2274.0, 2275.0, 2275.0, 2274.0, 2274.0, 2274.0, 2274.0, 2274.0, 2275.0, 2275.0, 2274.0, 2274.0, 2274.0, 2274.0, 2274.0, 2274.0, 2274.0, 2274.0, 2274.0, 2274.0, 2274.0, 2274.0, 2274.0, 2274.0, 2274.0, 2274.0, 2274.0, 2274.0, 2274.0, 2274.0, 2274.0, 2274.0, 2274.0, 2274.0, 2274.0, 2274.0, 2274.0, 2275.0, 2274.0, 2274.0, 2274.0, 2274.0, 2275.0, 2275.0, 2274.0, 2274.0, 2274.0, 2274.0, 2274.0, 2274.0, 2274.0, 2274.0, 2274.0, 2274.0, 2275.0, 2274.0, 2274.0, 2274.0, 2275.0, 2274.0, 2274.0, 2274.0, 2274.0, 2274.0, 2274.0, 2274.0, 2274.0, 2274.0, 2274.0, 2274.0, 2274.0, 2274.0, 2274.0, 2274.0, 2274.0, 2274.0, 2274.0, 2274.0, 2274.0, 2274.0, 2274.0, 2274.0, 2274.0, 2274.0, 2274.0, 2274.0, 2274.0, 2273.0, 2274.0]
    },
    "slices": {}
  }
}