{
  "AcquisitionMatrixPE": 80,
  "AcquisitionNumber": 1,
  "AcquisitionTime": "10:13:28.470000",
  "BandwidthPerPixelPhaseEncode": 25,
  "BaseResolution": 80,
  "BodyPartExamined": "BRAIN",
  "CoilCombinationMethod": "Sum of Squares",
  "ConsistencyInfo": "N4_VE11E_LATEST_20181129",
  "ConversionSoftware": "dcm2niix",
  "ConversionSoftwareVersion": "v1.0.20220720",
  "DerivedVendorReportedEchoSpacing": 0.0005,
  "DeviceSerialNumber": "66112",
  "DwellTime": 2.7e-06,
  "EchoTime": 0.03,
  "EchoTrainLength": 80,
  "EffectiveEchoSpacing": 0.0005,
  "FlipAngle": 10,
  "HeudiconvVersion": "0.13.1",
  "ImageOrientationPatientDICOM": [0.999959, 0.00804746, 0.00408272, -0.00890108, 0.954009, 0.299645],
  "ImageOrientationText": "Tra>Cor(17.4)>Sag(0.1)",
  "ImageType": [
    "ORIGINAL",
    "PRIMARY",
    "M",
    "ND",
    "NORM",
    "MOSAIC"
],
  "ImagingFrequency": 123.261,
  "InPlanePhaseEncodingDirectionDICOM": "COL",
  "InstitutionAddress": "Maynard 3,Hanover,NH,US,03755",
  "InstitutionName": "Dartmouth College - PBS",
  "InstitutionalDepartmentName": "Department",
  "MRAcquisitionType": "2D",
  "MagneticFieldStrength": 3,
  "Manufacturer": "Siemens",
  "ManufacturersModelName": "Prisma",
  "MatrixCoilMode": "SENSE",
  "Modality": "MR",
  "NonlinearGradientCorrection": false,
  "PartialFourier": 1,
  "PatientPosition": "HFS",
  "PercentPhaseFOV": 100,
  "PercentSampling": 100,
  "PhaseEncodingDirection": "j-",
  "PhaseEncodingSteps": 80,
  "PhaseResolution": 1,
  "PixelBandwidth": 2315,
  "ProcedureStepDescription": "dbic^QA",
  "ProtocolName": "func-bold_fa-10",
  "PulseSequenceDetails": "%SiemensSeq%\\ep2d_bold",
  "ReceiveCoilActiveElements": "HEA;HEP",
  "ReceiveCoilName": "Head_32",
  "ReconMatrixPE": 80,
  "RepetitionTime": 2,
  "SAR": 0.00986633,
  "ScanOptions": "FS",
  "ScanningSequence": "EP",
  "SequenceName": "*epfid2d1_80",
  "SequenceVariant": "SK",
  "SeriesDescription": "func-bold_fa-10",
  "SeriesNumber": 8,
  "ShimSetting": [4247, -7732, -7484, -34, -187, -71, -20, 78],
  "SliceThickness": 3.5,
  "SliceTiming": [0.99, 0, 1.055, 0.065, 1.12, 0.1325, 1.1875, 0.1975, 1.2525, 0.2625, 1.32, 0.33, 1.385, 0.395, 1.45, 0.4625, 1.5175, 0.5275, 1.5825, 0.5925, 1.65, 0.66, 1.715, 0.725, 1.78, 0.79, 1.8475, 0.8575, 1.9125, 0.9225],
  "SoftwareVersions": "syngo MR E11",
  "SpacingBetweenSlices": 3.99,
  "StationName": "AWP66112",
  "TotalReadoutTime": 0.0395,
  "TxRefAmp": 220.618,
  "dcmmeta_affine": [
    [-2.9998779296875, -0.02670324221253395, 0.005919415503740311, 121.84285736083984],
    [-0.02414238266646862, 2.862027406692505, 1.1956816911697388, -123.66893768310547],
    [0.01224814634770155, -0.8989363312721252, 3.806627035140991, -20.645599365234375],
    [0.0, 0.0, 0.0, 1.0]
],
  "dcmmeta_reorient_transform": [
    [0.0, -1.0, 0.0, 79.0],
    [1.0, 0.0, 0.0, 0.0],
    [0.0, 0.0, 1.0, 0.0],
    [0.0, 0.0, 0.0, 1.0]
],
  "dcmmeta_shape": [80, 80, 30, 200],
  "dcmmeta_slice_dim": 2,
  "dcmmeta_version": 0.6,
  "global": {
    "const": {
      "AccessionNumber": "qa",
      "AcquisitionMatrix": [80, 0, 0, 80],
      "AngioFlag": "N",
      "BitsAllocated": 16,
      "BitsStored": 12,
      "BodyPartExamined": "BRAIN",
      "Columns": 480,
      "EchoNumbers": 1,
      "EchoTime": 30.0,
      "EchoTrainLength": 80,
      "FlipAngle": 10.0,
      "HighBit": 11,
      "ImageOrientationPatient": [0.99995928407506, 0.00804746083635, 0.0040827155414, -0.0089010804761, 0.95400910564671, 0.29964545234246],
      "ImagePositionPatient": [-714.36822660285, -679.66516390296, -273.89847231315],
      "ImageType": [
        "ORIGINAL",
        "PRIMARY",
        "M",
        "ND",
        "NORM",
        "MOSAIC"
],
      "ImagedNucleus": "1H",
      "ImagingFrequency": 123.26126,
      "InPlanePhaseEncodingDirection": "COL",
      "MRAcquisitionType": "2D",
      "MagneticFieldStrength": 3.0,
      "Manufacturer": "SIEMENS",
      "ManufacturerModelName": "Prisma",
      "Modality": "MR",
      "NumberOfAverages": 1.0,
      "NumberOfPhaseEncodingSteps": 80,
      "PercentPhaseFieldOfView": 100.0,
      "PercentSampling": 100.0,
      "PerformedProcedureStepStartTime": "094143.184000",
      "PhotometricInterpretation": "MONOCHROME2",
      "PixelBandwidth": 2315.0,
      "PixelRepresentation": 0,
      "PixelSpacing": [3.0, 3.0],
      "ProtocolName": "func-bold_fa-10",
      "RepetitionTime": 2000.0,
      "Rows": 480,
      "SAR": 0.00986632603465,
      "SamplesPerPixel": 1,
      "ScanOptions": "FS",
      "ScanningSequence": "EP",
      "SequenceName": "*epfid2d1_80",
      "SequenceVariant": "SK",
      "SeriesDescription": "func-bold_fa-10",
      "SeriesNumber": 8,
      "SeriesTime": "101424.805000",
      "SliceLocation": -56.575824263991,
      "SliceThickness": 3.5,
      "SmallestImagePixelValue": 0,
      "SoftwareVersions": "syngo MR E11",
      "SpacingBetweenSlices": 3.9899999241898,
      "SpecificCharacterSet": "ISO_IR 100",
      "StudyID": "36",
      "StudyTime": "094143.121000",
      "TransmitCoilName": "Body",
      "VariableFlipAngleFlag": "N",
      "WindowCenterWidthExplanation": "Algo1"
    },
    "slices": {}
  },
  "time": {
    "samples": {
      "AcquisitionNumber": [1, 2, 3, 4, 5, 6, 7, 8, 9, 10, 11, 12, 13, 14, 15, 16, 17, 18, 19, 20, 21, 22, 23, 24, 25, 26, 27, 28, 29, 30, 31, 32, 33, 34, 35, 36, 37, 38, 39, 40, 41, 42, 43, 44, 45, 46, 47, 48, 49, 50, 51, 52, 53, 54, 55, 56, 57, 58, 59, 60, 61, 62, 63, 64, 65, 66, 67, 68, 69, 70, 71, 72, 73, 74, 75, 76, 77, 78, 79, 80, 81, 82, 83, 84, 85, 86, 87, 88, 89, 90, 91, 92, 93, 94, 95, 96, 97, 98, 99, 100, 101, 102, 103, 104, 105, 106, 107, 108, 109, 110, 111, 112, 113, 114, 115, 116, 117, 118, 119, 120, 121, 122, 123, 124, 125, 126, 127, 128, 129, 130, 131, 132, 133, 134, 135, 136, 137, 138, 139, 140, 141, 142, 143, 144, 145, 146, 147, 148, 149, 150, 151, 152, 153, 154, 155, 156, 157, 158, 159, 160, 161, 162, 163, 164, 165, 166, 167, 168, 169, 170, 171, 172, 173, 174, 175, 176, 177, 178, 179, 180, 181, 182, 183, 184, 185, 186, 187, 188, 189, 190, 191, 192, 193, 194, 195, 196, 197, 198, 199, 200],
      "AcquisitionTime": ["101328.470000", "101330.470000", "101332.470000", "101334.470000", "101336.470000", "101338.470000", "101340.470000", "101342.470000", "101344.470000", "101346.470000", "101348.470000", "101350.470000", "101352.470000", "101354.470000", "101356.470000", "101358.470000", "101400.470000", "101402.470000", "101404.470000", "101406.470000", "101408.470000", "101410.470000", "101412.470000", "101414.470000", "101416.470000", "101418.470000", "101420.470000", "101422.470000", "101424.470000", "101426.470000", "101428.470000", "101430.470000", "101432.470000", "101434.470000", "101436.470000", "101438.470000", "101440.470000", "101442.470000", "101444.470000", "101446.470000", "101448.470000", "101450.470000", "101452.470000", "101454.470000", "101456.470000", "101458.470000", "101500.470000", "101502.470000", "101504.470000", "101506.470000", "101508.470000", "101510.470000", "101512.470000", "101514.470000", "101516.470000", "101518.470000", "101520.470000", "101522.470000", "101524.470000", "101526.470000", "101528.470000", "101530.470000", "101532.470000", "101534.470000", "101536.470000", "101538.470000", "101540.470000", "101542.470000", "101544.470000", "101546.470000", "101548.470000", "101550.470000", "101552.470000", "101554.470000", "101556.470000", "101558.470000", "101600.470000", "101602.470000", "101604.470000", "101606.470000", "101608.470000", "101610.470000", "101612.470000", "101614.470000", "101616.470000", "101618.470000", "101620.470000", "101622.470000", "101624.470000", "101626.470000", "101628.470000", "101630.470000", "101632.470000", "101634.470000", "101636.470000", "101638.470000", "101640.470000", "101642.470000", "101644.470000", "101646.470000", "101648.470000", "101650.470000", "101652.470000", "101654.470000", "101656.470000", "101658.470000", "101700.470000", "101702.470000", "101704.470000", "101706.470000", "101708.470000", "101710.470000", "101712.470000", "101714.470000", "101716.470000", "101718.470000", "101720.470000", "101722.470000", "101724.470000", "101726.470000", "101728.470000", "101730.470000", "101732.470000", "101734.470000", "101736.470000", "101738.470000", "101740.470000", "101742.470000", "101744.470000", "101746.470000", "101748.470000", "101750.470000", "101752.470000", "101754.470000", "101756.470000", "101758.470000", "101800.470000", "101802.470000", "101804.470000", "101806.470000", "101808.470000", "101810.470000", "101812.470000", "101814.470000", "101816.470000", "101818.470000", "101820.470000", "101822.470000", "101824.470000", "101826.470000", "101828.470000", "101830.470000", "101832.470000", "101834.470000", "101836.470000", "101838.470000", "101840.470000", "101842.470000", "101844.470000", "101846.470000", "101848.470000", "101850.470000", "101852.470000", "101854.470000", "101856.470000", "101858.470000", "101900.470000", "101902.470000", "101904.470000", "101906.470000", "101908.470000", "101910.470000", "101912.470000", "101914.470000", "101916.470000", "101918.470000", "101920.470000", "101922.470000", "101924.470000", "101926.470000", "101928.470000", "101930.470000", "101932.470000", "101934.470000", "101936.470000", "101938.470000", "101940.470000", "101942.470000", "101944.470000", "101946.470000", "101948.470000", "101950.470000", "101952.470000", "101954.470000", "101956.470000", "101958.470000", "102000.470000", "102002.470000", "102004.470000", "102006.470000"],
      "ContentTime": ["101424.808000", "101424.811000", "101424.813000", "101424.815000", "101424.818000", "101424.820000", "101424.822000", "101424.824000", "101424.827000", "101424.829000", "101424.831000", "101424.833000", "101424.843000", "101424.845000", "101424.847000", "101424.850000", "101424.852000", "101424.854000", "101424.856000", "101424.859000", "101424.861000", "101424.863000", "101424.878000", "101424.880000", "101424.882000", "101424.885000", "101424.887000", "101424.889000", "101504.803000", "101504.806000", "101504.808000", "101504.810000", "101504.813000", "101504.815000", "101504.817000", "101504.819000", "101504.822000", "101504.824000", "101504.826000", "101504.828000", "101504.831000", "101504.833000", "101504.835000", "101504.843000", "101504.846000", "101504.848000", "101504.850000", "101504.853000", "101524.803000", "101524.806000", "101524.808000", "101524.810000", "101524.813000", "101524.815000", "101524.817000", "101524.819000", "101524.822000", "101524.824000", "101604.804000", "101604.807000", "101604.809000", "101604.811000", "101604.814000", "101604.816000", "101604.818000", "101604.820000", "101604.823000", "101604.825000", "101604.827000", "101604.830000", "101604.832000", "101604.834000", "101604.836000", "101604.839000", "101604.841000", "101604.843000", "101604.846000", "101604.848000", "101644.803000", "101644.825000", "101644.827000", "101644.829000", "101644.831000", "101644.834000", "101644.836000", "101644.838000", "101644.841000", "101644.843000", "101644.845000", "101644.847000", "101644.850000", "101644.852000", "101644.854000", "101644.857000", "101644.859000", "101644.861000", "101644.863000", "101644.866000", "101724.803000", "101724.806000", "101724.808000", "101724.810000", "101724.812000", "101724.815000", "101724.817000", "101724.819000", "101724.822000", "101724.824000", "101724.826000", "101724.828000", "101724.831000", "101724.833000", "101724.835000", "101724.837000", "101724.840000", "101724.842000", "101724.845000", "101724.847000", "101804.803000", "101804.806000", "101804.808000", "101804.810000", "101804.813000", "101804.815000", "101804.817000", "101804.820000", "101804.822000", "101804.824000", "101804.826000", "101804.829000", "101804.831000", "101804.833000", "101804.835000", "101804.838000", "101804.840000", "101804.842000", "101804.845000", "101804.847000", "101844.804000", "101844.821000", "101844.823000", "101844.825000", "101844.828000", "101844.830000", "101844.832000", "101844.835000", "101844.837000", "101844.839000", "101844.841000", "101844.844000", "101844.846000", "101844.848000", "101844.851000", "101844.853000", "101844.855000", "101844.858000", "101844.860000", "101844.862000", "101924.803000", "101924.833000", "101924.835000", "101924.837000", "101924.839000", "101924.842000", "101924.844000", "101924.846000", "101924.849000", "101924.851000", "101924.853000", "101924.855000", "101924.858000", "101924.860000", "101924.862000", "101924.865000", "101924.867000", "101924.869000", "101924.871000", "101924.874000", "102004.803000", "102004.825000", "102004.828000", "102004.830000", "102004.832000", "102004.834000", "102004.837000", "102004.839000", "102004.841000", "102004.844000", "102004.846000", "102004.848000", "102004.850000", "102004.853000", "102004.855000", "102004.857000", "102004.859000", "102004.862000", "102004.864000", "102004.866000", "102008.258000", "102008.260000"],
      "InstanceCreationTime": ["101424.808000", "101424.811000", "101424.813000", "101424.815000", "101424.818000", "101424.820000", "101424.822000", "101424.824000", "101424.827000", "101424.829000", "101424.831000", "101424.833000", "101424.843000", "101424.845000", "101424.847000", "101424.850000", "101424.852000", "101424.854000", "101424.856000", "101424.859000", "101424.861000", "101424.863000", "101424.878000", "101424.880000", "101424.882000", "101424.885000", "101424.887000", "101424.889000", "101504.803000", "101504.806000", "101504.808000", "101504.810000", "101504.813000", "101504.815000", "101504.817000", "101504.819000", "101504.822000", "101504.824000", "101504.826000", "101504.828000", "101504.831000", "101504.833000", "101504.835000", "101504.843000", "101504.846000", "101504.848000", "101504.850000", "101504.853000", "101524.803000", "101524.806000", "101524.808000", "101524.810000", "101524.813000", "101524.815000", "101524.817000", "101524.819000", "101524.822000", "101524.824000", "101604.804000", "101604.807000", "101604.809000", "101604.811000", "101604.814000", "101604.816000", "101604.818000", "101604.820000", "101604.823000", "101604.825000", "101604.827000", "101604.830000", "101604.832000", "101604.834000", "101604.836000", "101604.839000", "101604.841000", "101604.843000", "101604.846000", "101604.848000", "101644.803000", "101644.825000", "101644.827000", "101644.829000", "101644.831000", "101644.834000", "101644.836000", "101644.838000", "101644.841000", "101644.843000", "101644.845000", "101644.847000", "101644.850000", "101644.852000", "101644.854000", "101644.857000", "101644.859000", "101644.861000", "101644.863000", "101644.866000", "101724.803000", "101724.806000", "101724.808000", "101724.810000", "101724.812000", "101724.815000", "101724.817000", "101724.819000", "101724.822000", "101724.824000", "101724.826000", "101724.828000", "101724.831000", "101724.833000", "101724.835000", "101724.837000", "101724.840000", "101724.842000", "101724.845000", "101724.847000", "101804.803000", "101804.806000", "101804.808000", "101804.810000", "101804.813000", "101804.815000", "101804.817000", "101804.820000", "101804.822000", "101804.824000", "101804.826000", "101804.829000", "101804.831000", "101804.833000", "101804.835000", "101804.838000", "101804.840000", "101804.842000", "101804.845000", "101804.847000", "101844.804000", "101844.821000", "101844.823000", "101844.825000", "101844.828000", "101844.830000", "101844.832000", "101844.835000", "101844.837000", "101844.839000", "101844.841000", "101844.844000", "101844.846000", "101844.848000", "101844.851000", "101844.853000", "101844.855000", "101844.858000", "101844.860000", "101844.862000", "101924.803000", "101924.833000", "101924.835000", "101924.837000", "101924.839000", "101924.842000", "101924.844000", "101924.846000", "101924.849000", "101924.851000", "101924.853000", "101924.855000", "101924.858000", "101924.860000", "101924.862000", "101924.865000", "101924.867000", "101924.869000", "101924.871000", "101924.874000", "102004.803000", "102004.825000", "102004.828000", "102004.830000", "102004.832000", "102004.834000", "102004.837000", "102004.839000", "102004.841000", "102004.844000", "102004.846000", "102004.848000", "102004.850000", "102004.853000", "102004.855000", "102004.857000", "102004.859000", "102004.862000", "102004.864000", "102004.866000", "102008.258000", "102008.260000"],
      "InstanceNumber": [1, 2, 3, 4, 5, 6, 7, 8, 9, 10, 11, 12, 13, 14, 15, 16, 17, 18, 19, 20, 21, 22, 23, 24, 25, 26, 27, 28, 29, 30, 31, 32, 33, 34, 35, 36, 37, 38, 39, 40, 41, 42, 43, 44, 45, 46, 47, 48, 49, 50, 51, 52, 53, 54, 55, 56, 57, 58, 59, 60, 61, 62, 63, 64, 65, 66, 67, 68, 69, 70, 71, 72, 73, 74, 75, 76, 77, 78, 79, 80, 81, 82, 83, 84, 85, 86, 87, 88, 89, 90, 91, 92, 93, 94, 95, 96, 97, 98, 99, 100, 101, 102, 103, 104, 105, 106, 107, 108, 109, 110, 111, 112, 113, 114, 115, 116, 117, 118, 119, 120, 121, 122, 123, 124, 125, 126, 127, 128, 129, 130, 131, 132, 133, 134, 135, 136, 137, 138, 139, 140, 141, 142, 143, 144, 145, 146, 147, 148, 149, 150, 151, 152, 153, 154, 155, 156, 157, 158, 159, 160, 161, 162, 163, 164, 165, 166, 167, 168, 169, 170, 171, 172, 173, 174, 175, 176, 177, 178, 179, 180, 181, 182, 183, 184, 185, 186, 187, 188, 189, 190, 191, 192, 193, 194, 195, 196, 197, 198, 199, 200],
      "LargestImagePixelValue": [359, 358, 358, 360, 361, 357, 359, 360, 356, 359, 359, 359, 358, 358, 357, 361, 357, 362, 360, 361, 357, 359, 361, 359, 359, 357, 357, 359, 357, 357, 360, 359, 357, 359, 359, 360, 359, 358, 358, 357, 363, 357, 358, 357, 359, 358, 357, 363, 361, 357, 358, 359, 358, 358, 359, 358, 358, 357, 360, 359, 358, 357, 361, 358, 358, 358, 358, 360, 361, 356, 357, 357, 359, 357, 361, 359, 358, 357, 357, 358, 358, 358, 362, 356, 357, 358, 357, 359, 356, 359, 356, 359, 356, 360, 359, 355, 356, 359, 359, 356, 356, 356, 359, 362, 356, 360, 360, 357, 362, 358, 357, 361, 358, 355, 357, 360, 359, 357, 357, 357, 359, 357, 359, 359, 358, 360, 357, 358, 357, 360, 356, 360, 357, 357, 358, 357, 357, 358, 359, 358, 359, 359, 358, 356, 358, 358, 356, 356, 357, 356, 358, 358, 356, 358, 356, 357, 356, 358, 357, 359, 359, 356, 355, 357, 358, 359, 357, 355, 355, 355, 358, 357, 356, 357, 360, 357, 357, 358, 357, 359, 357, 358, 360, 356, 359, 357, 357, 359, 360, 358, 359, 357, 358, 361, 356, 357, 356, 357, 359, 357],
      "WindowCenter": [295.0, 295.0, 295.0, 295.0, 295.0, 295.0, 295.0, 295.0, 295.0, 295.0, 295.0, 295.0, 295.0, 295.0, 295.0, 295.0, 295.0, 295.0, 295.0, 295.0, 295.0, 295.0, 295.0, 295.0, 295.0, 295.0, 295.0, 295.0, 295.0, 295.0, 295.0, 295.0, 295.0, 295.0, 295.0, 295.0, 295.0, 295.0, 295.0, 295.0, 295.0, 295.0, 295.0, 295.0, 295.0, 295.0, 295.0, 295.0, 295.0, 295.0, 295.0, 295.0, 295.0, 295.0, 295.0, 295.0, 295.0, 295.0, 295.0, 295.0, 295.0, 295.0, 295.0, 295.0, 295.0, 295.0, 295.0, 295.0, 295.0, 295.0, 295.0, 295.0, 295.0, 295.0, 295.0, 295.0, 295.0, 295.0, 295.0, 295.0, 295.0, 295.0, 295.0, 295.0, 295.0, 295.0, 295.0, 295.0, 295.0, 295.0, 295.0, 295.0, 295.0, 295.0, 295.0, 295.0, 295.0, 295.0, 295.0, 295.0, 295.0, 295.0, 295.0, 295.0, 295.0, 295.0, 295.0, 295.0, 295.0, 295.0, 294.0, 295.0, 295.0, 294.0, 295.0, 294.0, 294.0, 295.0, 295.0, 294.0, 294.0, 294.0, 294.0, 294.0, 294.0, 295.0, 294.0, 294.0, 295.0, 294.0, 295.0, 295.0, 295.0, 295.0, 295.0, 294.0, 295.0, 295.0, 295.0, 295.0, 295.0, 295.0, 294.0, 295.0, 294.0, 294.0, 295.0, 294.0, 294.0, 295.0, 295.0, 295.0, 295.0, 295.0, 294.0, 294.0, 295.0, 295.0, 295.0, 294.0, 294.0, 294.0, 294.0, 294.0, 294.0, 294.0, 294.0, 294.0, 294.0, 294.0, 294.0, 294.0, 294.0, 294.0, 294.0, 294.0, 294.0, 294.0, 294.0, 294.0, 294.0, 294.0, 294.0, 294.0, 294.0, 294.0, 294.0, 294.0, 294.0, 294.0, 294.0, 294.0, 294.0, 294.0, 294.0, 294.0, 294.0, 294.0, 294.0, 294.0],
      "WindowWidth": [642.0, 641.0, 641.0, 641.0, 641.0, 641.0, 641.0, 641.0, 641.0, 641.0, 641.0, 641.0, 641.0, 641.0, 641.0, 642.0, 641.0, 641.0, 641.0, 641.0, 641.0, 641.0, 641.0, 641.0, 641.0, 641.0, 641.0, 641.0, 641.0, 641.0, 641.0, 641.0, 641.0, 641.0, 641.0, 641.0, 641.0, 641.0, 641.0, 641.0, 641.0, 641.0, 641.0, 641.0, 641.0, 641.0, 641.0, 641.0, 641.0, 641.0, 641.0, 641.0, 641.0, 641.0, 641.0, 641.0, 641.0, 641.0, 641.0, 641.0, 641.0, 641.0, 641.0, 641.0, 641.0, 641.0, 641.0, 641.0, 641.0, 641.0, 641.0, 641.0, 641.0, 641.0, 641.0, 641.0, 641.0, 641.0, 641.0, 641.0, 641.0, 641.0, 641.0, 641.0, 641.0, 641.0, 641.0, 641.0, 641.0, 641.0, 641.0, 641.0, 641.0, 641.0, 641.0, 641.0, 641.0, 641.0, 641.0, 641.0, 641.0, 641.0, 640.0, 641.0, 641.0, 641.0, 641.0, 641.0, 641.0, 641.0, 640.0, 641.0, 641.0, 640.0, 641.0, 640.0, 640.0, 641.0, 641.0, 640.0, 640.0, 640.0, 640.0, 640.0, 640.0, 641.0, 640.0, 640.0, 640.0, 640.0, 640.0, 640.0, 641.0, 641.0, 640.0, 640.0, 641.0, 641.0, 641.0, 641.0, 641.0, 641.0, 640.0, 641.0, 640.0, 640.0, 641.0, 640.0, 640.0, 641.0, 641.0, 641.0, 641.0, 641.0, 639.0, 639.0, 641.0, 640.0, 640.0, 640.0, 640.0, 640.0, 640.0, 640.0, 640.0, 640.0, 640.0, 639.0, 640.0, 640.0, 639.0, 639.0, 640.0, 640.0, 640.0, 639.0, 639.0, 640.0, 640.0, 640.0, 640.0, 639.0, 640.0, 639.0, 640.0, 640.0, 640.0, 640.0, 640.0, 640.0, 639.0, 640.0, 639.0, 640.0, 639.0, 640.0, 640.0, 639.0, 640.0, 640.0]
    },
    "slices": {}
  }
}