{
  "AcquisitionMatrixPE": 122,
  "AcquisitionNumber": 1,
  "AcquisitionTime": "10:44:20.475000",
  "BandwidthPerPixelPhaseEncode": 27.785,
  "BaseResolution": 122,
  "BodyPartExamined": "BRAIN",
  "CoilCombinationMethod": "Adaptive Combine",
  "ConsistencyInfo": "N4_VE11C_LATEST_20160120",
  "ConversionSoftware": "dcm2niix",
  "ConversionSoftwareVersion": "v1.0.20220720",
  "DerivedVendorReportedEchoSpacing": 0.000590011,
  "DeviceSerialNumber": "66112",
  "DiffusionScheme": "Monopolar",
  "DwellTime": 2e-06,
  "EchoTime": 0.068,
  "EchoTrainLength": 61,
  "EffectiveEchoSpacing": 0.000295005,
  "FlipAngle": 90,
  "HeudiconvVersion": "0.13.1",
  "ImageOrientationPatientDICOM": [0.98487, 0.173009, 0.00998424, -0.167639, 0.936536, 0.307893],
  "ImageOrientationText": "Tra>Cor(17.8)>Sag(-2.5)",
  "ImageType": [
    "ORIGINAL",
    "PRIMARY",
    "DIFFUSION",
    "NONE",
    "ND",
    "NORM"
],
  "ImagingFrequency": 123.252,
  "InPlanePhaseEncodingDirectionDICOM": "COL",
  "InstitutionAddress": "Maynard 3,Hanover,NH,US,03755",
  "InstitutionName": "Dartmouth College - PBS",
  "InstitutionalDepartmentName": "Department",
  "MRAcquisitionType": "2D",
  "MagneticFieldStrength": 3,
  "Manufacturer": "Siemens",
  "ManufacturersModelName": "Prisma",
  "Modality": "MR",
  "MultibandAccelerationFactor": 4,
  "NonlinearGradientCorrection": false,
  "ParallelReductionFactorInPlane": 2,
  "PartialFourier": 1,
  "PatientPosition": "HFS",
  "PercentPhaseFOV": 100,
  "PercentSampling": 100,
  "PhaseEncodingDirection": "j-",
  "PhaseEncodingSteps": 122,
  "PhaseResolution": 1,
  "PixelBandwidth": 2050,
  "ProcedureStepDescription": "dbic^QA",
  "ProtocolName": "dwi_acq-DTI-30-p2-s4",
  "PulseSequenceDetails": "%SiemensSeq%\\ep2d_diff",
  "ReceiveCoilActiveElements": "HEA;HEP",
  "ReceiveCoilName": "Head_32",
  "ReconMatrixPE": 122,
  "RefLinesPE": 38,
  "RepetitionTime": 3.6,
  "SAR": 0.159885,
  "ScanOptions": "FS",
  "ScanningSequence": "EP",
  "SequenceName": "*ep_b0",
  "SequenceVariant": "SK\\SP",
  "SeriesDescription": "dwi_acq-DTI-30-p2-s4",
  "SeriesNumber": 13,
  "ShimSetting": [4143, -7697, -7520, 253, -74, -30, 9, 46],
  "SliceThickness": 2,
  "SliceTiming": [2.58594, 0, 1.78906, 0.19531, 1.98438, 0.39062, 2.1875, 0.59375, 2.38281, 0.99219, 2.78125, 1.19531, 2.98438, 1.39062, 3.17969, 1.58594, 3.38281, 0.79688, 2.58594, 0, 1.78906, 0.19531, 1.98438, 0.39062, 2.1875, 0.59375, 2.38281, 0.99219, 2.78125, 1.19531, 2.98438, 1.39062, 3.17969, 1.58594, 3.38281, 0.79688, 2.58594, 0, 1.78906, 0.19531, 1.98438, 0.39062, 2.1875, 0.59375, 2.38281, 0.99219, 2.78125, 1.19531, 2.98438, 1.39062, 3.17969, 1.58594, 3.38281, 0.79688, 2.58594, 0, 1.78906, 0.19531, 1.98438, 0.39062, 2.1875, 0.59375, 2.38281, 0.99219, 2.78125, 1.19531, 2.98438, 1.39062, 3.17969, 1.58594, 3.38281, 0.79688],
  "SoftwareVersions": "syngo MR E11",
  "SpacingBetweenSlices": 2,
  "SpoilingState": true,
  "StationName": "AWP66112",
  "TotalReadoutTime": 0.0356956,
  "TxRefAmp": 222.075,
  "dcmmeta_affine": [
    [-1.9374486207962036, -0.3297821879386902, -0.08783513307571411, 144.75823974609375],
    [-0.3403449058532715, 1.8423651456832886, 0.6098155975341797, -108.52152252197266],
    [0.019641129299998283, -0.6056912541389465, 1.902740478515625, -23.279014587402344],
    [0.0, 0.0, 0.0, 1.0]
],
  "dcmmeta_reorient_transform": [
    [0.0, -1.0, 0.0, 121.0],
    [1.0, 0.0, 0.0, 0.0],
    [0.0, 0.0, -1.0, 71.0],
    [0.0, 0.0, 0.0, 1.0]
],
  "dcmmeta_shape": [122, 122, 72, 31],
  "dcmmeta_slice_dim": 2,
  "dcmmeta_version": 0.6,
  "global": {
    "const": {
      "AccessionNumber": "qa",
      "AcquisitionMatrix": [122, 0, 0, 122],
      "AngioFlag": "N",
      "BitsAllocated": 16,
      "BitsStored": 12,
      "BodyPartExamined": "BRAIN",
      "Columns": 122,
      "EchoNumbers": 1,
      "EchoTime": 68.0,
      "EchoTrainLength": 61,
      "FlipAngle": 90.0,
      "HighBit": 11,
      "ImageOrientationPatient": [0.98486969732876, 0.17300865359135, 0.0099842408857, -0.1676392765124, 0.93653561219301, 0.30789303347865],
      "ImageType": [
        "ORIGINAL",
        "PRIMARY",
        "DIFFUSION",
        "NONE",
        "ND",
        "NORM"
],
      "ImagedNucleus": "1H",
      "ImagingFrequency": 123.252364,
      "InPlanePhaseEncodingDirection": "COL",
      "MRAcquisitionType": "2D",
      "MagneticFieldStrength": 3.0,
      "Manufacturer": "SIEMENS",
      "ManufacturerModelName": "Prisma",
      "Modality": "MR",
      "NumberOfAverages": 1.0,
      "NumberOfPhaseEncodingSteps": 122,
      "PercentPhaseFieldOfView": 100.0,
      "PercentSampling": 100.0,
      "PerformedProcedureStepStartTime": "100300.055000",
      "PhotometricInterpretation": "MONOCHROME2",
      "PixelBandwidth": 2050.0,
      "PixelRepresentation": 0,
      "PixelSpacing": [1.9672131538391, 1.9672131538391],
      "ProtocolName": "dwi_acq-DTI-30-p2-s4",
      "RepetitionTime": 3600.0,
      "Rows": 122,
      "SAR": 0.1598854110432,
      "SamplesPerPixel": 1,
      "ScanOptions": "FS",
      "ScanningSequence": "EP",
      "SequenceVariant": [
        "SK",
        "SP"
],
      "SeriesDescription": "dwi_acq-DTI-30-p2-s4",
      "SeriesNumber": 13,
      "SeriesTime": "104427.753000",
      "SliceThickness": 2.0,
      "SmallestImagePixelValue": 0,
      "SoftwareVersions": "syngo MR E11",
      "SpacingBetweenSlices": 2.0,
      "SpecificCharacterSet": "ISO_IR 100",
      "StudyID": "29",
      "StudyTime": "100300.004000",
      "TransmitCoilName": "Body",
      "VariableFlipAngleFlag": "N",
      "WindowCenterWidthExplanation": "Algo1",
      "dBdt": 0.0},
    "slices": {
      "AcquisitionTime": ["104420.475000", "104417.887500", "104419.677500", "104418.087500", "104419.877500", "104418.285000", "104420.075000", "104418.485000", "104420.275000", "104418.882500", "104420.672500", "104419.082500", "104420.872500", "104419.280000", "104421.070000", "104419.480000", "104421.270000", "104418.685000", "104420.475000", "104417.887500", "104419.677500", "104418.087500", "104419.877500", "104418.285000", "104420.075000", "104418.485000", "104420.275000", "104418.882500", "104420.672500", "104419.082500", "104420.872500", "104419.280000", "104421.070000", "104419.480000", "104421.270000", "104418.685000", "104420.475000", "104417.887500", "104419.677500", "104418.087500", "104419.877500", "104418.285000", "104420.075000", "104418.485000", "104420.275000", "104418.882500", "104420.672500", "104419.082500", "104420.872500", "104419.280000", "104421.070000", "104419.480000", "104421.270000", "104418.685000", "104420.475000", "104417.887500", "104419.677500", "104418.087500", "104419.877500", "104418.285000", "104420.075000", "104418.485000", "104420.275000", "104418.882500", "104420.672500", "104419.082500", "104420.872500", "104419.280000", "104421.070000", "104419.480000", "104421.270000", "104418.685000", "104424.075000", "104421.487500", "104423.277500", "104421.687500", "104423.477500", "104421.885000", "104423.675000", "104422.085000", "104423.875000", "104422.482500", "104424.272500", "104422.682500", "104424.472500", "104422.880000", "104424.670000", "104423.080000", "104424.870000", "104422.285000", "104424.075000", "104421.487500", "104423.277500", "104421.687500", "104423.477500", "104421.885000", "104423.675000", "104422.085000", "104423.875000", "104422.482500", "104424.272500", "104422.682500", "104424.472500", "104422.880000", "104424.670000", "104423.080000", "104424.870000", "104422.285000", "104424.075000", "104421.487500", "104423.277500", "104421.687500", "104423.477500", "104421.885000", "104423.675000", "104422.085000", "104423.875000", "104422.482500", "104424.272500", "104422.682500", "104424.472500", "104422.880000", "104424.670000", "104423.080000", "104424.870000", "104422.285000", "104424.075000", "104421.487500", "104423.277500", "104421.687500", "104423.477500", "104421.885000", "104423.675000", "104422.085000", "104423.875000", "104422.482500", "104424.272500", "104422.682500", "104424.472500", "104422.880000", "104424.670000", "104423.080000", "104424.870000", "104422.285000", "104427.675000", "104425.087500", "104426.877500", "104425.287500", "104427.077500", "104425.485000", "104427.275000", "104425.685000", "104427.475000", "104426.082500", "104427.872500", "104426.282500", "104428.072500", "104426.480000", "104428.270000", "104426.680000", "104428.470000", "104425.885000", "104427.675000", "104425.087500", "104426.877500", "104425.287500", "104427.077500", "104425.485000", "104427.275000", "104425.685000", "104427.475000", "104426.082500", "104427.872500", "104426.282500", "104428.072500", "104426.480000", "104428.270000", "104426.680000", "104428.470000", "104425.885000", "104427.675000", "104425.087500", "104426.877500", "104425.287500", "104427.077500", "104425.485000", "104427.275000", "104425.685000", "104427.475000", "104426.082500", "104427.872500", "104426.282500", "104428.072500", "104426.480000", "104428.270000", "104426.680000", "104428.470000", "104425.885000", "104427.675000", "104425.087500", "104426.877500", "104425.287500", "104427.077500", "104425.485000", "104427.275000", "104425.685000", "104427.475000", "104426.082500", "104427.872500", "104426.282500", "104428.072500", "104426.480000", "104428.270000", "104426.680000", "104428.470000", "104425.885000", "104431.275000", "104428.687500", "104430.477500", "104428.887500", "104430.677500", "104429.085000", "104430.875000", "104429.285000", "104431.075000", "104429.682500", "104431.472500", "104429.882500", "104431.672500", "104430.080000", "104431.870000", "104430.280000", "104432.070000", "104429.485000", "104431.275000", "104428.687500", "104430.477500", "104428.887500", "104430.677500", "104429.085000", "104430.875000", "104429.285000", "104431.075000", "104429.682500", "104431.472500", "104429.882500", "104431.672500", "104430.080000", "104431.870000", "104430.280000", "104432.070000", "104429.485000", "104431.275000", "104428.687500", "104430.477500", "104428.887500", "104430.677500", "104429.085000", "104430.875000", "104429.285000", "104431.075000", "104429.682500", "104431.472500", "104429.882500", "104431.672500", "104430.080000", "104431.870000", "104430.280000", "104432.070000", "104429.485000", "104431.275000", "104428.687500", "104430.477500", "104428.887500", "104430.677500", "104429.085000", "104430.875000", "104429.285000", "104431.075000", "104429.682500", "104431.472500", "104429.882500", "104431.672500", "104430.080000", "104431.870000", "104430.280000", "104432.070000", "104429.485000", "104434.875000", "104432.287500", "104434.077500", "104432.487500", "104434.277500", "104432.685000", "104434.475000", "104432.885000", "104434.675000", "104433.282500", "104435.072500", "104433.482500", "104435.272500", "104433.680000", "104435.470000", "104433.880000", "104435.670000", "104433.085000", "104434.875000", "104432.287500", "104434.077500", "104432.487500", "104434.277500", "104432.685000", "104434.475000", "104432.885000", "104434.675000", "104433.282500", "104435.072500", "104433.482500", "104435.272500", "104433.680000", "104435.470000", "104433.880000", "104435.670000", "104433.085000", "104434.875000", "104432.287500", "104434.077500", "104432.487500", "104434.277500", "104432.685000", "104434.475000", "104432.885000", "104434.675000", "104433.282500", "104435.072500", "104433.482500", "104435.272500", "104433.680000", "104435.470000", "104433.880000", "104435.670000", "104433.085000", "104434.875000", "104432.287500", "104434.077500", "104432.487500", "104434.277500", "104432.685000", "104434.475000", "104432.885000", "104434.675000", "104433.282500", "104435.072500", "104433.482500", "104435.272500", "104433.680000", "104435.470000", "104433.880000", "104435.670000", "104433.085000", "104438.475000", "104435.887500", "104437.677500", "104436.087500", "104437.877500", "104436.285000", "104438.075000", "104436.485000", "104438.275000", "104436.882500", "104438.672500", "104437.082500", "104438.872500", "104437.280000", "104439.070000", "104437.480000", "104439.270000", "104436.685000", "104438.475000", "104435.887500", "104437.677500", "104436.087500", "104437.877500", "104436.285000", "104438.075000", "104436.485000", "104438.275000", "104436.882500", "104438.672500", "104437.082500", "104438.872500", "104437.280000", "104439.070000", "104437.480000", "104439.270000", "104436.685000", "104438.475000", "104435.887500", "104437.677500", "104436.087500", "104437.877500", "104436.285000", "104438.075000", "104436.485000", "104438.275000", "104436.882500", "104438.672500", "104437.082500", "104438.872500", "104437.280000", "104439.070000", "104437.480000", "104439.270000", "104436.685000", "104438.475000", "104435.887500", "104437.677500", "104436.087500", "104437.877500", "104436.285000", "104438.075000", "104436.485000", "104438.275000", "104436.882500", "104438.672500", "104437.082500", "104438.872500", "104437.280000", "104439.070000", "104437.480000", "104439.270000", "104436.685000", "104442.075000", "104439.487500", "104441.277500", "104439.687500", "104441.477500", "104439.885000", "104441.675000", "104440.085000", "104441.875000", "104440.482500", "104442.272500", "104440.682500", "104442.472500", "104440.880000", "104442.670000", "104441.080000", "104442.870000", "104440.285000", "104442.075000", "104439.487500", "104441.277500", "104439.687500", "104441.477500", "104439.885000", "104441.675000", "104440.085000", "104441.875000", "104440.482500", "104442.272500", "104440.682500", "104442.472500", "104440.880000", "104442.670000", "104441.080000", "104442.870000", "104440.285000", "104442.075000", "104439.487500", "104441.277500", "104439.687500", "104441.477500", "104439.885000", "104441.675000", "104440.085000", "104441.875000", "104440.482500", "104442.272500", "104440.682500", "104442.472500", "104440.880000", "104442.670000", "104441.080000", "104442.870000", "104440.285000", "104442.075000", "104439.487500", "104441.277500", "104439.687500", "104441.477500", "104439.885000", "104441.675000", "104440.085000", "104441.875000", "104440.482500", "104442.272500", "104440.682500", "104442.472500", "104440.880000", "104442.670000", "104441.080000", "104442.870000", "104440.285000", "104445.675000", "104443.087500", "104444.877500", "104443.287500", "104445.077500", "104443.485000", "104445.275000", "104443.685000", "104445.475000", "104444.082500", "104445.872500", "104444.282500", "104446.072500", "104444.480000", "104446.270000", "104444.680000", "104446.470000", "104443.885000", "104445.675000", "104443.087500", "104444.877500", "104443.287500", "104445.077500", "104443.485000", "104445.275000", "104443.685000", "104445.475000", "104444.082500", "104445.872500", "104444.282500", "104446.072500", "104444.480000", "104446.270000", "104444.680000", "104446.470000", "104443.885000", "104445.675000", "104443.087500", "104444.877500", "104443.287500", "104445.077500", "104443.485000", "104445.275000", "104443.685000", "104445.475000", "104444.082500", "104445.872500", "104444.282500", "104446.072500", "104444.480000", "104446.270000", "104444.680000", "104446.470000", "104443.885000", "104445.675000", "104443.087500", "104444.877500", "104443.287500", "104445.077500", "104443.485000", "104445.275000", "104443.685000", "104445.475000", "104444.082500", "104445.872500", "104444.282500", "104446.072500", "104444.480000", "104446.270000", "104444.680000", "104446.470000", "104443.885000", "104449.275000", "104446.687500", "104448.477500", "104446.887500", "104448.677500", "104447.085000", "104448.875000", "104447.285000", "104449.075000", "104447.682500", "104449.472500", "104447.882500", "104449.672500", "104448.080000", "104449.870000", "104448.280000", "104450.070000", "104447.485000", "104449.275000", "104446.687500", "104448.477500", "104446.887500", "104448.677500", "104447.085000", "104448.875000", "104447.285000", "104449.075000", "104447.682500", "104449.472500", "104447.882500", "104449.672500", "104448.080000", "104449.870000", "104448.280000", "104450.070000", "104447.485000", "104449.275000", "104446.687500", "104448.477500", "104446.887500", "104448.677500", "104447.085000", "104448.875000", "104447.285000", "104449.075000", "104447.682500", "104449.472500", "104447.882500", "104449.672500", "104448.080000", "104449.870000", "104448.280000", "104450.070000", "104447.485000", "104449.275000", "104446.687500", "104448.477500", "104446.887500", "104448.677500", "104447.085000", "104448.875000", "104447.285000", "104449.075000", "104447.682500", "104449.472500", "104447.882500", "104449.672500", "104448.080000", "104449.870000", "104448.280000", "104450.070000", "104447.485000", "104452.875000", "104450.287500", "104452.077500", "104450.487500", "104452.277500", "104450.685000", "104452.475000", "104450.885000", "104452.675000", "104451.282500", "104453.072500", "104451.482500", "104453.272500", "104451.680000", "104453.470000", "104451.880000", "104453.670000", "104451.085000", "104452.875000", "104450.287500", "104452.077500", "104450.487500", "104452.277500", "104450.685000", "104452.475000", "104450.885000", "104452.675000", "104451.282500", "104453.072500", "104451.482500", "104453.272500", "104451.680000", "104453.470000", "104451.880000", "104453.670000", "104451.085000", "104452.875000", "104450.287500", "104452.077500", "104450.487500", "104452.277500", "104450.685000", "104452.475000", "104450.885000", "104452.675000", "104451.282500", "104453.072500", "104451.482500", "104453.272500", "104451.680000", "104453.470000", "104451.880000", "104453.670000", "104451.085000", "104452.875000", "104450.287500", "104452.077500", "104450.487500", "104452.277500", "104450.685000", "104452.475000", "104450.885000", "104452.675000", "104451.282500", "104453.072500", "104451.482500", "104453.272500", "104451.680000", "104453.470000", "104451.880000", "104453.670000", "104451.085000", "104456.475000", "104453.887500", "104455.677500", "104454.087500", "104455.877500", "104454.285000", "104456.075000", "104454.485000", "104456.275000", "104454.882500", "104456.672500", "104455.082500", "104456.872500", "104455.280000", "104457.070000", "104455.480000", "104457.270000", "104454.685000", "104456.475000", "104453.887500", "104455.677500", "104454.087500", "104455.877500", "104454.285000", "104456.075000", "104454.485000", "104456.275000", "104454.882500", "104456.672500", "104455.082500", "104456.872500", "104455.280000", "104457.070000", "104455.480000", "104457.270000", "104454.685000", "104456.475000", "104453.887500", "104455.677500", "104454.087500", "104455.877500", "104454.285000", "104456.075000", "104454.485000", "104456.275000", "104454.882500", "104456.672500", "104455.082500", "104456.872500", "104455.280000", "104457.070000", "104455.480000", "104457.270000", "104454.685000", "104456.475000", "104453.887500", "104455.677500", "104454.087500", "104455.877500", "104454.285000", "104456.075000", "104454.485000", "104456.275000", "104454.882500", "104456.672500", "104455.082500", "104456.872500", "104455.280000", "104457.070000", "104455.480000", "104457.270000", "104454.685000", "104500.075000", "104457.487500", "104459.277500", "104457.687500", "104459.477500", "104457.885000", "104459.675000", "104458.085000", "104459.875000", "104458.482500", "104500.272500", "104458.682500", "104500.472500", "104458.880000", "104500.670000", "104459.080000", "104500.870000", "104458.285000", "104500.075000", "104457.487500", "104459.277500", "104457.687500", "104459.477500", "104457.885000", "104459.675000", "104458.085000", "104459.875000", "104458.482500", "104500.272500", "104458.682500", "104500.472500", "104458.880000", "104500.670000", "104459.080000", "104500.870000", "104458.285000", "104500.075000", "104457.487500", "104459.277500", "104457.687500", "104459.477500", "104457.885000", "104459.675000", "104458.085000", "104459.875000", "104458.482500", "104500.272500", "104458.682500", "104500.472500", "104458.880000", "104500.670000", "104459.080000", "104500.870000", "104458.285000", "104500.075000", "104457.487500", "104459.277500", "104457.687500", "104459.477500", "104457.885000", "104459.675000", "104458.085000", "104459.875000", "104458.482500", "104500.272500", "104458.682500", "104500.472500", "104458.880000", "104500.670000", "104459.080000", "104500.870000", "104458.285000", "104503.675000", "104501.087500", "104502.877500", "104501.287500", "104503.077500", "104501.485000", "104503.275000", "104501.685000", "104503.475000", "104502.082500", "104503.872500", "104502.282500", "104504.072500", "104502.480000", "104504.270000", "104502.680000", "104504.470000", "104501.885000", "104503.675000", "104501.087500", "104502.877500", "104501.287500", "104503.077500", "104501.485000", "104503.275000", "104501.685000", "104503.475000", "104502.082500", "104503.872500", "104502.282500", "104504.072500", "104502.480000", "104504.270000", "104502.680000", "104504.470000", "104501.885000", "104503.675000", "104501.087500", "104502.877500", "104501.287500", "104503.077500", "104501.485000", "104503.275000", "104501.685000", "104503.475000", "104502.082500", "104503.872500", "104502.282500", "104504.072500", "104502.480000", "104504.270000", "104502.680000", "104504.470000", "104501.885000", "104503.675000", "104501.087500", "104502.877500", "104501.287500", "104503.077500", "104501.485000", "104503.275000", "104501.685000", "104503.475000", "104502.082500", "104503.872500", "104502.282500", "104504.072500", "104502.480000", "104504.270000", "104502.680000", "104504.470000", "104501.885000", "104507.275000", "104504.687500", "104506.477500", "104504.887500", "104506.677500", "104505.085000", "104506.875000", "104505.285000", "104507.075000", "104505.682500", "104507.472500", "104505.882500", "104507.672500", "104506.080000", "104507.870000", "104506.280000", "104508.070000", "104505.485000", "104507.275000", "104504.687500", "104506.477500", "104504.887500", "104506.677500", "104505.085000", "104506.875000", "104505.285000", "104507.075000", "104505.682500", "104507.472500", "104505.882500", "104507.672500", "104506.080000", "104507.870000", "104506.280000", "104508.070000", "104505.485000", "104507.275000", "104504.687500", "104506.477500", "104504.887500", "104506.677500", "104505.085000", "104506.875000", "104505.285000", "104507.075000", "104505.682500", "104507.472500", "104505.882500", "104507.672500", "104506.080000", "104507.870000", "104506.280000", "104508.070000", "104505.485000", "104507.275000", "104504.687500", "104506.477500", "104504.887500", "104506.677500", "104505.085000", "104506.875000", "104505.285000", "104507.075000", "104505.682500", "104507.472500", "104505.882500", "104507.672500", "104506.080000", "104507.870000", "104506.280000", "104508.070000", "104505.485000", "104510.875000", "104508.287500", "104510.077500", "104508.487500", "104510.277500", "104508.685000", "104510.475000", "104508.885000", "104510.675000", "104509.282500", "104511.072500", "104509.482500", "104511.272500", "104509.680000", "104511.470000", "104509.880000", "104511.670000", "104509.085000", "104510.875000", "104508.287500", "104510.077500", "104508.487500", "104510.277500", "104508.685000", "104510.475000", "104508.885000", "104510.675000", "104509.282500", "104511.072500", "104509.482500", "104511.272500", "104509.680000", "104511.470000", "104509.880000", "104511.670000", "104509.085000", "104510.875000", "104508.287500", "104510.077500", "104508.487500", "104510.277500", "104508.685000", "104510.475000", "104508.885000", "104510.675000", "104509.282500", "104511.072500", "104509.482500", "104511.272500", "104509.680000", "104511.470000", "104509.880000", "104511.670000", "104509.085000", "104510.875000", "104508.287500", "104510.077500", "104508.487500", "104510.277500", "104508.685000", "104510.475000", "104508.885000", "104510.675000", "104509.282500", "104511.072500", "104509.482500", "104511.272500", "104509.680000", "104511.470000", "104509.880000", "104511.670000", "104509.085000", "104514.475000", "104511.887500", "104513.677500", "104512.087500", "104513.877500", "104512.285000", "104514.075000", "104512.485000", "104514.275000", "104512.882500", "104514.672500", "104513.082500", "104514.872500", "104513.280000", "104515.070000", "104513.480000", "104515.270000", "104512.685000", "104514.475000", "104511.887500", "104513.677500", "104512.087500", "104513.877500", "104512.285000", "104514.075000", "104512.485000", "104514.275000", "104512.882500", "104514.672500", "104513.082500", "104514.872500", "104513.280000", "104515.070000", "104513.480000", "104515.270000", "104512.685000", "104514.475000", "104511.887500", "104513.677500", "104512.087500", "104513.877500", "104512.285000", "104514.075000", "104512.485000", "104514.275000", "104512.882500", "104514.672500", "104513.082500", "104514.872500", "104513.280000", "104515.070000", "104513.480000", "104515.270000", "104512.685000", "104514.475000", "104511.887500", "104513.677500", "104512.087500", "104513.877500", "104512.285000", "104514.075000", "104512.485000", "104514.275000", "104512.882500", "104514.672500", "104513.082500", "104514.872500", "104513.280000", "104515.070000", "104513.480000", "104515.270000", "104512.685000", "104518.075000", "104515.487500", "104517.277500", "104515.687500", "104517.477500", "104515.885000", "104517.675000", "104516.085000", "104517.875000", "104516.482500", "104518.272500", "104516.682500", "104518.472500", "104516.880000", "104518.670000", "104517.080000", "104518.870000", "104516.285000", "104518.075000", "104515.487500", "104517.277500", "104515.687500", "104517.477500", "104515.885000", "104517.675000", "104516.085000", "104517.875000", "104516.482500", "104518.272500", "104516.682500", "104518.472500", "104516.880000", "104518.670000", "104517.080000", "104518.870000", "104516.285000", "104518.075000", "104515.487500", "104517.277500", "104515.687500", "104517.477500", "104515.885000", "104517.675000", "104516.085000", "104517.875000", "104516.482500", "104518.272500", "104516.682500", "104518.472500", "104516.880000", "104518.670000", "104517.080000", "104518.870000", "104516.285000", "104518.075000", "104515.487500", "104517.277500", "104515.687500", "104517.477500", "104515.885000", "104517.675000", "104516.085000", "104517.875000", "104516.482500", "104518.272500", "104516.682500", "104518.472500", "104516.880000", "104518.670000", "104517.080000", "104518.870000", "104516.285000", "104521.675000", "104519.087500", "104520.877500", "104519.287500", "104521.077500", "104519.485000", "104521.275000", "104519.685000", "104521.475000", "104520.082500", "104521.872500", "104520.282500", "104522.072500", "104520.480000", "104522.270000", "104520.680000", "104522.470000", "104519.885000", "104521.675000", "104519.087500", "104520.877500", "104519.287500", "104521.077500", "104519.485000", "104521.275000", "104519.685000", "104521.475000", "104520.082500", "104521.872500", "104520.282500", "104522.072500", "104520.480000", "104522.270000", "104520.680000", "104522.470000", "104519.885000", "104521.675000", "104519.087500", "104520.877500", "104519.287500", "104521.077500", "104519.485000", "104521.275000", "104519.685000", "104521.475000", "104520.082500", "104521.872500", "104520.282500", "104522.072500", "104520.480000", "104522.270000", "104520.680000", "104522.470000", "104519.885000", "104521.675000", "104519.087500", "104520.877500", "104519.287500", "104521.077500", "104519.485000", "104521.275000", "104519.685000", "104521.475000", "104520.082500", "104521.872500", "104520.282500", "104522.072500", "104520.480000", "104522.270000", "104520.680000", "104522.470000", "104519.885000", "104525.275000", "104522.687500", "104524.477500", "104522.887500", "104524.677500", "104523.085000", "104524.875000", "104523.285000", "104525.075000", "104523.682500", "104525.472500", "104523.882500", "104525.672500", "104524.080000", "104525.870000", "104524.280000", "104526.070000", "104523.485000", "104525.275000", "104522.687500", "104524.477500", "104522.887500", "104524.677500", "104523.085000", "104524.875000", "104523.285000", "104525.075000", "104523.682500", "104525.472500", "104523.882500", "104525.672500", "104524.080000", "104525.870000", "104524.280000", "104526.070000", "104523.485000", "104525.275000", "104522.687500", "104524.477500", "104522.887500", "104524.677500", "104523.085000", "104524.875000", "104523.285000", "104525.075000", "104523.682500", "104525.472500", "104523.882500", "104525.672500", "104524.080000", "104525.870000", "104524.280000", "104526.070000", "104523.485000", "104525.275000", "104522.687500", "104524.477500", "104522.887500", "104524.677500", "104523.085000", "104524.875000", "104523.285000", "104525.075000", "104523.682500", "104525.472500", "104523.882500", "104525.672500", "104524.080000", "104525.870000", "104524.280000", "104526.070000", "104523.485000", "104528.875000", "104526.287500", "104528.077500", "104526.487500", "104528.277500", "104526.685000", "104528.475000", "104526.885000", "104528.675000", "104527.282500", "104529.072500", "104527.482500", "104529.272500", "104527.680000", "104529.470000", "104527.880000", "104529.670000", "104527.085000", "104528.875000", "104526.287500", "104528.077500", "104526.487500", "104528.277500", "104526.685000", "104528.475000", "104526.885000", "104528.675000", "104527.282500", "104529.072500", "104527.482500", "104529.272500", "104527.680000", "104529.470000", "104527.880000", "104529.670000", "104527.085000", "104528.875000", "104526.287500", "104528.077500", "104526.487500", "104528.277500", "104526.685000", "104528.475000", "104526.885000", "104528.675000", "104527.282500", "104529.072500", "104527.482500", "104529.272500", "104527.680000", "104529.470000", "104527.880000", "104529.670000", "104527.085000", "104528.875000", "104526.287500", "104528.077500", "104526.487500", "104528.277500", "104526.685000", "104528.475000", "104526.885000", "104528.675000", "104527.282500", "104529.072500", "104