{
  "AcquisitionMatrixPE": 122,
  "AcquisitionNumber": 1,
  "AcquisitionTime": "10:39:59.087500",
  "BandwidthPerPixelPhaseEncode": 28.76,
  "BaseResolution": 122,
  "BodyPartExamined": "BRAIN",
  "CoilCombinationMethod": "Adaptive Combine",
  "ConsistencyInfo": "N4_VE11C_LATEST_20160120",
  "ConversionSoftware": "dcm2niix",
  "ConversionSoftwareVersion": "v1.0.20220720",
  "DerivedVendorReportedEchoSpacing": 0.000570008,
  "DeviceSerialNumber": "66112",
  "DiffusionScheme": "Monopolar",
  "DwellTime": 2e-06,
  "EchoTime": 0.075,
  "EchoTrainLength": 61,
  "EffectiveEchoSpacing": 0.000285004,
  "FlipAngle": 90,
  "HeudiconvVersion": "0.13.1",
  "ImageOrientationPatientDICOM": [0.98487, 0.173009, 0.00998424, -0.167639, 0.936536, 0.307893],
  "ImageOrientationText": "Tra>Cor(17.8)>Sag(-2.5)",
  "ImageType": [
    "ORIGINAL",
    "PRIMARY",
    "DIFFUSION",
    "NONE",
    "ND",
    "NORM"
],
  "ImagingFrequency": 123.252,
  "InPlanePhaseEncodingDirectionDICOM": "COL",
  "InstitutionAddress": "Maynard 3,Hanover,NH,US,03755",
  "InstitutionName": "Dartmouth College - PBS",
  "InstitutionalDepartmentName": "Department",
  "MRAcquisitionType": "2D",
  "MagneticFieldStrength": 3,
  "Manufacturer": "Siemens",
  "ManufacturersModelName": "Prisma",
  "MatrixCoilMode": "GRAPPA",
  "Modality": "MR",
  "NonlinearGradientCorrection": false,
  "ParallelReductionFactorInPlane": 2,
  "PartialFourier": 1,
  "PatientPosition": "HFS",
  "PercentPhaseFOV": 100,
  "PercentSampling": 100,
  "PhaseEncodingDirection": "j-",
  "PhaseEncodingSteps": 122,
  "PhaseResolution": 1,
  "PixelBandwidth": 2050,
  "ProcedureStepDescription": "dbic^QA",
  "ProtocolName": "dwi_acq-DTI-30-p2",
  "PulseSequenceDetails": "%SiemensSeq%\\ep2d_diff",
  "ReceiveCoilActiveElements": "HEA;HEP",
  "ReceiveCoilName": "Head_32",
  "ReconMatrixPE": 122,
  "RefLinesPE": 38,
  "RepetitionTime": 7.7,
  "SAR": 0.101709,
  "ScanOptions": "FS",
  "ScanningSequence": "EP",
  "SequenceName": "*ep_b0",
  "SequenceVariant": "SK\\SP",
  "SeriesDescription": "dwi_acq-DTI-30-p2",
  "SeriesNumber": 12,
  "ShimSetting": [4143, -7697, -7521, 255, -73, -30, 9, 46],
  "SliceThickness": 2,
  "SliceTiming": [3.83594, 0, 3.94531, 0.10156, 4.05469, 0.21875, 4.16406, 0.32812, 4.27344, 0.4375, 4.38281, 0.54688, 4.49219, 0.65625, 4.60156, 0.76562, 4.71875, 0.875, 4.82812, 0.98438, 4.92969, 1.09375, 5.03906, 1.20312, 5.15625, 1.3125, 5.26562, 1.42188, 5.375, 1.53125, 5.48438, 1.64062, 5.59375, 1.75, 5.70312, 1.85938, 5.8125, 1.96875, 5.92188, 2.07812, 6.03125, 2.1875, 6.14062, 2.29688, 6.25, 2.40625, 6.35938, 2.52344, 6.46875, 2.63281, 6.57812, 2.74219, 6.6875, 2.85156, 6.79688, 2.96094, 6.90625, 3.07031, 7.01562, 3.17969, 7.125, 3.28906, 7.23438, 3.39844, 7.34375, 3.50781, 7.46094, 3.61719, 7.57031, 3.72656],
  "SoftwareVersions": "syngo MR E11",
  "SpacingBetweenSlices": 2,
  "SpoilingState": true,
  "StationName": "AWP66112",
  "TotalReadoutTime": 0.0344855,
  "TxRefAmp": 222.075,
  "dcmmeta_affine": [
    [-1.9374486207962036, -0.3297821879386902, -0.08783507347106934, 144.67039489746094],
    [-0.3403449058532715, 1.8423651456832886, 0.6098175048828125, -107.91183471679688],
    [0.019641129299998283, -0.6056912541389465, 1.9027328491210938, -21.375747680664062],
    [0.0, 0.0, 0.0, 1.0]
],
  "dcmmeta_reorient_transform": [
    [0.0, -1.0, 0.0, 121.0],
    [1.0, 0.0, 0.0, 0.0],
    [0.0, 0.0, -1.0, 69.0],
    [0.0, 0.0, 0.0, 1.0]
],
  "dcmmeta_shape": [122, 122, 70, 31],
  "dcmmeta_slice_dim": 2,
  "dcmmeta_version": 0.6,
  "global": {
    "const": {
      "AccessionNumber": "qa",
      "AcquisitionMatrix": [122, 0, 0, 122],
      "AngioFlag": "N",
      "BitsAllocated": 16,
      "BitsStored": 12,
      "BodyPartExamined": "BRAIN",
      "Columns": 122,
      "EchoNumbers": 1,
      "EchoTime": 75.0,
      "EchoTrainLength": 61,
      "FlipAngle": 90.0,
      "HighBit": 11,
      "ImageOrientationPatient": [0.98486969732876, 0.17300865359135, 0.0099842408857, -0.1676392765124, 0.93653561219301, 0.30789303347865],
      "ImageType": [
        "ORIGINAL",
        "PRIMARY",
        "DIFFUSION",
        "NONE",
        "ND",
        "NORM"
],
      "ImagedNucleus": "1H",
      "ImagingFrequency": 123.252361,
      "InPlanePhaseEncodingDirection": "COL",
      "MRAcquisitionType": "2D",
      "MagneticFieldStrength": 3.0,
      "Manufacturer": "SIEMENS",
      "ManufacturerModelName": "Prisma",
      "Modality": "MR",
      "NumberOfAverages": 1.0,
      "NumberOfPhaseEncodingSteps": 122,
      "PercentPhaseFieldOfView": 100.0,
      "PercentSampling": 100.0,
      "PerformedProcedureStepStartTime": "100300.055000",
      "PhotometricInterpretation": "MONOCHROME2",
      "PixelBandwidth": 2050.0,
      "PixelRepresentation": 0,
      "PixelSpacing": [1.9672131538391, 1.9672131538391],
      "ProtocolName": "dwi_acq-DTI-30-p2",
      "RepetitionTime": 7700.0,
      "Rows": 122,
      "SAR": 0.10170869246395,
      "SamplesPerPixel": 1,
      "ScanOptions": "FS",
      "ScanningSequence": "EP",
      "SequenceVariant": [
        "SK",
        "SP"
],
      "SeriesDescription": "dwi_acq-DTI-30-p2",
      "SeriesNumber": 12,
      "SeriesTime": "104007.682000",
      "SliceThickness": 2.0,
      "SmallestImagePixelValue": 0,
      "SoftwareVersions": "syngo MR E11",
      "SpacingBetweenSlices": 2.0,
      "SpecificCharacterSet": "ISO_IR 100",
      "StudyID": "29",
      "StudyTime": "100300.004000",
      "TransmitCoilName": "Body",
      "VariableFlipAngleFlag": "N",
      "WindowCenterWidthExplanation": "Algo1",
      "dBdt": 0.0},
    "slices": {
      "AcquisitionTime": ["103959.087500", "103955.247500", "103959.195000", "103955.355000", "103959.305000", "103955.465000", "103959.415000", "103955.575000", "103959.525000", "103955.685000", "103959.635000", "103955.795000", "103959.745000", "103955.905000", "103959.855000", "103956.015000", "103959.965000", "103956.125000", "104000.075000", "103956.235000", "104000.182500", "103956.342500", "104000.292500", "103956.452500", "104000.402500", "103956.562500", "104000.512500", "103956.672500", "104000.622500", "103956.782500", "104000.732500", "103956.892500", "104000.842500", "103957.002500", "104000.952500", "103957.112500", "104001.060000", "103957.222500", "104001.170000", "103957.330000", "104001.280000", "103957.440000", "104001.390000", "103957.550000", "104001.500000", "103957.660000", "104001.610000", "103957.770000", "104001.720000", "103957.880000", "104001.830000", "103957.990000", "104001.940000", "103958.100000", "104002.047500", "103958.207500", "104002.157500", "103958.317500", "104002.267500", "103958.427500", "104002.377500", "103958.537500", "104002.487500", "103958.647500", "104002.597500", "103958.757500", "104002.707500", "103958.867500", "104002.817500", "103958.977500", "104006.787500", "104002.947500", "104006.895000", "104003.055000", "104007.005000", "104003.165000", "104007.115000", "104003.275000", "104007.225000", "104003.385000", "104007.335000", "104003.495000", "104007.445000", "104003.605000", "104007.555000", "104003.715000", "104007.665000", "104003.825000", "104007.775000", "104003.935000", "104007.882500", "104004.042500", "104007.992500", "104004.152500", "104008.102500", "104004.262500", "104008.212500", "104004.372500", "104008.322500", "104004.482500", "104008.432500", "104004.592500", "104008.542500", "104004.702500", "104008.652500", "104004.812500", "104008.760000", "104004.922500", "104008.870000", "104005.030000", "104008.980000", "104005.140000", "104009.090000", "104005.250000", "104009.200000", "104005.360000", "104009.310000", "104005.470000", "104009.420000", "104005.580000", "104009.530000", "104005.690000", "104009.640000", "104005.800000", "104009.747500", "104005.907500", "104009.857500", "104006.017500", "104009.967500", "104006.127500", "104010.077500", "104006.237500", "104010.187500", "104006.347500", "104010.297500", "104006.457500", "104010.407500", "104006.567500", "104010.517500", "104006.677500", "104014.487500", "104010.647500", "104014.595000", "104010.755000", "104014.705000", "104010.865000", "104014.815000", "104010.975000", "104014.925000", "104011.085000", "104015.035000", "104011.195000", "104015.145000", "104011.305000", "104015.255000", "104011.415000", "104015.365000", "104011.525000", "104015.475000", "104011.635000", "104015.582500", "104011.742500", "104015.692500", "104011.852500", "104015.802500", "104011.962500", "104015.912500", "104012.072500", "104016.022500", "104012.182500", "104016.132500", "104012.292500", "104016.242500", "104012.402500", "104016.352500", "104012.512500", "104016.460000", "104012.622500", "104016.570000", "104012.730000", "104016.680000", "104012.840000", "104016.790000", "104012.950000", "104016.900000", "104013.060000", "104017.010000", "104013.170000", "104017.120000", "104013.280000", "104017.230000", "104013.390000", "104017.340000", "104013.500000", "104017.447500", "104013.607500", "104017.557500", "104013.717500", "104017.667500", "104013.827500", "104017.777500", "104013.937500", "104017.887500", "104014.047500", "104017.997500", "104014.157500", "104018.107500", "104014.267500", "104018.217500", "104014.377500", "104022.187500", "104018.347500", "104022.295000", "104018.455000", "104022.405000", "104018.565000", "104022.515000", "104018.675000", "104022.625000", "104018.785000", "104022.735000", "104018.895000", "104022.845000", "104019.005000", "104022.955000", "104019.115000", "104023.065000", "104019.225000", "104023.175000", "104019.335000", "104023.282500", "104019.442500", "104023.392500", "104019.552500", "104023.502500", "104019.662500", "104023.612500", "104019.772500", "104023.722500", "104019.882500", "104023.832500", "104019.992500", "104023.942500", "104020.102500", "104024.052500", "104020.212500", "104024.160000", "104020.322500", "104024.270000", "104020.430000", "104024.380000", "104020.540000", "104024.490000", "104020.650000", "104024.600000", "104020.760000", "104024.710000", "104020.870000", "104024.820000", "104020.980000", "104024.930000", "104021.090000", "104025.040000", "104021.200000", "104025.147500", "104021.307500", "104025.257500", "104021.417500", "104025.367500", "104021.527500", "104025.477500", "104021.637500", "104025.587500", "104021.747500", "104025.697500", "104021.857500", "104025.807500", "104021.967500", "104025.917500", "104022.077500", "104029.887500", "104026.047500", "104029.995000", "104026.155000", "104030.105000", "104026.265000", "104030.215000", "104026.375000", "104030.325000", "104026.485000", "104030.435000", "104026.595000", "104030.545000", "104026.705000", "104030.655000", "104026.815000", "104030.765000", "104026.925000", "104030.875000", "104027.035000", "104030.982500", "104027.142500", "104031.092500", "104027.252500", "104031.202500", "104027.362500", "104031.312500", "104027.472500", "104031.422500", "104027.582500", "104031.532500", "104027.692500", "104031.642500", "104027.802500", "104031.752500", "104027.912500", "104031.860000", "104028.022500", "104031.970000", "104028.130000", "104032.080000", "104028.240000", "104032.190000", "104028.350000", "104032.300000", "104028.460000", "104032.410000", "104028.570000", "104032.520000", "104028.680000", "104032.630000", "104028.790000", "104032.740000", "104028.900000", "104032.847500", "104029.007500", "104032.957500", "104029.117500", "104033.067500", "104029.227500", "104033.177500", "104029.337500", "104033.287500", "104029.447500", "104033.397500", "104029.557500", "104033.507500", "104029.667500", "104033.617500", "104029.777500", "104037.587500", "104033.747500", "104037.695000", "104033.855000", "104037.805000", "104033.965000", "104037.915000", "104034.075000", "104038.025000", "104034.185000", "104038.135000", "104034.295000", "104038.245000", "104034.405000", "104038.355000", "104034.515000", "104038.465000", "104034.625000", "104038.575000", "104034.735000", "104038.682500", "104034.842500", "104038.792500", "104034.952500", "104038.902500", "104035.062500", "104039.012500", "104035.172500", "104039.122500", "104035.282500", "104039.232500", "104035.392500", "104039.342500", "104035.502500", "104039.452500", "104035.612500", "104039.560000", "104035.722500", "104039.670000", "104035.830000", "104039.780000", "104035.940000", "104039.890000", "104036.050000", "104040.000000", "104036.160000", "104040.110000", "104036.270000", "104040.220000", "104036.380000", "104040.330000", "104036.490000", "104040.440000", "104036.600000", "104040.547500", "104036.707500", "104040.657500", "104036.817500", "104040.767500", "104036.927500", "104040.877500", "104037.037500", "104040.987500", "104037.147500", "104041.097500", "104037.257500", "104041.207500", "104037.367500", "104041.317500", "104037.477500", "104045.287500", "104041.447500", "104045.395000", "104041.555000", "104045.505000", "104041.665000", "104045.615000", "104041.775000", "104045.725000", "104041.885000", "104045.835000", "104041.995000", "104045.945000", "104042.105000", "104046.055000", "104042.215000", "104046.165000", "104042.325000", "104046.275000", "104042.435000", "104046.382500", "104042.542500", "104046.492500", "104042.652500", "104046.602500", "104042.762500", "104046.712500", "104042.872500", "104046.822500", "104042.982500", "104046.932500", "104043.092500", "104047.042500", "104043.202500", "104047.152500", "104043.312500", "104047.260000", "104043.422500", "104047.370000", "104043.530000", "104047.480000", "104043.640000", "104047.590000", "104043.750000", "104047.700000", "104043.860000", "104047.810000", "104043.970000", "104047.920000", "104044.080000", "104048.030000", "104044.190000", "104048.140000", "104044.300000", "104048.247500", "104044.407500", "104048.357500", "104044.517500", "104048.467500", "104044.627500", "104048.577500", "104044.737500", "104048.687500", "104044.847500", "104048.797500", "104044.957500", "104048.907500", "104045.067500", "104049.017500", "104045.177500", "104052.987500", "104049.147500", "104053.095000", "104049.255000", "104053.205000", "104049.365000", "104053.315000", "104049.475000", "104053.425000", "104049.585000", "104053.535000", "104049.695000", "104053.645000", "104049.805000", "104053.755000", "104049.915000", "104053.865000", "104050.025000", "104053.975000", "104050.135000", "104054.082500", "104050.242500", "104054.192500", "104050.352500", "104054.302500", "104050.462500", "104054.412500", "104050.572500", "104054.522500", "104050.682500", "104054.632500", "104050.792500", "104054.742500", "104050.902500", "104054.852500", "104051.012500", "104054.960000", "104051.122500", "104055.070000", "104051.230000", "104055.180000", "104051.340000", "104055.290000", "104051.450000", "104055.400000", "104051.560000", "104055.510000", "104051.670000", "104055.620000", "104051.780000", "104055.730000", "104051.890000", "104055.840000", "104052.000000", "104055.947500", "104052.107500", "104056.057500", "104052.217500", "104056.167500", "104052.327500", "104056.277500", "104052.437500", "104056.387500", "104052.547500", "104056.497500", "104052.657500", "104056.607500", "104052.767500", "104056.717500", "104052.877500", "104100.687500", "104056.847500", "104100.795000", "104056.955000", "104100.905000", "104057.065000", "104101.015000", "104057.175000", "104101.125000", "104057.285000", "104101.235000", "104057.395000", "104101.345000", "104057.505000", "104101.455000", "104057.615000", "104101.565000", "104057.725000", "104101.675000", "104057.835000", "104101.782500", "104057.942500", "104101.892500", "104058.052500", "104102.002500", "104058.162500", "104102.112500", "104058.272500", "104102.222500", "104058.382500", "104102.332500", "104058.492500", "104102.442500", "104058.602500", "104102.552500", "104058.712500", "104102.660000", "104058.822500", "104102.770000", "104058.930000", "104102.880000", "104059.040000", "104102.990000", "104059.150000", "104103.100000", "104059.260000", "104103.210000", "104059.370000", "104103.320000", "104059.480000", "104103.430000", "104059.590000", "104103.540000", "104059.700000", "104103.647500", "104059.807500", "104103.757500", "104059.917500", "104103.867500", "104100.027500", "104103.977500", "104100.137500", "104104.087500", "104100.247500", "104104.197500", "104100.357500", "104104.307500", "104100.467500", "104104.417500", "104100.577500", "104108.387500", "104104.547500", "104108.495000", "104104.655000", "104108.605000", "104104.765000", "104108.715000", "104104.875000", "104108.825000", "104104.985000", "104108.935000", "104105.095000", "104109.045000", "104105.205000", "104109.155000", "104105.315000", "104109.265000", "104105.425000", "104109.375000", "104105.535000", "104109.482500", "104105.642500", "104109.592500", "104105.752500", "104109.702500", "104105.862500", "104109.812500", "104105.972500", "104109.922500", "104106.082500", "104110.032500", "104106.192500", "104110.142500", "104106.302500", "104110.252500", "104106.412500", "104110.360000", "104106.522500", "104110.470000", "104106.630000", "104110.580000", "104106.740000", "104110.690000", "104106.850000", "104110.800000", "104106.960000", "104110.910000", "104107.070000", "104111.020000", "104107.180000", "104111.130000", "104107.290000", "104111.240000", "104107.400000", "104111.347500", "104107.507500", "104111.457500", "104107.617500", "104111.567500", "104107.727500", "104111.677500", "104107.837500", "104111.787500", "104107.947500", "104111.897500", "104108.057500", "104112.007500", "104108.167500", "104112.117500", "104108.277500", "104116.087500", "104112.247500", "104116.195000", "104112.355000", "104116.305000", "104112.465000", "104116.415000", "104112.575000", "104116.525000", "104112.685000", "104116.635000", "104112.795000", "104116.745000", "104112.905000", "104116.855000", "104113.015000", "104116.965000", "104113.125000", "104117.075000", "104113.235000", "104117.182500", "104113.342500", "104117.292500", "104113.452500", "104117.402500", "104113.562500", "104117.512500", "104113.672500", "104117.622500", "104113.782500", "104117.732500", "104113.892500", "104117.842500", "104114.002500", "104117.952500", "104114.112500", "104118.060000", "104114.222500", "104118.170000", "104114.330000", "104118.280000", "104114.440000", "104118.390000", "104114.550000", "104118.500000", "104114.660000", "104118.610000", "104114.770000", "104118.720000", "104114.880000", "104118.830000", "104114.990000", "104118.940000", "104115.100000", "104119.047500", "104115.207500", "104119.157500", "104115.317500", "104119.267500", "104115.427500", "104119.377500", "104115.537500", "104119.487500", "104115.647500", "104119.597500", "104115.757500", "104119.707500", "104115.867500", "104119.817500", "104115.977500", "104123.787500", "104119.947500", "104123.895000", "104120.055000", "104124.005000", "104120.165000", "104124.115000", "104120.275000", "104124.225000", "104120.385000", "104124.335000", "104120.495000", "104124.445000", "104120.605000", "104124.555000", "104120.715000", "104124.665000", "104120.825000", "104124.775000", "104120.935000", "104124.882500", "104121.042500", "104124.992500", "104121.152500", "104125.102500", "104121.262500", "104125.212500", "104121.372500", "104125.322500", "104121.482500", "104125.432500", "104121.592500", "104125.542500", "104121.702500", "104125.652500", "104121.812500", "104125.760000", "104121.922500", "104125.870000", "104122.030000", "104125.980000", "104122.140000", "104126.090000", "104122.250000", "104126.200000", "104122.360000", "104126.310000", "104122.470000", "104126.420000", "104122.580000", "104126.530000", "104122.690000", "104126.640000", "104122.800000", "104126.747500", "104122.907500", "104126.857500", "104123.017500", "104126.967500", "104123.127500", "104127.077500", "104123.237500", "104127.187500", "104123.347500", "104127.297500", "104123.457500", "104127.407500", "104123.567500", "104127.517500", "104123.677500", "104131.487500", "104127.647500", "104131.595000", "104127.755000", "104131.705000", "104127.865000", "104131.815000", "104127.975000", "104131.925000", "104128.085000", "104132.035000", "104128.195000", "104132.145000", "104128.305000", "104132.255000", "104128.415000", "104132.365000", "104128.525000", "104132.475000", "104128.635000", "104132.582500", "104128.742500", "104132.692500", "104128.852500", "104132.802500", "104128.962500", "104132.912500", "104129.072500", "104133.022500", "104129.182500", "104133.132500", "104129.292500", "104133.242500", "104129.402500", "104133.352500", "104129.512500", "104133.460000", "104129.622500", "104133.570000", "104129.730000", "104133.680000", "104129.840000", "104133.790000", "104129.950000", "104133.900000", "104130.060000", "104134.010000", "104130.170000", "104134.120000", "104130.280000", "104134.230000", "104130.390000", "104134.340000", "104130.500000", "104134.447500", "104130.607500", "104134.557500", "104130.717500", "104134.667500", "104130.827500", "104134.777500", "104130.937500", "104134.887500", "104131.047500", "104134.997500", "104131.157500", "104135.107500", "104131.267500", "104135.217500", "104131.377500", "104139.187500", "104135.347500", "104139.295000", "104135.455000", "104139.405000", "104135.565000", "104139.515000", "104135.675000", "104139.625000", "104135.785000", "104139.735000", "104135.895000", "104139.845000", "104136.005000", "104139.955000", "104136.115000", "104140.065000", "104136.225000", "104140.175000", "104136.335000", "104140.282500", "104136.442500", "104140.392500", "104136.552500", "104140.502500", "104136.662500", "104140.612500", "104136.772500", "104140.722500", "104136.882500", "104140.832500", "104136.992500", "104140.942500", "104137.102500", "104141.052500", "104137.212500", "104141.160000", "104137.322500", "104141.270000", "104137.430000", "104141.380000", "104137.540000", "104141.490000", "104137.650000", "104141.600000", "104137.760000", "104141.710000", "104137.870000", "104141.820000", "104137.980000", "104141.930000", "104138.090000", "104142.040000", "104138.200000", "104142.147500", "104138.307500", "104142.257500", "104138.417500", "104142.367500", "104138.527500", "104142.477500", "104138.637500", "104142.587500", "104138.747500", "104142.697500", "104138.857500", "104142.807500", "104138.967500", "104142.917500", "104139.077500", "104146.887500", "104143.047500", "104146.995000", "104143.155000", "104147.105000", "104143.265000", "104147.215000", "104143.375000", "104147.325000", "104143.485000", "104147.435000", "104143.595000", "104147.545000", "104143.705000", "104147.655000", "104143.815000", "104147.765000", "104143.925000", "104147.875000", "104144.035000", "104147.982500", "104144.142500", "104148.092500", "104144.252500", "104148.202500", "104144.362500", "104148.312500", "104144.472500", "104148.422500", "104144.582500", "104148.532500", "104144.692500", "104148.642500", "104144.802500", "104148.752500", "104144.912500", "104148.860000", "104145.022500", "104148.970000", "104145.130000", "104149.080000", "104145.240000", "104149.190000", "104145.350000", "104149.300000", "104145.460000", "104149.410000", "104145.570000", "104149.520000", "104145.680000", "104149.630000", "104145.790000", "104149.740000", "104145.900000", "104149.847500", "104146.007500", "104149.957500", "104146.117500", "104150.067500", "104146.227500", "104150.177500", "104146.337500", "104150.287500", "104146.447500", "104150.397500", "104146.557500", "104150.507500", "104146.667500", "104150.617500", "104146.777500", "104154.587500", "104150.747500", "104154.695000", "104150.855000", "104154.805000", "104150.965000", "104154.915000", "104151.075000", "104155.025000", "104151.185000", "104155.135000", "104151.295000", "104155.245000", "104151.405000", "104155.355000", "104151.515000", "104155.465000", "104151.625000", "104155.575000", "104151.735000", "104155.682500", "104151.842500", "104155.792500", "104151.952500", "104155.902500", "104152.062500", "104156.012500", "104152.172500", "104156.122500", "104152.282500", "104156.232500", "104152.392500", "104156.342500", "104152.502500", "104156.452500", "104152.612500", "104156.560000", "104152.722500", "104156.670000", "104152.830000", "104156.780000", "104152.940000", "104156.890000", "104153.050000", "104157.000000", "104153.160000", "104157.110000", "104153.270000", "104157.220000", "104153.380000", "104157.330000", "104153.490000", "104157.440000", "104153.600000", "104157.547500", "104153.707500", "104157.657500", "104153.817500", "104157.767500", "104153.927500", "104157.877500", "104154.037500", "104157.987500", "104154.147500", "104158.097500", "104154.257500", "104158.207500", "104154.367500", "104158.317500", "104154.477500", "104202.287500", "104158.447500", "104202.395000", "104158.555000", "104202.505000", "104158.665000", "104202.615000", "104158.775000", "104202.725000", "104158.885000", "104202.835000", "104158.995000", "104202.945000", "104159.105000", "104203.055000", "104159.215000", "104203.165000", "104159.325000", "104203.275000", "104159.435000", "104203.382500", "104159.542500", "104203.492500", "104159.652500", "104203.602500", "104159.762500", "104203.712500", "104159.872500", "104203.822500", "104159.982500", "104203.932500", "104200.092500", "104204.042500", "104200.202500", "104204.152500", "104200.312500", "104204.260000", "104200.422500", "104204.370000", "104200.530000", "104204.480000", "104200.640000", "104204.590000", "104200.750000", "104204.700000", "104200.860000", "104204.810000", "104200.970000", "104204.920000", "104201.080000", "104205.030000", "104201.190000", "104205.140000", "104201.300000", "104205.247500", "104201.407500", "104205.357500", "104201.517500", "104205.467500", "104201.627500", "104205.577500", "104201.737500", "104205.687500", "104201.847500", "104205.797500", "104201.957500", "104205.907500", "104202.067500", "104206.017500", "104202.177500", "104209.987500", "104206.147500", "104210.095000", "104206.255000", "104210.205000", "104206.365000", "104210.315000", "104206.475000", "104210.425000", "104206.585000", "104210.535000", "104206.695000", "104210.645000", "104206.805000", "104210.755000", "104206.915000", "104210.865000", "104207.025000", "104210.975000", "104207.135000", "104211.082500", "104207.242500", "104211.192500", "104207.352500", "104211.302500", "104207.462500", "104211.412500", "104207.572500", "104211.522500", "104207.682500", "104211.632500", "104207.792500", "104211.742500", "104207.902500", "104211.852500", "104208.012500", "104211.960000", "104208.122500", "104212.070000", "104208.230000", "104212.180000", "104208.340000", "104212.290000", "104208.450000", "104212.400000", "104208.560000", "104212.510000", "104208.670000", "104212.620000", "104208.780000", "104212.730000", "104208.890000", "104212.840000", "104209.000000", "104212.947500", "104209.107500", "104213.057500", "104209.217500", "104213.167500", "104209.327500", "104213.277500", "104209.437500", "104213.387500", "104209.547500", "104213.497500", "104209.657500", "104213.607500", "104209.767500", "104213.717500", "104209.877500", "104217.687500", "104213.847500", "104217.795000", "104213.955000", "104217.905000", "104214.065000", "104218.015000", "104214.175000", "104218.125000", "104214.285000", "104218.235000", "104214.395000", "104218.345000", "104214.505000", "104218.455000", "104214.615000", "104218.565000", "104214.725000", "104218.675000", "104214.835000", "104218.782500", "104214.942500", "104218.892500", "104215.052500", "104219.002500", "104215.162500", "104219.112500", "104215.272500", "104219.222500", "104215.382500", "104219.332500", "104215.492500", "104219.442500", "104215.602500", "104219.552500", "104215.712500", "104219.660000", "104215.822500", "104219.770000", "104215.930000", "104219.880000", "104216.040000", "104219.990000", "104216.150000", "104220.100000", "104216.260000", "104220.210000", "104216.370000", "104220.320000", "104216.480000", "104220.430000", "104216.590000", "104220.540000", "104216.700000", "104220.647500", "104216.807500", "104220.757500", "104216.917500", "104220.867500", "104217.027500", "104220.977500", "104217.137500", "104221.087500", "104217.247500", "104221.197500", "104217.357500", "104221.307500", "104217.467500", "104221.417500", "104217.577500", "104225.387500", "104221.547500", "104225.495000", "104221.655000", "104225.605000", "104221.765000", "104225.715000", "104221.875000", "104225.825000", "104221.985000", "104225.935000", "104222.095000", "104226.045000", "104222.205000", "104226.155000", "104222.315000", "104226.265000", "104222.425000", "104226.375000", "104222.535000", "104226.482500", "104222.642500", "104226.592500", "104222.752500", "104226.702500", "104222.862500", "104226.812500", "104222.972500", "104226.922500", "104223.082500", "104227.032500", "104223.192500", "104227.142500", "104223.302500", "104227.252500", "104223.412500", "104227.360000", "104223.522500", "104227.470000", "104223.630000", "104227.580000", "104223.740000", "104227.690000", "104223.850000", "104227.800000", "104223.960000", "104227.910000", "104224.070000", "104228.020000", "104224.180000", "104228.130000", "104224.290000", "104228.240000", "104224.400000", "104228.347500", "104224.507500", "104228.457500", "104224.617500", "104228.567500", "104224.727500", "104228.677500", "104224.837500", "104228.787500", "104224.947500", "104228.897500", "104225.057500", "104229.007500", "104225.167500", "104229.117500", "104225.277500", "104233.087500", "104229.247500", "104233.195000", "104229.355000", "104233.305000", "104229.465000", "104233.415000", "104229.575000", "104233.525000", "104229.685000", "104233.635000", "104229.795000", "104233.745000", "104229.905000", "104233.855000", "104230.015000", "104233.965000", "104230.125000", "104234.075000", "104230.235000", "104234.182500", "104230.342500", "104234.292500", "104230.452500", "104234.402500", "104230.562500", "104234.512500", "104230.672500", "104234.622500", "104230.782500", "104234.732500", "104230.892500", "104234.842500", "104231.002500", "104234.952500", 