{
  "AcquisitionMatrixPE": 80,
  "AcquisitionNumber": 1,
  "AcquisitionTime": "09:53:17.492500",
  "BandwidthPerPixelPhaseEncode": 25,
  "BaseResolution": 80,
  "BodyPartExamined": "BRAIN",
  "CoilCombinationMethod": "Sum of Squares",
  "ConsistencyInfo": "N4_VE11C_LATEST_20160120",
  "ConversionSoftware": "dcm2niix",
  "ConversionSoftwareVersion": "v1.0.20220720",
  "DerivedVendorReportedEchoSpacing": 0.0005,
  "DeviceSerialNumber": "66112",
  "DwellTime": 2.7e-06,
  "EchoTime": 0.03,
  "EchoTrainLength": 80,
  "EffectiveEchoSpacing": 0.0005,
  "FlipAngle": 10,
  "HeudiconvVersion": "0.13.1",
  "ImageOrientationPatientDICOM": [0.988329, 0.151918, 0.0112977, -0.148412, 0.943486, 0.296325],
  "ImageOrientationText": "Tra>Cor(17.1)>Sag(-2.0)",
  "ImageType": [
    "ORIGINAL",
    "PRIMARY",
    "M",
    "ND",
    "NORM",
    "MOSAIC"
],
  "ImagingFrequency": 123.252,
  "InPlanePhaseEncodingDirectionDICOM": "COL",
  "InstitutionAddress": "Maynard 3,Hanover,NH,US,03755",
  "InstitutionName": "Dartmouth College - PBS",
  "InstitutionalDepartmentName": "Department",
  "MRAcquisitionType": "2D",
  "MagneticFieldStrength": 3,
  "Manufacturer": "Siemens",
  "ManufacturersModelName": "Prisma",
  "MatrixCoilMode": "SENSE",
  "Modality": "MR",
  "NonlinearGradientCorrection": false,
  "PartialFourier": 1,
  "PatientPosition": "HFS",
  "PercentPhaseFOV": 100,
  "PercentSampling": 100,
  "PhaseEncodingDirection": "j-",
  "PhaseEncodingSteps": 80,
  "PhaseResolution": 1,
  "PixelBandwidth": 2315,
  "ProcedureStepDescription": "dbic^QA",
  "ProtocolName": "func-bold_fa-10",
  "PulseSequenceDetails": "%SiemensSeq%\\ep2d_bold",
  "ReceiveCoilActiveElements": "HEA;HEP",
  "ReceiveCoilName": "Head_32",
  "ReconMatrixPE": 80,
  "RepetitionTime": 2,
  "SAR": 0.0116808,
  "ScanOptions": "FS",
  "ScanningSequence": "EP",
  "SequenceName": "*epfid2d1_80",
  "SequenceVariant": "SK",
  "SeriesDescription": "func-bold_fa-10",
  "SeriesNumber": 10,
  "ShimSetting": [4150, -7696, -7510, 314, -18, -80, -99, 111],
  "SliceThickness": 3.5,
  "SliceTiming": [0.9875, 0, 1.055, 0.065, 1.12, 0.13, 1.1875, 0.1975, 1.2525, 0.2625, 1.3175, 0.33, 1.385, 0.395, 1.45, 0.46, 1.5175, 0.5275, 1.5825, 0.5925, 1.6475, 0.6575, 1.715, 0.725, 1.78, 0.79, 1.8475, 0.8575, 1.9125, 0.9225],
  "SoftwareVersions": "syngo MR E11",
  "SpacingBetweenSlices": 3.99,
  "StationName": "AWP66112",
  "TotalReadoutTime": 0.0395,
  "TxRefAmp": 232.788,
  "dcmmeta_affine": [
    [-2.9649856090545654, -0.4452366232872009, -0.13708741962909698, 141.5630645751953],
    [-0.45575323700904846, 2.8304576873779297, 1.1752254962921143, -108.31352996826172],
    [0.033893048763275146, -0.888973593711853, 3.8105318546295166, -28.317136764526367],
    [0.0, 0.0, 0.0, 1.0]
],
  "dcmmeta_reorient_transform": [
    [0.0, -1.0, 0.0, 79.0],
    [1.0, 0.0, 0.0, 0.0],
    [0.0, 0.0, 1.0, 0.0],
    [0.0, 0.0, 0.0, 1.0]
],
  "dcmmeta_shape": [80, 80, 30, 200],
  "dcmmeta_slice_dim": 2,
  "dcmmeta_version": 0.6,
  "global": {
    "const": {
      "AccessionNumber": "qa",
      "AcquisitionMatrix": [80, 0, 0, 80],
      "AngioFlag": "N",
      "BitsAllocated": 16,
      "BitsStored": 12,
      "BodyPartExamined": "BRAIN",
      "Columns": 480,
      "EchoNumbers": 1,
      "EchoTime": 30.0,
      "EchoTrainLength": 80,
      "FlipAngle": 10.0,
      "HighBit": 11,
      "ImageOrientationPatient": [0.98832856950021, 0.15191774438727, 0.01129768338887, -0.1484122086317, 0.94348586876153, 0.29632453792484],
      "ImagePositionPatient": [-610.33918940555, -772.53478634262, -283.11938514909],
      "ImageType": [
        "ORIGINAL",
        "PRIMARY",
        "M",
        "ND",
        "NORM",
        "MOSAIC"
],
      "ImagedNucleus": "1H",
      "ImagingFrequency": 123.252459,
      "InPlanePhaseEncodingDirection": "COL",
      "MRAcquisitionType": "2D",
      "MagneticFieldStrength": 3.0,
      "Manufacturer": "SIEMENS",
      "ManufacturerModelName": "Prisma",
      "Modality": "MR",
      "NumberOfAverages": 1.0,
      "NumberOfPhaseEncodingSteps": 80,
      "PercentPhaseFieldOfView": 100.0,
      "PercentSampling": 100.0,
      "PerformedProcedureStepStartTime": "093108.589000",
      "PhotometricInterpretation": "MONOCHROME2",
      "PixelBandwidth": 2315.0,
      "PixelRepresentation": 0,
      "PixelSpacing": [3.0, 3.0],
      "ProtocolName": "func-bold_fa-10",
      "RepetitionTime": 2000.0,
      "Rows": 480,
      "SAR": 0.01168079703413,
      "SamplesPerPixel": 1,
      "ScanOptions": "FS",
      "ScanningSequence": "EP",
      "SequenceName": "*epfid2d1_80",
      "SequenceVariant": "SK",
      "SeriesDescription": "func-bold_fa-10",
      "SeriesNumber": 10,
      "SeriesTime": "095415.176000",
      "SliceLocation": -63.810196946465,
      "SliceThickness": 3.5,
      "SmallestImagePixelValue": 0,
      "SoftwareVersions": "syngo MR E11",
      "SpacingBetweenSlices": 3.9900000120954,
      "SpecificCharacterSet": "ISO_IR 100",
      "StudyID": "51",
      "StudyTime": "093108.462000",
      "TransmitCoilName": "Body",
      "VariableFlipAngleFlag": "N",
      "WindowCenterWidthExplanation": "Algo1",
      "dBdt": 0.0},
    "slices": {}
  },
  "time": {
    "samples": {
      "AcquisitionNumber": [1, 2, 3, 4, 5, 6, 7, 8, 9, 10, 11, 12, 13, 14, 15, 16, 17, 18, 19, 20, 21, 22, 23, 24, 25, 26, 27, 28, 29, 30, 31, 32, 33, 34, 35, 36, 37, 38, 39, 40, 41, 42, 43, 44, 45, 46, 47, 48, 49, 50, 51, 52, 53, 54, 55, 56, 57, 58, 59, 60, 61, 62, 63, 64, 65, 66, 67, 68, 69, 70, 71, 72, 73, 74, 75, 76, 77, 78, 79, 80, 81, 82, 83, 84, 85, 86, 87, 88, 89, 90, 91, 92, 93, 94, 95, 96, 97, 98, 99, 100, 101, 102, 103, 104, 105, 106, 107, 108, 109, 110, 111, 112, 113, 114, 115, 116, 117, 118, 119, 120, 121, 122, 123, 124, 125, 126, 127, 128, 129, 130, 131, 132, 133, 134, 135, 136, 137, 138, 139, 140, 141, 142, 143, 144, 145, 146, 147, 148, 149, 150, 151, 152, 153, 154, 155, 156, 157, 158, 159, 160, 161, 162, 163, 164, 165, 166, 167, 168, 169, 170, 171, 172, 173, 174, 175, 176, 177, 178, 179, 180, 181, 182, 183, 184, 185, 186, 187, 188, 189, 190, 191, 192, 193, 194, 195, 196, 197, 198, 199, 200],
      "AcquisitionTime": ["095317.492500", "095319.492500", "095321.492500", "095323.492500", "095325.492500", "095327.492500", "095329.492500", "095331.492500", "095333.492500", "095335.492500", "095337.492500", "095339.492500", "095341.492500", "095343.492500", "095345.492500", "095347.492500", "095349.492500", "095351.492500", "095353.492500", "095355.492500", "095357.492500", "095359.492500", "095401.492500", "095403.492500", "095405.492500", "095407.492500", "095409.492500", "095411.492500", "095413.492500", "095415.492500", "095417.492500", "095419.492500", "095421.492500", "095423.492500", "095425.492500", "095427.492500", "095429.492500", "095431.492500", "095433.492500", "095435.492500", "095437.492500", "095439.492500", "095441.492500", "095443.492500", "095445.492500", "095447.492500", "095449.492500", "095451.492500", "095453.492500", "095455.492500", "095457.492500", "095459.492500", "095501.492500", "095503.492500", "095505.492500", "095507.492500", "095509.492500", "095511.492500", "095513.492500", "095515.492500", "095517.492500", "095519.492500", "095521.492500", "095523.492500", "095525.492500", "095527.492500", "095529.492500", "095531.492500", "095533.492500", "095535.492500", "095537.492500", "095539.492500", "095541.492500", "095543.492500", "095545.492500", "095547.492500", "095549.492500", "095551.492500", "095553.492500", "095555.492500", "095557.492500", "095559.492500", "095601.492500", "095603.492500", "095605.492500", "095607.492500", "095609.492500", "095611.492500", "095613.492500", "095615.492500", "095617.492500", "095619.492500", "095621.492500", "095623.492500", "095625.492500", "095627.492500", "095629.492500", "095631.492500", "095633.492500", "095635.492500", "095637.492500", "095639.492500", "095641.492500", "095643.492500", "095645.492500", "095647.492500", "095649.492500", "095651.492500", "095653.492500", "095655.492500", "095657.492500", "095659.492500", "095701.492500", "095703.492500", "095705.492500", "095707.492500", "095709.492500", "095711.492500", "095713.492500", "095715.492500", "095717.492500", "095719.492500", "095721.492500", "095723.492500", "095725.492500", "095727.492500", "095729.492500", "095731.492500", "095733.492500", "095735.492500", "095737.492500", "095739.492500", "095741.492500", "095743.492500", "095745.492500", "095747.492500", "095749.492500", "095751.492500", "095753.492500", "095755.492500", "095757.492500", "095759.492500", "095801.492500", "095803.492500", "095805.492500", "095807.492500", "095809.492500", "095811.492500", "095813.492500", "095815.492500", "095817.492500", "095819.492500", "095821.492500", "095823.492500", "095825.492500", "095827.492500", "095829.492500", "095831.492500", "095833.492500", "095835.492500", "095837.492500", "095839.492500", "095841.492500", "095843.492500", "095845.492500", "095847.492500", "095849.492500", "095851.492500", "095853.492500", "095855.492500", "095857.492500", "095859.492500", "095901.492500", "095903.492500", "095905.492500", "095907.492500", "095909.492500", "095911.492500", "095913.492500", "095915.492500", "095917.492500", "095919.492500", "095921.492500", "095923.492500", "095925.492500", "095927.492500", "095929.492500", "095931.492500", "095933.492500", "095935.492500", "095937.492500", "095939.492500", "095941.492500", "095943.492500", "095945.492500", "095947.492500", "095949.492500", "095951.492500", "095953.492500", "095955.492500"],
      "ContentTime": ["095415.179000", "095415.182000", "095415.185000", "095415.187000", "095415.190000", "095415.192000", "095415.195000", "095415.197000", "095415.200000", "095415.202000", "095415.205000", "095415.207000", "095415.209000", "095415.212000", "095415.214000", "095415.217000", "095415.219000", "095415.222000", "095415.224000", "095415.227000", "095415.229000", "095415.231000", "095415.234000", "095415.236000", "095415.239000", "095415.241000", "095415.249000", "095415.252000", "095415.263000", "095455.175000", "095455.178000", "095455.180000", "095455.183000", "095455.185000", "095455.188000", "095455.190000", "095455.193000", "095455.195000", "095455.198000", "095455.200000", "095455.203000", "095455.205000", "095455.208000", "095455.210000", "095455.213000", "095455.215000", "095455.217000", "095455.220000", "095455.222000", "095535.174000", "095535.177000", "095535.180000", "095535.183000", "095535.185000", "095535.188000", "095535.190000", "095535.193000", "095535.195000", "095535.198000", "095535.200000", "095535.202000", "095535.205000", "095535.207000", "095535.210000", "095535.212000", "095535.215000", "095535.217000", "095535.220000", "095535.222000", "095615.174000", "095615.177000", "095615.180000", "095615.182000", "095615.185000", "095615.187000", "095615.194000", "095615.197000", "095615.199000", "095615.202000", "095615.204000", "095615.207000", "095615.209000", "095615.212000", "095615.214000", "095615.217000", "095615.219000", "095615.222000", "095615.224000", "095615.227000", "095655.175000", "095655.178000", "095655.180000", "095655.183000", "095655.185000", "095655.188000", "095655.190000", "095655.193000", "095655.195000", "095655.198000", "095655.200000", "095655.202000", "095655.205000", "095655.207000", "095655.210000", "095655.212000", "095655.215000", "095655.217000", "095655.220000", "095655.222000", "095735.174000", "095735.177000", "095735.180000", "095735.182000", "095735.185000", "095735.187000", "095735.189000", "095735.192000", "095735.194000", "095735.197000", "095735.199000", "095735.202000", "095735.204000", "095735.207000", "095735.209000", "095735.212000", "095735.214000", "095735.217000", "095735.219000", "095735.222000", "095815.174000", "095815.177000", "095815.179000", "095815.182000", "095815.184000", "095815.187000", "095815.189000", "095815.192000", "095815.194000", "095815.197000", "095815.199000", "095815.202000", "095815.204000", "095815.207000", "095815.209000", "095815.212000", "095815.214000", "095815.217000", "095815.219000", "095815.222000", "095855.174000", "095855.177000", "095855.180000", "095855.182000", "095855.184000", "095855.187000", "095855.189000", "095855.192000", "095855.194000", "095855.197000", "095855.199000", "095855.202000", "095855.204000", "095855.207000", "095855.209000", "095855.212000", "095855.214000", "095855.217000", "095855.219000", "095855.222000", "095935.175000", "095935.178000", "095935.181000", "095935.183000", "095935.186000", "095935.188000", "095935.191000", "095935.193000", "095935.195000", "095935.198000", "095935.200000", "095935.203000", "095935.205000", "095935.208000", "095935.210000", "095935.213000", "095935.223000", "095935.226000", "095935.228000", "095935.231000", "095957.105000", "095957.108000", "095957.111000", "095957.113000", "095957.116000", "095957.118000", "095957.121000", "095957.123000", "095957.126000", "095957.128000", "095957.131000"],
      "InstanceCreationTime": ["095415.179000", "095415.182000", "095415.185000", "095415.187000", "095415.190000", "095415.192000", "095415.195000", "095415.197000", "095415.200000", "095415.202000", "095415.205000", "095415.207000", "095415.209000", "095415.212000", "095415.214000", "095415.217000", "095415.219000", "095415.222000", "095415.224000", "095415.227000", "095415.229000", "095415.231000", "095415.234000", "095415.236000", "095415.239000", "095415.241000", "095415.249000", "095415.252000", "095415.263000", "095455.175000", "095455.178000", "095455.180000", "095455.183000", "095455.185000", "095455.188000", "095455.190000", "095455.193000", "095455.195000", "095455.198000", "095455.200000", "095455.203000", "095455.205000", "095455.208000", "095455.210000", "095455.213000", "095455.215000", "095455.217000", "095455.220000", "095455.222000", "095535.174000", "095535.177000", "095535.180000", "095535.183000", "095535.185000", "095535.188000", "095535.190000", "095535.193000", "095535.195000", "095535.198000", "095535.200000", "095535.202000", "095535.205000", "095535.207000", "095535.210000", "095535.212000", "095535.215000", "095535.217000", "095535.220000", "095535.222000", "095615.174000", "095615.177000", "095615.180000", "095615.182000", "095615.185000", "095615.187000", "095615.194000", "095615.197000", "095615.199000", "095615.202000", "095615.204000", "095615.207000", "095615.209000", "095615.212000", "095615.214000", "095615.217000", "095615.219000", "095615.222000", "095615.224000", "095615.227000", "095655.175000", "095655.178000", "095655.180000", "095655.183000", "095655.185000", "095655.188000", "095655.190000", "095655.193000", "095655.195000", "095655.198000", "095655.200000", "095655.202000", "095655.205000", "095655.207000", "095655.210000", "095655.212000", "095655.215000", "095655.217000", "095655.220000", "095655.222000", "095735.174000", "095735.177000", "095735.180000", "095735.182000", "095735.185000", "095735.187000", "095735.189000", "095735.192000", "095735.194000", "095735.197000", "095735.199000", "095735.202000", "095735.204000", "095735.207000", "095735.209000", "095735.212000", "095735.214000", "095735.217000", "095735.219000", "095735.222000", "095815.174000", "095815.177000", "095815.179000", "095815.182000", "095815.184000", "095815.187000", "095815.189000", "095815.192000", "095815.194000", "095815.197000", "095815.199000", "095815.202000", "095815.204000", "095815.207000", "095815.209000", "095815.212000", "095815.214000", "095815.217000", "095815.219000", "095815.222000", "095855.174000", "095855.177000", "095855.180000", "095855.182000", "095855.184000", "095855.187000", "095855.189000", "095855.192000", "095855.194000", "095855.197000", "095855.199000", "095855.202000", "095855.204000", "095855.207000", "095855.209000", "095855.212000", "095855.214000", "095855.217000", "095855.219000", "095855.222000", "095935.175000", "095935.178000", "095935.181000", "095935.183000", "095935.186000", "095935.188000", "095935.191000", "095935.193000", "095935.195000", "095935.198000", "095935.200000", "095935.203000", "095935.205000", "095935.208000", "095935.210000", "095935.213000", "095935.223000", "095935.226000", "095935.228000", "095935.231000", "095957.105000", "095957.108000", "095957.111000", "095957.113000", "095957.116000", "095957.118000", "095957.121000", "095957.123000", "095957.126000", "095957.128000", "095957.131000"],
      "InstanceNumber": [1, 2, 3, 4, 5, 6, 7, 8, 9, 10, 11, 12, 13, 14, 15, 16, 17, 18, 19, 20, 21, 22, 23, 24, 25, 26, 27, 28, 29, 30, 31, 32, 33, 34, 35, 36, 37, 38, 39, 40, 41, 42, 43, 44, 45, 46, 47, 48, 49, 50, 51, 52, 53, 54, 55, 56, 57, 58, 59, 60, 61, 62, 63, 64, 65, 66, 67, 68, 69, 70, 71, 72, 73, 74, 75, 76, 77, 78, 79, 80, 81, 82, 83, 84, 85, 86, 87, 88, 89, 90, 91, 92, 93, 94, 95, 96, 97, 98, 99, 100, 101, 102, 103, 104, 105, 106, 107, 108, 109, 110, 111, 112, 113, 114, 115, 116, 117, 118, 119, 120, 121, 122, 123, 124, 125, 126, 127, 128, 129, 130, 131, 132, 133, 134, 135, 136, 137, 138, 139, 140, 141, 142, 143, 144, 145, 146, 147, 148, 149, 150, 151, 152, 153, 154, 155, 156, 157, 158, 159, 160, 161, 162, 163, 164, 165, 166, 167, 168, 169, 170, 171, 172, 173, 174, 175, 176, 177, 178, 179, 180, 181, 182, 183, 184, 185, 186, 187, 188, 189, 190, 191, 192, 193, 194, 195, 196, 197, 198, 199, 200],
      "LargestImagePixelValue": [343, 344, 344, 343, 344, 345, 343, 344, 343, 345, 345, 343, 344, 343, 345, 345, 344, 343, 344, 342, 343, 343, 342, 341, 343, 343, 343, 344, 343, 345, 343, 343, 343, 343, 344, 342, 344, 344, 344, 344, 343, 342, 342, 345, 344, 345, 343, 341, 344, 344, 344, 344, 342, 342, 343, 344, 342, 345, 343, 344, 344, 343, 343, 344, 342, 343, 343, 342, 343, 343, 342, 344, 342, 343, 342, 342, 343, 343, 343, 344, 342, 343, 343, 344, 343, 343, 342, 342, 343, 345, 345, 344, 343, 341, 344, 345, 343, 343, 344, 344, 343, 343, 344, 345, 343, 342, 344, 343, 343, 343, 342, 343, 344, 343, 342, 344, 344, 343, 343, 344, 342, 343, 343, 343, 343, 343, 343, 342, 343, 342, 343, 343, 344, 343, 344, 344, 343, 342, 343, 344, 342, 343, 344, 342, 341, 343, 343, 344, 343, 343, 343, 342, 342, 342, 344, 342, 343, 342, 343, 343, 344, 343, 343, 342, 344, 342, 342, 345, 343, 343, 343, 344, 342, 344, 342, 344, 342, 344, 342, 344, 344, 342, 342, 344, 343, 344, 342, 343, 344, 343, 342, 342, 342, 343, 342, 345, 342, 344, 343, 343],
      "WindowCenter": [271.0, 271.0, 271.0, 271.0, 271.0, 270.0, 272.0, 271.0, 271.0, 271.0, 271.0, 271.0, 271.0, 270.0, 271.0, 271.0, 271.0, 271.0, 271.0, 271.0, 271.0, 271.0, 272.0, 271.0, 271.0, 271.0, 271.0, 271.0, 271.0, 271.0, 271.0, 271.0, 271.0, 271.0, 271.0, 271.0, 271.0, 271.0, 271.0, 271.0, 271.0, 271.0, 271.0, 271.0, 270.0, 271.0, 271.0, 271.0, 271.0, 271.0, 271.0, 271.0, 271.0, 271.0, 271.0, 271.0, 270.0, 271.0, 271.0, 271.0, 271.0, 271.0, 271.0, 271.0, 271.0, 271.0, 271.0, 271.0, 271.0, 271.0, 271.0, 271.0, 271.0, 271.0, 270.0, 271.0, 271.0, 271.0, 271.0, 271.0, 271.0, 271.0, 271.0, 271.0, 271.0, 271.0, 271.0, 271.0, 271.0, 270.0, 271.0, 271.0, 271.0, 271.0, 271.0, 271.0, 271.0, 270.0, 271.0, 271.0, 271.0, 271.0, 271.0, 271.0, 270.0, 271.0, 270.0, 271.0, 270.0, 271.0, 271.0, 271.0, 271.0, 271.0, 271.0, 271.0, 271.0, 270.0, 270.0, 270.0, 271.0, 270.0, 271.0, 271.0, 270.0, 271.0, 271.0, 271.0, 271.0, 271.0, 271.0, 271.0, 271.0, 271.0, 270.0, 271.0, 271.0, 270.0, 271.0, 271.0, 271.0, 271.0, 270.0, 270.0, 271.0, 271.0, 271.0, 271.0, 271.0, 271.0, 271.0, 271.0, 271.0, 271.0, 270.0, 271.0, 271.0, 271.0, 271.0, 270.0, 271.0, 271.0, 271.0, 271.0, 271.0, 271.0, 271.0, 270.0, 271.0, 270.0, 271.0, 271.0, 270.0, 271.0, 271.0, 271.0, 270.0, 271.0, 271.0, 270.0, 271.0, 271.0, 270.0, 271.0, 271.0, 270.0, 270.0, 270.0, 271.0, 270.0, 271.0, 271.0, 271.0, 271.0, 271.0, 271.0, 270.0, 270.0, 271.0, 271.0],
      "WindowWidth": [595.0, 596.0, 596.0, 596.0, 596.0, 595.0, 597.0, 596.0, 596.0, 596.0, 596.0, 595.0, 595.0, 595.0, 596.0, 596.0, 596.0, 596.0, 595.0, 595.0, 595.0, 596.0, 597.0, 596.0, 596.0, 596.0, 595.0, 595.0, 596.0, 595.0, 596.0, 596.0, 595.0, 595.0, 595.0, 595.0, 595.0, 595.0, 595.0, 595.0, 595.0, 595.0, 595.0, 595.0, 595.0, 596.0, 595.0, 595.0, 595.0, 596.0, 595.0, 595.0, 595.0, 595.0, 595.0, 595.0, 595.0, 595.0, 595.0, 595.0, 595.0, 595.0, 595.0, 595.0, 595.0, 595.0, 595.0, 595.0, 595.0, 595.0, 595.0, 595.0, 595.0, 595.0, 595.0, 595.0, 595.0, 595.0, 595.0, 595.0, 595.0, 595.0, 595.0, 595.0, 595.0, 595.0, 595.0, 595.0, 596.0, 595.0, 595.0, 595.0, 595.0, 595.0, 595.0, 595.0, 595.0, 595.0, 595.0, 595.0, 595.0, 595.0, 595.0, 595.0, 595.0, 595.0, 595.0, 595.0, 595.0, 595.0, 595.0, 595.0, 595.0, 595.0, 595.0, 595.0, 595.0, 595.0, 595.0, 595.0, 595.0, 595.0, 595.0, 595.0, 595.0, 595.0, 595.0, 595.0, 595.0, 595.0, 595.0, 595.0, 595.0, 595.0, 595.0, 595.0, 595.0, 594.0, 595.0, 595.0, 595.0, 595.0, 595.0, 595.0, 595.0, 595.0, 595.0, 595.0, 595.0, 595.0, 595.0, 595.0, 595.0, 595.0, 595.0, 595.0, 595.0, 595.0, 595.0, 595.0, 595.0, 595.0, 595.0, 595.0, 595.0, 595.0, 595.0, 595.0, 595.0, 595.0, 595.0, 595.0, 595.0, 595.0, 595.0, 595.0, 595.0, 595.0, 595.0, 595.0, 595.0, 595.0, 595.0, 595.0, 595.0, 595.0, 595.0, 595.0, 595.0, 595.0, 595.0, 595.0, 595.0, 595.0, 595.0, 595.0, 595.0, 595.0, 595.0, 595.0]
    },
    "slices": {}
  }
}