{
  "AcquisitionMatrixPE": 122,
  "AcquisitionNumber": 1,
  "AcquisitionTime": "11:31:33.472500",
  "BandwidthPerPixelPhaseEncode": 27.785,
  "BaseResolution": 122,
  "BodyPartExamined": "BRAIN",
  "CoilCombinationMethod": "Adaptive Combine",
  "ConsistencyInfo": "N4_VE11C_LATEST_20160120",
  "ConversionSoftware": "dcm2niix",
  "ConversionSoftwareVersion": "v1.0.20220720",
  "DerivedVendorReportedEchoSpacing": 0.000590011,
  "DeviceSerialNumber": "66112",
  "DiffusionScheme": "Monopolar",
  "DwellTime": 2e-06,
  "EchoTime": 0.068,
  "EchoTrainLength": 61,
  "EffectiveEchoSpacing": 0.000295005,
  "FlipAngle": 90,
  "HeudiconvVersion": "0.13.1",
  "ImageOrientationPatientDICOM": [0.986211, -0.165458, 0.00333378, 0.156553, 0.939289, 0.305332],
  "ImageOrientationText": "Tra>Cor(17.5)>Sag(3.1)",
  "ImageType": [
    "ORIGINAL",
    "PRIMARY",
    "DIFFUSION",
    "NONE",
    "ND",
    "NORM"
],
  "ImagingFrequency": 123.252,
  "InPlanePhaseEncodingDirectionDICOM": "COL",
  "InstitutionAddress": "Maynard 3,Hanover,NH,US,03755",
  "InstitutionName": "Dartmouth College - PBS",
  "InstitutionalDepartmentName": "Department",
  "MRAcquisitionType": "2D",
  "MagneticFieldStrength": 3,
  "Manufacturer": "Siemens",
  "ManufacturersModelName": "Prisma",
  "Modality": "MR",
  "MultibandAccelerationFactor": 4,
  "NonlinearGradientCorrection": false,
  "ParallelReductionFactorInPlane": 2,
  "PartialFourier": 1,
  "PatientPosition": "HFS",
  "PercentPhaseFOV": 100,
  "PercentSampling": 100,
  "PhaseEncodingDirection": "j-",
  "PhaseEncodingSteps": 122,
  "PhaseResolution": 1,
  "PixelBandwidth": 2050,
  "ProcedureStepDescription": "dbic^QA",
  "ProtocolName": "dwi_acq-DTI-30-p2-s4",
  "PulseSequenceDetails": "%SiemensSeq%\\ep2d_diff",
  "ReceiveCoilActiveElements": "HEA;HEP",
  "ReceiveCoilName": "Head_32",
  "ReconMatrixPE": 122,
  "RefLinesPE": 38,
  "RepetitionTime": 3.6,
  "SAR": 0.160612,
  "ScanOptions": "FS",
  "ScanningSequence": "EP",
  "SequenceName": "*ep_b0",
  "SequenceVariant": "SK\\SP",
  "SeriesDescription": "dwi_acq-DTI-30-p2-s4",
  "SeriesNumber": 9,
  "ShimSetting": [4148, -7690, -7509, 315, -80, -164, -73, 82],
  "SliceThickness": 2,
  "SliceTiming": [2.57812, 0, 1.78906, 0.19531, 1.98438, 0.39062, 2.1875, 0.59375, 2.38281, 0.99219, 2.78125, 1.1875, 2.97656, 1.39062, 3.17969, 1.58594, 3.375, 0.78906, 2.57812, 0, 1.78906, 0.19531, 1.98438, 0.39062, 2.1875, 0.59375, 2.38281, 0.99219, 2.78125, 1.1875, 2.97656, 1.39062, 3.17969, 1.58594, 3.375, 0.78906, 2.57812, 0, 1.78906, 0.19531, 1.98438, 0.39062, 2.1875, 0.59375, 2.38281, 0.99219, 2.78125, 1.1875, 2.97656, 1.39062, 3.17969, 1.58594, 3.375, 0.78906, 2.57812, 0, 1.78906, 0.19531, 1.98438, 0.39062, 2.1875, 0.59375, 2.38281, 0.99219, 2.78125, 1.1875, 2.97656, 1.39062, 3.17969, 1.58594, 3.375, 0.78906],
  "SoftwareVersions": "syngo MR E11",
  "SpacingBetweenSlices": 2,
  "SpoilingState": true,
  "StationName": "AWP66112",
  "TotalReadoutTime": 0.0356956,
  "TxRefAmp": 234.779,
  "dcmmeta_affine": [
    [-1.9400876760482788, 0.3079739212989807, 0.10730171203613281, 95.26093292236328],
    [0.32549071311950684, 1.8477813005447388, 0.6011981964111328, -143.04629516601562],
    [0.006558250170201063, -0.6006527543067932, 1.9044761657714844, -34.81108093261719],
    [0.0, 0.0, 0.0, 1.0]
],
  "dcmmeta_reorient_transform": [
    [0.0, -1.0, 0.0, 121.0],
    [1.0, 0.0, 0.0, 0.0],
    [0.0, 0.0, -1.0, 71.0],
    [0.0, 0.0, 0.0, 1.0]
],
  "dcmmeta_shape": [122, 122, 72, 31],
  "dcmmeta_slice_dim": 2,
  "dcmmeta_version": 0.6,
  "global": {
    "const": {
      "AccessionNumber": "qa",
      "AcquisitionMatrix": [122, 0, 0, 122],
      "AngioFlag": "N",
      "BitsAllocated": 16,
      "BitsStored": 12,
      "BodyPartExamined": "BRAIN",
      "Columns": 122,
      "EchoNumbers": 1,
      "EchoTime": 68.0,
      "EchoTrainLength": 61,
      "FlipAngle": 90.0,
      "HighBit": 11,
      "ImageOrientationPatient": [0.98621123969212, -0.1654577790088, 0.00333377719979, 0.15655341401668, 0.93928883641479, 0.30533180369276],
      "ImageType": [
        "ORIGINAL",
        "PRIMARY",
        "DIFFUSION",
        "NONE",
        "ND",
        "NORM"
],
      "ImagedNucleus": "1H",
      "ImagingFrequency": 123.25246,
      "InPlanePhaseEncodingDirection": "COL",
      "MRAcquisitionType": "2D",
      "MagneticFieldStrength": 3.0,
      "Manufacturer": "SIEMENS",
      "ManufacturerModelName": "Prisma",
      "Modality": "MR",
      "NumberOfAverages": 1.0,
      "NumberOfPhaseEncodingSteps": 122,
      "PercentPhaseFieldOfView": 100.0,
      "PercentSampling": 100.0,
      "PerformedProcedureStepStartTime": "110350.365000",
      "PhotometricInterpretation": "MONOCHROME2",
      "PixelBandwidth": 2050.0,
      "PixelRepresentation": 0,
      "PixelSpacing": [1.9672131538391, 1.9672131538391],
      "ProtocolName": "dwi_acq-DTI-30-p2-s4",
      "RepetitionTime": 3600.0,
      "Rows": 122,
      "SAR": 0.16061214430114,
      "SamplesPerPixel": 1,
      "ScanOptions": "FS",
      "ScanningSequence": "EP",
      "SequenceVariant": [
        "SK",
        "SP"
],
      "SeriesDescription": "dwi_acq-DTI-30-p2-s4",
      "SeriesNumber": 9,
      "SeriesTime": "113142.271000",
      "SliceThickness": 2.0,
      "SmallestImagePixelValue": 0,
      "SoftwareVersions": "syngo MR E11",
      "SpacingBetweenSlices": 2.0,
      "SpecificCharacterSet": "ISO_IR 100",
      "StudyID": "53",
      "StudyTime": "110350.282000",
      "TransmitCoilName": "Body",
      "VariableFlipAngleFlag": "N",
      "WindowCenterWidthExplanation": "Algo1",
      "dBdt": 0.0},
    "slices": {
      "AcquisitionTime": ["113133.472500", "113130.887500", "113132.677500", "113131.085000", "113132.875000", "113131.285000", "113133.075000", "113131.485000", "113133.272500", "113131.882500", "113133.672500", "113132.080000", "113133.870000", "113132.280000", "113134.070000", "113132.477500", "113134.267500", "113131.682500", "113133.472500", "113130.887500", "113132.677500", "113131.085000", "113132.875000", "113131.285000", "113133.075000", "113131.485000", "113133.272500", "113131.882500", "113133.672500", "113132.080000", "113133.870000", "113132.280000", "113134.070000", "113132.477500", "113134.267500", "113131.682500", "113133.472500", "113130.887500", "113132.677500", "113131.085000", "113132.875000", "113131.285000", "113133.075000", "113131.485000", "113133.272500", "113131.882500", "113133.672500", "113132.080000", "113133.870000", "113132.280000", "113134.070000", "113132.477500", "113134.267500", "113131.682500", "113133.472500", "113130.887500", "113132.677500", "113131.085000", "113132.875000", "113131.285000", "113133.075000", "113131.485000", "113133.272500", "113131.882500", "113133.672500", "113132.080000", "113133.870000", "113132.280000", "113134.070000", "113132.477500", "113134.267500", "113131.682500", "113137.072500", "113134.487500", "113136.277500", "113134.685000", "113136.475000", "113134.885000", "113136.675000", "113135.085000", "113136.872500", "113135.482500", "113137.272500", "113135.680000", "113137.470000", "113135.880000", "113137.670000", "113136.077500", "113137.867500", "113135.282500", "113137.072500", "113134.487500", "113136.277500", "113134.685000", "113136.475000", "113134.885000", "113136.675000", "113135.085000", "113136.872500", "113135.482500", "113137.272500", "113135.680000", "113137.470000", "113135.880000", "113137.670000", "113136.077500", "113137.867500", "113135.282500", "113137.072500", "113134.487500", "113136.277500", "113134.685000", "113136.475000", "113134.885000", "113136.675000", "113135.085000", "113136.872500", "113135.482500", "113137.272500", "113135.680000", "113137.470000", "113135.880000", "113137.670000", "113136.077500", "113137.867500", "113135.282500", "113137.072500", "113134.487500", "113136.277500", "113134.685000", "113136.475000", "113134.885000", "113136.675000", "113135.085000", "113136.872500", "113135.482500", "113137.272500", "113135.680000", "113137.470000", "113135.880000", "113137.670000", "113136.077500", "113137.867500", "113135.282500", "113140.672500", "113138.087500", "113139.877500", "113138.285000", "113140.075000", "113138.485000", "113140.275000", "113138.685000", "113140.472500", "113139.082500", "113140.872500", "113139.280000", "113141.070000", "113139.480000", "113141.270000", "113139.677500", "113141.467500", "113138.882500", "113140.672500", "113138.087500", "113139.877500", "113138.285000", "113140.075000", "113138.485000", "113140.275000", "113138.685000", "113140.472500", "113139.082500", "113140.872500", "113139.280000", "113141.070000", "113139.480000", "113141.270000", "113139.677500", "113141.467500", "113138.882500", "113140.672500", "113138.087500", "113139.877500", "113138.285000", "113140.075000", "113138.485000", "113140.275000", "113138.685000", "113140.472500", "113139.082500", "113140.872500", "113139.280000", "113141.070000", "113139.480000", "113141.270000", "113139.677500", "113141.467500", "113138.882500", "113140.672500", "113138.087500", "113139.877500", "113138.285000", "113140.075000", "113138.485000", "113140.275000", "113138.685000", "113140.472500", "113139.082500", "113140.872500", "113139.280000", "113141.070000", "113139.480000", "113141.270000", "113139.677500", "113141.467500", "113138.882500", "113144.272500", "113141.687500", "113143.477500", "113141.885000", "113143.675000", "113142.085000", "113143.875000", "113142.285000", "113144.072500", "113142.682500", "113144.472500", "113142.880000", "113144.670000", "113143.080000", "113144.870000", "113143.277500", "113145.067500", "113142.482500", "113144.272500", "113141.687500", "113143.477500", "113141.885000", "113143.675000", "113142.085000", "113143.875000", "113142.285000", "113144.072500", "113142.682500", "113144.472500", "113142.880000", "113144.670000", "113143.080000", "113144.870000", "113143.277500", "113145.067500", "113142.482500", "113144.272500", "113141.687500", "113143.477500", "113141.885000", "113143.675000", "113142.085000", "113143.875000", "113142.285000", "113144.072500", "113142.682500", "113144.472500", "113142.880000", "113144.670000", "113143.080000", "113144.870000", "113143.277500", "113145.067500", "113142.482500", "113144.272500", "113141.687500", "113143.477500", "113141.885000", "113143.675000", "113142.085000", "113143.875000", "113142.285000", "113144.072500", "113142.682500", "113144.472500", "113142.880000", "113144.670000", "113143.080000", "113144.870000", "113143.277500", "113145.067500", "113142.482500", "113147.872500", "113145.287500", "113147.077500", "113145.485000", "113147.275000", "113145.685000", "113147.475000", "113145.885000", "113147.672500", "113146.282500", "113148.072500", "113146.480000", "113148.270000", "113146.680000", "113148.470000", "113146.877500", "113148.667500", "113146.082500", "113147.872500", "113145.287500", "113147.077500", "113145.485000", "113147.275000", "113145.685000", "113147.475000", "113145.885000", "113147.672500", "113146.282500", "113148.072500", "113146.480000", "113148.270000", "113146.680000", "113148.470000", "113146.877500", "113148.667500", "113146.082500", "113147.872500", "113145.287500", "113147.077500", "113145.485000", "113147.275000", "113145.685000", "113147.475000", "113145.885000", "113147.672500", "113146.282500", "113148.072500", "113146.480000", "113148.270000", "113146.680000", "113148.470000", "113146.877500", "113148.667500", "113146.082500", "113147.872500", "113145.287500", "113147.077500", "113145.485000", "113147.275000", "113145.685000", "113147.475000", "113145.885000", "113147.672500", "113146.282500", "113148.072500", "113146.480000", "113148.270000", "113146.680000", "113148.470000", "113146.877500", "113148.667500", "113146.082500", "113151.472500", "113148.887500", "113150.677500", "113149.085000", "113150.875000", "113149.285000", "113151.075000", "113149.485000", "113151.272500", "113149.882500", "113151.672500", "113150.080000", "113151.870000", "113150.280000", "113152.070000", "113150.477500", "113152.267500", "113149.682500", "113151.472500", "113148.887500", "113150.677500", "113149.085000", "113150.875000", "113149.285000", "113151.075000", "113149.485000", "113151.272500", "113149.882500", "113151.672500", "113150.080000", "113151.870000", "113150.280000", "113152.070000", "113150.477500", "113152.267500", "113149.682500", "113151.472500", "113148.887500", "113150.677500", "113149.085000", "113150.875000", "113149.285000", "113151.075000", "113149.485000", "113151.272500", "113149.882500", "113151.672500", "113150.080000", "113151.870000", "113150.280000", "113152.070000", "113150.477500", "113152.267500", "113149.682500", "113151.472500", "113148.887500", "113150.677500", "113149.085000", "113150.875000", "113149.285000", "113151.075000", "113149.485000", "113151.272500", "113149.882500", "113151.672500", "113150.080000", "113151.870000", "113150.280000", "113152.070000", "113150.477500", "113152.267500", "113149.682500", "113155.072500", "113152.487500", "113154.277500", "113152.685000", "113154.475000", "113152.885000", "113154.675000", "113153.085000", "113154.872500", "113153.482500", "113155.272500", "113153.680000", "113155.470000", "113153.880000", "113155.670000", "113154.077500", "113155.867500", "113153.282500", "113155.072500", "113152.487500", "113154.277500", "113152.685000", "113154.475000", "113152.885000", "113154.675000", "113153.085000", "113154.872500", "113153.482500", "113155.272500", "113153.680000", "113155.470000", "113153.880000", "113155.670000", "113154.077500", "113155.867500", "113153.282500", "113155.072500", "113152.487500", "113154.277500", "113152.685000", "113154.475000", "113152.885000", "113154.675000", "113153.085000", "113154.872500", "113153.482500", "113155.272500", "113153.680000", "113155.470000", "113153.880000", "113155.670000", "113154.077500", "113155.867500", "113153.282500", "113155.072500", "113152.487500", "113154.277500", "113152.685000", "113154.475000", "113152.885000", "113154.675000", "113153.085000", "113154.872500", "113153.482500", "113155.272500", "113153.680000", "113155.470000", "113153.880000", "113155.670000", "113154.077500", "113155.867500", "113153.282500", "113158.672500", "113156.087500", "113157.877500", "113156.285000", "113158.075000", "113156.485000", "113158.275000", "113156.685000", "113158.472500", "113157.082500", "113158.872500", "113157.280000", "113159.070000", "113157.480000", "113159.270000", "113157.677500", "113159.467500", "113156.882500", "113158.672500", "113156.087500", "113157.877500", "113156.285000", "113158.075000", "113156.485000", "113158.275000", "113156.685000", "113158.472500", "113157.082500", "113158.872500", "113157.280000", "113159.070000", "113157.480000", "113159.270000", "113157.677500", "113159.467500", "113156.882500", "113158.672500", "113156.087500", "113157.877500", "113156.285000", "113158.075000", "113156.485000", "113158.275000", "113156.685000", "113158.472500", "113157.082500", "113158.872500", "113157.280000", "113159.070000", "113157.480000", "113159.270000", "113157.677500", "113159.467500", "113156.882500", "113158.672500", "113156.087500", "113157.877500", "113156.285000", "113158.075000", "113156.485000", "113158.275000", "113156.685000", "113158.472500", "113157.082500", "113158.872500", "113157.280000", "113159.070000", "113157.480000", "113159.270000", "113157.677500", "113159.467500", "113156.882500", "113202.272500", "113159.687500", "113201.477500", "113159.885000", "113201.675000", "113200.085000", "113201.875000", "113200.285000", "113202.072500", "113200.682500", "113202.472500", "113200.880000", "113202.670000", "113201.080000", "113202.870000", "113201.277500", "113203.067500", "113200.482500", "113202.272500", "113159.687500", "113201.477500", "113159.885000", "113201.675000", "113200.085000", "113201.875000", "113200.285000", "113202.072500", "113200.682500", "113202.472500", "113200.880000", "113202.670000", "113201.080000", "113202.870000", "113201.277500", "113203.067500", "113200.482500", "113202.272500", "113159.687500", "113201.477500", "113159.885000", "113201.675000", "113200.085000", "113201.875000", "113200.285000", "113202.072500", "113200.682500", "113202.472500", "113200.880000", "113202.670000", "113201.080000", "113202.870000", "113201.277500", "113203.067500", "113200.482500", "113202.272500", "113159.687500", "113201.477500", "113159.885000", "113201.675000", "113200.085000", "113201.875000", "113200.285000", "113202.072500", "113200.682500", "113202.472500", "113200.880000", "113202.670000", "113201.080000", "113202.870000", "113201.277500", "113203.067500", "113200.482500", "113205.872500", "113203.287500", "113205.077500", "113203.485000", "113205.275000", "113203.685000", "113205.475000", "113203.885000", "113205.672500", "113204.282500", "113206.072500", "113204.480000", "113206.270000", "113204.680000", "113206.470000", "113204.877500", "113206.667500", "113204.082500", "113205.872500", "113203.287500", "113205.077500", "113203.485000", "113205.275000", "113203.685000", "113205.475000", "113203.885000", "113205.672500", "113204.282500", "113206.072500", "113204.480000", "113206.270000", "113204.680000", "113206.470000", "113204.877500", "113206.667500", "113204.082500", "113205.872500", "113203.287500", "113205.077500", "113203.485000", "113205.275000", "113203.685000", "113205.475000", "113203.885000", "113205.672500", "113204.282500", "113206.072500", "113204.480000", "113206.270000", "113204.680000", "113206.470000", "113204.877500", "113206.667500", "113204.082500", "113205.872500", "113203.287500", "113205.077500", "113203.485000", "113205.275000", "113203.685000", "113205.475000", "113203.885000", "113205.672500", "113204.282500", "113206.072500", "113204.480000", "113206.270000", "113204.680000", "113206.470000", "113204.877500", "113206.667500", "113204.082500", "113209.472500", "113206.887500", "113208.677500", "113207.085000", "113208.875000", "113207.285000", "113209.075000", "113207.485000", "113209.272500", "113207.882500", "113209.672500", "113208.080000", "113209.870000", "113208.280000", "113210.070000", "113208.477500", "113210.267500", "113207.682500", "113209.472500", "113206.887500", "113208.677500", "113207.085000", "113208.875000", "113207.285000", "113209.075000", "113207.485000", "113209.272500", "113207.882500", "113209.672500", "113208.080000", "113209.870000", "113208.280000", "113210.070000", "113208.477500", "113210.267500", "113207.682500", "113209.472500", "113206.887500", "113208.677500", "113207.085000", "113208.875000", "113207.285000", "113209.075000", "113207.485000", "113209.272500", "113207.882500", "113209.672500", "113208.080000", "113209.870000", "113208.280000", "113210.070000", "113208.477500", "113210.267500", "113207.682500", "113209.472500", "113206.887500", "113208.677500", "113207.085000", "113208.875000", "113207.285000", "113209.075000", "113207.485000", "113209.272500", "113207.882500", "113209.672500", "113208.080000", "113209.870000", "113208.280000", "113210.070000", "113208.477500", "113210.267500", "113207.682500", "113213.072500", "113210.487500", "113212.277500", "113210.685000", "113212.475000", "113210.885000", "113212.675000", "113211.085000", "113212.872500", "113211.482500", "113213.272500", "113211.680000", "113213.470000", "113211.880000", "113213.670000", "113212.077500", "113213.867500", "113211.282500", "113213.072500", "113210.487500", "113212.277500", "113210.685000", "113212.475000", "113210.885000", "113212.675000", "113211.085000", "113212.872500", "113211.482500", "113213.272500", "113211.680000", "113213.470000", "113211.880000", "113213.670000", "113212.077500", "113213.867500", "113211.282500", "113213.072500", "113210.487500", "113212.277500", "113210.685000", "113212.475000", "113210.885000", "113212.675000", "113211.085000", "113212.872500", "113211.482500", "113213.272500", "113211.680000", "113213.470000", "113211.880000", "113213.670000", "113212.077500", "113213.867500", "113211.282500", "113213.072500", "113210.487500", "113212.277500", "113210.685000", "113212.475000", "113210.885000", "113212.675000", "113211.085000", "113212.872500", "113211.482500", "113213.272500", "113211.680000", "113213.470000", "113211.880000", "113213.670000", "113212.077500", "113213.867500", "113211.282500", "113216.672500", "113214.087500", "113215.877500", "113214.285000", "113216.075000", "113214.485000", "113216.275000", "113214.685000", "113216.472500", "113215.082500", "113216.872500", "113215.280000", "113217.070000", "113215.480000", "113217.270000", "113215.677500", "113217.467500", "113214.882500", "113216.672500", "113214.087500", "113215.877500", "113214.285000", "113216.075000", "113214.485000", "113216.275000", "113214.685000", "113216.472500", "113215.082500", "113216.872500", "113215.280000", "113217.070000", "113215.480000", "113217.270000", "113215.677500", "113217.467500", "113214.882500", "113216.672500", "113214.087500", "113215.877500", "113214.285000", "113216.075000", "113214.485000", "113216.275000", "113214.685000", "113216.472500", "113215.082500", "113216.872500", "113215.280000", "113217.070000", "113215.480000", "113217.270000", "113215.677500", "113217.467500", "113214.882500", "113216.672500", "113214.087500", "113215.877500", "113214.285000", "113216.075000", "113214.485000", "113216.275000", "113214.685000", "113216.472500", "113215.082500", "113216.872500", "113215.280000", "113217.070000", "113215.480000", "113217.270000", "113215.677500", "113217.467500", "113214.882500", "113220.272500", "113217.687500", "113219.477500", "113217.885000", "113219.675000", "113218.085000", "113219.875000", "113218.285000", "113220.072500", "113218.682500", "113220.472500", "113218.880000", "113220.670000", "113219.080000", "113220.870000", "113219.277500", "113221.067500", "113218.482500", "113220.272500", "113217.687500", "113219.477500", "113217.885000", "113219.675000", "113218.085000", "113219.875000", "113218.285000", "113220.072500", "113218.682500", "113220.472500", "113218.880000", "113220.670000", "113219.080000", "113220.870000", "113219.277500", "113221.067500", "113218.482500", "113220.272500", "113217.687500", "113219.477500", "113217.885000", "113219.675000", "113218.085000", "113219.875000", "113218.285000", "113220.072500", "113218.682500", "113220.472500", "113218.880000", "113220.670000", "113219.080000", "113220.870000", "113219.277500", "113221.067500", "113218.482500", "113220.272500", "113217.687500", "113219.477500", "113217.885000", "113219.675000", "113218.085000", "113219.875000", "113218.285000", "113220.072500", "113218.682500", "113220.472500", "113218.880000", "113220.670000", "113219.080000", "113220.870000", "113219.277500", "113221.067500", "113218.482500", "113223.872500", "113221.287500", "113223.077500", "113221.485000", "113223.275000", "113221.685000", "113223.475000", "113221.885000", "113223.672500", "113222.282500", "113224.072500", "113222.480000", "113224.270000", "113222.680000", "113224.470000", "113222.877500", "113224.667500", "113222.082500", "113223.872500", "113221.287500", "113223.077500", "113221.485000", "113223.275000", "113221.685000", "113223.475000", "113221.885000", "113223.672500", "113222.282500", "113224.072500", "113222.480000", "113224.270000", "113222.680000", "113224.470000", "113222.877500", "113224.667500", "113222.082500", "113223.872500", "113221.287500", "113223.077500", "113221.485000", "113223.275000", "113221.685000", "113223.475000", "113221.885000", "113223.672500", "113222.282500", "113224.072500", "113222.480000", "113224.270000", "113222.680000", "113224.470000", "113222.877500", "113224.667500", "113222.082500", "113223.872500", "113221.287500", "113223.077500", "113221.485000", "113223.275000", "113221.685000", "113223.475000", "113221.885000", "113223.672500", "113222.282500", "113224.072500", "113222.480000", "113224.270000", "113222.680000", "113224.470000", "113222.877500", "113224.667500", "113222.082500", "113227.472500", "113224.887500", "113226.677500", "113225.085000", "113226.875000", "113225.285000", "113227.075000", "113225.485000", "113227.272500", "113225.882500", "113227.672500", "113226.080000", "113227.870000", "113226.280000", "113228.070000", "113226.477500", "113228.267500", "113225.682500", "113227.472500", "113224.887500", "113226.677500", "113225.085000", "113226.875000", "113225.285000", "113227.075000", "113225.485000", "113227.272500", "113225.882500", "113227.672500", "113226.080000", "113227.870000", "113226.280000", "113228.070000", "113226.477500", "113228.267500", "113225.682500", "113227.472500", "113224.887500", "113226.677500", "113225.085000", "113226.875000", "113225.285000", "113227.075000", "113225.485000", "113227.272500", "113225.882500", "113227.672500", "113226.080000", "113227.870000", "113226.280000", "113228.070000", "113226.477500", "113228.267500", "113225.682500", "113227.472500", "113224.887500", "113226.677500", "113225.085000", "113226.875000", "113225.285000", "113227.075000", "113225.485000", "113227.272500", "113225.882500", "113227.672500", "113226.080000", "113227.870000", "113226.280000", "113228.070000", "113226.477500", "113228.267500", "113225.682500", "113231.072500", "113228.487500", "113230.277500", "113228.685000", "113230.475000", "113228.885000", "113230.675000", "113229.085000", "113230.872500", "113229.482500", "113231.272500", "113229.680000", "113231.470000", "113229.880000", "113231.670000", "113230.077500", "113231.867500", "113229.282500", "113231.072500", "113228.487500", "113230.277500", "113228.685000", "113230.475000", "113228.885000", "113230.675000", "113229.085000", "113230.872500", "113229.482500", "113231.272500", "113229.680000", "113231.470000", "113229.880000", "113231.670000", "113230.077500", "113231.867500", "113229.282500", "113231.072500", "113228.487500", "113230.277500", "113228.685000", "113230.475000", "113228.885000", "113230.675000", "113229.085000", "113230.872500", "113229.482500", "113231.272500", "113229.680000", "113231.470000", "113229.880000", "113231.670000", "113230.077500", "113231.867500", "113229.282500", "113231.072500", "113228.487500", "113230.277500", "113228.685000", "113230.475000", "113228.885000", "113230.675000", "113229.085000", "113230.872500", "113229.482500", "113231.272500", "113229.680000", "113231.470000", "113229.880000", "113231.670000", "113230.077500", "113231.867500", "113229.282500", "113234.672500", "113232.087500", "113233.877500", "113232.285000", "113234.075000", "113232.485000", "113234.275000", "113232.685000", "113234.472500", "113233.082500", "113234.872500", "113233.280000", "113235.070000", "113233.480000", "113235.270000", "113233.677500", "113235.467500", "113232.882500", "113234.672500", "113232.087500", "113233.877500", "113232.285000", "113234.075000", "113232.485000", "113234.275000", "113232.685000", "113234.472500", "113233.082500", "113234.872500", "113233.280000", "113235.070000", "113233.480000", "113235.270000", "113233.677500", "113235.467500", "113232.882500", "113234.672500", "113232.087500", "113233.877500", "113232.285000", "113234.075000", "113232.485000", "113234.275000", "113232.685000", "113234.472500", "113233.082500", "113234.872500", "113233.280000", "113235.070000", "113233.480000", "113235.270000", "113233.677500", "113235.467500", "113232.882500", "113234.672500", "113232.087500", "113233.877500", "113232.285000", "113234.075000", "113232.485000", "113234.275000", "113232.685000", "113234.472500", "113233.082500", "113234.872500", "113233.280000", "113235.070000", "113233.480000", "113235.270000", "113233.677500", "113235.467500", "113232.882500", "113238.272500", "113235.687500", "113237.477500", "113235.885000", "113237.675000", "113236.085000", "113237.875000", "113236.285000", "113238.072500", "113236.682500", "113238.472500", "113236.880000", "113238.670000", "113237.080000", "113238.870000", "113237.277500", "113239.067500", "113236.482500", "113238.272500", "113235.687500", "113237.477500", "113235.885000", "113237.675000", "113236.085000", "113237.875000", "113236.285000", "113238.072500", "113236.682500", "113238.472500", "113236.880000", "113238.670000", "113237.080000", "113238.870000", "113237.277500", "113239.067500", "113236.482500", "113238.272500", "113235.687500", "113237.477500", "113235.885000", "113237.675000", "113236.085000", "113237.875000", "113236.285000", "113238.072500", "113236.682500", "113238.472500", "113236.880000", "113238.670000", "113237.080000", "113238.870000", "113237.277500", "113239.067500", "113236.482500", "113238.272500", "113235.687500", "113237.477500", "113235.885000", "113237.675000", "113236.085000", "113237.875000", "113236.285000", "113238.072500", "113236.682500", "113238.472500", "113236.880000", "113238.670000", "113237.080000", "113238.870000", "113237.277500", "113239.067500", "113236.482500", "113241.872500", "113239.287500", "113241.077500", "113239.485000", "113241.275000", "113239.685000", "113241.475000", "113239.885000", "113241.672500", "113240.282500", "113242.072500", "113240.480000", "113242.270000", "113240.680000", "113242.470000", "113240.877500", "113242.667500", "113240.082500", "113241.872500", "113239.287500", "113241.077500", "113239.485000", "113241.275000", "113239.685000", "113241.475000", "113239.885000", "113241.672500", "113240.282500", "113242.072500", "113240.480000", "113242.270000", "113240.680000", "113242.470000", "113240.877500", "113242.667500", "113240.082500", "113241.872500", "113239.287500", "113241.077500", "113239.485000", "113241.275000", "113239.685000", "113241.475000", "113239.885000", "113241.672500", "113240.282500", "113242.072500", "113240.480000", "113242.270000", "113240.680000", "113242.470000", "113240.877500", "113242.667500", "113240.082500", "113241.872500", "113239.287500", "113241.077500", "113239.485000", "113241.275000", "113239.685000", "113241.475000", "113239.885000", "113241.672500", "113240.282500", "113242.072500", "113240.480000", 