{
  "AcquisitionMatrixPE": 122,
  "AcquisitionNumber": 1,
  "AcquisitionTime": "11:27:11.207500",
  "BandwidthPerPixelPhaseEncode": 28.76,
  "BaseResolution": 122,
  "BodyPartExamined": "BRAIN",
  "CoilCombinationMethod": "Adaptive Combine",
  "ConsistencyInfo": "N4_VE11C_LATEST_20160120",
  "ConversionSoftware": "dcm2niix",
  "ConversionSoftwareVersion": "v1.0.20220720",
  "DerivedVendorReportedEchoSpacing": 0.000570008,
  "DeviceSerialNumber": "66112",
  "DiffusionScheme": "Monopolar",
  "DwellTime": 2e-06,
  "EchoTime": 0.075,
  "EchoTrainLength": 61,
  "EffectiveEchoSpacing": 0.000285004,
  "FlipAngle": 90,
  "HeudiconvVersion": "0.13.1",
  "ImageOrientationPatientDICOM": [0.986211, -0.165458, 0.00333378, 0.156553, 0.939289, 0.305332],
  "ImageOrientationText": "Tra>Cor(17.5)>Sag(3.1)",
  "ImageType": [
    "ORIGINAL",
    "PRIMARY",
    "DIFFUSION",
    "NONE",
    "ND",
    "NORM"
],
  "ImagingFrequency": 123.252,
  "InPlanePhaseEncodingDirectionDICOM": "COL",
  "InstitutionAddress": "Maynard 3,Hanover,NH,US,03755",
  "InstitutionName": "Dartmouth College - PBS",
  "InstitutionalDepartmentName": "Department",
  "MRAcquisitionType": "2D",
  "MagneticFieldStrength": 3,
  "Manufacturer": "Siemens",
  "ManufacturersModelName": "Prisma",
  "MatrixCoilMode": "GRAPPA",
  "Modality": "MR",
  "NonlinearGradientCorrection": false,
  "ParallelReductionFactorInPlane": 2,
  "PartialFourier": 1,
  "PatientPosition": "HFS",
  "PercentPhaseFOV": 100,
  "PercentSampling": 100,
  "PhaseEncodingDirection": "j-",
  "PhaseEncodingSteps": 122,
  "PhaseResolution": 1,
  "PixelBandwidth": 2050,
  "ProcedureStepDescription": "dbic^QA",
  "ProtocolName": "dwi_acq-DTI-30-p2",
  "PulseSequenceDetails": "%SiemensSeq%\\ep2d_diff",
  "ReceiveCoilActiveElements": "HEA;HEP",
  "ReceiveCoilName": "Head_32",
  "ReconMatrixPE": 122,
  "RefLinesPE": 38,
  "RepetitionTime": 7.7,
  "SAR": 0.101475,
  "ScanOptions": "FS",
  "ScanningSequence": "EP",
  "SequenceName": "*ep_b0",
  "SequenceVariant": "SK\\SP",
  "SeriesDescription": "dwi_acq-DTI-30-p2",
  "SeriesNumber": 8,
  "ShimSetting": [4148, -7690, -7508, 313, -81, -160, -73, 83],
  "SliceThickness": 2,
  "SliceTiming": [3.84375, 0, 3.95312, 0.10938, 4.0625, 0.21875, 4.17188, 0.32812, 4.28125, 0.4375, 4.39062, 0.54688, 4.5, 0.66406, 4.60938, 0.77344, 4.71875, 0.875, 4.82812, 0.98438, 4.9375, 1.10156, 5.04688, 1.21094, 5.15625, 1.32031, 5.26562, 1.42969, 5.375, 1.53906, 5.48438, 1.64844, 5.59375, 1.75781, 5.70312, 1.86719, 5.8125, 1.97656, 5.92188, 2.08594, 6.03906, 2.19531, 6.14844, 2.30469, 6.25781, 2.41406, 6.36719, 2.52344, 6.47656, 2.63281, 6.58594, 2.74219, 6.69531, 2.85156, 6.80469, 2.96094, 6.91406, 3.07031, 7.02344, 3.17969, 7.13281, 3.28906, 7.24219, 3.40625, 7.35156, 3.51562, 7.46094, 3.625, 7.57031, 3.72656],
  "SoftwareVersions": "syngo MR E11",
  "SpacingBetweenSlices": 2,
  "SpoilingState": true,
  "StationName": "AWP66112",
  "TotalReadoutTime": 0.0344855,
  "TxRefAmp": 234.779,
  "dcmmeta_affine": [
    [-1.9400876760482788, 0.3079739212989807, 0.10730195045471191, 95.36821746826172],
    [0.32549071311950684, 1.8477813005447388, 0.6012001037597656, -142.44522094726562],
    [0.006558250170201063, -0.6006527543067932, 1.90447998046875, -32.90686798095703],
    [0.0, 0.0, 0.0, 1.0]
],
  "dcmmeta_reorient_transform": [
    [0.0, -1.0, 0.0, 121.0],
    [1.0, 0.0, 0.0, 0.0],
    [0.0, 0.0, -1.0, 69.0],
    [0.0, 0.0, 0.0, 1.0]
],
  "dcmmeta_shape": [122, 122, 70, 31],
  "dcmmeta_slice_dim": 2,
  "dcmmeta_version": 0.6,
  "global": {
    "const": {
      "AccessionNumber": "qa",
      "AcquisitionMatrix": [122, 0, 0, 122],
      "AngioFlag": "N",
      "BitsAllocated": 16,
      "BitsStored": 12,
      "BodyPartExamined": "BRAIN",
      "Columns": 122,
      "EchoNumbers": 1,
      "EchoTime": 75.0,
      "EchoTrainLength": 61,
      "FlipAngle": 90.0,
      "HighBit": 11,
      "ImageOrientationPatient": [0.98621123969212, -0.1654577790088, 0.00333377719979, 0.15655341401668, 0.93928883641479, 0.30533180369276],
      "ImageType": [
        "ORIGINAL",
        "PRIMARY",
        "DIFFUSION",
        "NONE",
        "ND",
        "NORM"
],
      "ImagedNucleus": "1H",
      "ImagingFrequency": 123.252458,
      "InPlanePhaseEncodingDirection": "COL",
      "MRAcquisitionType": "2D",
      "MagneticFieldStrength": 3.0,
      "Manufacturer": "SIEMENS",
      "ManufacturerModelName": "Prisma",
      "Modality": "MR",
      "NumberOfAverages": 1.0,
      "NumberOfPhaseEncodingSteps": 122,
      "PercentPhaseFieldOfView": 100.0,
      "PercentSampling": 100.0,
      "PerformedProcedureStepStartTime": "110350.365000",
      "PhotometricInterpretation": "MONOCHROME2",
      "PixelBandwidth": 2050.0,
      "PixelRepresentation": 0,
      "PixelSpacing": [1.9672131538391, 1.9672131538391],
      "ProtocolName": "dwi_acq-DTI-30-p2",
      "RepetitionTime": 7700.0,
      "Rows": 122,
      "SAR": 0.10147523745193,
      "SamplesPerPixel": 1,
      "ScanOptions": "FS",
      "ScanningSequence": "EP",
      "SequenceVariant": [
        "SK",
        "SP"
],
      "SeriesDescription": "dwi_acq-DTI-30-p2",
      "SeriesNumber": 8,
      "SeriesTime": "112712.407000",
      "SliceThickness": 2.0,
      "SmallestImagePixelValue": 0,
      "SoftwareVersions": "syngo MR E11",
      "SpacingBetweenSlices": 2.0,
      "SpecificCharacterSet": "ISO_IR 100",
      "StudyID": "53",
      "StudyTime": "110350.282000",
      "TransmitCoilName": "Body",
      "VariableFlipAngleFlag": "N",
      "WindowCenterWidthExplanation": "Algo1",
      "dBdt": 0.0},
    "slices": {
      "AcquisitionTime": ["112711.207500", "112707.367500", "112711.317500", "112707.477500", "112711.427500", "112707.587500", "112711.537500", "112707.697500", "112711.647500", "112707.807500", "112711.757500", "112707.917500", "112711.867500", "112708.027500", "112711.975000", "112708.137500", "112712.085000", "112708.245000", "112712.195000", "112708.355000", "112712.305000", "112708.465000", "112712.415000", "112708.575000", "112712.525000", "112708.685000", "112712.635000", "112708.795000", "112712.745000", "112708.905000", "112712.855000", "112709.015000", "112712.962500", "112709.122500", "112713.072500", "112709.232500", "112713.182500", "112709.342500", "112713.292500", "112709.452500", "112713.402500", "112709.562500", "112713.512500", "112709.672500", "112713.622500", "112709.782500", "112713.732500", "112709.892500", "112713.842500", "112710.002500", "112713.950000", "112710.110000", "112714.060000", "112710.220000", "112714.170000", "112710.330000", "112714.280000", "112710.440000", "112714.390000", "112710.550000", "112714.500000", "112710.660000", "112714.610000", "112710.770000", "112714.720000", "112710.880000", "112714.827500", "112710.990000", "112714.937500", "112711.097500", "112718.907500", "112715.067500", "112719.017500", "112715.177500", "112719.127500", "112715.287500", "112719.237500", "112715.397500", "112719.347500", "112715.507500", "112719.457500", "112715.617500", "112719.567500", "112715.727500", "112719.675000", "112715.837500", "112719.785000", "112715.945000", "112719.895000", "112716.055000", "112720.005000", "112716.165000", "112720.115000", "112716.275000", "112720.225000", "112716.385000", "112720.335000", "112716.495000", "112720.445000", "112716.605000", "112720.555000", "112716.715000", "112720.662500", "112716.822500", "112720.772500", "112716.932500", "112720.882500", "112717.042500", "112720.992500", "112717.152500", "112721.102500", "112717.262500", "112721.212500", "112717.372500", "112721.322500", "112717.482500", "112721.432500", "112717.592500", "112721.542500", "112717.702500", "112721.650000", "112717.810000", "112721.760000", "112717.920000", "112721.870000", "112718.030000", "112721.980000", "112718.140000", "112722.090000", "112718.250000", "112722.200000", "112718.360000", "112722.310000", "112718.470000", "112722.420000", "112718.580000", "112722.527500", "112718.690000", "112722.637500", "112718.797500", "112726.607500", "112722.767500", "112726.717500", "112722.877500", "112726.827500", "112722.987500", "112726.937500", "112723.097500", "112727.047500", "112723.207500", "112727.157500", "112723.317500", "112727.267500", "112723.427500", "112727.375000", "112723.537500", "112727.485000", "112723.645000", "112727.595000", "112723.755000", "112727.705000", "112723.865000", "112727.815000", "112723.975000", "112727.925000", "112724.085000", "112728.035000", "112724.195000", "112728.145000", "112724.305000", "112728.255000", "112724.415000", "112728.362500", "112724.522500", "112728.472500", "112724.632500", "112728.582500", "112724.742500", "112728.692500", "112724.852500", "112728.802500", "112724.962500", "112728.912500", "112725.072500", "112729.022500", "112725.182500", "112729.132500", "112725.292500", "112729.242500", "112725.402500", "112729.350000", "112725.510000", "112729.460000", "112725.620000", "112729.570000", "112725.730000", "112729.680000", "112725.840000", "112729.790000", "112725.950000", "112729.900000", "112726.060000", "112730.010000", "112726.170000", "112730.120000", "112726.280000", "112730.227500", "112726.390000", "112730.337500", "112726.497500", "112734.307500", "112730.467500", "112734.417500", "112730.577500", "112734.527500", "112730.687500", "112734.637500", "112730.797500", "112734.747500", "112730.907500", "112734.857500", "112731.017500", "112734.967500", "112731.127500", "112735.075000", "112731.237500", "112735.185000", "112731.345000", "112735.295000", "112731.455000", "112735.405000", "112731.565000", "112735.515000", "112731.675000", "112735.625000", "112731.785000", "112735.735000", "112731.895000", "112735.845000", "112732.005000", "112735.955000", "112732.115000", "112736.062500", "112732.222500", "112736.172500", "112732.332500", "112736.282500", "112732.442500", "112736.392500", "112732.552500", "112736.502500", "112732.662500", "112736.612500", "112732.772500", "112736.722500", "112732.882500", "112736.832500", "112732.992500", "112736.942500", "112733.102500", "112737.050000", "112733.210000", "112737.160000", "112733.320000", "112737.270000", "112733.430000", "112737.380000", "112733.540000", "112737.490000", "112733.650000", "112737.600000", "112733.760000", "112737.710000", "112733.870000", "112737.820000", "112733.980000", "112737.927500", "112734.090000", "112738.037500", "112734.197500", "112742.007500", "112738.167500", "112742.117500", "112738.277500", "112742.227500", "112738.387500", "112742.337500", "112738.497500", "112742.447500", "112738.607500", "112742.557500", "112738.717500", "112742.667500", "112738.827500", "112742.775000", "112738.937500", "112742.885000", "112739.045000", "112742.995000", "112739.155000", "112743.105000", "112739.265000", "112743.215000", "112739.375000", "112743.325000", "112739.485000", "112743.435000", "112739.595000", "112743.545000", "112739.705000", "112743.655000", "112739.815000", "112743.762500", "112739.922500", "112743.872500", "112740.032500", "112743.982500", "112740.142500", "112744.092500", "112740.252500", "112744.202500", "112740.362500", "112744.312500", "112740.472500", "112744.422500", "112740.582500", "112744.532500", "112740.692500", "112744.642500", "112740.802500", "112744.750000", "112740.910000", "112744.860000", "112741.020000", "112744.970000", "112741.130000", "112745.080000", "112741.240000", "112745.190000", "112741.350000", "112745.300000", "112741.460000", "112745.410000", "112741.570000", "112745.520000", "112741.680000", "112745.627500", "112741.790000", "112745.737500", "112741.897500", "112749.707500", "112745.867500", "112749.817500", "112745.977500", "112749.927500", "112746.087500", "112750.037500", "112746.197500", "112750.147500", "112746.307500", "112750.257500", "112746.417500", "112750.367500", "112746.527500", "112750.475000", "112746.637500", "112750.585000", "112746.745000", "112750.695000", "112746.855000", "112750.805000", "112746.965000", "112750.915000", "112747.075000", "112751.025000", "112747.185000", "112751.135000", "112747.295000", "112751.245000", "112747.405000", "112751.355000", "112747.515000", "112751.462500", "112747.622500", "112751.572500", "112747.732500", "112751.682500", "112747.842500", "112751.792500", "112747.952500", "112751.902500", "112748.062500", "112752.012500", "112748.172500", "112752.122500", "112748.282500", "112752.232500", "112748.392500", "112752.342500", "112748.502500", "112752.450000", "112748.610000", "112752.560000", "112748.720000", "112752.670000", "112748.830000", "112752.780000", "112748.940000", "112752.890000", "112749.050000", "112753.000000", "112749.160000", "112753.110000", "112749.270000", "112753.220000", "112749.380000", "112753.327500", "112749.490000", "112753.437500", "112749.597500", "112757.407500", "112753.567500", "112757.517500", "112753.677500", "112757.627500", "112753.787500", "112757.737500", "112753.897500", "112757.847500", "112754.007500", "112757.957500", "112754.117500", "112758.067500", "112754.227500", "112758.175000", "112754.337500", "112758.285000", "112754.445000", "112758.395000", "112754.555000", "112758.505000", "112754.665000", "112758.615000", "112754.775000", "112758.725000", "112754.885000", "112758.835000", "112754.995000", "112758.945000", "112755.105000", "112759.055000", "112755.215000", "112759.162500", "112755.322500", "112759.272500", "112755.432500", "112759.382500", "112755.542500", "112759.492500", "112755.652500", "112759.602500", "112755.762500", "112759.712500", "112755.872500", "112759.822500", "112755.982500", "112759.932500", "112756.092500", "112800.042500", "112756.202500", "112800.150000", "112756.310000", "112800.260000", "112756.420000", "112800.370000", "112756.530000", "112800.480000", "112756.640000", "112800.590000", "112756.750000", "112800.700000", "112756.860000", "112800.810000", "112756.970000", "112800.920000", "112757.080000", "112801.027500", "112757.190000", "112801.137500", "112757.297500", "112805.107500", "112801.267500", "112805.217500", "112801.377500", "112805.327500", "112801.487500", "112805.437500", "112801.597500", "112805.547500", "112801.707500", "112805.657500", "112801.817500", "112805.767500", "112801.927500", "112805.875000", "112802.037500", "112805.985000", "112802.145000", "112806.095000", "112802.255000", "112806.205000", "112802.365000", "112806.315000", "112802.475000", "112806.425000", "112802.585000", "112806.535000", "112802.695000", "112806.645000", "112802.805000", "112806.755000", "112802.915000", "112806.862500", "112803.022500", "112806.972500", "112803.132500", "112807.082500", "112803.242500", "112807.192500", "112803.352500", "112807.302500", "112803.462500", "112807.412500", "112803.572500", "112807.522500", "112803.682500", "112807.632500", "112803.792500", "112807.742500", "112803.902500", "112807.850000", "112804.010000", "112807.960000", "112804.120000", "112808.070000", "112804.230000", "112808.180000", "112804.340000", "112808.290000", "112804.450000", "112808.400000", "112804.560000", "112808.510000", "112804.670000", "112808.620000", "112804.780000", "112808.727500", "112804.890000", "112808.837500", "112804.997500", "112812.807500", "112808.967500", "112812.917500", "112809.077500", "112813.027500", "112809.187500", "112813.137500", "112809.297500", "112813.247500", "112809.407500", "112813.357500", "112809.517500", "112813.467500", "112809.627500", "112813.575000", "112809.737500", "112813.685000", "112809.845000", "112813.795000", "112809.955000", "112813.905000", "112810.065000", "112814.015000", "112810.175000", "112814.125000", "112810.285000", "112814.235000", "112810.395000", "112814.345000", "112810.505000", "112814.455000", "112810.615000", "112814.562500", "112810.722500", "112814.672500", "112810.832500", "112814.782500", "112810.942500", "112814.892500", "112811.052500", "112815.002500", "112811.162500", "112815.112500", "112811.272500", "112815.222500", "112811.382500", "112815.332500", "112811.492500", "112815.442500", "112811.602500", "112815.550000", "112811.710000", "112815.660000", "112811.820000", "112815.770000", "112811.930000", "112815.880000", "112812.040000", "112815.990000", "112812.150000", "112816.100000", "112812.260000", "112816.210000", "112812.370000", "112816.320000", "112812.480000", "112816.427500", "112812.590000", "112816.537500", "112812.697500", "112820.507500", "112816.667500", "112820.617500", "112816.777500", "112820.727500", "112816.887500", "112820.837500", "112816.997500", "112820.947500", "112817.107500", "112821.057500", "112817.217500", "112821.167500", "112817.327500", "112821.275000", "112817.437500", "112821.385000", "112817.545000", "112821.495000", "112817.655000", "112821.605000", "112817.765000", "112821.715000", "112817.875000", "112821.825000", "112817.985000", "112821.935000", "112818.095000", "112822.045000", "112818.205000", "112822.155000", "112818.315000", "112822.262500", "112818.422500", "112822.372500", "112818.532500", "112822.482500", "112818.642500", "112822.592500", "112818.752500", "112822.702500", "112818.862500", "112822.812500", "112818.972500", "112822.922500", "112819.082500", "112823.032500", "112819.192500", "112823.142500", "112819.302500", "112823.250000", "112819.410000", "112823.360000", "112819.520000", "112823.470000", "112819.630000", "112823.580000", "112819.740000", "112823.690000", "112819.850000", "112823.800000", "112819.960000", "112823.910000", "112820.070000", "112824.020000", "112820.180000", "112824.127500", "112820.290000", "112824.237500", "112820.397500", "112828.207500", "112824.367500", "112828.317500", "112824.477500", "112828.427500", "112824.587500", "112828.537500", "112824.697500", "112828.647500", "112824.807500", "112828.757500", "112824.917500", "112828.867500", "112825.027500", "112828.975000", "112825.137500", "112829.085000", "112825.245000", "112829.195000", "112825.355000", "112829.305000", "112825.465000", "112829.415000", "112825.575000", "112829.525000", "112825.685000", "112829.635000", "112825.795000", "112829.745000", "112825.905000", "112829.855000", "112826.015000", "112829.962500", "112826.122500", "112830.072500", "112826.232500", "112830.182500", "112826.342500", "112830.292500", "112826.452500", "112830.402500", "112826.562500", "112830.512500", "112826.672500", "112830.622500", "112826.782500", "112830.732500", "112826.892500", "112830.842500", "112827.002500", "112830.950000", "112827.110000", "112831.060000", "112827.220000", "112831.170000", "112827.330000", "112831.280000", "112827.440000", "112831.390000", "112827.550000", "112831.500000", "112827.660000", "112831.610000", "112827.770000", "112831.720000", "112827.880000", "112831.827500", "112827.990000", "112831.937500", "112828.097500", "112835.907500", "112832.067500", "112836.017500", "112832.177500", "112836.127500", "112832.287500", "112836.237500", "112832.397500", "112836.347500", "112832.507500", "112836.457500", "112832.617500", "112836.567500", "112832.727500", "112836.675000", "112832.837500", "112836.785000", "112832.945000", "112836.895000", "112833.055000", "112837.005000", "112833.165000", "112837.115000", "112833.275000", "112837.225000", "112833.385000", "112837.335000", "112833.495000", "112837.445000", "112833.605000", "112837.555000", "112833.715000", "112837.662500", "112833.822500", "112837.772500", "112833.932500", "112837.882500", "112834.042500", "112837.992500", "112834.152500", "112838.102500", "112834.262500", "112838.212500", "112834.372500", "112838.322500", "112834.482500", "112838.432500", "112834.592500", "112838.542500", "112834.702500", "112838.650000", "112834.810000", "112838.760000", "112834.920000", "112838.870000", "112835.030000", "112838.980000", "112835.140000", "112839.090000", "112835.250000", "112839.200000", "112835.360000", "112839.310000", "112835.470000", "112839.420000", "112835.580000", "112839.527500", "112835.690000", "112839.637500", "112835.797500", "112843.607500", "112839.767500", "112843.717500", "112839.877500", "112843.827500", "112839.987500", "112843.937500", "112840.097500", "112844.047500", "112840.207500", "112844.157500", "112840.317500", "112844.267500", "112840.427500", "112844.375000", "112840.537500", "112844.485000", "112840.645000", "112844.595000", "112840.755000", "112844.705000", "112840.865000", "112844.815000", "112840.975000", "112844.925000", "112841.085000", "112845.035000", "112841.195000", "112845.145000", "112841.305000", "112845.255000", "112841.415000", "112845.362500", "112841.522500", "112845.472500", "112841.632500", "112845.582500", "112841.742500", "112845.692500", "112841.852500", "112845.802500", "112841.962500", "112845.912500", "112842.072500", "112846.022500", "112842.182500", "112846.132500", "112842.292500", "112846.242500", "112842.402500", "112846.350000", "112842.510000", "112846.460000", "112842.620000", "112846.570000", "112842.730000", "112846.680000", "112842.840000", "112846.790000", "112842.950000", "112846.900000", "112843.060000", "112847.010000", "112843.170000", "112847.120000", "112843.280000", "112847.227500", "112843.390000", "112847.337500", "112843.497500", "112851.307500", "112847.467500", "112851.417500", "112847.577500", "112851.527500", "112847.687500", "112851.637500", "112847.797500", "112851.747500", "112847.907500", "112851.857500", "112848.017500", "112851.967500", "112848.127500", "112852.075000", "112848.237500", "112852.185000", "112848.345000", "112852.295000", "112848.455000", "112852.405000", "112848.565000", "112852.515000", "112848.675000", "112852.625000", "112848.785000", "112852.735000", "112848.895000", "112852.845000", "112849.005000", "112852.955000", "112849.115000", "112853.062500", "112849.222500", "112853.172500", "112849.332500", "112853.282500", "112849.442500", "112853.392500", "112849.552500", "112853.502500", "112849.662500", "112853.612500", "112849.772500", "112853.722500", "112849.882500", "112853.832500", "112849.992500", "112853.942500", "112850.102500", "112854.050000", "112850.210000", "112854.160000", "112850.320000", "112854.270000", "112850.430000", "112854.380000", "112850.540000", "112854.490000", "112850.650000", "112854.600000", "112850.760000", "112854.710000", "112850.870000", "112854.820000", "112850.980000", "112854.927500", "112851.090000", "112855.037500", "112851.197500", "112859.007500", "112855.167500", "112859.117500", "112855.277500", "112859.227500", "112855.387500", "112859.337500", "112855.497500", "112859.447500", "112855.607500", "112859.557500", "112855.717500", "112859.667500", "112855.827500", "112859.775000", "112855.937500", "112859.885000", "112856.045000", "112859.995000", "112856.155000", "112900.105000", "112856.265000", "112900.215000", "112856.375000", "112900.325000", "112856.485000", "112900.435000", "112856.595000", "112900.545000", "112856.705000", "112900.655000", "112856.815000", "112900.762500", "112856.922500", "112900.872500", "112857.032500", "112900.982500", "112857.142500", "112901.092500", "112857.252500", "112901.202500", "112857.362500", "112901.312500", "112857.472500", "112901.422500", "112857.582500", "112901.532500", "112857.692500", "112901.642500", "112857.802500", "112901.750000", "112857.910000", "112901.860000", "112858.020000", "112901.970000", "112858.130000", "112902.080000", "112858.240000", "112902.190000", "112858.350000", "112902.300000", "112858.460000", "112902.410000", "112858.570000", "112902.520000", "112858.680000", "112902.627500", "112858.790000", "112902.737500", "112858.897500", "112906.707500", "112902.867500", "112906.817500", "112902.977500", "112906.927500", "112903.087500", "112907.037500", "112903.197500", "112907.147500", "112903.307500", "112907.257500", "112903.417500", "112907.367500", "112903.527500", "112907.475000", "112903.637500", "112907.585000", "112903.745000", "112907.695000", "112903.855000", "112907.805000", "112903.965000", "112907.915000", "112904.075000", "112908.025000", "112904.185000", "112908.135000", "112904.295000", "112908.245000", "112904.405000", "112908.355000", "112904.515000", "112908.462500", "112904.622500", "112908.572500", "112904.732500", "112908.682500", "112904.842500", "112908.792500", "112904.952500", "112908.902500", "112905.062500", "112909.012500", "112905.172500", "112909.122500", "112905.282500", "112909.232500", "112905.392500", "112909.342500", "112905.502500", "112909.450000", "112905.610000", "112909.560000", "112905.720000", "112909.670000", "112905.830000", "112909.780000", "112905.940000", "112909.890000", "112906.050000", "112910.000000", "112906.160000", "112910.110000", "112906.270000", "112910.220000", "112906.380000", "112910.327500", "112906.490000", "112910.437500", "112906.597500", "112914.407500", "112910.567500", "112914.517500", "112910.677500", "112914.627500", "112910.787500", "112914.737500", "112910.897500", "112914.847500", "112911.007500", "112914.957500", "112911.117500", "112915.067500", "112911.227500", "112915.175000", "112911.337500", "112915.285000", "112911.445000", "112915.395000", "112911.555000", "112915.505000", "112911.665000", "112915.615000", "112911.775000", "112915.725000", "112911.885000", "112915.835000", "112911.995000", "112915.945000", "112912.105000", "112916.055000", "112912.215000", "112916.162500", "112912.322500", "112916.272500", "112912.432500", "112916.382500", "112912.542500", "112916.492500", "112912.652500", "112916.602500", "112912.762500", "112916.712500", "112912.872500", "112916.822500", "112912.982500", "112916.932500", "112913.092500", "112917.042500", "112913.202500", "112917.150000", "112913.310000", "112917.260000", "112913.420000", "112917.370000", "112913.530000", "112917.480000", "112913.640000", "112917.590000", "112913.750000", "112917.700000", "112913.860000", "112917.810000", "112913.970000", "112917.920000", "112914.080000", "112918.027500", "112914.190000", "112918.137500", "112914.297500", "112922.107500", "112918.267500", "112922.217500", "112918.377500", "112922.327500", "112918.487500", "112922.437500", "112918.597500", "112922.547500", "112918.707500", "112922.657500", "112918.817500", "112922.767500", "112918.927500", "112922.875000", "112919.037500", "112922.985000", "112919.145000", "112923.095000", "112919.255000", "112923.205000", "112919.365000", "112923.315000", "112919.475000", "112923.425000", "112919.585000", "112923.535000", "112919.695000", "112923.645000", "112919.805000", "112923.755000", "112919.915000", "112923.862500", "112920.022500", "112923.972500", "112920.132500", "112924.082500", "112920.242500", "112924.192500", "112920.352500", "112924.302500", "112920.462500", "112924.412500", "112920.572500", "112924.522500", "112920.682500", "112924.632500", "112920.792500", "112924.742500", "112920.902500", "112924.850000", "112921.010000", "112924.960000", "112921.120000", "112925.070000", "112921.230000", "112925.180000", "112921.340000", "112925.290000", "112921.450000", "112925.400000", "112921.560000", "112925.510000", "112921.670000", "112925.620000", "112921.780000", "112925.727500", "112921.890000", "112925.837500", "112921.997500", "112929.807500", "112925.967500", "112929.917500", "112926.077500", "112930.027500", "112926.187500", "112930.137500", "112926.297500", "112930.247500", "112926.407500", "112930.357500", "112926.517500", "112930.467500", "112926.627500", "112930.575000", "112926.737500", "112930.685000", "112926.845000", "112930.795000", "112926.955000", "112930.905000", "112927.065000", "112931.015000", "112927.175000", "112931.125000", "112927.285000", "112931.235000", "112927.395000", "112931.345000", "112927.505000", "112931.455000", "112927.615000", "112931.562500", "112927.722500", "112931.672500", "112927.832500", "112931.782500", "112927.942500", "112931.892500", "112928.052500", "112932.002500", "112928.162500", "112932.112500", "112928.272500", "112932.222500", "112928.382500", "112932.332500", "112928.492500", "112932.442500", "112928.602500", "112932.550000", "112928.710000", "112932.660000", "112928.820000", "112932.770000", "112928.930000", "112932.880000", "112929.040000", "112932.990000", "112929.150000", "112933.100000", "112929.260000", "112933.210000", "112929.370000", "112933.320000", "112929.480000", "112933.427500", "112929.590000", "112933.537500", "112929.697500", "112937.507500", "112933.667500", "112937.617500", "112933.777500", "112937.727500", "112933.887500", "112937.837500", "112933.997500", "112937.947500", "112934.107500", "112938.057500", "112934.217500", "112938.167500", "112934.327500", "112938.275000", "112934.437500", "112938.385000", "112934.545000", "112938.495000", "112934.655000", "112938.605000", "112934.765000", "112938.715000", "112934.875000", "112938.825000", "112934.985000", "112938.935000", "112935.095000", "112939.045000", "112935.205000", "112939.155000", "112935.315000", "112939.262500", "112935.422500", "112939.372500", "112935.532500", "112939.482500", "112935.642500", "112939.592500", "112935.752500", "112939.702500", "112935.862500", "112939.812500", "112935.972500", "112939.922500", "112936.082500", "112940.032500", "112936.192500", "112940.142500", "112936.302500", "112940.250000", "112936.410000", "112940.360000", "112936.520000", "112940.470000", "112936.630000", "112940.580000", "112936.740000", "112940.690000", "112936.850000", "112940.800000", "112936.960000", "112940.910000", "112937.070000", "112941.020000", "112937.180000", "112941.127500", "112937.290000", "112941.237500", "112937.397500", "112945.207500", "112941.367500", "112945.317500", "112941.477500", "112945.427500", "112941.587500", "112945.537500", "112941.697500", "112945.647500", "112941.807500", "112945.757500", "112941.917500", "112945.867500", "112942.027500", "112945.975000", "112942.137500", "112946.085000", "112942.245000", "112946.195000", "112942.355000", "112946.305000", "112942.465000", "112946.415000", "112942.575000", "112946.525000", "112942.685000", "112946.635000", "112942.795000", "112946.745000", "112942.905000", "112946.855000", "112943.015000", "112946.962500", "112943.122500", "112947.072500", "