{
  "AcquisitionMatrixPE": 122,
  "AcquisitionNumber": 1,
  "AcquisitionTime": "10:30:12.467500",
  "BandwidthPerPixelPhaseEncode": 27.785,
  "BaseResolution": 122,
  "BodyPartExamined": "BRAIN",
  "CoilCombinationMethod": "Adaptive Combine",
  "ConsistencyInfo": "N4_VE11C_LATEST_20160120",
  "ConversionSoftware": "dcm2niix",
  "ConversionSoftwareVersion": "v1.0.20220720",
  "DerivedVendorReportedEchoSpacing": 0.000590011,
  "DeviceSerialNumber": "66112",
  "DiffusionScheme": "Monopolar",
  "DwellTime": 2e-06,
  "EchoTime": 0.068,
  "EchoTrainLength": 61,
  "EffectiveEchoSpacing": 0.000295005,
  "FlipAngle": 90,
  "HeudiconvVersion": "0.13.1",
  "ImageOrientationPatientDICOM": [0.985878, -0.167457, 0.00171723, 0.159148, 0.94005, 0.301624],
  "ImageOrientationText": "Tra>Cor(17.3)>Sag(3.0)",
  "ImageType": [
    "ORIGINAL",
    "PRIMARY",
    "DIFFUSION",
    "NONE",
    "ND",
    "NORM"
],
  "ImagingFrequency": 123.253,
  "InPlanePhaseEncodingDirectionDICOM": "COL",
  "InstitutionAddress": "Maynard 3,Hanover,NH,US,03755",
  "InstitutionName": "Dartmouth College - PBS",
  "InstitutionalDepartmentName": "Department",
  "MRAcquisitionType": "2D",
  "MagneticFieldStrength": 3,
  "Manufacturer": "Siemens",
  "ManufacturersModelName": "Prisma",
  "Modality": "MR",
  "MultibandAccelerationFactor": 4,
  "NonlinearGradientCorrection": false,
  "ParallelReductionFactorInPlane": 2,
  "PartialFourier": 1,
  "PatientPosition": "HFS",
  "PercentPhaseFOV": 100,
  "PercentSampling": 100,
  "PhaseEncodingDirection": "j-",
  "PhaseEncodingSteps": 122,
  "PhaseResolution": 1,
  "PixelBandwidth": 2050,
  "ProcedureStepDescription": "dbic^QA",
  "ProtocolName": "DTI_30_p2_s4",
  "PulseSequenceDetails": "%SiemensSeq%\\ep2d_diff",
  "ReceiveCoilActiveElements": "HEA;HEP",
  "ReceiveCoilName": "Head_32",
  "ReconMatrixPE": 122,
  "RefLinesPE": 38,
  "RepetitionTime": 3.6,
  "SAR": 0.160849,
  "ScanOptions": "FS",
  "ScanningSequence": "EP",
  "SequenceName": "*ep_b0",
  "SequenceVariant": "SK\\SP",
  "SeriesDescription": "DTI_30_p2_s4",
  "SeriesNumber": 9,
  "ShimSetting": [4144, -7692, -7504, 270, -99, -95, -28, 94],
  "SliceThickness": 2,
  "SliceTiming": [2.58594, 0, 1.78906, 0.20312, 1.99219, 0.39844, 2.1875, 0.59375, 2.39062, 0.99219, 2.78125, 1.19531, 2.98438, 1.39062, 3.17969, 1.59375, 3.38281, 0.79688, 2.58594, 0, 1.78906, 0.20312, 1.99219, 0.39844, 2.1875, 0.59375, 2.39062, 0.99219, 2.78125, 1.19531, 2.98438, 1.39062, 3.17969, 1.59375, 3.38281, 0.79688, 2.58594, 0, 1.78906, 0.20312, 1.99219, 0.39844, 2.1875, 0.59375, 2.39062, 0.99219, 2.78125, 1.19531, 2.98438, 1.39062, 3.17969, 1.59375, 3.38281, 0.79688, 2.58594, 0, 1.78906, 0.20312, 1.99219, 0.39844, 2.1875, 0.59375, 2.39062, 0.99219, 2.78125, 1.19531, 2.98438, 1.39062, 3.17969, 1.59375, 3.38281, 0.79688],
  "SoftwareVersions": "syngo MR E11",
  "SpacingBetweenSlices": 2,
  "SpoilingState": true,
  "StationName": "AWP66112",
  "TotalReadoutTime": 0.0356956,
  "TxRefAmp": 231.529,
  "dcmmeta_affine": [
    [-1.93943190574646, 0.31307747960090637, 0.10424685478210449, 89.96876525878906],
    [0.3294239044189453, 1.849279522895813, 0.5941829681396484, -144.98226928710938],
    [0.0033781512174755335, -0.5933593511581421, 1.9068527221679688, -37.31984329223633],
    [0.0, 0.0, 0.0, 1.0]
],
  "dcmmeta_reorient_transform": [
    [0.0, -1.0, 0.0, 121.0],
    [1.0, 0.0, 0.0, 0.0],
    [0.0, 0.0, -1.0, 71.0],
    [0.0, 0.0, 0.0, 1.0]
],
  "dcmmeta_shape": [122, 122, 72, 31],
  "dcmmeta_slice_dim": 2,
  "dcmmeta_version": 0.6,
  "global": {
    "const": {
      "AccessionNumber": "qa",
      "AcquisitionMatrix": [122, 0, 0, 122],
      "AngioFlag": "N",
      "BitsAllocated": 16,
      "BitsStored": 12,
      "BodyPartExamined": "BRAIN",
      "Columns": 122,
      "EchoNumbers": 1,
      "EchoTime": 68.0,
      "EchoTrainLength": 61,
      "FlipAngle": 90.0,
      "HighBit": 11,
      "ImageOrientationPatient": [0.98587785983552, -0.1674571486026, 0.00171722683796, 0.15914770965886, 0.94005040756959, 0.30162433213948],
      "ImageType": [
        "ORIGINAL",
        "PRIMARY",
        "DIFFUSION",
        "NONE",
        "ND",
        "NORM"
],
      "ImagedNucleus": "1H",
      "ImagingFrequency": 123.252628,
      "InPlanePhaseEncodingDirection": "COL",
      "MRAcquisitionType": "2D",
      "MagneticFieldStrength": 3.0,
      "Manufacturer": "SIEMENS",
      "ManufacturerModelName": "Prisma",
      "Modality": "MR",
      "NumberOfAverages": 1.0,
      "NumberOfPhaseEncodingSteps": 122,
      "PercentPhaseFieldOfView": 100.0,
      "PercentSampling": 100.0,
      "PerformedProcedureStepStartTime": "101702.601000",
      "PhotometricInterpretation": "MONOCHROME2",
      "PixelBandwidth": 2050.0,
      "PixelRepresentation": 0,
      "PixelSpacing": [1.9672131538391, 1.9672131538391],
      "ProtocolName": "DTI_30_p2_s4",
      "RepetitionTime": 3600.0,
      "Rows": 122,
      "SAR": 0.16084880298936,
      "SamplesPerPixel": 1,
      "ScanOptions": "FS",
      "ScanningSequence": "EP",
      "SequenceVariant": [
        "SK",
        "SP"
],
      "SeriesDescription": "DTI_30_p2_s4",
      "SeriesNumber": 9,
      "SeriesTime": "103021.855000",
      "SliceThickness": 2.0,
      "SmallestImagePixelValue": 0,
      "SoftwareVersions": "syngo MR E11",
      "SpacingBetweenSlices": 2.0,
      "SpecificCharacterSet": "ISO_IR 100",
      "StudyID": "9",
      "StudyTime": "101702.485000",
      "TransmitCoilName": "Body",
      "VariableFlipAngleFlag": "N",
      "WindowCenterWidthExplanation": "Algo1",
      "dBdt": 0.0},
    "slices": {
      "AcquisitionTime": ["103012.467500", "103009.882500", "103011.672500", "103010.082500", "103011.872500", "103010.280000", "103012.070000", "103010.480000", "103012.270000", "103010.877500", "103012.667500", "103011.077500", "103012.867500", "103011.275000", "103013.065000", "103011.475000", "103013.265000", "103010.680000", "103012.467500", "103009.882500", "103011.672500", "103010.082500", "103011.872500", "103010.280000", "103012.070000", "103010.480000", "103012.270000", "103010.877500", "103012.667500", "103011.077500", "103012.867500", "103011.275000", "103013.065000", "103011.475000", "103013.265000", "103010.680000", "103012.467500", "103009.882500", "103011.672500", "103010.082500", "103011.872500", "103010.280000", "103012.070000", "103010.480000", "103012.270000", "103010.877500", "103012.667500", "103011.077500", "103012.867500", "103011.275000", "103013.065000", "103011.475000", "103013.265000", "103010.680000", "103012.467500", "103009.882500", "103011.672500", "103010.082500", "103011.872500", "103010.280000", "103012.070000", "103010.480000", "103012.270000", "103010.877500", "103012.667500", "103011.077500", "103012.867500", "103011.275000", "103013.065000", "103011.475000", "103013.265000", "103010.680000", "103016.067500", "103013.482500", "103015.272500", "103013.682500", "103015.472500", "103013.880000", "103015.670000", "103014.080000", "103015.870000", "103014.477500", "103016.267500", "103014.677500", "103016.467500", "103014.875000", "103016.665000", "103015.075000", "103016.865000", "103014.280000", "103016.067500", "103013.482500", "103015.272500", "103013.682500", "103015.472500", "103013.880000", "103015.670000", "103014.080000", "103015.870000", "103014.477500", "103016.267500", "103014.677500", "103016.467500", "103014.875000", "103016.665000", "103015.075000", "103016.865000", "103014.280000", "103016.067500", "103013.482500", "103015.272500", "103013.682500", "103015.472500", "103013.880000", "103015.670000", "103014.080000", "103015.870000", "103014.477500", "103016.267500", "103014.677500", "103016.467500", "103014.875000", "103016.665000", "103015.075000", "103016.865000", "103014.280000", "103016.067500", "103013.482500", "103015.272500", "103013.682500", "103015.472500", "103013.880000", "103015.670000", "103014.080000", "103015.870000", "103014.477500", "103016.267500", "103014.677500", "103016.467500", "103014.875000", "103016.665000", "103015.075000", "103016.865000", "103014.280000", "103019.667500", "103017.082500", "103018.872500", "103017.282500", "103019.072500", "103017.480000", "103019.270000", "103017.680000", "103019.470000", "103018.077500", "103019.867500", "103018.277500", "103020.067500", "103018.475000", "103020.265000", "103018.675000", "103020.465000", "103017.880000", "103019.667500", "103017.082500", "103018.872500", "103017.282500", "103019.072500", "103017.480000", "103019.270000", "103017.680000", "103019.470000", "103018.077500", "103019.867500", "103018.277500", "103020.067500", "103018.475000", "103020.265000", "103018.675000", "103020.465000", "103017.880000", "103019.667500", "103017.082500", "103018.872500", "103017.282500", "103019.072500", "103017.480000", "103019.270000", "103017.680000", "103019.470000", "103018.077500", "103019.867500", "103018.277500", "103020.067500", "103018.475000", "103020.265000", "103018.675000", "103020.465000", "103017.880000", "103019.667500", "103017.082500", "103018.872500", "103017.282500", "103019.072500", "103017.480000", "103019.270000", "103017.680000", "103019.470000", "103018.077500", "103019.867500", "103018.277500", "103020.067500", "103018.475000", "103020.265000", "103018.675000", "103020.465000", "103017.880000", "103023.267500", "103020.682500", "103022.472500", "103020.882500", "103022.672500", "103021.080000", "103022.870000", "103021.280000", "103023.070000", "103021.677500", "103023.467500", "103021.877500", "103023.667500", "103022.075000", "103023.865000", "103022.275000", "103024.065000", "103021.480000", "103023.267500", "103020.682500", "103022.472500", "103020.882500", "103022.672500", "103021.080000", "103022.870000", "103021.280000", "103023.070000", "103021.677500", "103023.467500", "103021.877500", "103023.667500", "103022.075000", "103023.865000", "103022.275000", "103024.065000", "103021.480000", "103023.267500", "103020.682500", "103022.472500", "103020.882500", "103022.672500", "103021.080000", "103022.870000", "103021.280000", "103023.070000", "103021.677500", "103023.467500", "103021.877500", "103023.667500", "103022.075000", "103023.865000", "103022.275000", "103024.065000", "103021.480000", "103023.267500", "103020.682500", "103022.472500", "103020.882500", "103022.672500", "103021.080000", "103022.870000", "103021.280000", "103023.070000", "103021.677500", "103023.467500", "103021.877500", "103023.667500", "103022.075000", "103023.865000", "103022.275000", "103024.065000", "103021.480000", "103026.867500", "103024.282500", "103026.072500", "103024.482500", "103026.272500", "103024.680000", "103026.470000", "103024.880000", "103026.670000", "103025.277500", "103027.067500", "103025.477500", "103027.267500", "103025.675000", "103027.465000", "103025.875000", "103027.665000", "103025.080000", "103026.867500", "103024.282500", "103026.072500", "103024.482500", "103026.272500", "103024.680000", "103026.470000", "103024.880000", "103026.670000", "103025.277500", "103027.067500", "103025.477500", "103027.267500", "103025.675000", "103027.465000", "103025.875000", "103027.665000", "103025.080000", "103026.867500", "103024.282500", "103026.072500", "103024.482500", "103026.272500", "103024.680000", "103026.470000", "103024.880000", "103026.670000", "103025.277500", "103027.067500", "103025.477500", "103027.267500", "103025.675000", "103027.465000", "103025.875000", "103027.665000", "103025.080000", "103026.867500", "103024.282500", "103026.072500", "103024.482500", "103026.272500", "103024.680000", "103026.470000", "103024.880000", "103026.670000", "103025.277500", "103027.067500", "103025.477500", "103027.267500", "103025.675000", "103027.465000", "103025.875000", "103027.665000", "103025.080000", "103030.467500", "103027.882500", "103029.672500", "103028.082500", "103029.872500", "103028.280000", "103030.070000", "103028.480000", "103030.270000", "103028.877500", "103030.667500", "103029.077500", "103030.867500", "103029.275000", "103031.065000", "103029.475000", "103031.265000", "103028.680000", "103030.467500", "103027.882500", "103029.672500", "103028.082500", "103029.872500", "103028.280000", "103030.070000", "103028.480000", "103030.270000", "103028.877500", "103030.667500", "103029.077500", "103030.867500", "103029.275000", "103031.065000", "103029.475000", "103031.265000", "103028.680000", "103030.467500", "103027.882500", "103029.672500", "103028.082500", "103029.872500", "103028.280000", "103030.070000", "103028.480000", "103030.270000", "103028.877500", "103030.667500", "103029.077500", "103030.867500", "103029.275000", "103031.065000", "103029.475000", "103031.265000", "103028.680000", "103030.467500", "103027.882500", "103029.672500", "103028.082500", "103029.872500", "103028.280000", "103030.070000", "103028.480000", "103030.270000", "103028.877500", "103030.667500", "103029.077500", "103030.867500", "103029.275000", "103031.065000", "103029.475000", "103031.265000", "103028.680000", "103034.067500", "103031.482500", "103033.272500", "103031.682500", "103033.472500", "103031.880000", "103033.670000", "103032.080000", "103033.870000", "103032.477500", "103034.267500", "103032.677500", "103034.467500", "103032.875000", "103034.665000", "103033.075000", "103034.865000", "103032.280000", "103034.067500", "103031.482500", "103033.272500", "103031.682500", "103033.472500", "103031.880000", "103033.670000", "103032.080000", "103033.870000", "103032.477500", "103034.267500", "103032.677500", "103034.467500", "103032.875000", "103034.665000", "103033.075000", "103034.865000", "103032.280000", "103034.067500", "103031.482500", "103033.272500", "103031.682500", "103033.472500", "103031.880000", "103033.670000", "103032.080000", "103033.870000", "103032.477500", "103034.267500", "103032.677500", "103034.467500", "103032.875000", "103034.665000", "103033.075000", "103034.865000", "103032.280000", "103034.067500", "103031.482500", "103033.272500", "103031.682500", "103033.472500", "103031.880000", "103033.670000", "103032.080000", "103033.870000", "103032.477500", "103034.267500", "103032.677500", "103034.467500", "103032.875000", "103034.665000", "103033.075000", "103034.865000", "103032.280000", "103037.667500", "103035.082500", "103036.872500", "103035.282500", "103037.072500", "103035.480000", "103037.270000", "103035.680000", "103037.470000", "103036.077500", "103037.867500", "103036.277500", "103038.067500", "103036.475000", "103038.265000", "103036.675000", "103038.465000", "103035.880000", "103037.667500", "103035.082500", "103036.872500", "103035.282500", "103037.072500", "103035.480000", "103037.270000", "103035.680000", "103037.470000", "103036.077500", "103037.867500", "103036.277500", "103038.067500", "103036.475000", "103038.265000", "103036.675000", "103038.465000", "103035.880000", "103037.667500", "103035.082500", "103036.872500", "103035.282500", "103037.072500", "103035.480000", "103037.270000", "103035.680000", "103037.470000", "103036.077500", "103037.867500", "103036.277500", "103038.067500", "103036.475000", "103038.265000", "103036.675000", "103038.465000", "103035.880000", "103037.667500", "103035.082500", "103036.872500", "103035.282500", "103037.072500", "103035.480000", "103037.270000", "103035.680000", "103037.470000", "103036.077500", "103037.867500", "103036.277500", "103038.067500", "103036.475000", "103038.265000", "103036.675000", "103038.465000", "103035.880000", "103041.267500", "103038.682500", "103040.472500", "103038.882500", "103040.672500", "103039.080000", "103040.870000", "103039.280000", "103041.070000", "103039.677500", "103041.467500", "103039.877500", "103041.667500", "103040.075000", "103041.865000", "103040.275000", "103042.065000", "103039.480000", "103041.267500", "103038.682500", "103040.472500", "103038.882500", "103040.672500", "103039.080000", "103040.870000", "103039.280000", "103041.070000", "103039.677500", "103041.467500", "103039.877500", "103041.667500", "103040.075000", "103041.865000", "103040.275000", "103042.065000", "103039.480000", "103041.267500", "103038.682500", "103040.472500", "103038.882500", "103040.672500", "103039.080000", "103040.870000", "103039.280000", "103041.070000", "103039.677500", "103041.467500", "103039.877500", "103041.667500", "103040.075000", "103041.865000", "103040.275000", "103042.065000", "103039.480000", "103041.267500", "103038.682500", "103040.472500", "103038.882500", "103040.672500", "103039.080000", "103040.870000", "103039.280000", "103041.070000", "103039.677500", "103041.467500", "103039.877500", "103041.667500", "103040.075000", "103041.865000", "103040.275000", "103042.065000", "103039.480000", "103044.867500", "103042.282500", "103044.072500", "103042.482500", "103044.272500", "103042.680000", "103044.470000", "103042.880000", "103044.670000", "103043.277500", "103045.067500", "103043.477500", "103045.267500", "103043.675000", "103045.465000", "103043.875000", "103045.665000", "103043.080000", "103044.867500", "103042.282500", "103044.072500", "103042.482500", "103044.272500", "103042.680000", "103044.470000", "103042.880000", "103044.670000", "103043.277500", "103045.067500", "103043.477500", "103045.267500", "103043.675000", "103045.465000", "103043.875000", "103045.665000", "103043.080000", "103044.867500", "103042.282500", "103044.072500", "103042.482500", "103044.272500", "103042.680000", "103044.470000", "103042.880000", "103044.670000", "103043.277500", "103045.067500", "103043.477500", "103045.267500", "103043.675000", "103045.465000", "103043.875000", "103045.665000", "103043.080000", "103044.867500", "103042.282500", "103044.072500", "103042.482500", "103044.272500", "103042.680000", "103044.470000", "103042.880000", "103044.670000", "103043.277500", "103045.067500", "103043.477500", "103045.267500", "103043.675000", "103045.465000", "103043.875000", "103045.665000", "103043.080000", "103048.467500", "103045.882500", "103047.672500", "103046.082500", "103047.872500", "103046.280000", "103048.070000", "103046.480000", "103048.270000", "103046.877500", "103048.667500", "103047.077500", "103048.867500", "103047.275000", "103049.065000", "103047.475000", "103049.265000", "103046.680000", "103048.467500", "103045.882500", "103047.672500", "103046.082500", "103047.872500", "103046.280000", "103048.070000", "103046.480000", "103048.270000", "103046.877500", "103048.667500", "103047.077500", "103048.867500", "103047.275000", "103049.065000", "103047.475000", "103049.265000", "103046.680000", "103048.467500", "103045.882500", "103047.672500", "103046.082500", "103047.872500", "103046.280000", "103048.070000", "103046.480000", "103048.270000", "103046.877500", "103048.667500", "103047.077500", "103048.867500", "103047.275000", "103049.065000", "103047.475000", "103049.265000", "103046.680000", "103048.467500", "103045.882500", "103047.672500", "103046.082500", "103047.872500", "103046.280000", "103048.070000", "103046.480000", "103048.270000", "103046.877500", "103048.667500", "103047.077500", "103048.867500", "103047.275000", "103049.065000", "103047.475000", "103049.265000", "103046.680000", "103052.067500", "103049.482500", "103051.272500", "103049.682500", "103051.472500", "103049.880000", "103051.670000", "103050.080000", "103051.870000", "103050.477500", "103052.267500", "103050.677500", "103052.467500", "103050.875000", "103052.665000", "103051.075000", "103052.865000", "103050.280000", "103052.067500", "103049.482500", "103051.272500", "103049.682500", "103051.472500", "103049.880000", "103051.670000", "103050.080000", "103051.870000", "103050.477500", "103052.267500", "103050.677500", "103052.467500", "103050.875000", "103052.665000", "103051.075000", "103052.865000", "103050.280000", "103052.067500", "103049.482500", "103051.272500", "103049.682500", "103051.472500", "103049.880000", "103051.670000", "103050.080000", "103051.870000", "103050.477500", "103052.267500", "103050.677500", "103052.467500", "103050.875000", "103052.665000", "103051.075000", "103052.865000", "103050.280000", "103052.067500", "103049.482500", "103051.272500", "103049.682500", "103051.472500", "103049.880000", "103051.670000", "103050.080000", "103051.870000", "103050.477500", "103052.267500", "103050.677500", "103052.467500", "103050.875000", "103052.665000", "103051.075000", "103052.865000", "103050.280000", "103055.667500", "103053.082500", "103054.872500", "103053.282500", "103055.072500", "103053.480000", "103055.270000", "103053.680000", "103055.470000", "103054.077500", "103055.867500", "103054.277500", "103056.067500", "103054.475000", "103056.265000", "103054.675000", "103056.465000", "103053.880000", "103055.667500", "103053.082500", "103054.872500", "103053.282500", "103055.072500", "103053.480000", "103055.270000", "103053.680000", "103055.470000", "103054.077500", "103055.867500", "103054.277500", "103056.067500", "103054.475000", "103056.265000", "103054.675000", "103056.465000", "103053.880000", "103055.667500", "103053.082500", "103054.872500", "103053.282500", "103055.072500", "103053.480000", "103055.270000", "103053.680000", "103055.470000", "103054.077500", "103055.867500", "103054.277500", "103056.067500", "103054.475000", "103056.265000", "103054.675000", "103056.465000", "103053.880000", "103055.667500", "103053.082500", "103054.872500", "103053.282500", "103055.072500", "103053.480000", "103055.270000", "103053.680000", "103055.470000", "103054.077500", "103055.867500", "103054.277500", "103056.067500", "103054.475000", "103056.265000", "103054.675000", "103056.465000", "103053.880000", "103059.267500", "103056.682500", "103058.472500", "103056.882500", "103058.672500", "103057.080000", "103058.870000", "103057.280000", "103059.070000", "103057.677500", "103059.467500", "103057.877500", "103059.667500", "103058.075000", "103059.865000", "103058.275000", "103100.065000", "103057.480000", "103059.267500", "103056.682500", "103058.472500", "103056.882500", "103058.672500", "103057.080000", "103058.870000", "103057.280000", "103059.070000", "103057.677500", "103059.467500", "103057.877500", "103059.667500", "103058.075000", "103059.865000", "103058.275000", "103100.065000", "103057.480000", "103059.267500", "103056.682500", "103058.472500", "103056.882500", "103058.672500", "103057.080000", "103058.870000", "103057.280000", "103059.070000", "103057.677500", "103059.467500", "103057.877500", "103059.667500", "103058.075000", "103059.865000", "103058.275000", "103100.065000", "103057.480000", "103059.267500", "103056.682500", "103058.472500", "103056.882500", "103058.672500", "103057.080000", "103058.870000", "103057.280000", "103059.070000", "103057.677500", "103059.467500", "103057.877500", "103059.667500", "103058.075000", "103059.865000", "103058.275000", "103100.065000", "103057.480000", "103102.867500", "103100.282500", "103102.072500", "103100.482500", "103102.272500", "103100.680000", "103102.470000", "103100.880000", "103102.670000", "103101.277500", "103103.067500", "103101.477500", "103103.267500", "103101.675000", "103103.465000", "103101.875000", "103103.665000", "103101.080000", "103102.867500", "103100.282500", "103102.072500", "103100.482500", "103102.272500", "103100.680000", "103102.470000", "103100.880000", "103102.670000", "103101.277500", "103103.067500", "103101.477500", "103103.267500", "103101.675000", "103103.465000", "103101.875000", "103103.665000", "103101.080000", "103102.867500", "103100.282500", "103102.072500", "103100.482500", "103102.272500", "103100.680000", "103102.470000", "103100.880000", "103102.670000", "103101.277500", "103103.067500", "103101.477500", "103103.267500", "103101.675000", "103103.465000", "103101.875000", "103103.665000", "103101.080000", "103102.867500", "103100.282500", "103102.072500", "103100.482500", "103102.272500", "103100.680000", "103102.470000", "103100.880000", "103102.670000", "103101.277500", "103103.067500", "103101.477500", "103103.267500", "103101.675000", "103103.465000", "103101.875000", "103103.665000", "103101.080000", "103106.467500", "103103.882500", "103105.672500", "103104.082500", "103105.872500", "103104.280000", "103106.070000", "103104.480000", "103106.270000", "103104.877500", "103106.667500", "103105.077500", "103106.867500", "103105.275000", "103107.065000", "103105.475000", "103107.265000", "103104.680000", "103106.467500", "103103.882500", "103105.672500", "103104.082500", "103105.872500", "103104.280000", "103106.070000", "103104.480000", "103106.270000", "103104.877500", "103106.667500", "103105.077500", "103106.867500", "103105.275000", "103107.065000", "103105.475000", "103107.265000", "103104.680000", "103106.467500", "103103.882500", "103105.672500", "103104.082500", "103105.872500", "103104.280000", "103106.070000", "103104.480000", "103106.270000", "103104.877500", "103106.667500", "103105.077500", "103106.867500", "103105.275000", "103107.065000", "103105.475000", "103107.265000", "103104.680000", "103106.467500", "103103.882500", "103105.672500", "103104.082500", "103105.872500", "103104.280000", "103106.070000", "103104.480000", "103106.270000", "103104.877500", "103106.667500", "103105.077500", "103106.867500", "103105.275000", "103107.065000", "103105.475000", "103107.265000", "103104.680000", "103110.067500", "103107.482500", "103109.272500", "103107.682500", "103109.472500", "103107.880000", "103109.670000", "103108.080000", "103109.870000", "103108.477500", "103110.267500", "103108.677500", "103110.467500", "103108.875000", "103110.665000", "103109.075000", "103110.865000", "103108.280000", "103110.067500", "103107.482500", "103109.272500", "103107.682500", "103109.472500", "103107.880000", "103109.670000", "103108.080000", "103109.870000", "103108.477500", "103110.267500", "103108.677500", "103110.467500", "103108.875000", "103110.665000", "103109.075000", "103110.865000", "103108.280000", "103110.067500", "103107.482500", "103109.272500", "103107.682500", "103109.472500", "103107.880000", "103109.670000", "103108.080000", "103109.870000", "103108.477500", "103110.267500", "103108.677500", "103110.467500", "103108.875000", "103110.665000", "103109.075000", "103110.865000", "103108.280000", "103110.067500", "103107.482500", "103109.272500", "103107.682500", "103109.472500", "103107.880000", "103109.670000", "103108.080000", "103109.870000", "103108.477500", "103110.267500", "103108.677500", "103110.467500", "103108.875000", "103110.665000", "103109.075000", "103110.865000", "103108.280000", "103113.667500", "103111.082500", "103112.872500", "103111.282500", "103113.072500", "103111.480000", "103113.270000", "103111.680000", "103113.470000", "103112.077500", "103113.867500", "103112.277500", "103114.067500", "103112.475000", "103114.265000", "103112.675000", "103114.465000", "103111.880000", "103113.667500", "103111.082500", "103112.872500", "103111.282500", "103113.072500", "103111.480000", "103113.270000", "103111.680000", "103113.470000", "103112.077500", "103113.867500", "103112.277500", "103114.067500", "103112.475000", "103114.265000", "103112.675000", "103114.465000", "103111.880000", "103113.667500", "103111.082500", "103112.872500", "103111.282500", "103113.072500", "103111.480000", "103113.270000", "103111.680000", "103113.470000", "103112.077500", "103113.867500", "103112.277500", "103114.067500", "103112.475000", "103114.265000", "103112.675000", "103114.465000", "103111.880000", "103113.667500", "103111.082500", "103112.872500", "103111.282500", "103113.072500", "103111.480000", "103113.270000", "103111.680000", "103113.470000", "103112.077500", "103113.867500", "103112.277500", "103114.067500", "103112.475000", "103114.265000", "103112.675000", "103114.465000", "103111.880000", "103117.267500", "103114.682500", "103116.472500", "103114.882500", "103116.672500", "103115.080000", "103116.870000", "103115.280000", "103117.070000", "103115.677500", "103117.467500", "103115.877500", "103117.667500", "103116.075000", "103117.865000", "103116.275000", "103118.065000", "103115.480000", "103117.267500", "103114.682500", "103116.472500", "103114.882500", "103116.672500", "103115.080000", "103116.870000", "103115.280000", "103117.070000", "103115.677500", "103117.467500", "103115.877500", "103117.667500", "103116.075000", "103117.865000", "103116.275000", "103118.065000", "103115.480000", "103117.267500", "103114.682500", "103116.472500", "103114.882500", "103116.672500", "103115.080000", "103116.870000", "103115.280000", "103117.070000", "103115.677500", "103117.467500", "103115.877500", "103117.667500", "103116.075000", "103117.865000", "103116.275000", "103118.065000", "103115.480000", "103117.267500", "103114.682500", "103116.472500", "103114.882500", "103116.672500", "103115.080000", "103116.870000", "103115.280000", "103117.070000", "103115.677500", "103117.467500", "103115.877500", "103117.667500", "103116.075000", "103117.865000", "103116.275000", "103118.065000", "103115.480000", "103120.867500", "103118.282500", "103120.072500", "103118.482500", "103120.272500", "103118.680000", "103120.470000", "103118.880000", "103120.670000", "103119.277500", "103121.067500", "103119.477500", "103121.267500", "103119.675000", "103121.465000", "103119.875000", "103121.665000", "103119.080000", "103120.867500", "103118.282500", "103120.072500", "103118.482500", "103120.272500", "103118.680000", "103120.470000", "103118.880000", "103120.670000", "103119.277500", "103121.067500", "103119.477500", "103121.267500", "103119.675000", "103121.465000", "103119.875000", "103121.665000", "103119.080000", "103120.867500", "103118.282500", "103120.072500", "103118.482500", "103120.272500", "103118.680000", "103120.470000", "103118.880000", "103120.670000", "103119.277500", "103121.067500", "103119.477500", "103121.267500", "103119.675000", "103121.465000", "103119.875000", "103121.665000", "103119.080000", "103120.867500", "103118.282500", "103120.072500", "103118.482500", "103120.272500", "103118.680000", "103120.470000", "103118.880000", "103120.670000", "103119.277500", "103121.067500", "103119.477500", "103121.267500", "103119