{
  "AcquisitionMatrixPE": 80,
  "AcquisitionNumber": 1,
  "AcquisitionTime": "10:38:4.495000",
  "BandwidthPerPixelPhaseEncode": 25,
  "BaseResolution": 80,
  "BodyPartExamined": "BRAIN",
  "CoilCombinationMethod": "Sum of Squares",
  "ConsistencyInfo": "N4_VE11C_LATEST_20160120",
  "ConversionSoftware": "dcm2niix",
  "ConversionSoftwareVersion": "v1.0.20220720",
  "DerivedVendorReportedEchoSpacing": 0.0005,
  "DeviceSerialNumber": "66112",
  "DwellTime": 2.7e-06,
  "EchoTime": 0.03,
  "EchoTrainLength": 80,
  "EffectiveEchoSpacing": 0.0005,
  "FlipAngle": 77,
  "HeudiconvVersion": "0.13.1",
  "ImageOrientationPatientDICOM": [0.987959, 0.154496, 0.00823349, -0.149768, 0.941656, 0.301421],
  "ImageOrientationText": "Tra>Cor(17.4)>Sag(-2.2)",
  "ImageType": [
    "ORIGINAL",
    "PRIMARY",
    "M",
    "ND",
    "NORM",
    "MOSAIC"
],
  "ImagingFrequency": 123.252,
  "InPlanePhaseEncodingDirectionDICOM": "COL",
  "InstitutionAddress": "Maynard 3,Hanover,NH,US,03755",
  "InstitutionName": "Dartmouth College - PBS",
  "InstitutionalDepartmentName": "Department",
  "MRAcquisitionType": "2D",
  "MagneticFieldStrength": 3,
  "Manufacturer": "Siemens",
  "ManufacturersModelName": "Prisma",
  "MatrixCoilMode": "SENSE",
  "Modality": "MR",
  "NonlinearGradientCorrection": false,
  "PartialFourier": 1,
  "PatientPosition": "HFS",
  "PercentPhaseFOV": 100,
  "PercentSampling": 100,
  "PhaseEncodingDirection": "j-",
  "PhaseEncodingSteps": 80,
  "PhaseResolution": 1,
  "PixelBandwidth": 2315,
  "ProcedureStepDescription": "dbic^QA",
  "ProtocolName": "func-bold_fa-77",
  "PulseSequenceDetails": "%SiemensSeq%\\ep2d_bold",
  "ReceiveCoilActiveElements": "HEA;HEP",
  "ReceiveCoilName": "Head_32",
  "ReconMatrixPE": 80,
  "RepetitionTime": 2,
  "SAR": 0.0436635,
  "ScanOptions": "FS",
  "ScanningSequence": "EP",
  "SequenceName": "*epfid2d1_80",
  "SequenceVariant": "SK",
  "SeriesDescription": "func-bold_fa-77",
  "SeriesNumber": 8,
  "ShimSetting": [4142, -7699, -7516, 290, -70, -77, -51, 45],
  "SliceThickness": 3.5,
  "SliceTiming": [0.99, 0, 1.0575, 0.0675, 1.1225, 0.1325, 1.19, 0.2, 1.255, 0.265, 1.32, 0.33, 1.3875, 0.3975, 1.4525, 0.4625, 1.5175, 0.53, 1.585, 0.595, 1.65, 0.66, 1.7175, 0.7275, 1.7825, 0.7925, 1.8475, 0.86, 1.915, 0.925],
  "SoftwareVersions": "syngo MR E11",
  "SpacingBetweenSlices": 3.99,
  "StationName": "AWP66112",
  "TotalReadoutTime": 0.0395,
  "TxRefAmp": 225.108,
  "dcmmeta_affine": [
    [-2.9638772010803223, -0.44930264353752136, -0.15487325191497803, 140.5057373046875],
    [-0.4634894132614136, 2.8249666690826416, 1.1931082010269165, -106.20164489746094],
    [0.0247004684060812, -0.9042626619338989, 3.804287910461426, -23.68848991394043],
    [0.0, 0.0, 0.0, 1.0]
],
  "dcmmeta_reorient_transform": [
    [0.0, -1.0, 0.0, 79.0],
    [1.0, 0.0, 0.0, 0.0],
    [0.0, 0.0, 1.0, 0.0],
    [0.0, 0.0, 0.0, 1.0]
],
  "dcmmeta_shape": [80, 80, 30, 200],
  "dcmmeta_slice_dim": 2,
  "dcmmeta_version": 0.6,
  "global": {
    "const": {
      "AccessionNumber": "qa",
      "AcquisitionMatrix": [80, 0, 0, 80],
      "AngioFlag": "N",
      "BitsAllocated": 16,
      "BitsStored": 12,
      "BodyPartExamined": "BRAIN",
      "Columns": 480,
      "EchoNumbers": 1,
      "EchoTime": 30.0,
      "EchoTrainLength": 80,
      "FlipAngle": 77.0,
      "HighBit": 11,
      "ImageOrientationPatient": [0.98795903295169, 0.15449646874737, 0.00823348976772, -0.1497675451542, 0.94165552385023, 0.30142089645682],
      "ImagePositionPatient": [-607.9257286132, -774.66191071397, -280.91787484803],
      "ImageType": [
        "ORIGINAL",
        "PRIMARY",
        "M",
        "ND",
        "NORM",
        "MOSAIC"
],
      "ImagedNucleus": "1H",
      "ImagingFrequency": 123.252354,
      "InPlanePhaseEncodingDirection": "COL",
      "MRAcquisitionType": "2D",
      "MagneticFieldStrength": 3.0,
      "Manufacturer": "SIEMENS",
      "ManufacturerModelName": "Prisma",
      "Modality": "MR",
      "NumberOfAverages": 1.0,
      "NumberOfPhaseEncodingSteps": 80,
      "PercentPhaseFieldOfView": 100.0,
      "PercentSampling": 100.0,
      "PerformedProcedureStepStartTime": "102026.157000",
      "PhotometricInterpretation": "MONOCHROME2",
      "PixelBandwidth": 2315.0,
      "PixelRepresentation": 0,
      "PixelSpacing": [3.0, 3.0],
      "ProtocolName": "func-bold_fa-77",
      "RepetitionTime": 2000.0,
      "Rows": 480,
      "SAR": 0.04366345352998,
      "SamplesPerPixel": 1,
      "ScanOptions": "FS",
      "ScanningSequence": "EP",
      "SequenceName": "*epfid2d1_80",
      "SequenceVariant": "SK",
      "SeriesDescription": "func-bold_fa-77",
      "SeriesNumber": 8,
      "SeriesTime": "103850.755000",
      "SliceLocation": -59.796609865489,
      "SliceThickness": 3.5,
      "SmallestImagePixelValue": 0,
      "SoftwareVersions": "syngo MR E11",
      "SpacingBetweenSlices": 3.9899999985842,
      "SpecificCharacterSet": "ISO_IR 100",
      "StudyID": "54",
      "StudyTime": "102026.099000",
      "TransmitCoilName": "Body",
      "VariableFlipAngleFlag": "N",
      "WindowCenterWidthExplanation": "Algo1",
      "dBdt": 0.0},
    "slices": {}
  },
  "time": {
    "samples": {
      "AcquisitionNumber": [1, 2, 3, 4, 5, 6, 7, 8, 9, 10, 11, 12, 13, 14, 15, 16, 17, 18, 19, 20, 21, 22, 23, 24, 25, 26, 27, 28, 29, 30, 31, 32, 33, 34, 35, 36, 37, 38, 39, 40, 41, 42, 43, 44, 45, 46, 47, 48, 49, 50, 51, 52, 53, 54, 55, 56, 57, 58, 59, 60, 61, 62, 63, 64, 65, 66, 67, 68, 69, 70, 71, 72, 73, 74, 75, 76, 77, 78, 79, 80, 81, 82, 83, 84, 85, 86, 87, 88, 89, 90, 91, 92, 93, 94, 95, 96, 97, 98, 99, 100, 101, 102, 103, 104, 105, 106, 107, 108, 109, 110, 111, 112, 113, 114, 115, 116, 117, 118, 119, 120, 121, 122, 123, 124, 125, 126, 127, 128, 129, 130, 131, 132, 133, 134, 135, 136, 137, 138, 139, 140, 141, 142, 143, 144, 145, 146, 147, 148, 149, 150, 151, 152, 153, 154, 155, 156, 157, 158, 159, 160, 161, 162, 163, 164, 165, 166, 167, 168, 169, 170, 171, 172, 173, 174, 175, 176, 177, 178, 179, 180, 181, 182, 183, 184, 185, 186, 187, 188, 189, 190, 191, 192, 193, 194, 195, 196, 197, 198, 199, 200],
      "AcquisitionTime": ["103804.495000", "103806.495000", "103808.495000", "103810.495000", "103812.495000", "103814.495000", "103816.495000", "103818.495000", "103820.495000", "103822.495000", "103824.495000", "103826.495000", "103828.495000", "103830.495000", "103832.495000", "103834.495000", "103836.495000", "103838.495000", "103840.495000", "103842.495000", "103844.495000", "103846.495000", "103848.495000", "103850.495000", "103852.495000", "103854.495000", "103856.495000", "103858.495000", "103900.495000", "103902.495000", "103904.495000", "103906.495000", "103908.495000", "103910.495000", "103912.495000", "103914.495000", "103916.495000", "103918.495000", "103920.495000", "103922.495000", "103924.495000", "103926.495000", "103928.495000", "103930.495000", "103932.495000", "103934.495000", "103936.495000", "103938.495000", "103940.495000", "103942.495000", "103944.495000", "103946.495000", "103948.495000", "103950.495000", "103952.495000", "103954.495000", "103956.495000", "103958.495000", "104000.495000", "104002.495000", "104004.495000", "104006.495000", "104008.495000", "104010.495000", "104012.495000", "104014.495000", "104016.495000", "104018.495000", "104020.495000", "104022.495000", "104024.495000", "104026.495000", "104028.495000", "104030.495000", "104032.495000", "104034.495000", "104036.495000", "104038.495000", "104040.495000", "104042.495000", "104044.495000", "104046.495000", "104048.495000", "104050.495000", "104052.495000", "104054.495000", "104056.495000", "104058.495000", "104100.495000", "104102.495000", "104104.495000", "104106.495000", "104108.495000", "104110.495000", "104112.495000", "104114.495000", "104116.495000", "104118.495000", "104120.495000", "104122.495000", "104124.495000", "104126.495000", "104128.495000", "104130.495000", "104132.495000", "104134.495000", "104136.495000", "104138.495000", "104140.495000", "104142.495000", "104144.495000", "104146.495000", "104148.495000", "104150.495000", "104152.495000", "104154.495000", "104156.495000", "104158.495000", "104200.495000", "104202.495000", "104204.495000", "104206.495000", "104208.495000", "104210.495000", "104212.495000", "104214.495000", "104216.495000", "104218.495000", "104220.495000", "104222.495000", "104224.495000", "104226.495000", "104228.495000", "104230.495000", "104232.495000", "104234.495000", "104236.495000", "104238.495000", "104240.495000", "104242.495000", "104244.495000", "104246.495000", "104248.495000", "104250.495000", "104252.495000", "104254.495000", "104256.495000", "104258.495000", "104300.495000", "104302.495000", "104304.495000", "104306.495000", "104308.495000", "104310.495000", "104312.495000", "104314.495000", "104316.495000", "104318.495000", "104320.495000", "104322.495000", "104324.495000", "104326.495000", "104328.495000", "104330.495000", "104332.495000", "104334.495000", "104336.495000", "104338.495000", "104340.495000", "104342.495000", "104344.495000", "104346.495000", "104348.495000", "104350.495000", "104352.495000", "104354.495000", "104356.495000", "104358.495000", "104400.495000", "104402.495000", "104404.495000", "104406.495000", "104408.495000", "104410.495000", "104412.495000", "104414.495000", "104416.495000", "104418.495000", "104420.495000", "104422.495000", "104424.495000", "104426.495000", "104428.495000", "104430.495000", "104432.495000", "104434.495000", "104436.495000", "104438.495000", "104440.495000", "104442.495000"],
      "ContentTime": ["103850.758000", "103850.761000", "103850.764000", "103850.766000", "103850.769000", "103850.771000", "103850.774000", "103850.776000", "103850.779000", "103850.781000", "103850.784000", "103850.786000", "103850.789000", "103850.791000", "103850.797000", "103850.800000", "103850.802000", "103850.805000", "103850.807000", "103850.810000", "103850.812000", "103850.815000", "103850.817000", "103930.754000", "103930.756000", "103930.759000", "103930.761000", "103930.764000", "103930.766000", "103930.769000", "103930.771000", "103930.774000", "103930.776000", "103930.779000", "103930.781000", "103930.783000", "103930.786000", "103930.788000", "103930.791000", "103930.793000", "103930.796000", "103930.798000", "103930.801000", "104010.753000", "104010.756000", "104010.759000", "104010.761000", "104010.764000", "104010.766000", "104010.801000", "104010.804000", "104010.806000", "104010.809000", "104010.811000", "104010.820000", "104010.823000", "104010.825000", "104010.827000", "104010.830000", "104010.840000", "104010.842000", "104010.845000", "104010.847000", "104050.752000", "104050.755000", "104050.758000", "104050.760000", "104050.763000", "104050.765000", "104050.768000", "104050.770000", "104050.773000", "104050.775000", "104050.778000", "104050.781000", "104050.783000", "104050.786000", "104050.788000", "104050.791000", "104050.793000", "104050.796000", "104050.798000", "104050.801000", "104130.753000", "104130.756000", "104130.759000", "104130.761000", "104130.764000", "104130.766000", "104130.769000", "104130.771000", "104130.773000", "104130.776000", "104130.778000", "104130.781000", "104130.783000", "104130.786000", "104130.788000", "104130.795000", "104130.797000", "104130.800000", "104130.802000", "104130.805000", "104210.753000", "104210.756000", "104210.759000", "104210.761000", "104210.764000", "104210.770000", "104210.773000", "104210.775000", "104210.778000", "104210.780000", "104210.783000", "104210.785000", "104210.788000", "104210.790000", "104210.793000", "104210.795000", "104210.798000", "104210.800000", "104210.803000", "104210.805000", "104250.753000", "104250.756000", "104250.759000", "104250.761000", "104250.764000", "104250.766000", "104250.769000", "104250.771000", "104250.774000", "104250.776000", "104250.779000", "104250.781000", "104250.784000", "104250.786000", "104250.789000", "104250.791000", "104250.794000", "104250.796000", "104250.799000", "104250.801000", "104330.753000", "104330.756000", "104330.759000", "104330.761000", "104330.764000", "104330.766000", "104330.769000", "104330.771000", "104330.774000", "104330.776000", "104330.779000", "104330.781000", "104330.784000", "104330.786000", "104330.789000", "104330.791000", "104330.794000", "104330.796000", "104330.799000", "104330.801000", "104410.754000", "104410.756000", "104410.759000", "104410.761000", "104410.764000", "104410.766000", "104410.769000", "104410.771000", "104410.774000", "104410.776000", "104410.779000", "104410.781000", "104410.784000", "104410.786000", "104410.789000", "104410.791000", "104410.794000", "104410.796000", "104410.799000", "104410.801000", "104443.615000", "104443.617000", "104443.620000", "104443.623000", "104443.625000", "104443.628000", "104443.630000", "104443.633000", "104443.635000", "104443.638000", "104443.640000", "104443.643000", "104443.646000", "104443.651000", "104443.655000", "104443.659000", "104443.662000"],
      "InstanceCreationTime": ["103850.758000", "103850.761000", "103850.764000", "103850.766000", "103850.769000", "103850.771000", "103850.774000", "103850.776000", "103850.779000", "103850.781000", "103850.784000", "103850.786000", "103850.789000", "103850.791000", "103850.797000", "103850.800000", "103850.802000", "103850.805000", "103850.807000", "103850.810000", "103850.812000", "103850.815000", "103850.817000", "103930.754000", "103930.756000", "103930.759000", "103930.761000", "103930.764000", "103930.766000", "103930.769000", "103930.771000", "103930.774000", "103930.776000", "103930.779000", "103930.781000", "103930.783000", "103930.786000", "103930.788000", "103930.791000", "103930.793000", "103930.796000", "103930.798000", "103930.801000", "104010.753000", "104010.756000", "104010.759000", "104010.761000", "104010.764000", "104010.766000", "104010.801000", "104010.804000", "104010.806000", "104010.809000", "104010.811000", "104010.820000", "104010.823000", "104010.825000", "104010.827000", "104010.830000", "104010.840000", "104010.842000", "104010.845000", "104010.847000", "104050.752000", "104050.755000", "104050.758000", "104050.760000", "104050.763000", "104050.765000", "104050.768000", "104050.770000", "104050.773000", "104050.775000", "104050.778000", "104050.781000", "104050.783000", "104050.786000", "104050.788000", "104050.791000", "104050.793000", "104050.796000", "104050.798000", "104050.801000", "104130.753000", "104130.756000", "104130.759000", "104130.761000", "104130.764000", "104130.766000", "104130.769000", "104130.771000", "104130.773000", "104130.776000", "104130.778000", "104130.781000", "104130.783000", "104130.786000", "104130.788000", "104130.795000", "104130.797000", "104130.800000", "104130.802000", "104130.805000", "104210.753000", "104210.756000", "104210.759000", "104210.761000", "104210.764000", "104210.770000", "104210.773000", "104210.775000", "104210.778000", "104210.780000", "104210.783000", "104210.785000", "104210.788000", "104210.790000", "104210.793000", "104210.795000", "104210.798000", "104210.800000", "104210.803000", "104210.805000", "104250.753000", "104250.756000", "104250.759000", "104250.761000", "104250.764000", "104250.766000", "104250.769000", "104250.771000", "104250.774000", "104250.776000", "104250.779000", "104250.781000", "104250.784000", "104250.786000", "104250.789000", "104250.791000", "104250.794000", "104250.796000", "104250.799000", "104250.801000", "104330.753000", "104330.756000", "104330.759000", "104330.761000", "104330.764000", "104330.766000", "104330.769000", "104330.771000", "104330.774000", "104330.776000", "104330.779000", "104330.781000", "104330.784000", "104330.786000", "104330.789000", "104330.791000", "104330.794000", "104330.796000", "104330.799000", "104330.801000", "104410.754000", "104410.756000", "104410.759000", "104410.761000", "104410.764000", "104410.766000", "104410.769000", "104410.771000", "104410.774000", "104410.776000", "104410.779000", "104410.781000", "104410.784000", "104410.786000", "104410.789000", "104410.791000", "104410.794000", "104410.796000", "104410.799000", "104410.801000", "104443.615000", "104443.617000", "104443.620000", "104443.623000", "104443.625000", "104443.628000", "104443.630000", "104443.633000", "104443.635000", "104443.638000", "104443.640000", "104443.643000", "104443.646000", "104443.651000", "104443.655000", "104443.659000", "104443.662000"],
      "InstanceNumber": [1, 2, 3, 4, 5, 6, 7, 8, 9, 10, 11, 12, 13, 14, 15, 16, 17, 18, 19, 20, 21, 22, 23, 24, 25, 26, 27, 28, 29, 30, 31, 32, 33, 34, 35, 36, 37, 38, 39, 40, 41, 42, 43, 44, 45, 46, 47, 48, 49, 50, 51, 52, 53, 54, 55, 56, 57, 58, 59, 60, 61, 62, 63, 64, 65, 66, 67, 68, 69, 70, 71, 72, 73, 74, 75, 76, 77, 78, 79, 80, 81, 82, 83, 84, 85, 86, 87, 88, 89, 90, 91, 92, 93, 94, 95, 96, 97, 98, 99, 100, 101, 102, 103, 104, 105, 106, 107, 108, 109, 110, 111, 112, 113, 114, 115, 116, 117, 118, 119, 120, 121, 122, 123, 124, 125, 126, 127, 128, 129, 130, 131, 132, 133, 134, 135, 136, 137, 138, 139, 140, 141, 142, 143, 144, 145, 146, 147, 148, 149, 150, 151, 152, 153, 154, 155, 156, 157, 158, 159, 160, 161, 162, 163, 164, 165, 166, 167, 168, 169, 170, 171, 172, 173, 174, 175, 176, 177, 178, 179, 180, 181, 182, 183, 184, 185, 186, 187, 188, 189, 190, 191, 192, 193, 194, 195, 196, 197, 198, 199, 200],
      "LargestImagePixelValue": [2115, 2115, 2122, 2121, 2120, 2115, 2117, 2116, 2118, 2118, 2116, 2116, 2116, 2115, 2116, 2117, 2119, 2118, 2117, 2116, 2116, 2116, 2118, 2116, 2118, 2116, 2116, 2116, 2116, 2115, 2119, 2116, 2117, 2116, 2117, 2118, 2118, 2118, 2117, 2117, 2116, 2116, 2118, 2115, 2112, 2116, 2115, 2115, 2115, 2114, 2113, 2114, 2116, 2118, 2116, 2117, 2114, 2117, 2116, 2117, 2117, 2116, 2115, 2115, 2114, 2115, 2114, 2114, 2115, 2114, 2117, 2115, 2116, 2115, 2115, 2115, 2115, 2117, 2115, 2116, 2114, 2114, 2115, 2116, 2116, 2116, 2114, 2114, 2115, 2117, 2116, 2116, 2116, 2113, 2117, 2115, 2115, 2114, 2112, 2116, 2115, 2114, 2113, 2115, 2116, 2114, 2114, 2113, 2113, 2112, 2113, 2112, 2113, 2115, 2113, 2115, 2114, 2113, 2116, 2117, 2114, 2114, 2116, 2114, 2113, 2113, 2113, 2113, 2113, 2113, 2115, 2111, 2113, 2113, 2116, 2115, 2115, 2112, 2110, 2112, 2110, 2112, 2109, 2113, 2114, 2112, 2112, 2113, 2111, 2115, 2111, 2113, 2112, 2111, 2113, 2112, 2112, 2115, 2111, 2114, 2113, 2114, 2114, 2114, 2113, 2114, 2113, 2115, 2113, 2116, 2111, 2113, 2113, 2115, 2114, 2114, 2113, 2116, 2115, 2111, 2113, 2113, 2114, 2113, 2114, 2113, 2113, 2112, 2112, 2113, 2113, 2113, 2114, 2113, 2114, 2114, 2112, 2114, 2114, 2113],
      "WindowCenter": [997.0, 999.0, 999.0, 1000.0, 999.0, 999.0, 997.0, 999.0, 999.0, 999.0, 998.0, 999.0, 998.0, 999.0, 998.0, 1000.0, 999.0, 999.0, 997.0, 997.0, 1000.0, 1000.0, 997.0, 999.0, 998.0, 998.0, 998.0, 998.0, 999.0, 998.0, 998.0, 998.0, 998.0, 998.0, 998.0, 999.0, 999.0, 999.0, 998.0, 997.0, 998.0, 999.0, 999.0, 999.0, 998.0, 998.0, 999.0, 997.0, 998.0, 999.0, 998.0, 998.0, 997.0, 998.0, 997.0, 999.0, 998.0, 999.0, 999.0, 998.0, 999.0, 999.0, 1000.0, 997.0, 999.0, 998.0, 998.0, 999.0, 999.0, 999.0, 999.0, 998.0, 998.0, 999.0, 996.0, 999.0, 999.0, 998.0, 999.0, 998.0, 998.0, 996.0, 997.0, 998.0, 998.0, 998.0, 997.0, 998.0, 997.0, 997.0, 998.0, 997.0, 998.0, 998.0, 997.0, 998.0, 997.0, 997.0, 997.0, 998.0, 997.0, 998.0, 998.0, 997.0, 998.0, 999.0, 997.0, 997.0, 998.0, 997.0, 998.0, 997.0, 996.0, 998.0, 997.0, 997.0, 997.0, 997.0, 997.0, 997.0, 997.0, 997.0, 997.0, 996.0, 997.0, 998.0, 996.0, 996.0, 996.0, 996.0, 998.0, 996.0, 998.0, 997.0, 997.0, 997.0, 997.0, 998.0, 996.0, 996.0, 996.0, 996.0, 996.0, 998.0, 997.0, 999.0, 997.0, 998.0, 998.0, 997.0, 996.0, 997.0, 997.0, 998.0, 997.0, 997.0, 997.0, 997.0, 999.0, 997.0, 996.0, 998.0, 998.0, 999.0, 998.0, 996.0, 997.0, 996.0, 995.0, 998.0, 996.0, 996.0, 996.0, 996.0, 998.0, 999.0, 997.0, 997.0, 997.0, 999.0, 998.0, 997.0, 997.0, 996.0, 998.0, 997.0, 997.0, 998.0, 998.0, 998.0, 997.0, 997.0, 996.0, 997.0, 997.0, 997.0, 997.0, 998.0, 997.0, 998.0],
      "WindowWidth": [2208.0, 2210.0, 2213.0, 2215.0, 2213.0, 2211.0, 2210.0, 2211.0, 2212.0, 2211.0, 2210.0, 2211.0, 2210.0, 2211.0, 2210.0, 2212.0, 2211.0, 2211.0, 2210.0, 2210.0, 2212.0, 2212.0, 2210.0, 2211.0, 2210.0, 2210.0, 2210.0, 2210.0, 2211.0, 2210.0, 2210.0, 2210.0, 2210.0, 2210.0, 2209.0, 2211.0, 2211.0, 2211.0, 2210.0, 2209.0, 2210.0, 2210.0, 2211.0, 2211.0, 2210.0, 2210.0, 2211.0, 2209.0, 2210.0, 2210.0, 2209.0, 2209.0, 2209.0, 2209.0, 2209.0, 2210.0, 2209.0, 2210.0, 2210.0, 2209.0, 2210.0, 2210.0, 2211.0, 2209.0, 2210.0, 2209.0, 2209.0, 2210.0, 2210.0, 2210.0, 2211.0, 2209.0, 2209.0, 2210.0, 2208.0, 2210.0, 2210.0, 2209.0, 2210.0, 2209.0, 2210.0, 2207.0, 2208.0, 2210.0, 2210.0, 2209.0, 2208.0, 2209.0, 2209.0, 2209.0, 2210.0, 2209.0, 2210.0, 2210.0, 2208.0, 2210.0, 2209.0, 2209.0, 2209.0, 2210.0, 2209.0, 2210.0, 2210.0, 2209.0, 2210.0, 2210.0, 2209.0, 2209.0, 2210.0, 2208.0, 2209.0, 2208.0, 2207.0, 2209.0, 2208.0, 2208.0, 2208.0, 2208.0, 2208.0, 2208.0, 2208.0, 2208.0, 2208.0, 2207.0, 2208.0, 2209.0, 2207.0, 2207.0, 2207.0, 2207.0, 2209.0, 2207.0, 2208.0, 2207.0, 2208.0, 2208.0, 2208.0, 2209.0, 2206.0, 2206.0, 2206.0, 2206.0, 2205.0, 2207.0, 2208.0, 2209.0, 2207.0, 2208.0, 2208.0, 2207.0, 2207.0, 2207.0, 2207.0, 2208.0, 2208.0, 2207.0, 2208.0, 2207.0, 2208.0, 2207.0, 2206.0, 2208.0, 2208.0, 2208.0, 2208.0, 2206.0, 2207.0, 2206.0, 2206.0, 2208.0, 2206.0, 2206.0, 2206.0, 2207.0, 2208.0, 2208.0, 2208.0, 2208.0, 2207.0, 2208.0, 2208.0, 2208.0, 2208.0, 2206.0, 2208.0, 2207.0, 2207.0, 2208.0, 2208.0, 2208.0, 2207.0, 2207.0, 2206.0, 2207.0, 2207.0, 2207.0, 2207.0, 2208.0, 2207.0, 2207.0]
    },
    "slices": {}
  }
}