{
  "AcquisitionMatrixPE": 80,
  "AcquisitionNumber": 1,
  "AcquisitionTime": "10:24:19.470000",
  "BandwidthPerPixelPhaseEncode": 48.077,
  "BaseResolution": 80,
  "BodyPartExamined": "BRAIN",
  "CoilCombinationMethod": "Sum of Squares",
  "ConsistencyInfo": "N4_VE11C_LATEST_20160120",
  "ConversionSoftware": "dcm2niix",
  "ConversionSoftwareVersion": "v1.0.20220720",
  "DerivedVendorReportedEchoSpacing": 0.000519999,
  "DeviceSerialNumber": "66112",
  "DwellTime": 2.7e-06,
  "EchoTime": 0.035,
  "EchoTrainLength": 39,
  "EffectiveEchoSpacing": 0.00026,
  "FlipAngle": 90,
  "HeudiconvVersion": "0.13.1",
  "ImageOrientationPatientDICOM": [0.987933, 0.154661, 0.0082861, -0.14994, 0.941629, 0.301419],
  "ImageOrientationText": "Tra>Cor(17.4)>Sag(-2.2)",
  "ImageType": [
    "ORIGINAL",
    "PRIMARY",
    "M",
    "ND",
    "NORM",
    "MOSAIC"
],
  "ImagingFrequency": 123.252,
  "InPlanePhaseEncodingDirectionDICOM": "COL",
  "InstitutionAddress": "Maynard 3,Hanover,NH,US,03755",
  "InstitutionName": "Dartmouth College - PBS",
  "InstitutionalDepartmentName": "Department",
  "MRAcquisitionType": "2D",
  "MagneticFieldStrength": 3,
  "Manufacturer": "Siemens",
  "ManufacturersModelName": "Prisma",
  "MatrixCoilMode": "GRAPPA",
  "Modality": "MR",
  "NonlinearGradientCorrection": false,
  "ParallelReductionFactorInPlane": 2,
  "PartialFourier": 1,
  "PatientPosition": "HFS",
  "PercentPhaseFOV": 100,
  "PercentSampling": 100,
  "PhaseEncodingDirection": "j-",
  "PhaseEncodingSteps": 79,
  "PhaseResolution": 1,
  "PixelBandwidth": 2315,
  "ProcedureStepDescription": "dbic^QA",
  "ProtocolName": "func-bold_task-rest_acq-p2",
  "PulseSequenceDetails": "%SiemensSeq%\\ep2d_bold",
  "ReceiveCoilActiveElements": "HEA;HEP",
  "ReceiveCoilName": "Head_32",
  "ReconMatrixPE": 80,
  "RefLinesPE": 24,
  "RepetitionTime": 2,
  "SAR": 0.0555621,
  "ScanOptions": "FS",
  "ScanningSequence": "EP",
  "SequenceName": "*epfid2d1_80",
  "SequenceVariant": "SK",
  "SeriesDescription": "func-bold_task-rest_acq-p2",
  "SeriesNumber": 5,
  "ShimSetting": [4142, -7699, -7516, 290, -70, -77, -51, 45],
  "SliceThickness": 3.5,
  "SliceTiming": [0.99, 0, 1.055, 0.065, 1.12, 0.13, 1.1875, 0.1975, 1.2525, 0.2625, 1.32, 0.33, 1.385, 0.395, 1.45, 0.46, 1.5175, 0.5275, 1.5825, 0.5925, 1.65, 0.66, 1.715, 0.725, 1.78, 0.79, 1.8475, 0.8575, 1.9125, 0.9225],
  "SoftwareVersions": "syngo MR E11",
  "SpacingBetweenSlices": 3.99,
  "StationName": "AWP66112",
  "TaskName": "rest",
  "TotalReadoutTime": 0.02054,
  "TxRefAmp": 225.108,
  "dcmmeta_affine": [
    [-2.9637985229492188, -0.4498199224472046, -0.15487323701381683, 140.81053161621094],
    [-0.4639824330806732, 2.824885606765747, 1.1931082010269165, -107.98677825927734],
    [0.024858301505446434, -0.9042583703994751, 3.804287910461426, -23.11565399169922],
    [0.0, 0.0, 0.0, 1.0]
],
  "dcmmeta_reorient_transform": [
    [0.0, -1.0, 0.0, 79.0],
    [1.0, 0.0, 0.0, 0.0],
    [0.0, 0.0, 1.0, 0.0],
    [0.0, 0.0, 0.0, 1.0]
],
  "dcmmeta_shape": [80, 80, 30, 200],
  "dcmmeta_slice_dim": 2,
  "dcmmeta_version": 0.6,
  "global": {
    "const": {
      "AccessionNumber": "qa",
      "AcquisitionMatrix": [80, 0, 0, 80],
      "AngioFlag": "N",
      "BitsAllocated": 16,
      "BitsStored": 12,
      "BodyPartExamined": "BRAIN",
      "Columns": 480,
      "EchoNumbers": 1,
      "EchoTime": 35.0,
      "EchoTrainLength": 39,
      "FlipAngle": 90.0,
      "HighBit": 11,
      "ImageOrientationPatient": [0.98793287902563, 0.15466081300859, 0.00828610038899, -0.1499399721379, 0.94162854630558, 0.30141945116023],
      "ImagePositionPatient": [-608.07050775485, -772.95280083389, -280.37539488155],
      "ImageType": [
        "ORIGINAL",
        "PRIMARY",
        "M",
        "ND",
        "NORM",
        "MOSAIC"
],
      "ImagedNucleus": "1H",
      "ImagingFrequency": 123.252354,
      "InPlanePhaseEncodingDirection": "COL",
      "MRAcquisitionType": "2D",
      "MagneticFieldStrength": 3.0,
      "Manufacturer": "SIEMENS",
      "ManufacturerModelName": "Prisma",
      "Modality": "MR",
      "NumberOfAverages": 1.0,
      "NumberOfPhaseEncodingSteps": 79,
      "PercentPhaseFieldOfView": 100.0,
      "PercentSampling": 100.0,
      "PerformedProcedureStepStartTime": "102026.157000",
      "PhotometricInterpretation": "MONOCHROME2",
      "PixelBandwidth": 2315.0,
      "PixelRepresentation": 0,
      "PixelSpacing": [3.0, 3.0],
      "ProtocolName": "func-bold_task-rest_acq-p2",
      "RepetitionTime": 2000.0,
      "Rows": 480,
      "SAR": 0.05556208126879,
      "SamplesPerPixel": 1,
      "ScanOptions": "FS",
      "ScanningSequence": "EP",
      "SequenceName": "*epfid2d1_80",
      "SequenceVariant": "SK",
      "SeriesDescription": "func-bold_task-rest_acq-p2",
      "SeriesNumber": 5,
      "SeriesTime": "102510.824000",
      "SliceLocation": -59.796064949054,
      "SliceThickness": 3.5,
      "SmallestImagePixelValue": 0,
      "SoftwareVersions": "syngo MR E11",
      "SpacingBetweenSlices": 3.9899999983947,
      "SpecificCharacterSet": "ISO_IR 100",
      "StudyID": "54",
      "StudyTime": "102026.099000",
      "TransmitCoilName": "Body",
      "VariableFlipAngleFlag": "N",
      "WindowCenterWidthExplanation": "Algo1",
      "dBdt": 0.0},
    "slices": {}
  },
  "time": {
    "samples": {
      "AcquisitionNumber": [1, 2, 3, 4, 5, 6, 7, 8, 9, 10, 11, 12, 13, 14, 15, 16, 17, 18, 19, 20, 21, 22, 23, 24, 25, 26, 27, 28, 29, 30, 31, 32, 33, 34, 35, 36, 37, 38, 39, 40, 41, 42, 43, 44, 45, 46, 47, 48, 49, 50, 51, 52, 53, 54, 55, 56, 57, 58, 59, 60, 61, 62, 63, 64, 65, 66, 67, 68, 69, 70, 71, 72, 73, 74, 75, 76, 77, 78, 79, 80, 81, 82, 83, 84, 85, 86, 87, 88, 89, 90, 91, 92, 93, 94, 95, 96, 97, 98, 99, 100, 101, 102, 103, 104, 105, 106, 107, 108, 109, 110, 111, 112, 113, 114, 115, 116, 117, 118, 119, 120, 121, 122, 123, 124, 125, 126, 127, 128, 129, 130, 131, 132, 133, 134, 135, 136, 137, 138, 139, 140, 141, 142, 143, 144, 145, 146, 147, 148, 149, 150, 151, 152, 153, 154, 155, 156, 157, 158, 159, 160, 161, 162, 163, 164, 165, 166, 167, 168, 169, 170, 171, 172, 173, 174, 175, 176, 177, 178, 179, 180, 181, 182, 183, 184, 185, 186, 187, 188, 189, 190, 191, 192, 193, 194, 195, 196, 197, 198, 199, 200],
      "AcquisitionTime": ["102419.470000", "102421.470000", "102423.470000", "102425.470000", "102427.470000", "102429.470000", "102431.470000", "102433.470000", "102435.470000", "102437.470000", "102439.470000", "102441.470000", "102443.470000", "102445.470000", "102447.470000", "102449.470000", "102451.470000", "102453.470000", "102455.470000", "102457.470000", "102459.470000", "102501.470000", "102503.470000", "102505.470000", "102507.470000", "102509.470000", "102511.470000", "102513.470000", "102515.470000", "102517.470000", "102519.470000", "102521.470000", "102523.470000", "102525.470000", "102527.470000", "102529.470000", "102531.470000", "102533.470000", "102535.470000", "102537.470000", "102539.470000", "102541.470000", "102543.470000", "102545.470000", "102547.470000", "102549.470000", "102551.470000", "102553.470000", "102555.470000", "102557.470000", "102559.470000", "102601.470000", "102603.470000", "102605.470000", "102607.470000", "102609.470000", "102611.470000", "102613.470000", "102615.470000", "102617.470000", "102619.470000", "102621.470000", "102623.470000", "102625.470000", "102627.470000", "102629.470000", "102631.470000", "102633.470000", "102635.470000", "102637.470000", "102639.470000", "102641.470000", "102643.470000", "102645.470000", "102647.470000", "102649.470000", "102651.470000", "102653.470000", "102655.470000", "102657.470000", "102659.470000", "102701.470000", "102703.470000", "102705.470000", "102707.470000", "102709.470000", "102711.470000", "102713.470000", "102715.470000", "102717.470000", "102719.470000", "102721.470000", "102723.470000", "102725.470000", "102727.470000", "102729.470000", "102731.470000", "102733.470000", "102735.470000", "102737.470000", "102739.470000", "102741.470000", "102743.470000", "102745.470000", "102747.470000", "102749.470000", "102751.470000", "102753.470000", "102755.470000", "102757.470000", "102759.470000", "102801.470000", "102803.470000", "102805.470000", "102807.470000", "102809.470000", "102811.470000", "102813.470000", "102815.470000", "102817.470000", "102819.470000", "102821.470000", "102823.470000", "102825.470000", "102827.470000", "102829.470000", "102831.470000", "102833.470000", "102835.470000", "102837.470000", "102839.470000", "102841.470000", "102843.470000", "102845.470000", "102847.470000", "102849.470000", "102851.470000", "102853.470000", "102855.470000", "102857.470000", "102859.470000", "102901.470000", "102903.470000", "102905.470000", "102907.470000", "102909.470000", "102911.470000", "102913.470000", "102915.470000", "102917.470000", "102919.470000", "102921.470000", "102923.470000", "102925.470000", "102927.470000", "102929.470000", "102931.470000", "102933.470000", "102935.470000", "102937.470000", "102939.470000", "102941.470000", "102943.470000", "102945.470000", "102947.470000", "102949.470000", "102951.470000", "102953.470000", "102955.470000", "102957.470000", "102959.470000", "103001.470000", "103003.470000", "103005.470000", "103007.470000", "103009.470000", "103011.470000", "103013.470000", "103015.470000", "103017.470000", "103019.470000", "103021.470000", "103023.470000", "103025.470000", "103027.470000", "103029.470000", "103031.470000", "103033.470000", "103035.470000", "103037.470000", "103039.470000", "103041.470000", "103043.470000", "103045.470000", "103047.470000", "103049.470000", "103051.470000", "103053.470000", "103055.470000", "103057.470000"],
      "ContentTime": ["102510.827000", "102510.831000", "102510.833000", "102510.836000", "102510.838000", "102510.841000", "102510.843000", "102510.846000", "102510.848000", "102510.851000", "102510.853000", "102510.856000", "102510.858000", "102510.861000", "102510.863000", "102510.866000", "102510.868000", "102510.871000", "102510.873000", "102510.876000", "102510.878000", "102510.881000", "102510.883000", "102510.886000", "102510.888000", "102550.822000", "102550.825000", "102550.828000", "102550.830000", "102550.833000", "102550.835000", "102550.838000", "102550.840000", "102550.843000", "102550.845000", "102550.848000", "102550.850000", "102550.853000", "102550.856000", "102550.858000", "102550.861000", "102550.863000", "102550.866000", "102550.868000", "102550.871000", "102630.822000", "102630.825000", "102630.828000", "102630.830000", "102630.833000", "102630.835000", "102630.838000", "102630.840000", "102630.843000", "102630.845000", "102630.848000", "102630.850000", "102630.853000", "102630.855000", "102630.858000", "102630.860000", "102630.863000", "102630.865000", "102630.868000", "102630.870000", "102710.821000", "102710.824000", "102710.827000", "102710.829000", "102710.832000", "102710.834000", "102710.837000", "102710.839000", "102710.842000", "102710.844000", "102710.847000", "102710.849000", "102710.852000", "102710.854000", "102710.856000", "102710.859000", "102710.861000", "102710.864000", "102710.880000", "102710.883000", "102750.822000", "102750.825000", "102750.828000", "102750.830000", "102750.833000", "102750.835000", "102750.838000", "102750.840000", "102750.843000", "102750.845000", "102750.848000", "102750.850000", "102750.853000", "102750.855000", "102750.858000", "102750.860000", "102750.863000", "102750.865000", "102750.867000", "102750.870000", "102830.822000", "102830.825000", "102830.828000", "102830.830000", "102830.833000", "102830.835000", "102830.838000", "102830.840000", "102830.843000", "102830.845000", "102830.848000", "102830.850000", "102830.853000", "102830.855000", "102830.858000", "102830.860000", "102830.863000", "102830.866000", "102830.868000", "102830.870000", "102910.822000", "102910.824000", "102910.827000", "102910.829000", "102910.832000", "102910.834000", "102910.837000", "102910.839000", "102910.842000", "102910.844000", "102910.847000", "102910.849000", "102910.852000", "102910.854000", "102910.857000", "102910.859000", "102910.862000", "102910.864000", "102910.867000", "102910.869000", "102950.822000", "102950.825000", "102950.828000", "102950.830000", "102950.833000", "102950.835000", "102950.838000", "102950.841000", "102950.843000", "102950.846000", "102950.848000", "102950.851000", "102950.853000", "102950.856000", "102950.858000", "102950.861000", "102950.863000", "102950.866000", "102950.868000", "102950.871000", "103030.823000", "103030.825000", "103030.828000", "103030.830000", "103030.833000", "103030.835000", "103030.838000", "103030.840000", "103030.843000", "103030.845000", "103030.848000", "103030.851000", "103030.853000", "103030.856000", "103030.858000", "103030.861000", "103030.863000", "103030.865000", "103030.868000", "103030.870000", "103059.153000", "103059.156000", "103059.159000", "103059.162000", "103059.164000", "103059.167000", "103059.169000", "103059.172000", "103059.175000", "103059.177000", "103059.180000", "103059.186000", "103059.191000", "103059.194000", "103059.197000"],
      "InstanceCreationTime": ["102510.827000", "102510.831000", "102510.833000", "102510.836000", "102510.838000", "102510.841000", "102510.843000", "102510.846000", "102510.848000", "102510.851000", "102510.853000", "102510.856000", "102510.858000", "102510.861000", "102510.863000", "102510.866000", "102510.868000", "102510.871000", "102510.873000", "102510.876000", "102510.878000", "102510.881000", "102510.883000", "102510.886000", "102510.888000", "102550.822000", "102550.825000", "102550.828000", "102550.830000", "102550.833000", "102550.835000", "102550.838000", "102550.840000", "102550.843000", "102550.845000", "102550.848000", "102550.850000", "102550.853000", "102550.856000", "102550.858000", "102550.861000", "102550.863000", "102550.866000", "102550.868000", "102550.871000", "102630.822000", "102630.825000", "102630.828000", "102630.830000", "102630.833000", "102630.835000", "102630.838000", "102630.840000", "102630.843000", "102630.845000", "102630.848000", "102630.850000", "102630.853000", "102630.855000", "102630.858000", "102630.860000", "102630.863000", "102630.865000", "102630.868000", "102630.870000", "102710.821000", "102710.824000", "102710.827000", "102710.829000", "102710.832000", "102710.834000", "102710.837000", "102710.839000", "102710.842000", "102710.844000", "102710.847000", "102710.849000", "102710.852000", "102710.854000", "102710.856000", "102710.859000", "102710.861000", "102710.864000", "102710.880000", "102710.883000", "102750.822000", "102750.825000", "102750.828000", "102750.830000", "102750.833000", "102750.835000", "102750.838000", "102750.840000", "102750.843000", "102750.845000", "102750.848000", "102750.850000", "102750.853000", "102750.855000", "102750.858000", "102750.860000", "102750.863000", "102750.865000", "102750.867000", "102750.870000", "102830.822000", "102830.825000", "102830.828000", "102830.830000", "102830.833000", "102830.835000", "102830.838000", "102830.840000", "102830.843000", "102830.845000", "102830.848000", "102830.850000", "102830.853000", "102830.855000", "102830.858000", "102830.860000", "102830.863000", "102830.866000", "102830.868000", "102830.870000", "102910.822000", "102910.824000", "102910.827000", "102910.829000", "102910.832000", "102910.834000", "102910.837000", "102910.839000", "102910.842000", "102910.844000", "102910.847000", "102910.849000", "102910.852000", "102910.854000", "102910.857000", "102910.859000", "102910.862000", "102910.864000", "102910.867000", "102910.869000", "102950.822000", "102950.825000", "102950.828000", "102950.830000", "102950.833000", "102950.835000", "102950.838000", "102950.841000", "102950.843000", "102950.846000", "102950.848000", "102950.851000", "102950.853000", "102950.856000", "102950.858000", "102950.861000", "102950.863000", "102950.866000", "102950.868000", "102950.871000", "103030.823000", "103030.825000", "103030.828000", "103030.830000", "103030.833000", "103030.835000", "103030.838000", "103030.840000", "103030.843000", "103030.845000", "103030.848000", "103030.851000", "103030.853000", "103030.856000", "103030.858000", "103030.861000", "103030.863000", "103030.865000", "103030.868000", "103030.870000", "103059.153000", "103059.156000", "103059.159000", "103059.162000", "103059.164000", "103059.167000", "103059.169000", "103059.172000", "103059.175000", "103059.177000", "103059.180000", "103059.186000", "103059.191000", "103059.194000", "103059.197000"],
      "InstanceNumber": [1, 2, 3, 4, 5, 6, 7, 8, 9, 10, 11, 12, 13, 14, 15, 16, 17, 18, 19, 20, 21, 22, 23, 24, 25, 26, 27, 28, 29, 30, 31, 32, 33, 34, 35, 36, 37, 38, 39, 40, 41, 42, 43, 44, 45, 46, 47, 48, 49, 50, 51, 52, 53, 54, 55, 56, 57, 58, 59, 60, 61, 62, 63, 64, 65, 66, 67, 68, 69, 70, 71, 72, 73, 74, 75, 76, 77, 78, 79, 80, 81, 82, 83, 84, 85, 86, 87, 88, 89, 90, 91, 92, 93, 94, 95, 96, 97, 98, 99, 100, 101, 102, 103, 104, 105, 106, 107, 108, 109, 110, 111, 112, 113, 114, 115, 116, 117, 118, 119, 120, 121, 122, 123, 124, 125, 126, 127, 128, 129, 130, 131, 132, 133, 134, 135, 136, 137, 138, 139, 140, 141, 142, 143, 144, 145, 146, 147, 148, 149, 150, 151, 152, 153, 154, 155, 156, 157, 158, 159, 160, 161, 162, 163, 164, 165, 166, 167, 168, 169, 170, 171, 172, 173, 174, 175, 176, 177, 178, 179, 180, 181, 182, 183, 184, 185, 186, 187, 188, 189, 190, 191, 192, 193, 194, 195, 196, 197, 198, 199, 200],
      "LargestImagePixelValue": [2154, 2151, 2153, 2160, 2153, 2155, 2158, 2153, 2149, 2151, 2152, 2160, 2156, 2155, 2159, 2153, 2156, 2161, 2151, 2148, 2151, 2154, 2151, 2157, 2157, 2151, 2155, 2152, 2161, 2156, 2149, 2157, 2148, 2152, 2151, 2151, 2156, 2156, 2151, 2149, 2155, 2147, 2154, 2149, 2154, 2156, 2158, 2155, 2156, 2148, 2147, 2149, 2154, 2157, 2154, 2149, 2162, 2146, 2151, 2150, 2150, 2148, 2149, 2147, 2158, 2149, 2147, 2154, 2148, 2148, 2155, 2150, 2147, 2145, 2148, 2147, 2152, 2152, 2155, 2151, 2148, 2148, 2143, 2147, 2148, 2151, 2149, 2149, 2149, 2141, 2146, 2158, 2148, 2153, 2144, 2149, 2149, 2147, 2146, 2147, 2142, 2154, 2149, 2144, 2152, 2149, 2146, 2148, 2148, 2141, 2150, 2151, 2145, 2145, 2154, 2147, 2154, 2149, 2149, 2149, 2153, 2150, 2140, 2152, 2151, 2145, 2144, 2150, 2148, 2148, 2144, 2146, 2146, 2144, 2145, 2150, 2147, 2146, 2139, 2151, 2142, 2147, 2144, 2150, 2148, 2152, 2150, 2147, 2146, 2148, 2143, 2143, 2145, 2141, 2154, 2144, 2148, 2150, 2139, 2147, 2150, 2143, 2150, 2148, 2154, 2153, 2147, 2145, 2142, 2149, 2147, 2157, 2152, 2145, 2142, 2152, 2150, 2142, 2140, 2148, 2142, 2141, 2145, 2141, 2153, 2151, 2146, 2149, 2145, 2147, 2147, 2145, 2148, 2143, 2150, 2146, 2142, 2147, 2147, 2151],
      "WindowCenter": [1011.0, 1011.0, 1011.0, 1012.0, 1011.0, 1012.0, 1011.0, 1011.0, 1011.0, 1011.0, 1012.0, 1011.0, 1011.0, 1011.0, 1011.0, 1011.0, 1012.0, 1012.0, 1011.0, 1012.0, 1011.0, 1011.0, 1011.0, 1011.0, 1011.0, 1011.0, 1011.0, 1011.0, 1012.0, 1011.0, 1011.0, 1012.0, 1012.0, 1011.0, 1011.0, 1011.0, 1011.0, 1011.0, 1011.0, 1012.0, 1012.0, 1011.0, 1011.0, 1011.0, 1011.0, 1011.0, 1011.0, 1012.0, 1011.0, 1012.0, 1011.0, 1011.0, 1012.0, 1011.0, 1011.0, 1011.0, 1011.0, 1011.0, 1010.0, 1011.0, 1011.0, 1010.0, 1011.0, 1011.0, 1011.0, 1012.0, 1010.0, 1011.0, 1011.0, 1011.0, 1010.0, 1010.0, 1011.0, 1011.0, 1010.0, 1010.0, 1011.0, 1012.0, 1011.0, 1010.0, 1010.0, 1011.0, 1010.0, 1011.0, 1010.0, 1011.0, 1010.0, 1010.0, 1010.0, 1010.0, 1010.0, 1010.0, 1010.0, 1010.0, 1010.0, 1010.0, 1011.0, 1011.0, 1010.0, 1010.0, 1011.0, 1011.0, 1010.0, 1010.0, 1010.0, 1010.0, 1010.0, 1011.0, 1011.0, 1010.0, 1010.0, 1010.0, 1010.0, 1010.0, 1011.0, 1010.0, 1011.0, 1010.0, 1010.0, 1010.0, 1010.0, 1010.0, 1010.0, 1011.0, 1010.0, 1010.0, 1010.0, 1011.0, 1010.0, 1010.0, 1010.0, 1010.0, 1011.0, 1010.0, 1010.0, 1011.0, 1010.0, 1012.0, 1012.0, 1010.0, 1010.0, 1010.0, 1010.0, 1010.0, 1010.0, 1010.0, 1011.0, 1010.0, 1010.0, 1010.0, 1011.0, 1010.0, 1010.0, 1011.0, 1010.0, 1010.0, 1010.0, 1010.0, 1011.0, 1010.0, 1010.0, 1010.0, 1010.0, 1010.0, 1010.0, 1011.0, 1011.0, 1011.0, 1010.0, 1011.0, 1011.0, 1010.0, 1010.0, 1010.0, 1010.0, 1011.0, 1010.0, 1010.0, 1010.0, 1011.0, 1010.0, 1010.0, 1010.0, 1010.0, 1010.0, 1010.0, 1010.0, 1011.0, 1010.0, 1010.0, 1010.0, 1010.0, 1010.0, 1010.0, 1010.0, 1010.0, 1010.0, 1010.0, 1010.0, 1010.0],
      "WindowWidth": [2238.0, 2237.0, 2237.0, 2238.0, 2237.0, 2238.0, 2237.0, 2237.0, 2237.0, 2237.0, 2238.0, 2237.0, 2237.0, 2237.0, 2237.0, 2236.0, 2237.0, 2237.0, 2237.0, 2237.0, 2236.0, 2236.0, 2236.0, 2236.0, 2236.0, 2236.0, 2236.0, 2236.0, 2237.0, 2236.0, 2236.0, 2237.0, 2237.0, 2236.0, 2236.0, 2236.0, 2236.0, 2236.0, 2236.0, 2237.0, 2237.0, 2237.0, 2236.0, 2236.0, 2236.0, 2236.0, 2236.0, 2236.0, 2236.0, 2236.0, 2236.0, 2236.0, 2236.0, 2236.0, 2235.0, 2236.0, 2235.0, 2235.0, 2235.0, 2236.0, 2235.0, 2235.0, 2235.0, 2235.0, 2235.0, 2236.0, 2236.0, 2235.0, 2236.0, 2236.0, 2236.0, 2236.0, 2235.0, 2237.0, 2235.0, 2235.0, 2236.0, 2237.0, 2236.0, 2235.0, 2235.0, 2236.0, 2235.0, 2236.0, 2235.0, 2236.0, 2235.0, 2235.0, 2235.0, 2235.0, 2235.0, 2235.0, 2235.0, 2235.0, 2235.0, 2234.0, 2235.0, 2236.0, 2235.0, 2235.0, 2235.0, 2236.0, 2234.0, 2234.0, 2235.0, 2235.0, 2235.0, 2235.0, 2235.0, 2235.0, 2235.0, 2235.0, 2234.0, 2234.0, 2235.0, 2234.0, 2235.0, 2235.0, 2235.0, 2235.0, 2234.0, 2235.0, 2235.0, 2237.0, 2234.0, 2234.0, 2234.0, 2236.0, 2234.0, 2234.0, 2234.0, 2234.0, 2235.0, 2234.0, 2234.0, 2235.0, 2234.0, 2237.0, 2236.0, 2234.0, 2234.0, 2234.0, 2234.0, 2234.0, 2234.0, 2234.0, 2235.0, 2234.0, 2233.0, 2234.0, 2235.0, 2234.0, 2234.0, 2234.0, 2234.0, 2234.0, 2234.0, 2234.0, 2234.0, 2234.0, 2234.0, 2235.0, 2235.0, 2234.0, 2234.0, 2235.0, 2235.0, 2235.0, 2233.0, 2236.0, 2235.0, 2235.0, 2235.0, 2234.0, 2234.0, 2235.0, 2234.0, 2236.0, 2233.0, 2234.0, 2233.0, 2234.0, 2233.0, 2234.0, 2234.0, 2233.0, 2233.0, 2234.0, 2233.0, 2233.0, 2233.0, 2233.0, 2233.0, 2233.0, 2234.0, 2233.0, 2233.0, 2234.0, 2233.0, 2233.0]
    },
    "slices": {}
  }
}