{
  "AcquisitionMatrixPE": 80,
  "AcquisitionNumber": 1,
  "AcquisitionTime": "10:44:50.500000",
  "BandwidthPerPixelPhaseEncode": 25,
  "BaseResolution": 80,
  "BodyPartExamined": "BRAIN",
  "CoilCombinationMethod": "Sum of Squares",
  "ConsistencyInfo": "N4_VE11C_LATEST_20160120",
  "ConversionSoftware": "dcm2niix",
  "ConversionSoftwareVersion": "v1.0.20220720",
  "DerivedVendorReportedEchoSpacing": 0.0005,
  "DeviceSerialNumber": "66112",
  "DwellTime": 2.7e-06,
  "EchoTime": 0.03,
  "EchoTrainLength": 80,
  "EffectiveEchoSpacing": 0.0005,
  "FlipAngle": 10,
  "HeudiconvVersion": "0.13.1",
  "ImageOrientationPatientDICOM": [0.987959, 0.154496, 0.00823349, -0.149768, 0.941656, 0.301421],
  "ImageOrientationText": "Tra>Cor(17.4)>Sag(-2.2)",
  "ImageType": [
    "ORIGINAL",
    "PRIMARY",
    "M",
    "ND",
    "NORM",
    "MOSAIC"
],
  "ImagingFrequency": 123.252,
  "InPlanePhaseEncodingDirectionDICOM": "COL",
  "InstitutionAddress": "Maynard 3,Hanover,NH,US,03755",
  "InstitutionName": "Dartmouth College - PBS",
  "InstitutionalDepartmentName": "Department",
  "MRAcquisitionType": "2D",
  "MagneticFieldStrength": 3,
  "Manufacturer": "Siemens",
  "ManufacturersModelName": "Prisma",
  "MatrixCoilMode": "SENSE",
  "Modality": "MR",
  "NonlinearGradientCorrection": false,
  "PartialFourier": 1,
  "PatientPosition": "HFS",
  "PercentPhaseFOV": 100,
  "PercentSampling": 100,
  "PhaseEncodingDirection": "j-",
  "PhaseEncodingSteps": 80,
  "PhaseResolution": 1,
  "PixelBandwidth": 2315,
  "ProcedureStepDescription": "dbic^QA",
  "ProtocolName": "func-bold_fa-10",
  "PulseSequenceDetails": "%SiemensSeq%\\ep2d_bold",
  "ReceiveCoilActiveElements": "HEA;HEP",
  "ReceiveCoilName": "Head_32",
  "ReconMatrixPE": 80,
  "RepetitionTime": 2,
  "SAR": 0.0117127,
  "ScanOptions": "FS",
  "ScanningSequence": "EP",
  "SequenceName": "*epfid2d1_80",
  "SequenceVariant": "SK",
  "SeriesDescription": "func-bold_fa-10",
  "SeriesNumber": 10,
  "ShimSetting": [4142, -7699, -7516, 290, -70, -77, -51, 45],
  "SliceThickness": 3.5,
  "SliceTiming": [0.99, 0, 1.0575, 0.0675, 1.1225, 0.1325, 1.19, 0.2, 1.255, 0.265, 1.32, 0.33, 1.3875, 0.3975, 1.4525, 0.4625, 1.52, 0.53, 1.585, 0.595, 1.65, 0.66, 1.7175, 0.7275, 1.7825, 0.7925, 1.85, 0.86, 1.915, 0.925],
  "SoftwareVersions": "syngo MR E11",
  "SpacingBetweenSlices": 3.99,
  "StationName": "AWP66112",
  "TotalReadoutTime": 0.0395,
  "TxRefAmp": 225.108,
  "dcmmeta_affine": [
    [-2.9638772010803223, -0.44930264353752136, -0.15487325191497803, 140.5057373046875],
    [-0.4634894132614136, 2.8249666690826416, 1.1931082010269165, -106.20164489746094],
    [0.0247004684060812, -0.9042626619338989, 3.804287910461426, -23.68848991394043],
    [0.0, 0.0, 0.0, 1.0]
],
  "dcmmeta_reorient_transform": [
    [0.0, -1.0, 0.0, 79.0],
    [1.0, 0.0, 0.0, 0.0],
    [0.0, 0.0, 1.0, 0.0],
    [0.0, 0.0, 0.0, 1.0]
],
  "dcmmeta_shape": [80, 80, 30, 200],
  "dcmmeta_slice_dim": 2,
  "dcmmeta_version": 0.6,
  "global": {
    "const": {
      "AccessionNumber": "qa",
      "AcquisitionMatrix": [80, 0, 0, 80],
      "AngioFlag": "N",
      "BitsAllocated": 16,
      "BitsStored": 12,
      "BodyPartExamined": "BRAIN",
      "Columns": 480,
      "EchoNumbers": 1,
      "EchoTime": 30.0,
      "EchoTrainLength": 80,
      "FlipAngle": 10.0,
      "HighBit": 11,
      "ImageOrientationPatient": [0.98795903295169, 0.15449646874737, 0.00823348976772, -0.1497675451542, 0.94165552385023, 0.30142089645682],
      "ImagePositionPatient": [-607.9257286132, -774.66191071397, -280.91787484803],
      "ImageType": [
        "ORIGINAL",
        "PRIMARY",
        "M",
        "ND",
        "NORM",
        "MOSAIC"
],
      "ImagedNucleus": "1H",
      "ImagingFrequency": 123.252355,
      "InPlanePhaseEncodingDirection": "COL",
      "MRAcquisitionType": "2D",
      "MagneticFieldStrength": 3.0,
      "Manufacturer": "SIEMENS",
      "ManufacturerModelName": "Prisma",
      "Modality": "MR",
      "NumberOfAverages": 1.0,
      "NumberOfPhaseEncodingSteps": 80,
      "PercentPhaseFieldOfView": 100.0,
      "PercentSampling": 100.0,
      "PerformedProcedureStepStartTime": "102026.157000",
      "PhotometricInterpretation": "MONOCHROME2",
      "PixelBandwidth": 2315.0,
      "PixelRepresentation": 0,
      "PixelSpacing": [3.0, 3.0],
      "ProtocolName": "func-bold_fa-10",
      "RepetitionTime": 2000.0,
      "Rows": 480,
      "SAR": 0.01171268265915,
      "SamplesPerPixel": 1,
      "ScanOptions": "FS",
      "ScanningSequence": "EP",
      "SequenceName": "*epfid2d1_80",
      "SequenceVariant": "SK",
      "SeriesDescription": "func-bold_fa-10",
      "SeriesNumber": 10,
      "SeriesTime": "104530.823000",
      "SliceLocation": -59.796609865489,
      "SliceThickness": 3.5,
      "SmallestImagePixelValue": 0,
      "SoftwareVersions": "syngo MR E11",
      "SpacingBetweenSlices": 3.9899999985842,
      "SpecificCharacterSet": "ISO_IR 100",
      "StudyID": "54",
      "StudyTime": "102026.099000",
      "TransmitCoilName": "Body",
      "VariableFlipAngleFlag": "N",
      "WindowCenterWidthExplanation": "Algo1",
      "dBdt": 0.0},
    "slices": {}
  },
  "time": {
    "samples": {
      "AcquisitionNumber": [1, 2, 3, 4, 5, 6, 7, 8, 9, 10, 11, 12, 13, 14, 15, 16, 17, 18, 19, 20, 21, 22, 23, 24, 25, 26, 27, 28, 29, 30, 31, 32, 33, 34, 35, 36, 37, 38, 39, 40, 41, 42, 43, 44, 45, 46, 47, 48, 49, 50, 51, 52, 53, 54, 55, 56, 57, 58, 59, 60, 61, 62, 63, 64, 65, 66, 67, 68, 69, 70, 71, 72, 73, 74, 75, 76, 77, 78, 79, 80, 81, 82, 83, 84, 85, 86, 87, 88, 89, 90, 91, 92, 93, 94, 95, 96, 97, 98, 99, 100, 101, 102, 103, 104, 105, 106, 107, 108, 109, 110, 111, 112, 113, 114, 115, 116, 117, 118, 119, 120, 121, 122, 123, 124, 125, 126, 127, 128, 129, 130, 131, 132, 133, 134, 135, 136, 137, 138, 139, 140, 141, 142, 143, 144, 145, 146, 147, 148, 149, 150, 151, 152, 153, 154, 155, 156, 157, 158, 159, 160, 161, 162, 163, 164, 165, 166, 167, 168, 169, 170, 171, 172, 173, 174, 175, 176, 177, 178, 179, 180, 181, 182, 183, 184, 185, 186, 187, 188, 189, 190, 191, 192, 193, 194, 195, 196, 197, 198, 199, 200],
      "AcquisitionTime": ["104450.500000", "104452.500000", "104454.500000", "104456.500000", "104458.500000", "104500.500000", "104502.500000", "104504.500000", "104506.500000", "104508.500000", "104510.500000", "104512.500000", "104514.500000", "104516.500000", "104518.500000", "104520.500000", "104522.500000", "104524.500000", "104526.500000", "104528.500000", "104530.500000", "104532.500000", "104534.500000", "104536.500000", "104538.500000", "104540.500000", "104542.500000", "104544.500000", "104546.500000", "104548.500000", "104550.500000", "104552.500000", "104554.500000", "104556.500000", "104558.500000", "104600.500000", "104602.500000", "104604.500000", "104606.500000", "104608.500000", "104610.500000", "104612.500000", "104614.500000", "104616.500000", "104618.500000", "104620.500000", "104622.500000", "104624.500000", "104626.500000", "104628.500000", "104630.500000", "104632.500000", "104634.500000", "104636.500000", "104638.500000", "104640.500000", "104642.500000", "104644.500000", "104646.500000", "104648.500000", "104650.500000", "104652.500000", "104654.500000", "104656.500000", "104658.500000", "104700.500000", "104702.500000", "104704.500000", "104706.500000", "104708.500000", "104710.500000", "104712.500000", "104714.500000", "104716.500000", "104718.500000", "104720.500000", "104722.500000", "104724.500000", "104726.500000", "104728.500000", "104730.500000", "104732.500000", "104734.500000", "104736.500000", "104738.500000", "104740.500000", "104742.500000", "104744.500000", "104746.500000", "104748.500000", "104750.500000", "104752.500000", "104754.500000", "104756.500000", "104758.500000", "104800.500000", "104802.500000", "104804.500000", "104806.500000", "104808.500000", "104810.500000", "104812.500000", "104814.500000", "104816.500000", "104818.500000", "104820.500000", "104822.500000", "104824.500000", "104826.500000", "104828.500000", "104830.500000", "104832.500000", "104834.500000", "104836.500000", "104838.500000", "104840.500000", "104842.500000", "104844.500000", "104846.500000", "104848.500000", "104850.500000", "104852.500000", "104854.500000", "104856.500000", "104858.500000", "104900.500000", "104902.500000", "104904.500000", "104906.500000", "104908.500000", "104910.500000", "104912.500000", "104914.500000", "104916.500000", "104918.500000", "104920.500000", "104922.500000", "104924.500000", "104926.500000", "104928.500000", "104930.500000", "104932.500000", "104934.500000", "104936.500000", "104938.500000", "104940.500000", "104942.500000", "104944.500000", "104946.500000", "104948.500000", "104950.500000", "104952.500000", "104954.500000", "104956.500000", "104958.500000", "105000.500000", "105002.500000", "105004.500000", "105006.500000", "105008.500000", "105010.500000", "105012.500000", "105014.500000", "105016.500000", "105018.500000", "105020.500000", "105022.500000", "105024.500000", "105026.500000", "105028.500000", "105030.500000", "105032.500000", "105034.500000", "105036.500000", "105038.500000", "105040.500000", "105042.500000", "105044.500000", "105046.500000", "105048.500000", "105050.500000", "105052.500000", "105054.500000", "105056.500000", "105058.500000", "105100.500000", "105102.500000", "105104.500000", "105106.500000", "105108.500000", "105110.500000", "105112.500000", "105114.500000", "105116.500000", "105118.500000", "105120.500000", "105122.500000", "105124.500000", "105126.500000", "105128.500000"],
      "ContentTime": ["104530.826000", "104530.836000", "104530.838000", "104530.841000", "104530.843000", "104530.846000", "104530.848000", "104530.850000", "104530.853000", "104530.855000", "104530.858000", "104530.860000", "104530.863000", "104530.865000", "104530.868000", "104530.870000", "104530.873000", "104530.875000", "104530.877000", "104530.880000", "104610.822000", "104610.825000", "104610.828000", "104610.830000", "104610.833000", "104610.835000", "104610.837000", "104610.840000", "104610.842000", "104610.845000", "104610.847000", "104610.850000", "104610.852000", "104610.855000", "104610.857000", "104610.860000", "104610.862000", "104610.864000", "104610.867000", "104610.869000", "104650.822000", "104650.825000", "104650.827000", "104650.830000", "104650.832000", "104650.835000", "104650.837000", "104650.840000", "104650.842000", "104650.845000", "104650.847000", "104650.849000", "104650.852000", "104650.854000", "104650.857000", "104650.859000", "104650.862000", "104650.864000", "104650.867000", "104650.869000", "104730.822000", "104730.825000", "104730.828000", "104730.830000", "104730.833000", "104730.835000", "104730.837000", "104730.840000", "104730.842000", "104730.845000", "104730.847000", "104730.850000", "104730.852000", "104730.855000", "104730.857000", "104730.859000", "104730.862000", "104730.864000", "104730.867000", "104730.869000", "104810.822000", "104810.825000", "104810.828000", "104810.830000", "104810.833000", "104810.835000", "104810.838000", "104810.840000", "104810.843000", "104810.845000", "104810.847000", "104810.850000", "104810.852000", "104810.855000", "104810.857000", "104810.860000", "104810.862000", "104810.865000", "104810.867000", "104810.870000", "104850.822000", "104850.825000", "104850.828000", "104850.830000", "104850.833000", "104850.835000", "104850.837000", "104850.840000", "104850.842000", "104850.845000", "104850.847000", "104850.850000", "104850.852000", "104850.855000", "104850.857000", "104850.860000", "104850.862000", "104850.865000", "104850.867000", "104850.870000", "104930.823000", "104930.825000", "104930.828000", "104930.830000", "104930.833000", "104930.835000", "104930.838000", "104930.840000", "104930.843000", "104930.845000", "104930.847000", "104930.850000", "104930.852000", "104930.855000", "104930.857000", "104930.860000", "104930.862000", "104930.865000", "104930.867000", "104930.870000", "105010.821000", "105010.824000", "105010.827000", "105010.829000", "105010.831000", "105010.834000", "105010.836000", "105010.839000", "105010.841000", "105010.844000", "105010.846000", "105010.849000", "105010.851000", "105010.854000", "105010.856000", "105010.859000", "105010.861000", "105010.864000", "105010.866000", "105010.868000", "105050.822000", "105050.825000", "105050.828000", "105050.830000", "105050.833000", "105050.835000", "105050.837000", "105050.840000", "105050.842000", "105050.845000", "105050.847000", "105050.850000", "105050.852000", "105050.855000", "105050.857000", "105050.860000", "105050.862000", "105050.865000", "105050.867000", "105050.869000", "105130.011000", "105130.013000", "105130.016000", "105130.018000", "105130.021000", "105130.023000", "105130.026000", "105130.029000", "105130.031000", "105130.034000", "105130.036000", "105130.038000", "105130.041000", "105130.050000", "105130.057000", "105130.063000", "105130.079000", "105130.082000", "105130.085000", "105130.087000"],
      "InstanceCreationTime": ["104530.826000", "104530.836000", "104530.838000", "104530.841000", "104530.843000", "104530.846000", "104530.848000", "104530.850000", "104530.853000", "104530.855000", "104530.858000", "104530.860000", "104530.863000", "104530.865000", "104530.868000", "104530.870000", "104530.873000", "104530.875000", "104530.877000", "104530.880000", "104610.822000", "104610.825000", "104610.828000", "104610.830000", "104610.833000", "104610.835000", "104610.837000", "104610.840000", "104610.842000", "104610.845000", "104610.847000", "104610.850000", "104610.852000", "104610.855000", "104610.857000", "104610.860000", "104610.862000", "104610.864000", "104610.867000", "104610.869000", "104650.822000", "104650.825000", "104650.827000", "104650.830000", "104650.832000", "104650.835000", "104650.837000", "104650.840000", "104650.842000", "104650.845000", "104650.847000", "104650.849000", "104650.852000", "104650.854000", "104650.857000", "104650.859000", "104650.862000", "104650.864000", "104650.867000", "104650.869000", "104730.822000", "104730.825000", "104730.828000", "104730.830000", "104730.833000", "104730.835000", "104730.837000", "104730.840000", "104730.842000", "104730.845000", "104730.847000", "104730.850000", "104730.852000", "104730.855000", "104730.857000", "104730.859000", "104730.862000", "104730.864000", "104730.867000", "104730.869000", "104810.822000", "104810.825000", "104810.828000", "104810.830000", "104810.833000", "104810.835000", "104810.838000", "104810.840000", "104810.843000", "104810.845000", "104810.847000", "104810.850000", "104810.852000", "104810.855000", "104810.857000", "104810.860000", "104810.862000", "104810.865000", "104810.867000", "104810.870000", "104850.822000", "104850.825000", "104850.828000", "104850.830000", "104850.833000", "104850.835000", "104850.837000", "104850.840000", "104850.842000", "104850.845000", "104850.847000", "104850.850000", "104850.852000", "104850.855000", "104850.857000", "104850.860000", "104850.862000", "104850.865000", "104850.867000", "104850.870000", "104930.823000", "104930.825000", "104930.828000", "104930.830000", "104930.833000", "104930.835000", "104930.838000", "104930.840000", "104930.843000", "104930.845000", "104930.847000", "104930.850000", "104930.852000", "104930.855000", "104930.857000", "104930.860000", "104930.862000", "104930.865000", "104930.867000", "104930.870000", "105010.821000", "105010.824000", "105010.827000", "105010.829000", "105010.831000", "105010.834000", "105010.836000", "105010.839000", "105010.841000", "105010.844000", "105010.846000", "105010.849000", "105010.851000", "105010.854000", "105010.856000", "105010.859000", "105010.861000", "105010.864000", "105010.866000", "105010.868000", "105050.822000", "105050.825000", "105050.828000", "105050.830000", "105050.833000", "105050.835000", "105050.837000", "105050.840000", "105050.842000", "105050.845000", "105050.847000", "105050.850000", "105050.852000", "105050.855000", "105050.857000", "105050.860000", "105050.862000", "105050.865000", "105050.867000", "105050.869000", "105130.011000", "105130.013000", "105130.016000", "105130.018000", "105130.021000", "105130.023000", "105130.026000", "105130.029000", "105130.031000", "105130.034000", "105130.036000", "105130.038000", "105130.041000", "105130.050000", "105130.057000", "105130.063000", "105130.079000", "105130.082000", "105130.085000", "105130.087000"],
      "InstanceNumber": [1, 2, 3, 4, 5, 6, 7, 8, 9, 10, 11, 12, 13, 14, 15, 16, 17, 18, 19, 20, 21, 22, 23, 24, 25, 26, 27, 28, 29, 30, 31, 32, 33, 34, 35, 36, 37, 38, 39, 40, 41, 42, 43, 44, 45, 46, 47, 48, 49, 50, 51, 52, 53, 54, 55, 56, 57, 58, 59, 60, 61, 62, 63, 64, 65, 66, 67, 68, 69, 70, 71, 72, 73, 74, 75, 76, 77, 78, 79, 80, 81, 82, 83, 84, 85, 86, 87, 88, 89, 90, 91, 92, 93, 94, 95, 96, 97, 98, 99, 100, 101, 102, 103, 104, 105, 106, 107, 108, 109, 110, 111, 112, 113, 114, 115, 116, 117, 118, 119, 120, 121, 122, 123, 124, 125, 126, 127, 128, 129, 130, 131, 132, 133, 134, 135, 136, 137, 138, 139, 140, 141, 142, 143, 144, 145, 146, 147, 148, 149, 150, 151, 152, 153, 154, 155, 156, 157, 158, 159, 160, 161, 162, 163, 164, 165, 166, 167, 168, 169, 170, 171, 172, 173, 174, 175, 176, 177, 178, 179, 180, 181, 182, 183, 184, 185, 186, 187, 188, 189, 190, 191, 192, 193, 194, 195, 196, 197, 198, 199, 200],
      "LargestImagePixelValue": [355, 356, 356, 357, 355, 354, 356, 355, 357, 355, 355, 355, 355, 357, 356, 356, 355, 353, 355, 356, 355, 355, 356, 356, 356, 354, 356, 354, 355, 356, 355, 355, 355, 355, 355, 356, 354, 355, 355, 357, 354, 356, 356, 355, 356, 353, 356, 356, 356, 355, 356, 356, 356, 355, 356, 355, 356, 355, 357, 355, 356, 356, 355, 356, 356, 356, 355, 356, 354, 355, 355, 354, 354, 356, 356, 355, 356, 355, 355, 354, 355, 355, 355, 356, 355, 356, 356, 354, 355, 355, 356, 354, 353, 355, 353, 354, 354, 355, 355, 354, 354, 354, 355, 354, 353, 355, 353, 355, 354, 357, 354, 354, 354, 355, 354, 352, 354, 354, 354, 355, 354, 355, 355, 354, 356, 355, 355, 356, 355, 355, 354, 355, 354, 352, 353, 355, 353, 354, 354, 355, 355, 353, 353, 356, 354, 354, 354, 353, 355, 356, 354, 355, 354, 354, 355, 354, 353, 354, 354, 353, 355, 352, 354, 355, 353, 353, 355, 354, 354, 356, 354, 354, 355, 354, 354, 354, 355, 355, 354, 354, 354, 355, 354, 353, 355, 355, 357, 355, 354, 356, 354, 355, 352, 355, 354, 353, 354, 355, 355, 354],
      "WindowCenter": [289.0, 289.0, 289.0, 289.0, 289.0, 289.0, 289.0, 289.0, 289.0, 289.0, 289.0, 289.0, 289.0, 289.0, 289.0, 289.0, 289.0, 289.0, 289.0, 289.0, 289.0, 289.0, 289.0, 289.0, 289.0, 289.0, 289.0, 289.0, 289.0, 289.0, 289.0, 289.0, 289.0, 289.0, 289.0, 289.0, 289.0, 289.0, 289.0, 289.0, 289.0, 289.0, 289.0, 289.0, 289.0, 289.0, 289.0, 289.0, 289.0, 289.0, 289.0, 289.0, 289.0, 289.0, 289.0, 289.0, 289.0, 289.0, 289.0, 289.0, 289.0, 289.0, 289.0, 289.0, 289.0, 289.0, 289.0, 289.0, 289.0, 289.0, 289.0, 289.0, 289.0, 288.0, 289.0, 289.0, 289.0, 289.0, 289.0, 289.0, 288.0, 289.0, 288.0, 289.0, 289.0, 288.0, 288.0, 289.0, 289.0, 289.0, 288.0, 288.0, 288.0, 288.0, 288.0, 288.0, 288.0, 288.0, 288.0, 288.0, 288.0, 288.0, 288.0, 288.0, 288.0, 288.0, 288.0, 288.0, 288.0, 288.0, 288.0, 288.0, 288.0, 288.0, 288.0, 288.0, 288.0, 288.0, 288.0, 288.0, 288.0, 288.0, 288.0, 288.0, 288.0, 288.0, 288.0, 288.0, 288.0, 288.0, 288.0, 288.0, 288.0, 288.0, 288.0, 288.0, 288.0, 288.0, 288.0, 288.0, 288.0, 288.0, 288.0, 288.0, 288.0, 288.0, 288.0, 288.0, 288.0, 288.0, 288.0, 288.0, 288.0, 288.0, 288.0, 288.0, 288.0, 288.0, 288.0, 288.0, 288.0, 288.0, 288.0, 288.0, 288.0, 288.0, 288.0, 288.0, 288.0, 288.0, 288.0, 288.0, 288.0, 288.0, 288.0, 288.0, 288.0, 288.0, 288.0, 288.0, 288.0, 288.0, 288.0, 288.0, 288.0, 288.0, 288.0, 288.0, 288.0, 288.0, 288.0, 288.0, 288.0, 288.0, 288.0, 288.0, 288.0, 288.0, 288.0, 288.0],
      "WindowWidth": [630.0, 630.0, 630.0, 630.0, 630.0, 630.0, 630.0, 630.0, 630.0, 630.0, 630.0, 630.0, 630.0, 630.0, 630.0, 630.0, 630.0, 630.0, 630.0, 630.0, 630.0, 630.0, 630.0, 629.0, 630.0, 630.0, 630.0, 630.0, 630.0, 630.0, 630.0, 630.0, 630.0, 629.0, 630.0, 630.0, 629.0, 630.0, 630.0, 630.0, 630.0, 629.0, 630.0, 630.0, 630.0, 629.0, 630.0, 630.0, 630.0, 630.0, 630.0, 629.0, 630.0, 630.0, 630.0, 630.0, 630.0, 630.0, 629.0, 630.0, 629.0, 630.0, 629.0, 629.0, 629.0, 630.0, 629.0, 629.0, 629.0, 629.0, 629.0, 629.0, 629.0, 629.0, 629.0, 630.0, 629.0, 630.0, 629.0, 629.0, 628.0, 629.0, 629.0, 630.0, 629.0, 629.0, 628.0, 629.0, 630.0, 629.0, 628.0, 629.0, 628.0, 628.0, 628.0, 628.0, 628.0, 629.0, 628.0, 628.0, 628.0, 628.0, 628.0, 628.0, 628.0, 628.0, 628.0, 628.0, 628.0, 629.0, 628.0, 628.0, 628.0, 628.0, 628.0, 628.0, 628.0, 628.0, 628.0, 628.0, 628.0, 628.0, 628.0, 628.0, 628.0, 628.0, 628.0, 628.0, 628.0, 629.0, 628.0, 628.0, 628.0, 628.0, 628.0, 628.0, 628.0, 628.0, 628.0, 628.0, 628.0, 628.0, 628.0, 628.0, 628.0, 628.0, 628.0, 628.0, 628.0, 628.0, 628.0, 628.0, 628.0, 628.0, 628.0, 628.0, 628.0, 628.0, 628.0, 628.0, 628.0, 628.0, 628.0, 628.0, 628.0, 628.0, 628.0, 628.0, 628.0, 628.0, 628.0, 628.0, 628.0, 628.0, 628.0, 628.0, 628.0, 628.0, 628.0, 628.0, 628.0, 628.0, 628.0, 628.0, 628.0, 628.0, 628.0, 628.0, 628.0, 628.0, 628.0, 628.0, 628.0, 628.0, 628.0, 628.0, 628.0, 628.0, 628.0, 628.0]
    },
    "slices": {}
  }
}