{
  "AcquisitionMatrixPE": 122,
  "AcquisitionNumber": 1,
  "AcquisitionTime": "09:25:41.460000",
  "BandwidthPerPixelPhaseEncode": 27.785,
  "BaseResolution": 122,
  "BodyPartExamined": "BRAIN",
  "CoilCombinationMethod": "Adaptive Combine",
  "ConsistencyInfo": "N4_VE11C_LATEST_20160120",
  "ConversionSoftware": "dcm2niix",
  "ConversionSoftwareVersion": "v1.0.20220720",
  "DerivedVendorReportedEchoSpacing": 0.000590011,
  "DeviceSerialNumber": "66112",
  "DiffusionScheme": "Monopolar",
  "DwellTime": 2e-06,
  "EchoTime": 0.068,
  "EchoTrainLength": 61,
  "EffectiveEchoSpacing": 0.000295005,
  "FlipAngle": 90,
  "HeudiconvVersion": "0.13.1",
  "ImageOrientationPatientDICOM": [0.982781, 0.184156, 0.0151204, -0.180197, 0.937111, 0.298919],
  "ImageOrientationText": "Tra>Cor(17.3)>Sag(-2.3)",
  "ImageType": [
    "ORIGINAL",
    "PRIMARY",
    "DIFFUSION",
    "NONE",
    "ND",
    "NORM"
],
  "ImagingFrequency": 123.252,
  "InPlanePhaseEncodingDirectionDICOM": "COL",
  "InstitutionAddress": "Maynard 3,Hanover,NH,US,03755",
  "InstitutionName": "Dartmouth College - PBS",
  "InstitutionalDepartmentName": "Department",
  "MRAcquisitionType": "2D",
  "MagneticFieldStrength": 3,
  "Manufacturer": "Siemens",
  "ManufacturersModelName": "Prisma",
  "Modality": "MR",
  "MultibandAccelerationFactor": 4,
  "NonlinearGradientCorrection": false,
  "ParallelReductionFactorInPlane": 2,
  "PartialFourier": 1,
  "PatientPosition": "HFS",
  "PercentPhaseFOV": 100,
  "PercentSampling": 100,
  "PhaseEncodingDirection": "j-",
  "PhaseEncodingSteps": 122,
  "PhaseResolution": 1,
  "PixelBandwidth": 2050,
  "ProcedureStepDescription": "dbic^QA",
  "ProtocolName": "dwi_acq-DTI-30-p2-s4",
  "PulseSequenceDetails": "%SiemensSeq%\\ep2d_diff",
  "ReceiveCoilActiveElements": "HEA;HEP",
  "ReceiveCoilName": "Head_32",
  "ReconMatrixPE": 122,
  "RefLinesPE": 38,
  "RepetitionTime": 3.6,
  "SAR": 0.162469,
  "ScanOptions": "FS",
  "ScanningSequence": "EP",
  "SequenceName": "*ep_b0",
  "SequenceVariant": "SK\\SP",
  "SeriesDescription": "dwi_acq-DTI-30-p2-s4",
  "SeriesNumber": 9,
  "ShimSetting": [4144, -7700, -7523, 315, -29, -150, -18, 38],
  "SliceThickness": 2,
  "SliceTiming": [2.58594, 0, 1.78906, 0.20312, 1.99219, 0.39844, 2.1875, 0.59375, 2.39062, 0.99219, 2.78125, 1.19531, 2.98438, 1.39062, 3.17969, 1.59375, 3.38281, 0.79688, 2.58594, 0, 1.78906, 0.20312, 1.99219, 0.39844, 2.1875, 0.59375, 2.39062, 0.99219, 2.78125, 1.19531, 2.98438, 1.39062, 3.17969, 1.59375, 3.38281, 0.79688, 2.58594, 0, 1.78906, 0.20312, 1.99219, 0.39844, 2.1875, 0.59375, 2.39062, 0.99219, 2.78125, 1.19531, 2.98438, 1.39062, 3.17969, 1.59375, 3.38281, 0.79688, 2.58594, 0, 1.78906, 0.20312, 1.99219, 0.39844, 2.1875, 0.59375, 2.39062, 0.99219, 2.78125, 1.19531, 2.98438, 1.39062, 3.17969, 1.59375, 3.38281, 0.79688],
  "SoftwareVersions": "syngo MR E11",
  "SpacingBetweenSlices": 2,
  "SpoilingState": true,
  "StationName": "AWP66112",
  "TotalReadoutTime": 0.0356956,
  "TxRefAmp": 229.223,
  "dcmmeta_affine": [
    [-1.9333393573760986, -0.354485422372818, -0.081756591796875, 149.7747344970703],
    [-0.3622732162475586, 1.843496322631836, 0.5929927825927734, -107.003662109375],
    [0.02974506840109825, -0.5880380868911743, 1.9083175659179688, -43.97645950317383],
    [0.0, 0.0, 0.0, 1.0]
],
  "dcmmeta_reorient_transform": [
    [0.0, -1.0, 0.0, 121.0],
    [1.0, 0.0, 0.0, 0.0],
    [0.0, 0.0, -1.0, 71.0],
    [0.0, 0.0, 0.0, 1.0]
],
  "dcmmeta_shape": [122, 122, 72, 31],
  "dcmmeta_slice_dim": 2,
  "dcmmeta_version": 0.6,
  "global": {
    "const": {
      "AccessionNumber": "qa",
      "AcquisitionMatrix": [122, 0, 0, 122],
      "AngioFlag": "N",
      "BitsAllocated": 16,
      "BitsStored": 12,
      "BodyPartExamined": "BRAIN",
      "Columns": 122,
      "EchoNumbers": 1,
      "EchoTime": 68.0,
      "EchoTrainLength": 61,
      "FlipAngle": 90.0,
      "HighBit": 11,
      "ImageOrientationPatient": [0.98278080329271, 0.18415554808353, 0.01512040969679, -0.1801967501643, 0.9371106419645, 0.29891934689328],
      "ImageType": [
        "ORIGINAL",
        "PRIMARY",
        "DIFFUSION",
        "NONE",
        "ND",
        "NORM"
],
      "ImagedNucleus": "1H",
      "ImagingFrequency": 123.252468,
      "InPlanePhaseEncodingDirection": "COL",
      "MRAcquisitionType": "2D",
      "MagneticFieldStrength": 3.0,
      "Manufacturer": "SIEMENS",
      "ManufacturerModelName": "Prisma",
      "Modality": "MR",
      "NumberOfAverages": 1.0,
      "NumberOfPhaseEncodingSteps": 122,
      "PercentPhaseFieldOfView": 100.0,
      "PercentSampling": 100.0,
      "PerformedProcedureStepStartTime": "090113.396000",
      "PhotometricInterpretation": "MONOCHROME2",
      "PixelBandwidth": 2050.0,
      "PixelRepresentation": 0,
      "PixelSpacing": [1.9672131538391, 1.9672131538391],
      "ProtocolName": "dwi_acq-DTI-30-p2-s4",
      "RepetitionTime": 3600.0,
      "Rows": 122,
      "SAR": 0.16246867446115,
      "SamplesPerPixel": 1,
      "ScanOptions": "FS",
      "ScanningSequence": "EP",
      "SequenceVariant": [
        "SK",
        "SP"
],
      "SeriesDescription": "dwi_acq-DTI-30-p2-s4",
      "SeriesNumber": 9,
      "SeriesTime": "092550.337000",
      "SliceThickness": 2.0,
      "SmallestImagePixelValue": 0,
      "SoftwareVersions": "syngo MR E11",
      "SpacingBetweenSlices": 2.0,
      "SpecificCharacterSet": "ISO_IR 100",
      "StudyID": "34",
      "StudyTime": "090113.295000",
      "TransmitCoilName": "Body",
      "VariableFlipAngleFlag": "N",
      "WindowCenterWidthExplanation": "Algo1",
      "dBdt": 0.0},
    "slices": {
      "AcquisitionTime": ["092541.460000", "092538.875000", "092540.665000", "092539.075000", "092540.865000", "092539.272500", "092541.062500", "092539.472500", "092541.262500", "092539.870000", "092541.660000", "092540.070000", "092541.857500", "092540.267500", "092542.057500", "092540.467500", "092542.257500", "092539.670000", "092541.460000", "092538.875000", "092540.665000", "092539.075000", "092540.865000", "092539.272500", "092541.062500", "092539.472500", "092541.262500", "092539.870000", "092541.660000", "092540.070000", "092541.857500", "092540.267500", "092542.057500", "092540.467500", "092542.257500", "092539.670000", "092541.460000", "092538.875000", "092540.665000", "092539.075000", "092540.865000", "092539.272500", "092541.062500", "092539.472500", "092541.262500", "092539.870000", "092541.660000", "092540.070000", "092541.857500", "092540.267500", "092542.057500", "092540.467500", "092542.257500", "092539.670000", "092541.460000", "092538.875000", "092540.665000", "092539.075000", "092540.865000", "092539.272500", "092541.062500", "092539.472500", "092541.262500", "092539.870000", "092541.660000", "092540.070000", "092541.857500", "092540.267500", "092542.057500", "092540.467500", "092542.257500", "092539.670000", "092545.060000", "092542.475000", "092544.265000", "092542.675000", "092544.465000", "092542.872500", "092544.662500", "092543.072500", "092544.862500", "092543.470000", "092545.260000", "092543.670000", "092545.457500", "092543.867500", "092545.657500", "092544.067500", "092545.857500", "092543.270000", "092545.060000", "092542.475000", "092544.265000", "092542.675000", "092544.465000", "092542.872500", "092544.662500", "092543.072500", "092544.862500", "092543.470000", "092545.260000", "092543.670000", "092545.457500", "092543.867500", "092545.657500", "092544.067500", "092545.857500", "092543.270000", "092545.060000", "092542.475000", "092544.265000", "092542.675000", "092544.465000", "092542.872500", "092544.662500", "092543.072500", "092544.862500", "092543.470000", "092545.260000", "092543.670000", "092545.457500", "092543.867500", "092545.657500", "092544.067500", "092545.857500", "092543.270000", "092545.060000", "092542.475000", "092544.265000", "092542.675000", "092544.465000", "092542.872500", "092544.662500", "092543.072500", "092544.862500", "092543.470000", "092545.260000", "092543.670000", "092545.457500", "092543.867500", "092545.657500", "092544.067500", "092545.857500", "092543.270000", "092548.660000", "092546.075000", "092547.865000", "092546.275000", "092548.065000", "092546.472500", "092548.262500", "092546.672500", "092548.462500", "092547.070000", "092548.860000", "092547.270000", "092549.057500", "092547.467500", "092549.257500", "092547.667500", "092549.457500", "092546.870000", "092548.660000", "092546.075000", "092547.865000", "092546.275000", "092548.065000", "092546.472500", "092548.262500", "092546.672500", "092548.462500", "092547.070000", "092548.860000", "092547.270000", "092549.057500", "092547.467500", "092549.257500", "092547.667500", "092549.457500", "092546.870000", "092548.660000", "092546.075000", "092547.865000", "092546.275000", "092548.065000", "092546.472500", "092548.262500", "092546.672500", "092548.462500", "092547.070000", "092548.860000", "092547.270000", "092549.057500", "092547.467500", "092549.257500", "092547.667500", "092549.457500", "092546.870000", "092548.660000", "092546.075000", "092547.865000", "092546.275000", "092548.065000", "092546.472500", "092548.262500", "092546.672500", "092548.462500", "092547.070000", "092548.860000", "092547.270000", "092549.057500", "092547.467500", "092549.257500", "092547.667500", "092549.457500", "092546.870000", "092552.260000", "092549.675000", "092551.465000", "092549.875000", "092551.665000", "092550.072500", "092551.862500", "092550.272500", "092552.062500", "092550.670000", "092552.460000", "092550.870000", "092552.657500", "092551.067500", "092552.857500", "092551.267500", "092553.057500", "092550.470000", "092552.260000", "092549.675000", "092551.465000", "092549.875000", "092551.665000", "092550.072500", "092551.862500", "092550.272500", "092552.062500", "092550.670000", "092552.460000", "092550.870000", "092552.657500", "092551.067500", "092552.857500", "092551.267500", "092553.057500", "092550.470000", "092552.260000", "092549.675000", "092551.465000", "092549.875000", "092551.665000", "092550.072500", "092551.862500", "092550.272500", "092552.062500", "092550.670000", "092552.460000", "092550.870000", "092552.657500", "092551.067500", "092552.857500", "092551.267500", "092553.057500", "092550.470000", "092552.260000", "092549.675000", "092551.465000", "092549.875000", "092551.665000", "092550.072500", "092551.862500", "092550.272500", "092552.062500", "092550.670000", "092552.460000", "092550.870000", "092552.657500", "092551.067500", "092552.857500", "092551.267500", "092553.057500", "092550.470000", "092555.860000", "092553.275000", "092555.065000", "092553.475000", "092555.265000", "092553.672500", "092555.462500", "092553.872500", "092555.662500", "092554.270000", "092556.060000", "092554.470000", "092556.257500", "092554.667500", "092556.457500", "092554.867500", "092556.657500", "092554.070000", "092555.860000", "092553.275000", "092555.065000", "092553.475000", "092555.265000", "092553.672500", "092555.462500", "092553.872500", "092555.662500", "092554.270000", "092556.060000", "092554.470000", "092556.257500", "092554.667500", "092556.457500", "092554.867500", "092556.657500", "092554.070000", "092555.860000", "092553.275000", "092555.065000", "092553.475000", "092555.265000", "092553.672500", "092555.462500", "092553.872500", "092555.662500", "092554.270000", "092556.060000", "092554.470000", "092556.257500", "092554.667500", "092556.457500", "092554.867500", "092556.657500", "092554.070000", "092555.860000", "092553.275000", "092555.065000", "092553.475000", "092555.265000", "092553.672500", "092555.462500", "092553.872500", "092555.662500", "092554.270000", "092556.060000", "092554.470000", "092556.257500", "092554.667500", "092556.457500", "092554.867500", "092556.657500", "092554.070000", "092559.460000", "092556.875000", "092558.665000", "092557.075000", "092558.865000", "092557.272500", "092559.062500", "092557.472500", "092559.262500", "092557.870000", "092559.660000", "092558.070000", "092559.857500", "092558.267500", "092600.057500", "092558.467500", "092600.257500", "092557.670000", "092559.460000", "092556.875000", "092558.665000", "092557.075000", "092558.865000", "092557.272500", "092559.062500", "092557.472500", "092559.262500", "092557.870000", "092559.660000", "092558.070000", "092559.857500", "092558.267500", "092600.057500", "092558.467500", "092600.257500", "092557.670000", "092559.460000", "092556.875000", "092558.665000", "092557.075000", "092558.865000", "092557.272500", "092559.062500", "092557.472500", "092559.262500", "092557.870000", "092559.660000", "092558.070000", "092559.857500", "092558.267500", "092600.057500", "092558.467500", "092600.257500", "092557.670000", "092559.460000", "092556.875000", "092558.665000", "092557.075000", "092558.865000", "092557.272500", "092559.062500", "092557.472500", "092559.262500", "092557.870000", "092559.660000", "092558.070000", "092559.857500", "092558.267500", "092600.057500", "092558.467500", "092600.257500", "092557.670000", "092603.060000", "092600.475000", "092602.265000", "092600.675000", "092602.465000", "092600.872500", "092602.662500", "092601.072500", "092602.862500", "092601.470000", "092603.260000", "092601.670000", "092603.457500", "092601.867500", "092603.657500", "092602.067500", "092603.857500", "092601.270000", "092603.060000", "092600.475000", "092602.265000", "092600.675000", "092602.465000", "092600.872500", "092602.662500", "092601.072500", "092602.862500", "092601.470000", "092603.260000", "092601.670000", "092603.457500", "092601.867500", "092603.657500", "092602.067500", "092603.857500", "092601.270000", "092603.060000", "092600.475000", "092602.265000", "092600.675000", "092602.465000", "092600.872500", "092602.662500", "092601.072500", "092602.862500", "092601.470000", "092603.260000", "092601.670000", "092603.457500", "092601.867500", "092603.657500", "092602.067500", "092603.857500", "092601.270000", "092603.060000", "092600.475000", "092602.265000", "092600.675000", "092602.465000", "092600.872500", "092602.662500", "092601.072500", "092602.862500", "092601.470000", "092603.260000", "092601.670000", "092603.457500", "092601.867500", "092603.657500", "092602.067500", "092603.857500", "092601.270000", "092606.660000", "092604.075000", "092605.865000", "092604.275000", "092606.065000", "092604.472500", "092606.262500", "092604.672500", "092606.462500", "092605.070000", "092606.860000", "092605.270000", "092607.057500", "092605.467500", "092607.257500", "092605.667500", "092607.457500", "092604.870000", "092606.660000", "092604.075000", "092605.865000", "092604.275000", "092606.065000", "092604.472500", "092606.262500", "092604.672500", "092606.462500", "092605.070000", "092606.860000", "092605.270000", "092607.057500", "092605.467500", "092607.257500", "092605.667500", "092607.457500", "092604.870000", "092606.660000", "092604.075000", "092605.865000", "092604.275000", "092606.065000", "092604.472500", "092606.262500", "092604.672500", "092606.462500", "092605.070000", "092606.860000", "092605.270000", "092607.057500", "092605.467500", "092607.257500", "092605.667500", "092607.457500", "092604.870000", "092606.660000", "092604.075000", "092605.865000", "092604.275000", "092606.065000", "092604.472500", "092606.262500", "092604.672500", "092606.462500", "092605.070000", "092606.860000", "092605.270000", "092607.057500", "092605.467500", "092607.257500", "092605.667500", "092607.457500", "092604.870000", "092610.260000", "092607.675000", "092609.465000", "092607.875000", "092609.665000", "092608.072500", "092609.862500", "092608.272500", "092610.062500", "092608.670000", "092610.460000", "092608.870000", "092610.657500", "092609.067500", "092610.857500", "092609.267500", "092611.057500", "092608.470000", "092610.260000", "092607.675000", "092609.465000", "092607.875000", "092609.665000", "092608.072500", "092609.862500", "092608.272500", "092610.062500", "092608.670000", "092610.460000", "092608.870000", "092610.657500", "092609.067500", "092610.857500", "092609.267500", "092611.057500", "092608.470000", "092610.260000", "092607.675000", "092609.465000", "092607.875000", "092609.665000", "092608.072500", "092609.862500", "092608.272500", "092610.062500", "092608.670000", "092610.460000", "092608.870000", "092610.657500", "092609.067500", "092610.857500", "092609.267500", "092611.057500", "092608.470000", "092610.260000", "092607.675000", "092609.465000", "092607.875000", "092609.665000", "092608.072500", "092609.862500", "092608.272500", "092610.062500", "092608.670000", "092610.460000", "092608.870000", "092610.657500", "092609.067500", "092610.857500", "092609.267500", "092611.057500", "092608.470000", "092613.860000", "092611.275000", "092613.065000", "092611.475000", "092613.265000", "092611.672500", "092613.462500", "092611.872500", "092613.662500", "092612.270000", "092614.060000", "092612.470000", "092614.257500", "092612.667500", "092614.457500", "092612.867500", "092614.657500", "092612.070000", "092613.860000", "092611.275000", "092613.065000", "092611.475000", "092613.265000", "092611.672500", "092613.462500", "092611.872500", "092613.662500", "092612.270000", "092614.060000", "092612.470000", "092614.257500", "092612.667500", "092614.457500", "092612.867500", "092614.657500", "092612.070000", "092613.860000", "092611.275000", "092613.065000", "092611.475000", "092613.265000", "092611.672500", "092613.462500", "092611.872500", "092613.662500", "092612.270000", "092614.060000", "092612.470000", "092614.257500", "092612.667500", "092614.457500", "092612.867500", "092614.657500", "092612.070000", "092613.860000", "092611.275000", "092613.065000", "092611.475000", "092613.265000", "092611.672500", "092613.462500", "092611.872500", "092613.662500", "092612.270000", "092614.060000", "092612.470000", "092614.257500", "092612.667500", "092614.457500", "092612.867500", "092614.657500", "092612.070000", "092617.460000", "092614.875000", "092616.665000", "092615.075000", "092616.865000", "092615.272500", "092617.062500", "092615.472500", "092617.262500", "092615.870000", "092617.660000", "092616.070000", "092617.857500", "092616.267500", "092618.057500", "092616.467500", "092618.257500", "092615.670000", "092617.460000", "092614.875000", "092616.665000", "092615.075000", "092616.865000", "092615.272500", "092617.062500", "092615.472500", "092617.262500", "092615.870000", "092617.660000", "092616.070000", "092617.857500", "092616.267500", "092618.057500", "092616.467500", "092618.257500", "092615.670000", "092617.460000", "092614.875000", "092616.665000", "092615.075000", "092616.865000", "092615.272500", "092617.062500", "092615.472500", "092617.262500", "092615.870000", "092617.660000", "092616.070000", "092617.857500", "092616.267500", "092618.057500", "092616.467500", "092618.257500", "092615.670000", "092617.460000", "092614.875000", "092616.665000", "092615.075000", "092616.865000", "092615.272500", "092617.062500", "092615.472500", "092617.262500", "092615.870000", "092617.660000", "092616.070000", "092617.857500", "092616.267500", "092618.057500", "092616.467500", "092618.257500", "092615.670000", "092621.060000", "092618.475000", "092620.265000", "092618.675000", "092620.465000", "092618.872500", "092620.662500", "092619.072500", "092620.862500", "092619.470000", "092621.260000", "092619.670000", "092621.457500", "092619.867500", "092621.657500", "092620.067500", "092621.857500", "092619.270000", "092621.060000", "092618.475000", "092620.265000", "092618.675000", "092620.465000", "092618.872500", "092620.662500", "092619.072500", "092620.862500", "092619.470000", "092621.260000", "092619.670000", "092621.457500", "092619.867500", "092621.657500", "092620.067500", "092621.857500", "092619.270000", "092621.060000", "092618.475000", "092620.265000", "092618.675000", "092620.465000", "092618.872500", "092620.662500", "092619.072500", "092620.862500", "092619.470000", "092621.260000", "092619.670000", "092621.457500", "092619.867500", "092621.657500", "092620.067500", "092621.857500", "092619.270000", "092621.060000", "092618.475000", "092620.265000", "092618.675000", "092620.465000", "092618.872500", "092620.662500", "092619.072500", "092620.862500", "092619.470000", "092621.260000", "092619.670000", "092621.457500", "092619.867500", "092621.657500", "092620.067500", "092621.857500", "092619.270000", "092624.660000", "092622.075000", "092623.865000", "092622.275000", "092624.065000", "092622.472500", "092624.262500", "092622.672500", "092624.462500", "092623.070000", "092624.860000", "092623.270000", "092625.057500", "092623.467500", "092625.257500", "092623.667500", "092625.457500", "092622.870000", "092624.660000", "092622.075000", "092623.865000", "092622.275000", "092624.065000", "092622.472500", "092624.262500", "092622.672500", "092624.462500", "092623.070000", "092624.860000", "092623.270000", "092625.057500", "092623.467500", "092625.257500", "092623.667500", "092625.457500", "092622.870000", "092624.660000", "092622.075000", "092623.865000", "092622.275000", "092624.065000", "092622.472500", "092624.262500", "092622.672500", "092624.462500", "092623.070000", "092624.860000", "092623.270000", "092625.057500", "092623.467500", "092625.257500", "092623.667500", "092625.457500", "092622.870000", "092624.660000", "092622.075000", "092623.865000", "092622.275000", "092624.065000", "092622.472500", "092624.262500", "092622.672500", "092624.462500", "092623.070000", "092624.860000", "092623.270000", "092625.057500", "092623.467500", "092625.257500", "092623.667500", "092625.457500", "092622.870000", "092628.260000", "092625.675000", "092627.465000", "092625.875000", "092627.665000", "092626.072500", "092627.862500", "092626.272500", "092628.062500", "092626.670000", "092628.460000", "092626.870000", "092628.657500", "092627.067500", "092628.857500", "092627.267500", "092629.057500", "092626.470000", "092628.260000", "092625.675000", "092627.465000", "092625.875000", "092627.665000", "092626.072500", "092627.862500", "092626.272500", "092628.062500", "092626.670000", "092628.460000", "092626.870000", "092628.657500", "092627.067500", "092628.857500", "092627.267500", "092629.057500", "092626.470000", "092628.260000", "092625.675000", "092627.465000", "092625.875000", "092627.665000", "092626.072500", "092627.862500", "092626.272500", "092628.062500", "092626.670000", "092628.460000", "092626.870000", "092628.657500", "092627.067500", "092628.857500", "092627.267500", "092629.057500", "092626.470000", "092628.260000", "092625.675000", "092627.465000", "092625.875000", "092627.665000", "092626.072500", "092627.862500", "092626.272500", "092628.062500", "092626.670000", "092628.460000", "092626.870000", "092628.657500", "092627.067500", "092628.857500", "092627.267500", "092629.057500", "092626.470000", "092631.860000", "092629.275000", "092631.065000", "092629.475000", "092631.265000", "092629.672500", "092631.462500", "092629.872500", "092631.662500", "092630.270000", "092632.060000", "092630.470000", "092632.257500", "092630.667500", "092632.457500", "092630.867500", "092632.657500", "092630.070000", "092631.860000", "092629.275000", "092631.065000", "092629.475000", "092631.265000", "092629.672500", "092631.462500", "092629.872500", "092631.662500", "092630.270000", "092632.060000", "092630.470000", "092632.257500", "092630.667500", "092632.457500", "092630.867500", "092632.657500", "092630.070000", "092631.860000", "092629.275000", "092631.065000", "092629.475000", "092631.265000", "092629.672500", "092631.462500", "092629.872500", "092631.662500", "092630.270000", "092632.060000", "092630.470000", "092632.257500", "092630.667500", "092632.457500", "092630.867500", "092632.657500", "092630.070000", "092631.860000", "092629.275000", "092631.065000", "092629.475000", "092631.265000", "092629.672500", "092631.462500", "092629.872500", "092631.662500", "092630.270000", "092632.060000", "092630.470000", "092632.257500", "092630.667500", "092632.457500", "092630.867500", "092632.657500", "092630.070000", "092635.460000", "092632.875000", "092634.665000", "092633.075000", "092634.865000", "092633.272500", "092635.062500", "092633.472500", "092635.262500", "092633.870000", "092635.660000", "092634.070000", "092635.857500", "092634.267500", "092636.057500", "092634.467500", "092636.257500", "092633.670000", "092635.460000", "092632.875000", "092634.665000", "092633.075000", "092634.865000", "092633.272500", "092635.062500", "092633.472500", "092635.262500", "092633.870000", "092635.660000", "092634.070000", "092635.857500", "092634.267500", "092636.057500", "092634.467500", "092636.257500", "092633.670000", "092635.460000", "092632.875000", "092634.665000", "092633.075000", "092634.865000", "092633.272500", "092635.062500", "092633.472500", "092635.262500", "092633.870000", "092635.660000", "092634.070000", "092635.857500", "092634.267500", "092636.057500", "092634.467500", "092636.257500", "092633.670000", "092635.460000", "092632.875000", "092634.665000", "092633.075000", "092634.865000", "092633.272500", "092635.062500", "092633.472500", "092635.262500", "092633.870000", "092635.660000", "092634.070000", "092635.857500", "092634.267500", "092636.057500", "092634.467500", "092636.257500", "092633.670000", "092639.060000", "092636.475000", "092638.265000", "092636.675000", "092638.465000", "092636.872500", "092638.662500", "092637.072500", "092638.862500", "092637.470000", "092639.260000", "092637.670000", "092639.457500", "092637.867500", "092639.657500", "092638.067500", "092639.857500", "092637.270000", "092639.060000", "092636.475000", "092638.265000", "092636.675000", "092638.465000", "092636.872500", "092638.662500", "092637.072500", "092638.862500", "092637.470000", "092639.260000", "092637.670000", "092639.457500", "092637.867500", "092639.657500", "092638.067500", "092639.857500", "092637.270000", "092639.060000", "092636.475000", "092638.265000", "092636.675000", "092638.465000", "092636.872500", "092638.662500", "092637.072500", "092638.862500", "092637.470000", "092639.260000", "092637.670000", "092639.457500", "092637.867500", "092639.657500", "092638.067500", "092639.857500", "092637.270000", "092639.060000", "092636.475000", "092638.265000", "092636.675000", "092638.465000", "092636.872500", "092638.662500", "092637.072500", "092638.862500", "092637.470000", "092639.260000", "092637.670000", "092639.457500", "092637.867500", "092639.657500", "092638.067500", "092639.857500", "092637.270000", "092642.660000", "092640.075000", "092641.865000", "092640.275000", "092642.065000", "092640.472500", "092642.262500", "092640.672500", "092642.462500", "092641.070000", "092642.860000", "092641.270000", "092643.057500", "092641.467500", "092643.257500", "092641.667500", "092643.457500", "092640.870000", "092642.660000", "092640.075000", "092641.865000", "092640.275000", "092642.065000", "092640.472500", "092642.262500", "092640.672500", "092642.462500", "092641.070000", "092642.860000", "092641.270000", "092643.057500", "092641.467500", "092643.257500", "092641.667500", "092643.457500", "092640.870000", "092642.660000", "092640.075000", "092641.865000", "092640.275000", "092642.065000", "092640.472500", "092642.262500", "092640.672500", "092642.462500", "092641.070000", "092642.860000", "092641.270000", "092643.057500", "092641.467500", "092643.257500", "092641.667500", "092643.457500", "092640.870000", "092642.660000", "092640.075000", "092641.865000", "092640.275000", "092642.065000", "092640.472500", "092642.262500", "092640.672500", "092642.462500", "092641.070000", "092642.860000", "092641.270000", "092643.057500", "092641.467500", "092643.257500", "092641.667500", "092643.457500", "092640.870000", "092646.260000", "092643.675000", "092645.465000", "092643.875000", "092645.665000", "092644.072500", "092645.862500", "092644.272500", "092646.062500", "092644.670000", "092646.460000", "092644.870000", "092646.657500", "092645.067500", "092646.857500", "092645.267500", "092647.057500", "092644.470000", "092646.260000", "092643.675000", "092645.465000", "092643.875000", "092645.665000", "092644.072500", "092645.862500", "092644.272500", "092646.062500", "092644.670000", "092646.460000", "092644.870000", "092646.657500", "092645.067500", "092646.857500", "092645.267500", "092647.057500", "092644.470000", "092646.260000", "092643.675000", "092645.465000", "092643.875000", "092645.665000", "092644.072500", "092645.862500", "092644.272500", "092646.062500", "092644.670000", "092646.460000", "092644.870000", "092646.657500", "092645.067500", "092646.857500", "092645.267500", "092647.057500", "092644.470000", "092646.260000", "092643.675000", "092645.465000", "092643.875000", "092645.665000", "092644.072500", "092645.862500", "092644.272500", "092646.062500", "092644.670000", "092646.460000", "092644.870000", "092646.657500", "092645.067500", "092646.857500", "092645.267500", "092647.057500", "092644.470000", "092649.860000", "092647.275000", "092649.065000", "092647.475000", "092649.265000", "092647.672500", "092649.462500", "092647.872500", "092649.662500", "092648.270000", "092650.060000", "092648.470000", "092650.257500", "092648.667500", "092650.457500", "092648.867500", "092650.657500", "092648.070000", "092649.860000", "092647.275000", "092649.065000", "092647.475000", "092649.265000", "092647.672500", "092649.462500", "092647.872500", "092649.662500", "092648.270000", "092650.060000", "092648.470000", "092650.257500", "092648.667500", "092650.457500", "092648.867500", "092650.657500", "092648.070000", "092649.860000", "092647.275000", "092649.065000", "092647.475000", "092649.265000", "092647.672500", "092649.462500", "092647.872500", "092649.662500", "092648.270000", "092650.060000", "092648.470000", "092650.257500", "092648.667500", "092650.457500", "092648.867500", "092650.657500", "092648.070000", "092649.860000", "092647.275000", "092649.065000", "092647.475000", "092649.265000", "092647.672500", "092649.462500", "092647.872500", "092649.662500", "092648.270000", "092650.060000", "092648.47