{
  "AcquisitionMatrixPE": 80,
  "AcquisitionNumber": 1,
  "AcquisitionTime": "09:53:10.212500",
  "BandwidthPerPixelPhaseEncode": 48.077,
  "BaseResolution": 80,
  "BodyPartExamined": "BRAIN",
  "CoilCombinationMethod": "Sum of Squares",
  "ConsistencyInfo": "N4_VE11C_LATEST_20160120",
  "ConversionSoftware": "dcm2niix",
  "ConversionSoftwareVersion": "v1.0.20220720",
  "DerivedVendorReportedEchoSpacing": 0.000519999,
  "DeviceSerialNumber": "66112",
  "DwellTime": 2.7e-06,
  "EchoTime": 0.035,
  "EchoTrainLength": 39,
  "EffectiveEchoSpacing": 0.00026,
  "FlipAngle": 90,
  "HeudiconvVersion": "0.13.1",
  "ImageOrientationPatientDICOM": [0.988723, 0.149509, 0.00856891, -0.144239, 0.935362, 0.322944],
  "ImageOrientationText": "Tra>Cor(18.7)>Sag(-2.3)",
  "ImageType": [
    "ORIGINAL",
    "PRIMARY",
    "M",
    "ND",
    "NORM",
    "MOSAIC"
],
  "ImagingFrequency": 123.252,
  "InPlanePhaseEncodingDirectionDICOM": "COL",
  "InstitutionAddress": "Maynard 3,Hanover,NH,US,03755",
  "InstitutionName": "Dartmouth College - PBS",
  "InstitutionalDepartmentName": "Department",
  "MRAcquisitionType": "2D",
  "MagneticFieldStrength": 3,
  "Manufacturer": "Siemens",
  "ManufacturersModelName": "Prisma",
  "MatrixCoilMode": "GRAPPA",
  "Modality": "MR",
  "NonlinearGradientCorrection": false,
  "ParallelReductionFactorInPlane": 2,
  "PartialFourier": 1,
  "PatientPosition": "HFS",
  "PercentPhaseFOV": 100,
  "PercentSampling": 100,
  "PhaseEncodingDirection": "j-",
  "PhaseEncodingSteps": 79,
  "PhaseResolution": 1,
  "PixelBandwidth": 2315,
  "ProcedureStepDescription": "dbic^QA",
  "ProtocolName": "func-bold_task-rest_acq-p2",
  "PulseSequenceDetails": "%SiemensSeq%\\ep2d_bold",
  "ReceiveCoilActiveElements": "HC1-7;NC1,2",
  "ReceiveCoilName": "HeadNeck_64",
  "ReconMatrixPE": 80,
  "RefLinesPE": 24,
  "RepetitionTime": 2,
  "SAR": 0.0409065,
  "ScanOptions": "FS",
  "ScanningSequence": "EP",
  "SequenceName": "*epfid2d1_80",
  "SequenceVariant": "SK",
  "SeriesDescription": "func-bold_task-rest_acq-p2",
  "SeriesNumber": 5,
  "ShimSetting": [4140, -7690, -7519, 156, -76, -323, -130, 76],
  "SliceThickness": 3.5,
  "SliceTiming": [0.99, 0, 1.055, 0.065, 1.12, 0.1325, 1.1875, 0.1975, 1.2525, 0.2625, 1.32, 0.33, 1.385, 0.395, 1.45, 0.46, 1.5175, 0.5275, 1.5825, 0.5925, 1.65, 0.66, 1.715, 0.725, 1.78, 0.79, 1.8475, 0.8575, 1.9125, 0.9225],
  "SoftwareVersions": "syngo MR E11",
  "SpacingBetweenSlices": 3.99,
  "StationName": "AWP66112",
  "TaskName": "rest",
  "TotalReadoutTime": 0.02054,
  "TxRefAmp": 205.318,
  "dcmmeta_affine": [
    [-2.966169595718384, -0.43271732330322266, -0.16066937148571014, 141.10928344726562],
    [-0.44852766394615173, 2.806086778640747, 1.2789459228515625, -112.20626068115234],
    [0.025706730782985687, -0.9688308835029602, 3.7760539054870605, -23.42855453491211],
    [0.0, 0.0, 0.0, 1.0]
],
  "dcmmeta_reorient_transform": [
    [0.0, -1.0, 0.0, 79.0],
    [1.0, 0.0, 0.0, 0.0],
    [0.0, 0.0, 1.0, 0.0],
    [0.0, 0.0, 0.0, 1.0]
],
  "dcmmeta_shape": [80, 80, 30, 200],
  "dcmmeta_slice_dim": 2,
  "dcmmeta_version": 0.6,
  "global": {
    "const": {
      "AccessionNumber": "qa64",
      "AcquisitionMatrix": [80, 0, 0, 80],
      "AngioFlag": "N",
      "BitsAllocated": 16,
      "BitsStored": 12,
      "BodyPartExamined": "BRAIN",
      "Columns": 480,
      "EchoNumbers": 1,
      "EchoTime": 35.0,
      "EchoTrainLength": 39,
      "FlipAngle": 90.0,
      "HighBit": 11,
      "ImageOrientationPatient": [0.98872320042836, 0.1495092194891, 0.00856891022563, -0.1442391069592, 0.93536222731036, 0.3229436231676],
      "ImagePositionPatient": [-613.61507321486, -760.39745786993, -298.87371261124],
      "ImageType": [
        "ORIGINAL",
        "PRIMARY",
        "M",
        "ND",
        "NORM",
        "MOSAIC"
],
      "ImagedNucleus": "1H",
      "ImagingFrequency": 123.252357,
      "InPlanePhaseEncodingDirection": "COL",
      "LargestImagePixelValue": 4095,
      "MRAcquisitionType": "2D",
      "MagneticFieldStrength": 3.0,
      "Manufacturer": "SIEMENS",
      "ManufacturerModelName": "Prisma",
      "Modality": "MR",
      "NumberOfAverages": 1.0,
      "NumberOfPhaseEncodingSteps": 79,
      "PercentPhaseFieldOfView": 100.0,
      "PercentSampling": 100.0,
      "PerformedProcedureStepStartTime": "094902.321000",
      "PhotometricInterpretation": "MONOCHROME2",
      "PixelBandwidth": 2315.0,
      "PixelRepresentation": 0,
      "PixelSpacing": [3.0, 3.0],
      "ProtocolName": "func-bold_task-rest_acq-p2",
      "RepetitionTime": 2000.0,
      "Rows": 480,
      "SAR": 0.04090647518494,
      "SamplesPerPixel": 1,
      "ScanOptions": "FS",
      "ScanningSequence": "EP",
      "SequenceName": "*epfid2d1_80",
      "SequenceVariant": "SK",
      "SeriesDescription": "func-bold_task-rest_acq-p2",
      "SeriesNumber": 5,
      "SeriesTime": "095407.976000",
      "SliceLocation": -63.820841600802,
      "SliceThickness": 3.5,
      "SmallestImagePixelValue": 0,
      "SoftwareVersions": "syngo MR E11",
      "SpacingBetweenSlices": 3.9900000069998,
      "SpecificCharacterSet": "ISO_IR 100",
      "StudyID": "32",
      "StudyTime": "094902.253000",
      "TransmitCoilName": "Body",
      "VariableFlipAngleFlag": "N",
      "WindowCenterWidthExplanation": "Algo1",
      "dBdt": 0.0},
    "slices": {}
  },
  "time": {
    "samples": {
      "AcquisitionNumber": [1, 2, 3, 4, 5, 6, 7, 8, 9, 10, 11, 12, 13, 14, 15, 16, 17, 18, 19, 20, 21, 22, 23, 24, 25, 26, 27, 28, 29, 30, 31, 32, 33, 34, 35, 36, 37, 38, 39, 40, 41, 42, 43, 44, 45, 46, 47, 48, 49, 50, 51, 52, 53, 54, 55, 56, 57, 58, 59, 60, 61, 62, 63, 64, 65, 66, 67, 68, 69, 70, 71, 72, 73, 74, 75, 76, 77, 78, 79, 80, 81, 82, 83, 84, 85, 86, 87, 88, 89, 90, 91, 92, 93, 94, 95, 96, 97, 98, 99, 100, 101, 102, 103, 104, 105, 106, 107, 108, 109, 110, 111, 112, 113, 114, 115, 116, 117, 118, 119, 120, 121, 122, 123, 124, 125, 126, 127, 128, 129, 130, 131, 132, 133, 134, 135, 136, 137, 138, 139, 140, 141, 142, 143, 144, 145, 146, 147, 148, 149, 150, 151, 152, 153, 154, 155, 156, 157, 158, 159, 160, 161, 162, 163, 164, 165, 166, 167, 168, 169, 170, 171, 172, 173, 174, 175, 176, 177, 178, 179, 180, 181, 182, 183, 184, 185, 186, 187, 188, 189, 190, 191, 192, 193, 194, 195, 196, 197, 198, 199, 200],
      "AcquisitionTime": ["095310.212500", "095312.212500", "095314.212500", "095316.212500", "095318.212500", "095320.212500", "095322.212500", "095324.212500", "095326.212500", "095328.212500", "095330.212500", "095332.212500", "095334.212500", "095336.212500", "095338.212500", "095340.212500", "095342.212500", "095344.212500", "095346.212500", "095348.212500", "095350.212500", "095352.212500", "095354.212500", "095356.212500", "095358.212500", "095400.212500", "095402.212500", "095404.212500", "095406.212500", "095408.212500", "095410.212500", "095412.212500", "095414.212500", "095416.212500", "095418.212500", "095420.212500", "095422.212500", "095424.212500", "095426.212500", "095428.212500", "095430.212500", "095432.212500", "095434.212500", "095436.212500", "095438.212500", "095440.212500", "095442.212500", "095444.212500", "095446.212500", "095448.212500", "095450.212500", "095452.212500", "095454.212500", "095456.212500", "095458.212500", "095500.212500", "095502.212500", "095504.212500", "095506.212500", "095508.212500", "095510.212500", "095512.212500", "095514.212500", "095516.212500", "095518.212500", "095520.212500", "095522.212500", "095524.212500", "095526.212500", "095528.212500", "095530.212500", "095532.212500", "095534.212500", "095536.212500", "095538.212500", "095540.212500", "095542.212500", "095544.212500", "095546.212500", "095548.212500", "095550.212500", "095552.212500", "095554.212500", "095556.212500", "095558.212500", "095600.212500", "095602.212500", "095604.212500", "095606.212500", "095608.212500", "095610.212500", "095612.212500", "095614.212500", "095616.212500", "095618.212500", "095620.212500", "095622.212500", "095624.212500", "095626.212500", "095628.212500", "095630.212500", "095632.212500", "095634.212500", "095636.212500", "095638.212500", "095640.212500", "095642.212500", "095644.212500", "095646.212500", "095648.212500", "095650.212500", "095652.212500", "095654.212500", "095656.212500", "095658.212500", "095700.212500", "095702.212500", "095704.212500", "095706.212500", "095708.212500", "095710.212500", "095712.212500", "095714.212500", "095716.212500", "095718.212500", "095720.212500", "095722.212500", "095724.212500", "095726.212500", "095728.212500", "095730.212500", "095732.212500", "095734.212500", "095736.212500", "095738.212500", "095740.212500", "095742.212500", "095744.212500", "095746.212500", "095748.212500", "095750.212500", "095752.212500", "095754.212500", "095756.212500", "095758.212500", "095800.212500", "095802.212500", "095804.212500", "095806.212500", "095808.212500", "095810.212500", "095812.212500", "095814.212500", "095816.212500", "095818.212500", "095820.212500", "095822.212500", "095824.212500", "095826.212500", "095828.212500", "095830.212500", "095832.212500", "095834.212500", "095836.212500", "095838.212500", "095840.212500", "095842.212500", "095844.212500", "095846.212500", "095848.212500", "095850.212500", "095852.212500", "095854.212500", "095856.212500", "095858.212500", "095900.212500", "095902.212500", "095904.212500", "095906.212500", "095908.212500", "095910.212500", "095912.212500", "095914.212500", "095916.212500", "095918.212500", "095920.212500", "095922.212500", "095924.212500", "095926.212500", "095928.212500", "095930.212500", "095932.212500", "095934.212500", "095936.212500", "095938.212500", "095940.212500", "095942.212500", "095944.212500", "095946.212500", "095948.212500"],
      "ContentTime": ["095407.980000", "095407.983000", "095407.986000", "095407.989000", "095408.001000", "095408.004000", "095408.007000", "095408.010000", "095408.012000", "095408.015000", "095408.018000", "095408.020000", "095408.023000", "095408.026000", "095408.029000", "095408.031000", "095408.034000", "095408.037000", "095408.039000", "095408.042000", "095408.044000", "095408.047000", "095408.050000", "095408.052000", "095408.055000", "095408.058000", "095408.060000", "095408.063000", "095408.066000", "095447.974000", "095447.976000", "095447.979000", "095447.982000", "095447.985000", "095447.990000", "095447.993000", "095447.995000", "095447.998000", "095448.002000", "095448.004000", "095448.007000", "095448.010000", "095448.012000", "095448.015000", "095448.018000", "095448.020000", "095448.023000", "095448.026000", "095448.028000", "095527.974000", "095527.977000", "095527.979000", "095527.982000", "095527.984000", "095527.987000", "095527.990000", "095527.992000", "095527.995000", "095527.998000", "095528.010000", "095528.013000", "095528.016000", "095528.019000", "095528.021000", "095528.024000", "095528.026000", "095528.029000", "095528.032000", "095528.034000", "095607.975000", "095607.977000", "095607.980000", "095607.983000", "095607.985000", "095607.988000", "095607.991000", "095607.993000", "095608.002000", "095608.005000", "095608.007000", "095608.010000", "095608.013000", "095608.015000", "095608.018000", "095608.020000", "095608.023000", "095608.026000", "095608.028000", "095608.031000", "095647.975000", "095647.978000", "095647.980000", "095647.983000", "095647.986000", "095647.988000", "095647.991000", "095647.993000", "095647.996000", "095648.000000", "095648.002000", "095648.005000", "095648.008000", "095648.010000", "095648.013000", "095648.016000", "095648.018000", "095648.021000", "095648.023000", "095648.026000", "095727.974000", "095727.977000", "095727.979000", "095727.982000", "095727.985000", "095727.987000", "095727.990000", "095727.992000", "095727.995000", "095727.998000", "095728.002000", "095728.004000", "095728.007000", "095728.010000", "095728.012000", "095728.015000", "095728.018000", "095728.020000", "095728.023000", "095728.025000", "095807.975000", "095807.977000", "095807.980000", "095807.983000", "095807.986000", "095807.988000", "095807.991000", "095807.993000", "095807.996000", "095807.999000", "095808.001000", "095808.004000", "095808.007000", "095808.009000", "095808.012000", "095808.014000", "095808.017000", "095808.020000", "095808.023000", "095808.026000", "095847.975000", "095847.977000", "095847.980000", "095847.983000", "095847.986000", "095847.988000", "095847.991000", "095847.994000", "095847.996000", "095848.000000", "095848.002000", "095848.005000", "095848.008000", "095848.010000", "095848.013000", "095848.016000", "095848.018000", "095848.021000", "095848.024000", "095848.026000", "095927.974000", "095927.977000", "095927.979000", "095927.982000", "095927.985000", "095927.987000", "095927.990000", "095927.993000", "095927.995000", "095927.998000", "095928.002000", "095928.004000", "095928.019000", "095928.022000", "095928.024000", "095928.027000", "095928.030000", "095928.033000", "095928.035000", "095928.038000", "095949.555000", "095949.558000", "095949.561000", "095949.563000", "095949.566000", "095949.569000", "095949.572000", "095949.574000", "095949.577000", "095949.580000", "095949.583000"],
      "InstanceCreationTime": ["095407.980000", "095407.983000", "095407.986000", "095407.989000", "095408.001000", "095408.004000", "095408.007000", "095408.010000", "095408.012000", "095408.015000", "095408.018000", "095408.020000", "095408.023000", "095408.026000", "095408.029000", "095408.031000", "095408.034000", "095408.037000", "095408.039000", "095408.042000", "095408.044000", "095408.047000", "095408.050000", "095408.052000", "095408.055000", "095408.058000", "095408.060000", "095408.063000", "095408.066000", "095447.974000", "095447.976000", "095447.979000", "095447.982000", "095447.985000", "095447.990000", "095447.993000", "095447.995000", "095447.998000", "095448.002000", "095448.004000", "095448.007000", "095448.010000", "095448.012000", "095448.015000", "095448.018000", "095448.020000", "095448.023000", "095448.026000", "095448.028000", "095527.974000", "095527.977000", "095527.979000", "095527.982000", "095527.984000", "095527.987000", "095527.990000", "095527.992000", "095527.995000", "095527.998000", "095528.010000", "095528.013000", "095528.016000", "095528.019000", "095528.021000", "095528.024000", "095528.026000", "095528.029000", "095528.032000", "095528.034000", "095607.975000", "095607.977000", "095607.980000", "095607.983000", "095607.985000", "095607.988000", "095607.991000", "095607.993000", "095608.002000", "095608.005000", "095608.007000", "095608.010000", "095608.013000", "095608.015000", "095608.018000", "095608.020000", "095608.023000", "095608.026000", "095608.028000", "095608.031000", "095647.975000", "095647.978000", "095647.980000", "095647.983000", "095647.986000", "095647.988000", "095647.991000", "095647.993000", "095647.996000", "095648.000000", "095648.002000", "095648.005000", "095648.008000", "095648.010000", "095648.013000", "095648.016000", "095648.018000", "095648.021000", "095648.023000", "095648.026000", "095727.974000", "095727.977000", "095727.979000", "095727.982000", "095727.985000", "095727.987000", "095727.990000", "095727.992000", "095727.995000", "095727.998000", "095728.002000", "095728.004000", "095728.007000", "095728.010000", "095728.012000", "095728.015000", "095728.018000", "095728.020000", "095728.023000", "095728.025000", "095807.975000", "095807.977000", "095807.980000", "095807.983000", "095807.986000", "095807.988000", "095807.991000", "095807.993000", "095807.996000", "095807.999000", "095808.001000", "095808.004000", "095808.007000", "095808.009000", "095808.012000", "095808.014000", "095808.017000", "095808.020000", "095808.023000", "095808.026000", "095847.975000", "095847.977000", "095847.980000", "095847.983000", "095847.986000", "095847.988000", "095847.991000", "095847.994000", "095847.996000", "095848.000000", "095848.002000", "095848.005000", "095848.008000", "095848.010000", "095848.013000", "095848.016000", "095848.018000", "095848.021000", "095848.024000", "095848.026000", "095927.974000", "095927.977000", "095927.979000", "095927.982000", "095927.985000", "095927.987000", "095927.990000", "095927.993000", "095927.995000", "095927.998000", "095928.002000", "095928.004000", "095928.019000", "095928.022000", "095928.024000", "095928.027000", "095928.030000", "095928.033000", "095928.035000", "095928.038000", "095949.555000", "095949.558000", "095949.561000", "095949.563000", "095949.566000", "095949.569000", "095949.572000", "095949.574000", "095949.577000", "095949.580000", "095949.583000"],
      "InstanceNumber": [1, 2, 3, 4, 5, 6, 7, 8, 9, 10, 11, 12, 13, 14, 15, 16, 17, 18, 19, 20, 21, 22, 23, 24, 25, 26, 27, 28, 29, 30, 31, 32, 33, 34, 35, 36, 37, 38, 39, 40, 41, 42, 43, 44, 45, 46, 47, 48, 49, 50, 51, 52, 53, 54, 55, 56, 57, 58, 59, 60, 61, 62, 63, 64, 65, 66, 67, 68, 69, 70, 71, 72, 73, 74, 75, 76, 77, 78, 79, 80, 81, 82, 83, 84, 85, 86, 87, 88, 89, 90, 91, 92, 93, 94, 95, 96, 97, 98, 99, 100, 101, 102, 103, 104, 105, 106, 107, 108, 109, 110, 111, 112, 113, 114, 115, 116, 117, 118, 119, 120, 121, 122, 123, 124, 125, 126, 127, 128, 129, 130, 131, 132, 133, 134, 135, 136, 137, 138, 139, 140, 141, 142, 143, 144, 145, 146, 147, 148, 149, 150, 151, 152, 153, 154, 155, 156, 157, 158, 159, 160, 161, 162, 163, 164, 165, 166, 167, 168, 169, 170, 171, 172, 173, 174, 175, 176, 177, 178, 179, 180, 181, 182, 183, 184, 185, 186, 187, 188, 189, 190, 191, 192, 193, 194, 195, 196, 197, 198, 199, 200],
      "WindowCenter": [1503.0, 1501.0, 1502.0, 1501.0, 1502.0, 1502.0, 1502.0, 1501.0, 1501.0, 1501.0, 1501.0, 1502.0, 1501.0, 1501.0, 1502.0, 1501.0, 1501.0, 1501.0, 1501.0, 1500.0, 1500.0, 1500.0, 1501.0, 1500.0, 1500.0, 1500.0, 1500.0, 1501.0, 1501.0, 1501.0, 1500.0, 1500.0, 1501.0, 1499.0, 1500.0, 1500.0, 1500.0, 1500.0, 1499.0, 1499.0, 1499.0, 1499.0, 1500.0, 1500.0, 1499.0, 1499.0, 1499.0, 1499.0, 1499.0, 1499.0, 1499.0, 1499.0, 1499.0, 1500.0, 1499.0, 1498.0, 1498.0, 1498.0, 1498.0, 1498.0, 1498.0, 1498.0, 1498.0, 1498.0, 1498.0, 1498.0, 1498.0, 1498.0, 1498.0, 1498.0, 1498.0, 1498.0, 1497.0, 1498.0, 1498.0, 1498.0, 1498.0, 1498.0, 1497.0, 1497.0, 1497.0, 1497.0, 1497.0, 1498.0, 1497.0, 1497.0, 1498.0, 1497.0, 1497.0, 1497.0, 1497.0, 1497.0, 1497.0, 1497.0, 1497.0, 1497.0, 1497.0, 1497.0, 1497.0, 1497.0, 1496.0, 1497.0, 1497.0, 1497.0, 1497.0, 1497.0, 1496.0, 1497.0, 1497.0, 1496.0, 1496.0, 1497.0, 1496.0, 1496.0, 1497.0, 1496.0, 1497.0, 1496.0, 1496.0, 1497.0, 1497.0, 1496.0, 1496.0, 1497.0, 1496.0, 1496.0, 1496.0, 1496.0, 1495.0, 1495.0, 1496.0, 1495.0, 1496.0, 1495.0, 1495.0, 1496.0, 1497.0, 1496.0, 1496.0, 1495.0, 1495.0, 1496.0, 1495.0, 1496.0, 1496.0, 1496.0, 1495.0, 1495.0, 1496.0, 1495.0, 1495.0, 1495.0, 1495.0, 1495.0, 1495.0, 1495.0, 1496.0, 1495.0, 1496.0, 1496.0, 1496.0, 1495.0, 1494.0, 1495.0, 1496.0, 1495.0, 1495.0, 1494.0, 1495.0, 1495.0, 1495.0, 1495.0, 1495.0, 1495.0, 1495.0, 1495.0, 1494.0, 1495.0, 1495.0, 1495.0, 1495.0, 1495.0, 1495.0, 1495.0, 1496.0, 1495.0, 1495.0, 1496.0, 1494.0, 1494.0, 1495.0, 1494.0, 1495.0, 1495.0, 1494.0, 1495.0, 1495.0, 1495.0, 1495.0, 1494.0],
      "WindowWidth": [3415.0, 3414.0, 3413.0, 3413.0, 3413.0, 3413.0, 3413.0, 3413.0, 3413.0, 3413.0, 3413.0, 3412.0, 3413.0, 3413.0, 3412.0, 3413.0, 3413.0, 3412.0, 3412.0, 3412.0, 3412.0, 3413.0, 3412.0, 3413.0, 3413.0, 3412.0, 3412.0, 3412.0, 3412.0, 3412.0, 3411.0, 3412.0, 3411.0, 3412.0, 3411.0, 3411.0, 3411.0, 3411.0, 3411.0, 3411.0, 3412.0, 3412.0, 3411.0, 3411.0, 3411.0, 3411.0, 3411.0, 3411.0, 3411.0, 3410.0, 3411.0, 3411.0, 3411.0, 3411.0, 3411.0, 3411.0, 3411.0, 3411.0, 3411.0, 3411.0, 3411.0, 3410.0, 3411.0, 3410.0, 3410.0, 3410.0, 3410.0, 3410.0, 3410.0, 3410.0, 3410.0, 3410.0, 3410.0, 3410.0, 3410.0, 3410.0, 3410.0, 3410.0, 3410.0, 3410.0, 3410.0, 3410.0, 3409.0, 3409.0, 3409.0, 3409.0, 3409.0, 3409.0, 3409.0, 3409.0, 3409.0, 3409.0, 3409.0, 3409.0, 3409.0, 3409.0, 3409.0, 3409.0, 3409.0, 3409.0, 3409.0, 3409.0, 3409.0, 3409.0, 3409.0, 3409.0, 3409.0, 3409.0, 3409.0, 3408.0, 3408.0, 3409.0, 3409.0, 3409.0, 3409.0, 3408.0, 3409.0, 3409.0, 3408.0, 3408.0, 3408.0, 3408.0, 3408.0, 3408.0, 3408.0, 3408.0, 3408.0, 3408.0, 3408.0, 3408.0, 3408.0, 3408.0, 3408.0, 3408.0, 3408.0, 3408.0, 3408.0, 3408.0, 3408.0, 3408.0, 3408.0, 3408.0, 3408.0, 3408.0, 3408.0, 3408.0, 3408.0, 3408.0, 3407.0, 3408.0, 3408.0, 3408.0, 3407.0, 3407.0, 3407.0, 3407.0, 3407.0, 3407.0, 3407.0, 3407.0, 3407.0, 3407.0, 3407.0, 3407.0, 3407.0, 3407.0, 3407.0, 3407.0, 3407.0, 3407.0, 3407.0, 3407.0, 3407.0, 3407.0, 3407.0, 3407.0, 3407.0, 3407.0, 3407.0, 3407.0, 3407.0, 3407.0, 3407.0, 3407.0, 3406.0, 3407.0, 3407.0, 3406.0, 3407.0, 3407.0, 3406.0, 3407.0, 3406.0, 3406.0, 3407.0, 3406.0, 3406.0, 3406.0, 3406.0, 3406.0]
    },
    "slices": {}
  }
}