{
  "AcquisitionMatrixPE": 122,
  "AcquisitionNumber": 1,
  "AcquisitionTime": "10:44:58.195000",
  "BandwidthPerPixelPhaseEncode": 28.76,
  "BaseResolution": 122,
  "BodyPartExamined": "BRAIN",
  "CoilCombinationMethod": "Adaptive Combine",
  "ConsistencyInfo": "N4_VE11C_LATEST_20160120",
  "ConversionSoftware": "dcm2niix",
  "ConversionSoftwareVersion": "v1.0.20220720",
  "DerivedVendorReportedEchoSpacing": 0.000570008,
  "DeviceSerialNumber": "66112",
  "DiffusionScheme": "Monopolar",
  "DwellTime": 2e-06,
  "EchoTime": 0.075,
  "EchoTrainLength": 61,
  "EffectiveEchoSpacing": 0.000285004,
  "FlipAngle": 90,
  "HeudiconvVersion": "0.13.1",
  "ImageOrientationPatientDICOM": [0.987628, -0.156809, 0.00120389, 0.149365, 0.943025, 0.297311],
  "ImageOrientationText": "Tra>Cor(17.1)>Sag(2.7)",
  "ImageType": [
    "ORIGINAL",
    "PRIMARY",
    "DIFFUSION",
    "NONE",
    "ND",
    "NORM"
],
  "ImagingFrequency": 123.252,
  "InPlanePhaseEncodingDirectionDICOM": "COL",
  "InstitutionAddress": "Maynard 3,Hanover,NH,US,03755",
  "InstitutionName": "Dartmouth College - PBS",
  "InstitutionalDepartmentName": "Department",
  "MRAcquisitionType": "2D",
  "MagneticFieldStrength": 3,
  "Manufacturer": "Siemens",
  "ManufacturersModelName": "Prisma",
  "MatrixCoilMode": "GRAPPA",
  "Modality": "MR",
  "NonlinearGradientCorrection": false,
  "ParallelReductionFactorInPlane": 2,
  "PartialFourier": 1,
  "PatientPosition": "HFS",
  "PercentPhaseFOV": 100,
  "PercentSampling": 100,
  "PhaseEncodingDirection": "j-",
  "PhaseEncodingSteps": 122,
  "PhaseResolution": 1,
  "PixelBandwidth": 2050,
  "ProcedureStepDescription": "dbic^QA",
  "ProtocolName": "dwi_acq-DTI-30-p2",
  "PulseSequenceDetails": "%SiemensSeq%\\ep2d_diff",
  "ReceiveCoilActiveElements": "HEA;HEP",
  "ReceiveCoilName": "Head_32",
  "ReconMatrixPE": 122,
  "RefLinesPE": 38,
  "RepetitionTime": 7.7,
  "SAR": 0.10208,
  "ScanOptions": "FS",
  "ScanningSequence": "EP",
  "SequenceName": "*ep_b0",
  "SequenceVariant": "SK\\SP",
  "SeriesDescription": "dwi_acq-DTI-30-p2",
  "SeriesNumber": 12,
  "ShimSetting": [4143, -7706, -7512, 280, -100, -103, -17, 85],
  "SliceThickness": 2,
  "SliceTiming": [3.84375, 0, 3.95312, 0.11719, 4.0625, 0.22656, 4.17188, 0.33594, 4.28125, 0.44531, 4.39062, 0.55469, 4.5, 0.66406, 4.60938, 0.77344, 4.71875, 0.88281, 4.82812, 0.99219, 4.9375, 1.10156, 5.05469, 1.21094, 5.16406, 1.32031, 5.26562, 1.42969, 5.375, 1.53906, 5.49219, 1.64844, 5.60156, 1.75781, 5.71094, 1.86719, 5.82031, 1.97656, 5.92969, 2.08594, 6.03906, 2.19531, 6.14844, 2.30469, 6.25781, 2.42188, 6.36719, 2.52344, 6.47656, 2.63281, 6.58594, 2.74219, 6.69531, 2.85938, 6.80469, 2.96875, 6.91406, 3.07812, 7.02344, 3.1875, 7.13281, 3.29688, 7.24219, 3.40625, 7.35156, 3.51562, 7.46094, 3.625, 7.57031, 3.73438],
  "SoftwareVersions": "syngo MR E11",
  "SpacingBetweenSlices": 2,
  "SpoilingState": true,
  "StationName": "AWP66112",
  "TotalReadoutTime": 0.0344855,
  "TxRefAmp": 231.848,
  "dcmmeta_affine": [
    [-1.9428752660751343, 0.2938322424888611, 0.09551268815994263, 94.61951446533203],
    [0.30847659707069397, 1.8551312685012817, 0.5869064331054688, -147.330810546875],
    [0.0023683039471507072, -0.5848746299743652, 1.9095611572265625, -22.226734161376953],
    [0.0, 0.0, 0.0, 1.0]
],
  "dcmmeta_reorient_transform": [
    [0.0, -1.0, 0.0, 121.0],
    [1.0, 0.0, 0.0, 0.0],
    [0.0, 0.0, -1.0, 69.0],
    [0.0, 0.0, 0.0, 1.0]
],
  "dcmmeta_shape": [122, 122, 70, 31],
  "dcmmeta_slice_dim": 2,
  "dcmmeta_version": 0.6,
  "global": {
    "const": {
      "AccessionNumber": "qa",
      "AcquisitionMatrix": [122, 0, 0, 122],
      "AngioFlag": "N",
      "BitsAllocated": 16,
      "BitsStored": 12,
      "BodyPartExamined": "BRAIN",
      "Columns": 122,
      "EchoNumbers": 1,
      "EchoTime": 75.0,
      "EchoTrainLength": 61,
      "FlipAngle": 90.0,
      "HighBit": 11,
      "ImageOrientationPatient": [0.98762822513797, -0.1568089269302, 0.00120388779433, 0.1493647197616, 0.94302502642925, 0.29731125107984],
      "ImageType": [
        "ORIGINAL",
        "PRIMARY",
        "DIFFUSION",
        "NONE",
        "ND",
        "NORM"
],
      "ImagedNucleus": "1H",
      "ImagingFrequency": 123.252335,
      "InPlanePhaseEncodingDirection": "COL",
      "MRAcquisitionType": "2D",
      "MagneticFieldStrength": 3.0,
      "Manufacturer": "SIEMENS",
      "ManufacturerModelName": "Prisma",
      "Modality": "MR",
      "NumberOfAverages": 1.0,
      "NumberOfPhaseEncodingSteps": 122,
      "PercentPhaseFieldOfView": 100.0,
      "PercentSampling": 100.0,
      "PerformedProcedureStepStartTime": "101448.821000",
      "PhotometricInterpretation": "MONOCHROME2",
      "PixelBandwidth": 2050.0,
      "PixelRepresentation": 0,
      "PixelSpacing": [1.9672131538391, 1.9672131538391],
      "ProtocolName": "dwi_acq-DTI-30-p2",
      "RepetitionTime": 7700.0,
      "Rows": 122,
      "SAR": 0.10207961907734,
      "SamplesPerPixel": 1,
      "ScanOptions": "FS",
      "ScanningSequence": "EP",
      "SequenceVariant": [
        "SK",
        "SP"
],
      "SeriesDescription": "dwi_acq-DTI-30-p2",
      "SeriesNumber": 12,
      "SeriesTime": "104503.491000",
      "SliceThickness": 2.0,
      "SmallestImagePixelValue": 0,
      "SoftwareVersions": "syngo MR E11",
      "SpacingBetweenSlices": 2.0,
      "SpecificCharacterSet": "ISO_IR 100",
      "StudyID": "11",
      "StudyTime": "101448.772000",
      "TransmitCoilName": "Body",
      "VariableFlipAngleFlag": "N",
      "WindowCenterWidthExplanation": "Algo1",
      "dBdt": 0.0},
    "slices": {
      "AcquisitionTime": ["104458.195000", "104454.355000", "104458.305000", "104454.465000", "104458.415000", "104454.575000", "104458.525000", "104454.685000", "104458.635000", "104454.795000", "104458.742500", "104454.902500", "104458.852500", "104455.012500", "104458.962500", "104455.122500", "104459.072500", "104455.232500", "104459.182500", "104455.342500", "104459.292500", "104455.452500", "104459.402500", "104455.562500", "104459.512500", "104455.672500", "104459.620000", "104455.782500", "104459.730000", "104455.890000", "104459.840000", "104456.000000", "104459.950000", "104456.110000", "104500.060000", "104456.220000", "104500.170000", "104456.330000", "104500.280000", "104456.440000", "104500.390000", "104456.550000", "104500.500000", "104456.660000", "104500.607500", "104456.770000", "104500.717500", "104456.877500", "104500.827500", "104456.987500", "104500.937500", "104457.097500", "104501.047500", "104457.207500", "104501.157500", "104457.317500", "104501.267500", "104457.427500", "104501.377500", "104457.537500", "104501.487500", "104457.647500", "104501.595000", "104457.755000", "104501.705000", "104457.865000", "104501.815000", "104457.975000", "104501.925000", "104458.085000", "104505.895000", "104502.055000", "104506.005000", "104502.165000", "104506.115000", "104502.275000", "104506.225000", "104502.385000", "104506.335000", "104502.495000", "104506.442500", "104502.602500", "104506.552500", "104502.712500", "104506.662500", "104502.822500", "104506.772500", "104502.932500", "104506.882500", "104503.042500", "104506.992500", "104503.152500", "104507.102500", "104503.262500", "104507.212500", "104503.372500", "104507.320000", "104503.482500", "104507.430000", "104503.590000", "104507.540000", "104503.700000", "104507.650000", "104503.810000", "104507.760000", "104503.920000", "104507.870000", "104504.030000", "104507.980000", "104504.140000", "104508.090000", "104504.250000", "104508.200000", "104504.360000", "104508.307500", "104504.470000", "104508.417500", "104504.577500", "104508.527500", "104504.687500", "104508.637500", "104504.797500", "104508.747500", "104504.907500", "104508.857500", "104505.017500", "104508.967500", "104505.127500", "104509.077500", "104505.237500", "104509.187500", "104505.347500", "104509.295000", "104505.455000", "104509.405000", "104505.565000", "104509.515000", "104505.675000", "104509.625000", "104505.785000", "104513.595000", "104509.755000", "104513.705000", "104509.865000", "104513.815000", "104509.975000", "104513.925000", "104510.085000", "104514.035000", "104510.195000", "104514.142500", "104510.302500", "104514.252500", "104510.412500", "104514.362500", "104510.522500", "104514.472500", "104510.632500", "104514.582500", "104510.742500", "104514.692500", "104510.852500", "104514.802500", "104510.962500", "104514.912500", "104511.072500", "104515.020000", "104511.182500", "104515.130000", "104511.290000", "104515.240000", "104511.400000", "104515.350000", "104511.510000", "104515.460000", "104511.620000", "104515.570000", "104511.730000", "104515.680000", "104511.840000", "104515.790000", "104511.950000", "104515.900000", "104512.060000", "104516.007500", "104512.170000", "104516.117500", "104512.277500", "104516.227500", "104512.387500", "104516.337500", "104512.497500", "104516.447500", "104512.607500", "104516.557500", "104512.717500", "104516.667500", "104512.827500", "104516.777500", "104512.937500", "104516.887500", "104513.047500", "104516.995000", "104513.155000", "104517.105000", "104513.265000", "104517.215000", "104513.375000", "104517.325000", "104513.485000", "104521.295000", "104517.455000", "104521.405000", "104517.565000", "104521.515000", "104517.675000", "104521.625000", "104517.785000", "104521.735000", "104517.895000", "104521.842500", "104518.002500", "104521.952500", "104518.112500", "104522.062500", "104518.222500", "104522.172500", "104518.332500", "104522.282500", "104518.442500", "104522.392500", "104518.552500", "104522.502500", "104518.662500", "104522.612500", "104518.772500", "104522.720000", "104518.882500", "104522.830000", "104518.990000", "104522.940000", "104519.100000", "104523.050000", "104519.210000", "104523.160000", "104519.320000", "104523.270000", "104519.430000", "104523.380000", "104519.540000", "104523.490000", "104519.650000", "104523.600000", "104519.760000", "104523.707500", "104519.870000", "104523.817500", "104519.977500", "104523.927500", "104520.087500", "104524.037500", "104520.197500", "104524.147500", "104520.307500", "104524.257500", "104520.417500", "104524.367500", "104520.527500", "104524.477500", "104520.637500", "104524.587500", "104520.747500", "104524.695000", "104520.855000", "104524.805000", "104520.965000", "104524.915000", "104521.075000", "104525.025000", "104521.185000", "104528.995000", "104525.155000", "104529.105000", "104525.265000", "104529.215000", "104525.375000", "104529.325000", "104525.485000", "104529.435000", "104525.595000", "104529.542500", "104525.702500", "104529.652500", "104525.812500", "104529.762500", "104525.922500", "104529.872500", "104526.032500", "104529.982500", "104526.142500", "104530.092500", "104526.252500", "104530.202500", "104526.362500", "104530.312500", "104526.472500", "104530.420000", "104526.582500", "104530.530000", "104526.690000", "104530.640000", "104526.800000", "104530.750000", "104526.910000", "104530.860000", "104527.020000", "104530.970000", "104527.130000", "104531.080000", "104527.240000", "104531.190000", "104527.350000", "104531.300000", "104527.460000", "104531.407500", "104527.570000", "104531.517500", "104527.677500", "104531.627500", "104527.787500", "104531.737500", "104527.897500", "104531.847500", "104528.007500", "104531.957500", "104528.117500", "104532.067500", "104528.227500", "104532.177500", "104528.337500", "104532.287500", "104528.447500", "104532.395000", "104528.555000", "104532.505000", "104528.665000", "104532.615000", "104528.775000", "104532.725000", "104528.885000", "104536.695000", "104532.855000", "104536.805000", "104532.965000", "104536.915000", "104533.075000", "104537.025000", "104533.185000", "104537.135000", "104533.295000", "104537.242500", "104533.402500", "104537.352500", "104533.512500", "104537.462500", "104533.622500", "104537.572500", "104533.732500", "104537.682500", "104533.842500", "104537.792500", "104533.952500", "104537.902500", "104534.062500", "104538.012500", "104534.172500", "104538.120000", "104534.282500", "104538.230000", "104534.390000", "104538.340000", "104534.500000", "104538.450000", "104534.610000", "104538.560000", "104534.720000", "104538.670000", "104534.830000", "104538.780000", "104534.940000", "104538.890000", "104535.050000", "104539.000000", "104535.160000", "104539.107500", "104535.270000", "104539.217500", "104535.377500", "104539.327500", "104535.487500", "104539.437500", "104535.597500", "104539.547500", "104535.707500", "104539.657500", "104535.817500", "104539.767500", "104535.927500", "104539.877500", "104536.037500", "104539.987500", "104536.147500", "104540.095000", "104536.255000", "104540.205000", "104536.365000", "104540.315000", "104536.475000", "104540.425000", "104536.585000", "104544.395000", "104540.555000", "104544.505000", "104540.665000", "104544.615000", "104540.775000", "104544.725000", "104540.885000", "104544.835000", "104540.995000", "104544.942500", "104541.102500", "104545.052500", "104541.212500", "104545.162500", "104541.322500", "104545.272500", "104541.432500", "104545.382500", "104541.542500", "104545.492500", "104541.652500", "104545.602500", "104541.762500", "104545.712500", "104541.872500", "104545.820000", "104541.982500", "104545.930000", "104542.090000", "104546.040000", "104542.200000", "104546.150000", "104542.310000", "104546.260000", "104542.420000", "104546.370000", "104542.530000", "104546.480000", "104542.640000", "104546.590000", "104542.750000", "104546.700000", "104542.860000", "104546.807500", "104542.970000", "104546.917500", "104543.077500", "104547.027500", "104543.187500", "104547.137500", "104543.297500", "104547.247500", "104543.407500", "104547.357500", "104543.517500", "104547.467500", "104543.627500", "104547.577500", "104543.737500", "104547.687500", "104543.847500", "104547.795000", "104543.955000", "104547.905000", "104544.065000", "104548.015000", "104544.175000", "104548.125000", "104544.285000", "104552.095000", "104548.255000", "104552.205000", "104548.365000", "104552.315000", "104548.475000", "104552.425000", "104548.585000", "104552.535000", "104548.695000", "104552.642500", "104548.802500", "104552.752500", "104548.912500", "104552.862500", "104549.022500", "104552.972500", "104549.132500", "104553.082500", "104549.242500", "104553.192500", "104549.352500", "104553.302500", "104549.462500", "104553.412500", "104549.572500", "104553.520000", "104549.682500", "104553.630000", "104549.790000", "104553.740000", "104549.900000", "104553.850000", "104550.010000", "104553.960000", "104550.120000", "104554.070000", "104550.230000", "104554.180000", "104550.340000", "104554.290000", "104550.450000", "104554.400000", "104550.560000", "104554.507500", "104550.670000", "104554.617500", "104550.777500", "104554.727500", "104550.887500", "104554.837500", "104550.997500", "104554.947500", "104551.107500", "104555.057500", "104551.217500", "104555.167500", "104551.327500", "104555.277500", "104551.437500", "104555.387500", "104551.547500", "104555.495000", "104551.655000", "104555.605000", "104551.765000", "104555.715000", "104551.875000", "104555.825000", "104551.985000", "104559.795000", "104555.955000", "104559.905000", "104556.065000", "104600.015000", "104556.175000", "104600.125000", "104556.285000", "104600.235000", "104556.395000", "104600.342500", "104556.502500", "104600.452500", "104556.612500", "104600.562500", "104556.722500", "104600.672500", "104556.832500", "104600.782500", "104556.942500", "104600.892500", "104557.052500", "104601.002500", "104557.162500", "104601.112500", "104557.272500", "104601.220000", "104557.382500", "104601.330000", "104557.490000", "104601.440000", "104557.600000", "104601.550000", "104557.710000", "104601.660000", "104557.820000", "104601.770000", "104557.930000", "104601.880000", "104558.040000", "104601.990000", "104558.150000", "104602.100000", "104558.260000", "104602.207500", "104558.370000", "104602.317500", "104558.477500", "104602.427500", "104558.587500", "104602.537500", "104558.697500", "104602.647500", "104558.807500", "104602.757500", "104558.917500", "104602.867500", "104559.027500", "104602.977500", "104559.137500", "104603.087500", "104559.247500", "104603.195000", "104559.355000", "104603.305000", "104559.465000", "104603.415000", "104559.575000", "104603.525000", "104559.685000", "104607.495000", "104603.655000", "104607.605000", "104603.765000", "104607.715000", "104603.875000", "104607.825000", "104603.985000", "104607.935000", "104604.095000", "104608.042500", "104604.202500", "104608.152500", "104604.312500", "104608.262500", "104604.422500", "104608.372500", "104604.532500", "104608.482500", "104604.642500", "104608.592500", "104604.752500", "104608.702500", "104604.862500", "104608.812500", "104604.972500", "104608.920000", "104605.082500", "104609.030000", "104605.190000", "104609.140000", "104605.300000", "104609.250000", "104605.410000", "104609.360000", "104605.520000", "104609.470000", "104605.630000", "104609.580000", "104605.740000", "104609.690000", "104605.850000", "104609.800000", "104605.960000", "104609.907500", "104606.070000", "104610.017500", "104606.177500", "104610.127500", "104606.287500", "104610.237500", "104606.397500", "104610.347500", "104606.507500", "104610.457500", "104606.617500", "104610.567500", "104606.727500", "104610.677500", "104606.837500", "104610.787500", "104606.947500", "104610.895000", "104607.055000", "104611.005000", "104607.165000", "104611.115000", "104607.275000", "104611.225000", "104607.385000", "104615.195000", "104611.355000", "104615.305000", "104611.465000", "104615.415000", "104611.575000", "104615.525000", "104611.685000", "104615.635000", "104611.795000", "104615.742500", "104611.902500", "104615.852500", "104612.012500", "104615.962500", "104612.122500", "104616.072500", "104612.232500", "104616.182500", "104612.342500", "104616.292500", "104612.452500", "104616.402500", "104612.562500", "104616.512500", "104612.672500", "104616.620000", "104612.782500", "104616.730000", "104612.890000", "104616.840000", "104613.000000", "104616.950000", "104613.110000", "104617.060000", "104613.220000", "104617.170000", "104613.330000", "104617.280000", "104613.440000", "104617.390000", "104613.550000", "104617.500000", "104613.660000", "104617.607500", "104613.770000", "104617.717500", "104613.877500", "104617.827500", "104613.987500", "104617.937500", "104614.097500", "104618.047500", "104614.207500", "104618.157500", "104614.317500", "104618.267500", "104614.427500", "104618.377500", "104614.537500", "104618.487500", "104614.647500", "104618.595000", "104614.755000", "104618.705000", "104614.865000", "104618.815000", "104614.975000", "104618.925000", "104615.085000", "104622.895000", "104619.055000", "104623.005000", "104619.165000", "104623.115000", "104619.275000", "104623.225000", "104619.385000", "104623.335000", "104619.495000", "104623.442500", "104619.602500", "104623.552500", "104619.712500", "104623.662500", "104619.822500", "104623.772500", "104619.932500", "104623.882500", "104620.042500", "104623.992500", "104620.152500", "104624.102500", "104620.262500", "104624.212500", "104620.372500", "104624.320000", "104620.482500", "104624.430000", "104620.590000", "104624.540000", "104620.700000", "104624.650000", "104620.810000", "104624.760000", "104620.920000", "104624.870000", "104621.030000", "104624.980000", "104621.140000", "104625.090000", "104621.250000", "104625.200000", "104621.360000", "104625.307500", "104621.470000", "104625.417500", "104621.577500", "104625.527500", "104621.687500", "104625.637500", "104621.797500", "104625.747500", "104621.907500", "104625.857500", "104622.017500", "104625.967500", "104622.127500", "104626.077500", "104622.237500", "104626.187500", "104622.347500", "104626.295000", "104622.455000", "104626.405000", "104622.565000", "104626.515000", "104622.675000", "104626.625000", "104622.785000", "104630.595000", "104626.755000", "104630.705000", "104626.865000", "104630.815000", "104626.975000", "104630.925000", "104627.085000", "104631.035000", "104627.195000", "104631.142500", "104627.302500", "104631.252500", "104627.412500", "104631.362500", "104627.522500", "104631.472500", "104627.632500", "104631.582500", "104627.742500", "104631.692500", "104627.852500", "104631.802500", "104627.962500", "104631.912500", "104628.072500", "104632.020000", "104628.182500", "104632.130000", "104628.290000", "104632.240000", "104628.400000", "104632.350000", "104628.510000", "104632.460000", "104628.620000", "104632.570000", "104628.730000", "104632.680000", "104628.840000", "104632.790000", "104628.950000", "104632.900000", "104629.060000", "104633.007500", "104629.170000", "104633.117500", "104629.277500", "104633.227500", "104629.387500", "104633.337500", "104629.497500", "104633.447500", "104629.607500", "104633.557500", "104629.717500", "104633.667500", "104629.827500", "104633.777500", "104629.937500", "104633.887500", "104630.047500", "104633.995000", "104630.155000", "104634.105000", "104630.265000", "104634.215000", "104630.375000", "104634.325000", "104630.485000", "104638.295000", "104634.455000", "104638.405000", "104634.565000", "104638.515000", "104634.675000", "104638.625000", "104634.785000", "104638.735000", "104634.895000", "104638.842500", "104635.002500", "104638.952500", "104635.112500", "104639.062500", "104635.222500", "104639.172500", "104635.332500", "104639.282500", "104635.442500", "104639.392500", "104635.552500", "104639.502500", "104635.662500", "104639.612500", "104635.772500", "104639.720000", "104635.882500", "104639.830000", "104635.990000", "104639.940000", "104636.100000", "104640.050000", "104636.210000", "104640.160000", "104636.320000", "104640.270000", "104636.430000", "104640.380000", "104636.540000", "104640.490000", "104636.650000", "104640.600000", "104636.760000", "104640.707500", "104636.870000", "104640.817500", "104636.977500", "104640.927500", "104637.087500", "104641.037500", "104637.197500", "104641.147500", "104637.307500", "104641.257500", "104637.417500", "104641.367500", "104637.527500", "104641.477500", "104637.637500", "104641.587500", "104637.747500", "104641.695000", "104637.855000", "104641.805000", "104637.965000", "104641.915000", "104638.075000", "104642.025000", "104638.185000", "104645.995000", "104642.155000", "104646.105000", "104642.265000", "104646.215000", "104642.375000", "104646.325000", "104642.485000", "104646.435000", "104642.595000", "104646.542500", "104642.702500", "104646.652500", "104642.812500", "104646.762500", "104642.922500", "104646.872500", "104643.032500", "104646.982500", "104643.142500", "104647.092500", "104643.252500", "104647.202500", "104643.362500", "104647.312500", "104643.472500", "104647.420000", "104643.582500", "104647.530000", "104643.690000", "104647.640000", "104643.800000", "104647.750000", "104643.910000", "104647.860000", "104644.020000", "104647.970000", "104644.130000", "104648.080000", "104644.240000", "104648.190000", "104644.350000", "104648.300000", "104644.460000", "104648.407500", "104644.570000", "104648.517500", "104644.677500", "104648.627500", "104644.787500", "104648.737500", "104644.897500", "104648.847500", "104645.007500", "104648.957500", "104645.117500", "104649.067500", "104645.227500", "104649.177500", "104645.337500", "104649.287500", "104645.447500", "104649.395000", "104645.555000", "104649.505000", "104645.665000", "104649.615000", "104645.775000", "104649.725000", "104645.885000", "104653.695000", "104649.855000", "104653.805000", "104649.965000", "104653.915000", "104650.075000", "104654.025000", "104650.185000", "104654.135000", "104650.295000", "104654.242500", "104650.402500", "104654.352500", "104650.512500", "104654.462500", "104650.622500", "104654.572500", "104650.732500", "104654.682500", "104650.842500", "104654.792500", "104650.952500", "104654.902500", "104651.062500", "104655.012500", "104651.172500", "104655.120000", "104651.282500", "104655.230000", "104651.390000", "104655.340000", "104651.500000", "104655.450000", "104651.610000", "104655.560000", "104651.720000", "104655.670000", "104651.830000", "104655.780000", "104651.940000", "104655.890000", "104652.050000", "104656.000000", "104652.160000", "104656.107500", "104652.270000", "104656.217500", "104652.377500", "104656.327500", "104652.487500", "104656.437500", "104652.597500", "104656.547500", "104652.707500", "104656.657500", "104652.817500", "104656.767500", "104652.927500", "104656.877500", "104653.037500", "104656.987500", "104653.147500", "104657.095000", "104653.255000", "104657.205000", "104653.365000", "104657.315000", "104653.475000", "104657.425000", "104653.585000", "104701.395000", "104657.555000", "104701.505000", "104657.665000", "104701.615000", "104657.775000", "104701.725000", "104657.885000", "104701.835000", "104657.995000", "104701.942500", "104658.102500", "104702.052500", "104658.212500", "104702.162500", "104658.322500", "104702.272500", "104658.432500", "104702.382500", "104658.542500", "104702.492500", "104658.652500", "104702.602500", "104658.762500", "104702.712500", "104658.872500", "104702.820000", "104658.982500", "104702.930000", "104659.090000", "104703.040000", "104659.200000", "104703.150000", "104659.310000", "104703.260000", "104659.420000", "104703.370000", "104659.530000", "104703.480000", "104659.640000", "104703.590000", "104659.750000", "104703.700000", "104659.860000", "104703.807500", "104659.970000", "104703.917500", "104700.077500", "104704.027500", "104700.187500", "104704.137500", "104700.297500", "104704.247500", "104700.407500", "104704.357500", "104700.517500", "104704.467500", "104700.627500", "104704.577500", "104700.737500", "104704.687500", "104700.847500", "104704.795000", "104700.955000", "104704.905000", "104701.065000", "104705.015000", "104701.175000", "104705.125000", "104701.285000", "104709.095000", "104705.255000", "104709.205000", "104705.365000", "104709.315000", "104705.475000", "104709.425000", "104705.585000", "104709.535000", "104705.695000", "104709.642500", "104705.802500", "104709.752500", "104705.912500", "104709.862500", "104706.022500", "104709.972500", "104706.132500", "104710.082500", "104706.242500", "104710.192500", "104706.352500", "104710.302500", "104706.462500", "104710.412500", "104706.572500", "104710.520000", "104706.682500", "104710.630000", "104706.790000", "104710.740000", "104706.900000", "104710.850000", "104707.010000", "104710.960000", "104707.120000", "104711.070000", "104707.230000", "104711.180000", "104707.340000", "104711.290000", "104707.450000", "104711.400000", "104707.560000", "104711.507500", "104707.670000", "104711.617500", "104707.777500", "104711.727500", "104707.887500", "104711.837500", "104707.997500", "104711.947500", "104708.107500", "104712.057500", "104708.217500", "104712.167500", "104708.327500", "104712.277500", "104708.437500", "104712.387500", "104708.547500", "104712.495000", "104708.655000", "104712.605000", "104708.765000", "104712.715000", "104708.875000", "104712.825000", "104708.985000", "104716.795000", "104712.955000", "104716.905000", "104713.065000", "104717.015000", "104713.175000", "104717.125000", "104713.285000", "104717.235000", "104713.395000", "104717.342500", "104713.502500", "104717.452500", "104713.612500", "104717.562500", "104713.722500", "104717.672500", "104713.832500", "104717.782500", "104713.942500", "104717.892500", "104714.052500", "104718.002500", "104714.162500", "104718.112500", "104714.272500", "104718.220000", "104714.382500", "104718.330000", "104714.490000", "104718.440000", "104714.600000", "104718.550000", "104714.710000", "104718.660000", "104714.820000", "104718.770000", "104714.930000", "104718.880000", "104715.040000", "104718.990000", "104715.150000", "104719.100000", "104715.260000", "104719.207500", "104715.370000", "104719.317500", "104715.477500", "104719.427500", "104715.587500", "104719.537500", "104715.697500", "104719.647500", "104715.807500", "104719.757500", "104715.917500", "104719.867500", "104716.027500", "104719.977500", "104716.137500", "104720.087500", "104716.247500", "104720.195000", "104716.355000", "104720.305000", "104716.465000", "104720.415000", "104716.575000", "104720.525000", "104716.685000", "104724.495000", "104720.655000", "104724.605000", "104720.765000", "104724.715000", "104720.875000", "104724.825000", "104720.985000", "104724.935000", "104721.095000", "104725.042500", "104721.202500", "104725.152500", "104721.312500", "104725.262500", "104721.422500", "104725.372500", "104721.532500", "104725.482500", "104721.642500", "104725.592500", "104721.752500", "104725.702500", "104721.862500", "104725.812500", "104721.972500", "104725.920000", "104722.082500", "104726.030000", "104722.190000", "104726.140000", "104722.300000", "104726.250000", "104722.410000", "104726.360000", "104722.520000", "104726.470000", "104722.630000", "104726.580000", "104722.740000", "104726.690000", "104722.850000", "104726.800000", "104722.960000", "104726.907500", "104723.070000", "104727.017500", "104723.177500", "104727.127500", "104723.287500", "104727.237500", "104723.397500", "104727.347500", "104723.507500", "104727.457500", "104723.617500", "104727.567500", "104723.727500", "104727.677500", "104723.837500", "104727.787500", "104723.947500", "104727.895000", "104724.055000", "104728.005000", "104724.165000", "104728.115000", "104724.275000", "104728.225000", "104724.385000", "104732.195000", "104728.355000", "104732.305000", "104728.465000", "104732.415000", "104728.575000", "104732.525000", "104728.685000", "104732.635000", "104728.795000", "104732.742500", "104728.902500", "104732.852500", "104729.012500", "104732.962500", "104729.122500", "104733.072500", "104729.232500", "104733.182500", "104729.342500", "104733.292500", "104729.452500", "104733.402500", "104729.562500", "104733.512500", "104729.672500", "104733.620000", "104729.782500", "104733.730000", "104729.890000", "104733.840000", "104730.000000", "104733.950000", "104730.110000", "104734.0600