{
  "AcquisitionMatrixPE": 80,
  "AcquisitionNumber": 1,
  "AcquisitionTime": "09:06:16.497500",
  "BandwidthPerPixelPhaseEncode": 25,
  "BaseResolution": 80,
  "BodyPartExamined": "BRAIN",
  "CoilCombinationMethod": "Sum of Squares",
  "ConsistencyInfo": "N4_VE11E_LATEST_20181129",
  "ConversionSoftware": "dcm2niix",
  "ConversionSoftwareVersion": "v1.0.20220720",
  "DerivedVendorReportedEchoSpacing": 0.0005,
  "DeviceSerialNumber": "66112",
  "DwellTime": 2.7e-06,
  "EchoTime": 0.03,
  "EchoTrainLength": 80,
  "EffectiveEchoSpacing": 0.0005,
  "FlipAngle": 10,
  "HeudiconvVersion": "0.13.1",
  "ImageOrientationPatientDICOM": [0.994728, -0.102503, 0.00311212, 0.0966576, 0.947278, 0.305486],
  "ImageOrientationText": "Tra>Cor(17.7)>Sag(2.0)",
  "ImageType": [
    "ORIGINAL",
    "PRIMARY",
    "M",
    "ND",
    "NORM",
    "MOSAIC"
],
  "ImagingFrequency": 123.261,
  "InPlanePhaseEncodingDirectionDICOM": "COL",
  "InstitutionAddress": "Maynard 3,Hanover,NH,US,03755",
  "InstitutionName": "Dartmouth College - PBS",
  "InstitutionalDepartmentName": "Department",
  "MRAcquisitionType": "2D",
  "MagneticFieldStrength": 3,
  "Manufacturer": "Siemens",
  "ManufacturersModelName": "Prisma",
  "MatrixCoilMode": "SENSE",
  "Modality": "MR",
  "NonlinearGradientCorrection": false,
  "PartialFourier": 1,
  "PatientPosition": "HFS",
  "PercentPhaseFOV": 100,
  "PercentSampling": 100,
  "PhaseEncodingDirection": "j-",
  "PhaseEncodingSteps": 80,
  "PhaseResolution": 1,
  "PixelBandwidth": 2315,
  "ProcedureStepDescription": "dbic^QA",
  "ProtocolName": "func-bold_fa-10",
  "PulseSequenceDetails": "%SiemensSeq%\\ep2d_bold",
  "ReceiveCoilActiveElements": "HC1-7;NC1,2",
  "ReceiveCoilName": "HeadNeck_64",
  "ReconMatrixPE": 80,
  "RepetitionTime": 2,
  "SAR": 0.00753492,
  "ScanOptions": "FS",
  "ScanningSequence": "EP",
  "SequenceName": "*epfid2d1_80",
  "SequenceVariant": "SK",
  "SeriesDescription": "func-bold_fa-10",
  "SeriesNumber": 7,
  "ShimSetting": [4241, -7702, -7487, -146, -174, -336, -99, 116],
  "SliceThickness": 3.5,
  "SliceTiming": [0.99, 0, 1.055, 0.065, 1.1225, 0.1325, 1.1875, 0.1975, 1.2525, 0.2625, 1.32, 0.33, 1.385, 0.395, 1.4525, 0.4625, 1.5175, 0.5275, 1.5825, 0.5925, 1.65, 0.66, 1.715, 0.725, 1.7825, 0.7925, 1.8475, 0.8575, 1.9125, 0.9225],
  "SoftwareVersions": "syngo MR E11",
  "SpacingBetweenSlices": 3.99,
  "StationName": "AWP66112",
  "TotalReadoutTime": 0.0395,
  "TxRefAmp": 211.057,
  "dcmmeta_affine": [
    [-2.9841835498809814, 0.289972722530365, 0.13670244812965393, 106.49405670166016],
    [0.30750858783721924, 2.8418338298797607, 1.2112640142440796, -135.5006103515625],
    [0.009336365386843681, -0.9164589047431946, 3.799243688583374, -40.406734466552734],
    [0.0, 0.0, 0.0, 1.0]
],
  "dcmmeta_reorient_transform": [
    [0.0, -1.0, 0.0, 79.0],
    [1.0, 0.0, 0.0, 0.0],
    [0.0, 0.0, 1.0, 0.0],
    [0.0, 0.0, 0.0, 1.0]
],
  "dcmmeta_shape": [80, 80, 30, 200],
  "dcmmeta_slice_dim": 2,
  "dcmmeta_version": 0.6,
  "global": {
    "const": {
      "AccessionNumber": "qa64",
      "AcquisitionMatrix": [80, 0, 0, 80],
      "AngioFlag": "N",
      "BitsAllocated": 16,
      "BitsStored": 12,
      "BodyPartExamined": "BRAIN",
      "Columns": 480,
      "EchoNumbers": 1,
      "EchoTime": 30.0,
      "EchoTrainLength": 80,
      "FlipAngle": 10.0,
      "HighBit": 11,
      "ImageOrientationPatient": [0.99472784159226, -0.1025028578064, 0.00311212190077, 0.09665757575127, 0.94727790435436, 0.30548630897621],
      "ImagePositionPatient": [-784.23315608121, -595.8692772203, -297.96604723338],
      "ImageType": [
        "ORIGINAL",
        "PRIMARY",
        "M",
        "ND",
        "NORM",
        "MOSAIC"
],
      "ImagedNucleus": "1H",
      "ImagingFrequency": 123.261232,
      "InPlanePhaseEncodingDirection": "COL",
      "MRAcquisitionType": "2D",
      "MagneticFieldStrength": 3.0,
      "Manufacturer": "SIEMENS",
      "ManufacturerModelName": "Prisma",
      "Modality": "MR",
      "NumberOfAverages": 1.0,
      "NumberOfPhaseEncodingSteps": 80,
      "PercentPhaseFieldOfView": 100.0,
      "PercentSampling": 100.0,
      "PerformedProcedureStepStartTime": "085000.365000",
      "PhotometricInterpretation": "MONOCHROME2",
      "PixelBandwidth": 2315.0,
      "PixelRepresentation": 0,
      "PixelSpacing": [3.0, 3.0],
      "ProtocolName": "func-bold_fa-10",
      "RepetitionTime": 2000.0,
      "Rows": 480,
      "SAR": 0.00753492364147,
      "SamplesPerPixel": 1,
      "ScanOptions": "FS",
      "ScanningSequence": "EP",
      "SequenceName": "*epfid2d1_80",
      "SequenceVariant": "SK",
      "SeriesDescription": "func-bold_fa-10",
      "SeriesNumber": 7,
      "SeriesTime": "090710.550000",
      "SliceLocation": -75.960911282143,
      "SliceThickness": 3.5,
      "SmallestImagePixelValue": 0,
      "SoftwareVersions": "syngo MR E11",
      "SpacingBetweenSlices": 3.9900001672587,
      "SpecificCharacterSet": "ISO_IR 100",
      "StudyID": "28",
      "StudyTime": "085000.289000",
      "TransmitCoilName": "Body",
      "VariableFlipAngleFlag": "N",
      "WindowCenterWidthExplanation": "Algo1"
    },
    "slices": {}
  },
  "time": {
    "samples": {
      "AcquisitionNumber": [1, 2, 3, 4, 5, 6, 7, 8, 9, 10, 11, 12, 13, 14, 15, 16, 17, 18, 19, 20, 21, 22, 23, 24, 25, 26, 27, 28, 29, 30, 31, 32, 33, 34, 35, 36, 37, 38, 39, 40, 41, 42, 43, 44, 45, 46, 47, 48, 49, 50, 51, 52, 53, 54, 55, 56, 57, 58, 59, 60, 61, 62, 63, 64, 65, 66, 67, 68, 69, 70, 71, 72, 73, 74, 75, 76, 77, 78, 79, 80, 81, 82, 83, 84, 85, 86, 87, 88, 89, 90, 91, 92, 93, 94, 95, 96, 97, 98, 99, 100, 101, 102, 103, 104, 105, 106, 107, 108, 109, 110, 111, 112, 113, 114, 115, 116, 117, 118, 119, 120, 121, 122, 123, 124, 125, 126, 127, 128, 129, 130, 131, 132, 133, 134, 135, 136, 137, 138, 139, 140, 141, 142, 143, 144, 145, 146, 147, 148, 149, 150, 151, 152, 153, 154, 155, 156, 157, 158, 159, 160, 161, 162, 163, 164, 165, 166, 167, 168, 169, 170, 171, 172, 173, 174, 175, 176, 177, 178, 179, 180, 181, 182, 183, 184, 185, 186, 187, 188, 189, 190, 191, 192, 193, 194, 195, 196, 197, 198, 199, 200],
      "AcquisitionTime": ["090616.497500", "090618.497500", "090620.497500", "090622.497500", "090624.497500", "090626.497500", "090628.497500", "090630.497500", "090632.497500", "090634.497500", "090636.497500", "090638.497500", "090640.497500", "090642.497500", "090644.497500", "090646.497500", "090648.497500", "090650.497500", "090652.497500", "090654.497500", "090656.497500", "090658.497500", "090700.497500", "090702.497500", "090704.497500", "090706.497500", "090708.497500", "090710.497500", "090712.497500", "090714.497500", "090716.497500", "090718.497500", "090720.497500", "090722.497500", "090724.497500", "090726.497500", "090728.497500", "090730.497500", "090732.497500", "090734.497500", "090736.497500", "090738.497500", "090740.497500", "090742.497500", "090744.497500", "090746.497500", "090748.497500", "090750.497500", "090752.497500", "090754.497500", "090756.497500", "090758.497500", "090800.497500", "090802.497500", "090804.497500", "090806.497500", "090808.497500", "090810.497500", "090812.497500", "090814.497500", "090816.497500", "090818.497500", "090820.497500", "090822.497500", "090824.497500", "090826.497500", "090828.497500", "090830.497500", "090832.497500", "090834.497500", "090836.497500", "090838.497500", "090840.497500", "090842.497500", "090844.497500", "090846.497500", "090848.497500", "090850.497500", "090852.497500", "090854.497500", "090856.497500", "090858.497500", "090900.497500", "090902.497500", "090904.497500", "090906.497500", "090908.497500", "090910.497500", "090912.497500", "090914.497500", "090916.497500", "090918.497500", "090920.497500", "090922.497500", "090924.497500", "090926.497500", "090928.497500", "090930.497500", "090932.497500", "090934.497500", "090936.497500", "090938.497500", "090940.497500", "090942.497500", "090944.497500", "090946.497500", "090948.497500", "090950.497500", "090952.497500", "090954.497500", "090956.497500", "090958.497500", "091000.497500", "091002.497500", "091004.497500", "091006.497500", "091008.497500", "091010.497500", "091012.497500", "091014.497500", "091016.497500", "091018.497500", "091020.497500", "091022.497500", "091024.497500", "091026.497500", "091028.497500", "091030.497500", "091032.497500", "091034.497500", "091036.497500", "091038.497500", "091040.497500", "091042.497500", "091044.497500", "091046.497500", "091048.497500", "091050.497500", "091052.497500", "091054.497500", "091056.497500", "091058.497500", "091100.497500", "091102.497500", "091104.497500", "091106.497500", "091108.497500", "091110.497500", "091112.497500", "091114.497500", "091116.497500", "091118.497500", "091120.497500", "091122.497500", "091124.497500", "091126.497500", "091128.497500", "091130.497500", "091132.497500", "091134.497500", "091136.497500", "091138.497500", "091140.497500", "091142.497500", "091144.497500", "091146.497500", "091148.497500", "091150.497500", "091152.497500", "091154.497500", "091156.497500", "091158.497500", "091200.497500", "091202.497500", "091204.497500", "091206.497500", "091208.497500", "091210.497500", "091212.497500", "091214.497500", "091216.497500", "091218.497500", "091220.497500", "091222.497500", "091224.497500", "091226.497500", "091228.497500", "091230.497500", "091232.497500", "091234.497500", "091236.497500", "091238.497500", "091240.497500", "091242.497500", "091244.497500", "091246.497500", "091248.497500", "091250.497500", "091252.497500", "091254.497500"],
      "ContentTime": ["090710.553000", "090710.556000", "090710.559000", "090710.561000", "090710.563000", "090710.566000", "090710.568000", "090710.578000", "090710.580000", "090710.582000", "090710.585000", "090710.587000", "090710.589000", "090710.596000", "090710.598000", "090710.600000", "090710.603000", "090710.605000", "090710.615000", "090710.618000", "090710.620000", "090710.622000", "090710.625000", "090710.627000", "090710.629000", "090710.632000", "090710.634000", "090750.549000", "090750.552000", "090750.554000", "090750.556000", "090750.559000", "090750.561000", "090750.563000", "090750.566000", "090750.568000", "090750.570000", "090750.573000", "090750.575000", "090750.577000", "090750.580000", "090750.582000", "090750.584000", "090750.587000", "090750.589000", "090750.592000", "090750.594000", "090830.549000", "090830.552000", "090830.555000", "090830.557000", "090830.566000", "090830.568000", "090830.570000", "090830.573000", "090830.575000", "090830.585000", "090830.587000", "090830.590000", "090830.592000", "090830.595000", "090830.597000", "090830.600000", "090830.602000", "090830.604000", "090830.606000", "090830.609000", "090910.548000", "090910.551000", "090910.554000", "090910.556000", "090910.558000", "090910.561000", "090910.563000", "090910.565000", "090910.568000", "090910.570000", "090910.572000", "090910.575000", "090910.577000", "090910.579000", "090910.582000", "090910.584000", "090910.586000", "090910.595000", "090910.597000", "090910.600000", "090950.549000", "090950.552000", "090950.554000", "090950.557000", "090950.565000", "090950.567000", "090950.570000", "090950.572000", "090950.574000", "090950.577000", "090950.579000", "090950.581000", "090950.584000", "090950.586000", "090950.588000", "090950.591000", "090950.593000", "090950.595000", "090950.598000", "090950.600000", "091030.549000", "091030.552000", "091030.554000", "091030.557000", "091030.559000", "091030.561000", "091030.563000", "091030.566000", "091030.568000", "091030.570000", "091030.573000", "091030.575000", "091030.577000", "091030.579000", "091030.582000", "091030.584000", "091030.586000", "091030.589000", "091030.591000", "091030.604000", "091110.548000", "091110.551000", "091110.553000", "091110.555000", "091110.558000", "091110.560000", "091110.562000", "091110.565000", "091110.567000", "091110.570000", "091110.572000", "091110.574000", "091110.577000", "091110.579000", "091110.581000", "091110.584000", "091110.586000", "091110.588000", "091110.591000", "091110.593000", "091150.548000", "091150.551000", "091150.553000", "091150.556000", "091150.558000", "091150.560000", "091150.563000", "091150.565000", "091150.567000", "091150.570000", "091150.572000", "091150.574000", "091150.577000", "091150.579000", "091150.582000", "091150.584000", "091150.586000", "091150.588000", "091150.591000", "091150.593000", "091230.549000", "091230.552000", "091230.554000", "091230.557000", "091230.566000", "091230.569000", "091230.571000", "091230.574000", "091230.576000", "091230.578000", "091230.581000", "091230.583000", "091230.585000", "091230.588000", "091230.590000", "091230.592000", "091230.595000", "091230.597000", "091230.600000", "091230.602000", "091256.026000", "091256.028000", "091256.031000", "091256.033000", "091256.035000", "091256.038000", "091256.040000", "091256.042000", "091256.045000", "091256.047000", "091256.049000", "091256.052000", "091256.054000"],
      "InstanceCreationTime": ["090710.553000", "090710.556000", "090710.559000", "090710.561000", "090710.563000", "090710.566000", "090710.568000", "090710.578000", "090710.580000", "090710.582000", "090710.585000", "090710.587000", "090710.589000", "090710.596000", "090710.598000", "090710.600000", "090710.603000", "090710.605000", "090710.615000", "090710.618000", "090710.620000", "090710.622000", "090710.625000", "090710.627000", "090710.629000", "090710.632000", "090710.634000", "090750.549000", "090750.552000", "090750.554000", "090750.556000", "090750.559000", "090750.561000", "090750.563000", "090750.566000", "090750.568000", "090750.570000", "090750.573000", "090750.575000", "090750.577000", "090750.580000", "090750.582000", "090750.584000", "090750.587000", "090750.589000", "090750.592000", "090750.594000", "090830.549000", "090830.552000", "090830.555000", "090830.557000", "090830.566000", "090830.568000", "090830.570000", "090830.573000", "090830.575000", "090830.585000", "090830.587000", "090830.590000", "090830.592000", "090830.595000", "090830.597000", "090830.600000", "090830.602000", "090830.604000", "090830.606000", "090830.609000", "090910.548000", "090910.551000", "090910.554000", "090910.556000", "090910.558000", "090910.561000", "090910.563000", "090910.565000", "090910.568000", "090910.570000", "090910.572000", "090910.575000", "090910.577000", "090910.579000", "090910.582000", "090910.584000", "090910.586000", "090910.595000", "090910.597000", "090910.600000", "090950.549000", "090950.552000", "090950.554000", "090950.557000", "090950.565000", "090950.567000", "090950.570000", "090950.572000", "090950.574000", "090950.577000", "090950.579000", "090950.581000", "090950.584000", "090950.586000", "090950.588000", "090950.591000", "090950.593000", "090950.595000", "090950.598000", "090950.600000", "091030.549000", "091030.552000", "091030.554000", "091030.557000", "091030.559000", "091030.561000", "091030.563000", "091030.566000", "091030.568000", "091030.570000", "091030.573000", "091030.575000", "091030.577000", "091030.579000", "091030.582000", "091030.584000", "091030.586000", "091030.589000", "091030.591000", "091030.604000", "091110.548000", "091110.551000", "091110.553000", "091110.555000", "091110.558000", "091110.560000", "091110.562000", "091110.565000", "091110.567000", "091110.570000", "091110.572000", "091110.574000", "091110.577000", "091110.579000", "091110.581000", "091110.584000", "091110.586000", "091110.588000", "091110.591000", "091110.593000", "091150.548000", "091150.551000", "091150.553000", "091150.556000", "091150.558000", "091150.560000", "091150.563000", "091150.565000", "091150.567000", "091150.570000", "091150.572000", "091150.574000", "091150.577000", "091150.579000", "091150.582000", "091150.584000", "091150.586000", "091150.588000", "091150.591000", "091150.593000", "091230.549000", "091230.552000", "091230.554000", "091230.557000", "091230.566000", "091230.569000", "091230.571000", "091230.574000", "091230.576000", "091230.578000", "091230.581000", "091230.583000", "091230.585000", "091230.588000", "091230.590000", "091230.592000", "091230.595000", "091230.597000", "091230.600000", "091230.602000", "091256.026000", "091256.028000", "091256.031000", "091256.033000", "091256.035000", "091256.038000", "091256.040000", "091256.042000", "091256.045000", "091256.047000", "091256.049000", "091256.052000", "091256.054000"],
      "InstanceNumber": [1, 2, 3, 4, 5, 6, 7, 8, 9, 10, 11, 12, 13, 14, 15, 16, 17, 18, 19, 20, 21, 22, 23, 24, 25, 26, 27, 28, 29, 30, 31, 32, 33, 34, 35, 36, 37, 38, 39, 40, 41, 42, 43, 44, 45, 46, 47, 48, 49, 50, 51, 52, 53, 54, 55, 56, 57, 58, 59, 60, 61, 62, 63, 64, 65, 66, 67, 68, 69, 70, 71, 72, 73, 74, 75, 76, 77, 78, 79, 80, 81, 82, 83, 84, 85, 86, 87, 88, 89, 90, 91, 92, 93, 94, 95, 96, 97, 98, 99, 100, 101, 102, 103, 104, 105, 106, 107, 108, 109, 110, 111, 112, 113, 114, 115, 116, 117, 118, 119, 120, 121, 122, 123, 124, 125, 126, 127, 128, 129, 130, 131, 132, 133, 134, 135, 136, 137, 138, 139, 140, 141, 142, 143, 144, 145, 146, 147, 148, 149, 150, 151, 152, 153, 154, 155, 156, 157, 158, 159, 160, 161, 162, 163, 164, 165, 166, 167, 168, 169, 170, 171, 172, 173, 174, 175, 176, 177, 178, 179, 180, 181, 182, 183, 184, 185, 186, 187, 188, 189, 190, 191, 192, 193, 194, 195, 196, 197, 198, 199, 200],
      "LargestImagePixelValue": [650, 646, 649, 646, 648, 645, 650, 650, 649, 650, 652, 644, 645, 647, 643, 647, 649, 649, 648, 645, 646, 648, 646, 648, 647, 648, 648, 648, 649, 649, 646, 652, 649, 656, 644, 647, 647, 644, 645, 646, 644, 643, 647, 648, 649, 648, 645, 647, 646, 646, 645, 650, 646, 645, 647, 645, 646, 644, 645, 648, 646, 645, 648, 649, 644, 642, 643, 648, 650, 645, 645, 646, 650, 648, 648, 643, 648, 647, 643, 645, 650, 645, 647, 645, 643, 650, 646, 646, 646, 648, 646, 643, 646, 646, 646, 644, 647, 647, 647, 643, 652, 643, 645, 643, 650, 647, 652, 645, 644, 645, 644, 649, 656, 645, 646, 646, 646, 646, 647, 646, 645, 643, 645, 645, 648, 645, 646, 647, 642, 641, 646, 645, 646, 650, 643, 644, 643, 642, 643, 648, 648, 650, 644, 647, 648, 642, 647, 643, 645, 646, 645, 645, 645, 646, 643, 645, 645, 648, 646, 648, 645, 647, 645, 642, 643, 646, 645, 645, 649, 644, 649, 641, 642, 643, 643, 650, 647, 646, 645, 643, 642, 646, 644, 642, 642, 647, 646, 643, 648, 645, 642, 640, 641, 643, 648, 646, 649, 641, 644, 641],
      "WindowCenter": [465.0, 463.0, 464.0, 463.0, 464.0, 463.0, 465.0, 465.0, 464.0, 464.0, 465.0, 463.0, 463.0, 463.0, 463.0, 463.0, 464.0, 464.0, 463.0, 463.0, 463.0, 463.0, 463.0, 463.0, 463.0, 463.0, 463.0, 463.0, 463.0, 464.0, 463.0, 465.0, 463.0, 464.0, 463.0, 463.0, 463.0, 463.0, 463.0, 463.0, 463.0, 463.0, 463.0, 464.0, 463.0, 463.0, 463.0, 463.0, 463.0, 463.0, 463.0, 464.0, 463.0, 463.0, 463.0, 463.0, 463.0, 463.0, 463.0, 463.0, 463.0, 463.0, 463.0, 463.0, 463.0, 463.0, 463.0, 463.0, 464.0, 463.0, 463.0, 463.0, 464.0, 463.0, 463.0, 463.0, 463.0, 463.0, 463.0, 463.0, 464.0, 463.0, 463.0, 463.0, 463.0, 464.0, 463.0, 463.0, 463.0, 463.0, 463.0, 463.0, 463.0, 463.0, 463.0, 463.0, 463.0, 463.0, 463.0, 462.0, 464.0, 463.0, 462.0, 463.0, 464.0, 462.0, 464.0, 463.0, 463.0, 463.0, 463.0, 463.0, 464.0, 463.0, 463.0, 463.0, 463.0, 463.0, 463.0, 463.0, 462.0, 463.0, 463.0, 463.0, 463.0, 462.0, 463.0, 463.0, 463.0, 463.0, 463.0, 463.0, 463.0, 464.0, 463.0, 463.0, 462.0, 462.0, 463.0, 463.0, 463.0, 463.0, 462.0, 462.0, 462.0, 462.0, 462.0, 462.0, 462.0, 462.0, 462.0, 462.0, 463.0, 462.0, 462.0, 462.0, 462.0, 463.0, 463.0, 463.0, 462.0, 462.0, 462.0, 462.0, 462.0, 462.0, 462.0, 462.0, 463.0, 462.0, 462.0, 462.0, 462.0, 462.0, 462.0, 463.0, 462.0, 462.0, 462.0, 462.0, 462.0, 462.0, 462.0, 462.0, 462.0, 462.0, 462.0, 462.0, 462.0, 462.0, 462.0, 462.0, 462.0, 462.0, 462.0, 462.0, 462.0, 462.0, 462.0, 462.0],
      "WindowWidth": [966.0, 963.0, 964.0, 963.0, 964.0, 963.0, 965.0, 966.0, 964.0, 965.0, 966.0, 963.0, 963.0, 963.0, 963.0, 963.0, 964.0, 964.0, 964.0, 963.0, 963.0, 963.0, 963.0, 963.0, 963.0, 963.0, 963.0, 963.0, 963.0, 964.0, 963.0, 965.0, 963.0, 965.0, 963.0, 963.0, 963.0, 963.0, 963.0, 963.0, 963.0, 963.0, 963.0, 964.0, 963.0, 963.0, 963.0, 963.0, 963.0, 963.0, 963.0, 964.0, 963.0, 963.0, 963.0, 963.0, 963.0, 963.0, 963.0, 963.0, 963.0, 963.0, 963.0, 963.0, 963.0, 963.0, 963.0, 963.0, 964.0, 963.0, 963.0, 963.0, 964.0, 963.0, 963.0, 963.0, 963.0, 963.0, 963.0, 963.0, 964.0, 963.0, 963.0, 963.0, 963.0, 964.0, 963.0, 963.0, 963.0, 963.0, 963.0, 963.0, 963.0, 963.0, 963.0, 963.0, 963.0, 963.0, 963.0, 962.0, 964.0, 963.0, 962.0, 963.0, 964.0, 962.0, 964.0, 963.0, 963.0, 963.0, 963.0, 963.0, 964.0, 963.0, 963.0, 963.0, 963.0, 963.0, 963.0, 963.0, 962.0, 963.0, 963.0, 963.0, 963.0, 962.0, 963.0, 963.0, 963.0, 963.0, 963.0, 963.0, 963.0, 964.0, 963.0, 963.0, 962.0, 962.0, 962.0, 963.0, 963.0, 963.0, 962.0, 962.0, 962.0, 962.0, 962.0, 962.0, 962.0, 962.0, 962.0, 962.0, 963.0, 962.0, 962.0, 962.0, 962.0, 962.0, 962.0, 963.0, 962.0, 962.0, 962.0, 962.0, 962.0, 962.0, 962.0, 962.0, 962.0, 962.0, 962.0, 962.0, 962.0, 962.0, 962.0, 963.0, 962.0, 962.0, 962.0, 962.0, 962.0, 962.0, 961.0, 961.0, 962.0, 962.0, 962.0, 962.0, 962.0, 962.0, 961.0, 961.0, 961.0, 961.0, 962.0, 962.0, 962.0, 962.0, 961.0, 961.0]
    },
    "slices": {}
  }
}