{
  "AcquisitionMatrixPE": 80,
  "AcquisitionNumber": 1,
  "AcquisitionTime": "08:52:38.765000",
  "BandwidthPerPixelPhaseEncode": 48.077,
  "BaseResolution": 80,
  "BodyPartExamined": "BRAIN",
  "CoilCombinationMethod": "Sum of Squares",
  "ConsistencyInfo": "N4_VE11E_LATEST_20181129",
  "ConversionSoftware": "dcm2niix",
  "ConversionSoftwareVersion": "v1.0.20220720",
  "DerivedVendorReportedEchoSpacing": 0.000519999,
  "DeviceSerialNumber": "66112",
  "DwellTime": 2.7e-06,
  "EchoTime": 0.035,
  "EchoTrainLength": 39,
  "EffectiveEchoSpacing": 0.00026,
  "FlipAngle": 90,
  "HeudiconvVersion": "0.13.1",
  "ImageOrientationPatientDICOM": [0.994728, -0.102503, 0.00311212, 0.0966576, 0.947278, 0.305486],
  "ImageOrientationText": "Tra>Cor(17.7)>Sag(2.0)",
  "ImageType": [
    "ORIGINAL",
    "PRIMARY",
    "M",
    "ND",
    "NORM",
    "MOSAIC"
],
  "ImagingFrequency": 123.261,
  "InPlanePhaseEncodingDirectionDICOM": "COL",
  "InstitutionAddress": "Maynard 3,Hanover,NH,US,03755",
  "InstitutionName": "Dartmouth College - PBS",
  "InstitutionalDepartmentName": "Department",
  "MRAcquisitionType": "2D",
  "MagneticFieldStrength": 3,
  "Manufacturer": "Siemens",
  "ManufacturersModelName": "Prisma",
  "MatrixCoilMode": "GRAPPA",
  "Modality": "MR",
  "NonlinearGradientCorrection": false,
  "ParallelReductionFactorInPlane": 2,
  "PartialFourier": 1,
  "PatientPosition": "HFS",
  "PercentPhaseFOV": 100,
  "PercentSampling": 100,
  "PhaseEncodingDirection": "j-",
  "PhaseEncodingSteps": 79,
  "PhaseResolution": 1,
  "PixelBandwidth": 2315,
  "ProcedureStepDescription": "dbic^QA",
  "ProtocolName": "func-bold_task-rest_acq-p2",
  "PulseSequenceDetails": "%SiemensSeq%\\ep2d_bold",
  "ReceiveCoilActiveElements": "HC1-7;NC1,2",
  "ReceiveCoilName": "HeadNeck_64",
  "ReconMatrixPE": 80,
  "RefLinesPE": 24,
  "RepetitionTime": 2,
  "SAR": 0.0357438,
  "ScanOptions": "FS",
  "ScanningSequence": "EP",
  "SequenceName": "*epfid2d1_80",
  "SequenceVariant": "SK",
  "SeriesDescription": "func-bold_task-rest_acq-p2",
  "SeriesNumber": 5,
  "ShimSetting": [4241, -7702, -7487, -150, -174, -336, -100, 116],
  "SliceThickness": 3.5,
  "SliceTiming": [0.99, 0, 1.0575, 0.0675, 1.1225, 0.1325, 1.19, 0.2, 1.255, 0.265, 1.32, 0.33, 1.3875, 0.3975, 1.4525, 0.4625, 1.52, 0.53, 1.585, 0.595, 1.65, 0.66, 1.7175, 0.7275, 1.7825, 0.7925, 1.85, 0.86, 1.915, 0.925],
  "SoftwareVersions": "syngo MR E11",
  "SpacingBetweenSlices": 3.99,
  "StationName": "AWP66112",
  "TaskName": "rest",
  "TotalReadoutTime": 0.02054,
  "TxRefAmp": 211.057,
  "dcmmeta_affine": [
    [-2.9841835498809814, 0.289972722530365, 0.13670244812965393, 108.17451477050781],
    [0.30750858783721924, 2.8418338298797607, 1.2112640142440796, -137.90521240234375],
    [0.009336365386843681, -0.9164589047431946, 3.799243688583374, -41.0431022644043],
    [0.0, 0.0, 0.0, 1.0]
],
  "dcmmeta_reorient_transform": [
    [0.0, -1.0, 0.0, 79.0],
    [1.0, 0.0, 0.0, 0.0],
    [0.0, 0.0, 1.0, 0.0],
    [0.0, 0.0, 0.0, 1.0]
],
  "dcmmeta_shape": [80, 80, 30, 200],
  "dcmmeta_slice_dim": 2,
  "dcmmeta_version": 0.6,
  "global": {
    "const": {
      "AccessionNumber": "qa64",
      "AcquisitionMatrix": [80, 0, 0, 80],
      "AngioFlag": "N",
      "BitsAllocated": 16,
      "BitsStored": 12,
      "BodyPartExamined": "BRAIN",
      "Columns": 480,
      "EchoNumbers": 1,
      "EchoTime": 35.0,
      "EchoTrainLength": 39,
      "FlipAngle": 90.0,
      "HighBit": 11,
      "ImageOrientationPatient": [0.99472784159226, -0.1025028578064, 0.00311212190077, 0.09665757575127, 0.94727790435436, 0.30548630897621],
      "ImagePositionPatient": [-785.91361046202, -593.4646723085, -298.60241503123],
      "ImageType": [
        "ORIGINAL",
        "PRIMARY",
        "M",
        "ND",
        "NORM",
        "MOSAIC"
],
      "ImagedNucleus": "1H",
      "ImagingFrequency": 123.261234,
      "InPlanePhaseEncodingDirection": "COL",
      "MRAcquisitionType": "2D",
      "MagneticFieldStrength": 3.0,
      "Manufacturer": "SIEMENS",
      "ManufacturerModelName": "Prisma",
      "Modality": "MR",
      "NumberOfAverages": 1.0,
      "NumberOfPhaseEncodingSteps": 79,
      "PercentPhaseFieldOfView": 100.0,
      "PercentSampling": 100.0,
      "PerformedProcedureStepStartTime": "085000.365000",
      "PhotometricInterpretation": "MONOCHROME2",
      "PixelBandwidth": 2315.0,
      "PixelRepresentation": 0,
      "PixelSpacing": [3.0, 3.0],
      "ProtocolName": "func-bold_task-rest_acq-p2",
      "RepetitionTime": 2000.0,
      "Rows": 480,
      "SAR": 0.03574382211215,
      "SamplesPerPixel": 1,
      "ScanOptions": "FS",
      "ScanningSequence": "EP",
      "SequenceName": "*epfid2d1_80",
      "SequenceVariant": "SK",
      "SeriesDescription": "func-bold_task-rest_acq-p2",
      "SeriesNumber": 5,
      "SeriesTime": "085330.652000",
      "SliceLocation": -77.239258484061,
      "SliceThickness": 3.5,
      "SmallestImagePixelValue": 0,
      "SoftwareVersions": "syngo MR E11",
      "SpacingBetweenSlices": 3.9900000321551,
      "SpecificCharacterSet": "ISO_IR 100",
      "StudyID": "28",
      "StudyTime": "085000.289000",
      "TransmitCoilName": "Body",
      "VariableFlipAngleFlag": "N",
      "WindowCenterWidthExplanation": "Algo1"
    },
    "slices": {}
  },
  "time": {
    "samples": {
      "AcquisitionNumber": [1, 2, 3, 4, 5, 6, 7, 8, 9, 10, 11, 12, 13, 14, 15, 16, 17, 18, 19, 20, 21, 22, 23, 24, 25, 26, 27, 28, 29, 30, 31, 32, 33, 34, 35, 36, 37, 38, 39, 40, 41, 42, 43, 44, 45, 46, 47, 48, 49, 50, 51, 52, 53, 54, 55, 56, 57, 58, 59, 60, 61, 62, 63, 64, 65, 66, 67, 68, 69, 70, 71, 72, 73, 74, 75, 76, 77, 78, 79, 80, 81, 82, 83, 84, 85, 86, 87, 88, 89, 90, 91, 92, 93, 94, 95, 96, 97, 98, 99, 100, 101, 102, 103, 104, 105, 106, 107, 108, 109, 110, 111, 112, 113, 114, 115, 116, 117, 118, 119, 120, 121, 122, 123, 124, 125, 126, 127, 128, 129, 130, 131, 132, 133, 134, 135, 136, 137, 138, 139, 140, 141, 142, 143, 144, 145, 146, 147, 148, 149, 150, 151, 152, 153, 154, 155, 156, 157, 158, 159, 160, 161, 162, 163, 164, 165, 166, 167, 168, 169, 170, 171, 172, 173, 174, 175, 176, 177, 178, 179, 180, 181, 182, 183, 184, 185, 186, 187, 188, 189, 190, 191, 192, 193, 194, 195, 196, 197, 198, 199, 200],
      "AcquisitionTime": ["085238.765000", "085240.765000", "085242.765000", "085244.765000", "085246.765000", "085248.765000", "085250.765000", "085252.765000", "085254.765000", "085256.765000", "085258.765000", "085300.765000", "085302.765000", "085304.765000", "085306.765000", "085308.765000", "085310.765000", "085312.765000", "085314.765000", "085316.765000", "085318.765000", "085320.765000", "085322.765000", "085324.765000", "085326.765000", "085328.765000", "085330.765000", "085332.765000", "085334.765000", "085336.765000", "085338.765000", "085340.765000", "085342.765000", "085344.765000", "085346.765000", "085348.765000", "085350.765000", "085352.765000", "085354.765000", "085356.765000", "085358.765000", "085400.765000", "085402.765000", "085404.765000", "085406.765000", "085408.765000", "085410.765000", "085412.765000", "085414.765000", "085416.765000", "085418.765000", "085420.765000", "085422.765000", "085424.765000", "085426.765000", "085428.765000", "085430.765000", "085432.765000", "085434.765000", "085436.765000", "085438.765000", "085440.765000", "085442.765000", "085444.765000", "085446.765000", "085448.765000", "085450.765000", "085452.765000", "085454.765000", "085456.765000", "085458.765000", "085500.765000", "085502.765000", "085504.765000", "085506.765000", "085508.765000", "085510.765000", "085512.765000", "085514.765000", "085516.765000", "085518.765000", "085520.765000", "085522.765000", "085524.765000", "085526.765000", "085528.765000", "085530.765000", "085532.765000", "085534.765000", "085536.765000", "085538.765000", "085540.765000", "085542.765000", "085544.765000", "085546.765000", "085548.765000", "085550.765000", "085552.765000", "085554.765000", "085556.765000", "085558.765000", "085600.765000", "085602.765000", "085604.765000", "085606.765000", "085608.765000", "085610.765000", "085612.765000", "085614.765000", "085616.765000", "085618.765000", "085620.765000", "085622.765000", "085624.765000", "085626.765000", "085628.765000", "085630.765000", "085632.765000", "085634.765000", "085636.765000", "085638.765000", "085640.765000", "085642.765000", "085644.765000", "085646.765000", "085648.765000", "085650.765000", "085652.765000", "085654.765000", "085656.765000", "085658.765000", "085700.765000", "085702.765000", "085704.765000", "085706.765000", "085708.765000", "085710.765000", "085712.765000", "085714.765000", "085716.765000", "085718.765000", "085720.765000", "085722.765000", "085724.765000", "085726.765000", "085728.765000", "085730.765000", "085732.765000", "085734.765000", "085736.765000", "085738.765000", "085740.765000", "085742.765000", "085744.765000", "085746.765000", "085748.765000", "085750.765000", "085752.765000", "085754.765000", "085756.765000", "085758.765000", "085800.765000", "085802.765000", "085804.765000", "085806.765000", "085808.765000", "085810.765000", "085812.765000", "085814.765000", "085816.765000", "085818.765000", "085820.765000", "085822.765000", "085824.765000", "085826.765000", "085828.765000", "085830.765000", "085832.765000", "085834.765000", "085836.765000", "085838.765000", "085840.765000", "085842.765000", "085844.765000", "085846.765000", "085848.765000", "085850.765000", "085852.765000", "085854.765000", "085856.765000", "085858.765000", "085900.765000", "085902.765000", "085904.765000", "085906.765000", "085908.765000", "085910.765000", "085912.765000", "085914.765000", "085916.765000"],
      "ContentTime": ["085330.659000", "085330.663000", "085330.666000", "085330.669000", "085330.671000", "085330.674000", "085330.683000", "085330.686000", "085330.688000", "085330.691000", "085330.694000", "085330.703000", "085330.712000", "085330.714000", "085330.716000", "085330.721000", "085330.727000", "085330.742000", "085330.744000", "085330.750000", "085330.763000", "085330.766000", "085330.776000", "085330.790000", "085330.793000", "085330.795000", "085410.648000", "085410.651000", "085410.653000", "085410.656000", "085410.658000", "085410.661000", "085410.663000", "085410.665000", "085410.668000", "085410.670000", "085410.672000", "085410.684000", "085410.687000", "085410.689000", "085410.691000", "085410.694000", "085410.696000", "085410.699000", "085410.701000", "085410.703000", "085450.647000", "085450.650000", "085450.652000", "085450.660000", "085450.662000", "085450.664000", "085450.667000", "085450.669000", "085450.672000", "085450.674000", "085450.682000", "085450.684000", "085450.687000", "085450.689000", "085450.691000", "085450.694000", "085450.696000", "085450.699000", "085450.701000", "085450.703000", "085530.647000", "085530.650000", "085530.652000", "085530.655000", "085530.657000", "085530.659000", "085530.662000", "085530.664000", "085530.667000", "085530.669000", "085530.672000", "085530.674000", "085530.676000", "085530.679000", "085530.681000", "085530.683000", "085530.686000", "085530.688000", "085530.700000", "085530.702000", "085610.648000", "085610.651000", "085610.653000", "085610.655000", "085610.658000", "085610.660000", "085610.663000", "085610.665000", "085610.667000", "085610.670000", "085610.672000", "085610.674000", "085610.677000", "085610.679000", "085610.681000", "085610.683000", "085610.686000", "085610.688000", "085610.690000", "085610.693000", "085650.648000", "085650.651000", "085650.653000", "085650.655000", "085650.658000", "085650.660000", "085650.662000", "085650.665000", "085650.667000", "085650.670000", "085650.672000", "085650.674000", "085650.677000", "085650.679000", "085650.681000", "085650.683000", "085650.686000", "085650.688000", "085650.690000", "085650.693000", "085730.647000", "085730.650000", "085730.652000", "085730.654000", "085730.657000", "085730.659000", "085730.662000", "085730.664000", "085730.666000", "085730.669000", "085730.671000", "085730.673000", "085730.676000", "085730.678000", "085730.680000", "085730.683000", "085730.685000", "085730.687000", "085730.690000", "085730.692000", "085810.649000", "085810.651000", "085810.654000", "085810.656000", "085810.658000", "085810.661000", "085810.663000", "085810.665000", "085810.668000", "085810.670000", "085810.672000", "085810.675000", "085810.677000", "085810.680000", "085810.682000", "085810.684000", "085810.687000", "085810.689000", "085810.691000", "085810.694000", "085850.648000", "085850.651000", "085850.653000", "085850.655000", "085850.658000", "085850.660000", "085850.663000", "085850.665000", "085850.667000", "085850.670000", "085850.672000", "085850.674000", "085850.677000", "085850.679000", "085850.681000", "085850.684000", "085850.686000", "085850.688000", "085850.691000", "085850.693000", "085918.336000", "085918.338000", "085918.341000", "085918.343000", "085918.346000", "085918.358000", "085918.361000", "085918.363000", "085918.366000", "085918.369000", "085918.373000", "085918.377000", "085918.384000", "085918.387000"],
      "InstanceCreationTime": ["085330.659000", "085330.663000", "085330.666000", "085330.669000", "085330.671000", "085330.674000", "085330.683000", "085330.686000", "085330.688000", "085330.691000", "085330.694000", "085330.703000", "085330.712000", "085330.714000", "085330.716000", "085330.721000", "085330.727000", "085330.742000", "085330.744000", "085330.750000", "085330.763000", "085330.766000", "085330.776000", "085330.790000", "085330.793000", "085330.795000", "085410.648000", "085410.651000", "085410.653000", "085410.656000", "085410.658000", "085410.661000", "085410.663000", "085410.665000", "085410.668000", "085410.670000", "085410.672000", "085410.684000", "085410.687000", "085410.689000", "085410.691000", "085410.694000", "085410.696000", "085410.699000", "085410.701000", "085410.703000", "085450.647000", "085450.650000", "085450.652000", "085450.660000", "085450.662000", "085450.664000", "085450.667000", "085450.669000", "085450.672000", "085450.674000", "085450.682000", "085450.684000", "085450.687000", "085450.689000", "085450.691000", "085450.694000", "085450.696000", "085450.699000", "085450.701000", "085450.703000", "085530.647000", "085530.650000", "085530.652000", "085530.655000", "085530.657000", "085530.659000", "085530.662000", "085530.664000", "085530.667000", "085530.669000", "085530.672000", "085530.674000", "085530.676000", "085530.679000", "085530.681000", "085530.683000", "085530.686000", "085530.688000", "085530.700000", "085530.702000", "085610.648000", "085610.651000", "085610.653000", "085610.655000", "085610.658000", "085610.660000", "085610.663000", "085610.665000", "085610.667000", "085610.670000", "085610.672000", "085610.674000", "085610.677000", "085610.679000", "085610.681000", "085610.683000", "085610.686000", "085610.688000", "085610.690000", "085610.693000", "085650.648000", "085650.651000", "085650.653000", "085650.655000", "085650.658000", "085650.660000", "085650.662000", "085650.665000", "085650.667000", "085650.670000", "085650.672000", "085650.674000", "085650.677000", "085650.679000", "085650.681000", "085650.683000", "085650.686000", "085650.688000", "085650.690000", "085650.693000", "085730.647000", "085730.650000", "085730.652000", "085730.654000", "085730.657000", "085730.659000", "085730.662000", "085730.664000", "085730.666000", "085730.669000", "085730.671000", "085730.673000", "085730.676000", "085730.678000", "085730.680000", "085730.683000", "085730.685000", "085730.687000", "085730.690000", "085730.692000", "085810.649000", "085810.651000", "085810.654000", "085810.656000", "085810.658000", "085810.661000", "085810.663000", "085810.665000", "085810.668000", "085810.670000", "085810.672000", "085810.675000", "085810.677000", "085810.680000", "085810.682000", "085810.684000", "085810.687000", "085810.689000", "085810.691000", "085810.694000", "085850.648000", "085850.651000", "085850.653000", "085850.655000", "085850.658000", "085850.660000", "085850.663000", "085850.665000", "085850.667000", "085850.670000", "085850.672000", "085850.674000", "085850.677000", "085850.679000", "085850.681000", "085850.684000", "085850.686000", "085850.688000", "085850.691000", "085850.693000", "085918.336000", "085918.338000", "085918.341000", "085918.343000", "085918.346000", "085918.358000", "085918.361000", "085918.363000", "085918.366000", "085918.369000", "085918.373000", "085918.377000", "085918.384000", "085918.387000"],
      "InstanceNumber": [1, 2, 3, 4, 5, 6, 7, 8, 9, 10, 11, 12, 13, 14, 15, 16, 17, 18, 19, 20, 21, 22, 23, 24, 25, 26, 27, 28, 29, 30, 31, 32, 33, 34, 35, 36, 37, 38, 39, 40, 41, 42, 43, 44, 45, 46, 47, 48, 49, 50, 51, 52, 53, 54, 55, 56, 57, 58, 59, 60, 61, 62, 63, 64, 65, 66, 67, 68, 69, 70, 71, 72, 73, 74, 75, 76, 77, 78, 79, 80, 81, 82, 83, 84, 85, 86, 87, 88, 89, 90, 91, 92, 93, 94, 95, 96, 97, 98, 99, 100, 101, 102, 103, 104, 105, 106, 107, 108, 109, 110, 111, 112, 113, 114, 115, 116, 117, 118, 119, 120, 121, 122, 123, 124, 125, 126, 127, 128, 129, 130, 131, 132, 133, 134, 135, 136, 137, 138, 139, 140, 141, 142, 143, 144, 145, 146, 147, 148, 149, 150, 151, 152, 153, 154, 155, 156, 157, 158, 159, 160, 161, 162, 163, 164, 165, 166, 167, 168, 169, 170, 171, 172, 173, 174, 175, 176, 177, 178, 179, 180, 181, 182, 183, 184, 185, 186, 187, 188, 189, 190, 191, 192, 193, 194, 195, 196, 197, 198, 199, 200],
      "LargestImagePixelValue": [3866, 3877, 3874, 3872, 3874, 3867, 3875, 3869, 3878, 3874, 3868, 3873, 3867, 3889, 3862, 3870, 3868, 3875, 3875, 3878, 3865, 3881, 3874, 3868, 3870, 3869, 3870, 3866, 3876, 3867, 3867, 3874, 3865, 3869, 3861, 3879, 3874, 3870, 3864, 3875, 3875, 3866, 3859, 3862, 3876, 3861, 3863, 3867, 3868, 3872, 3867, 3875, 3874, 3875, 3862, 3862, 3872, 3861, 3872, 3862, 3865, 3862, 3865, 3865, 3865, 3878, 3860, 3864, 3872, 3869, 3867, 3867, 3857, 3871, 3866, 3866, 3866, 3866, 3864, 3872, 3860, 3870, 3864, 3857, 3863, 3871, 3855, 3869, 3861, 3857, 3858, 3864, 3865, 3860, 3863, 3857, 3866, 3859, 3874, 3868, 3862, 3853, 3870, 3874, 3865, 3858, 3851, 3860, 3858, 3877, 3860, 3867, 3860, 3884, 3855, 3872, 3859, 3858, 3863, 3872, 3855, 3868, 3871, 3861, 3864, 3860, 3866, 3868, 3871, 3871, 3865, 3866, 3861, 3870, 3870, 3870, 3858, 3865, 3862, 3867, 3859, 3868, 3864, 3862, 3869, 3854, 3862, 3872, 3860, 3872, 3858, 3873, 3861, 3854, 3863, 3850, 3856, 3864, 3860, 3862, 3869, 3853, 3857, 3865, 3872, 3861, 3872, 3864, 3856, 3865, 3848, 3858, 3856, 3855, 3852, 3858, 3852, 3869, 3873, 3853, 3866, 3859, 3851, 3861, 3863, 3852, 3851, 3867, 3859, 3862, 3864, 3854, 3850, 3862, 3869, 3861, 3864, 3857, 3858, 3867],
      "WindowCenter": [1466.0, 1465.0, 1465.0, 1465.0, 1465.0, 1465.0, 1465.0, 1465.0, 1464.0, 1464.0, 1465.0, 1464.0, 1464.0, 1464.0, 1464.0, 1463.0, 1463.0, 1464.0, 1464.0, 1464.0, 1463.0, 1463.0, 1464.0, 1463.0, 1463.0, 1463.0, 1462.0, 1463.0, 1463.0, 1464.0, 1463.0, 1462.0, 1463.0, 1462.0, 1462.0, 1462.0, 1461.0, 1462.0, 1462.0, 1462.0, 1462.0, 1461.0, 1461.0, 1461.0, 1461.0, 1461.0, 1461.0, 1461.0, 1461.0, 1461.0, 1461.0, 1461.0, 1460.0, 1461.0, 1461.0, 1461.0, 1461.0, 1461.0, 1461.0, 1460.0, 1460.0, 1460.0, 1461.0, 1461.0, 1461.0, 1461.0, 1461.0, 1461.0, 1461.0, 1460.0, 1460.0, 1461.0, 1461.0, 1460.0, 1460.0, 1460.0, 1460.0, 1460.0, 1461.0, 1460.0, 1461.0, 1460.0, 1460.0, 1460.0, 1460.0, 1461.0, 1460.0, 1460.0, 1460.0, 1460.0, 1460.0, 1461.0, 1460.0, 1461.0, 1460.0, 1460.0, 1460.0, 1461.0, 1460.0, 1460.0, 1459.0, 1460.0, 1460.0, 1461.0, 1460.0, 1460.0, 1460.0, 1460.0, 1459.0, 1459.0, 1459.0, 1459.0, 1459.0, 1458.0, 1458.0, 1459.0, 1459.0, 1459.0, 1459.0, 1459.0, 1459.0, 1459.0, 1459.0, 1460.0, 1459.0, 1459.0, 1459.0, 1459.0, 1459.0, 1459.0, 1459.0, 1459.0, 1459.0, 1459.0, 1460.0, 1459.0, 1459.0, 1459.0, 1459.0, 1459.0, 1459.0, 1458.0, 1458.0, 1459.0, 1460.0, 1459.0, 1459.0, 1458.0, 1459.0, 1460.0, 1458.0, 1458.0, 1459.0, 1459.0, 1458.0, 1459.0, 1458.0, 1458.0, 1459.0, 1458.0, 1459.0, 1458.0, 1459.0, 1459.0, 1457.0, 1458.0, 1458.0, 1458.0, 1458.0, 1458.0, 1458.0, 1458.0, 1457.0, 1458.0, 1457.0, 1458.0, 1458.0, 1457.0, 1457.0, 1457.0, 1457.0, 1457.0, 1457.0, 1457.0, 1457.0, 1457.0, 1457.0, 1457.0, 1456.0, 1457.0, 1457.0, 1456.0, 1457.0, 1457.0, 1457.0, 1456.0, 1457.0, 1457.0, 1456.0, 1456.0],
      "WindowWidth": [3377.0, 3376.0, 3376.0, 3376.0, 3376.0, 3376.0, 3376.0, 3376.0, 3376.0, 3376.0, 3376.0, 3376.0, 3376.0, 3376.0, 3376.0, 3376.0, 3376.0, 3375.0, 3375.0, 3375.0, 3376.0, 3375.0, 3375.0, 3375.0, 3375.0, 3375.0, 3376.0, 3375.0, 3376.0, 3375.0, 3375.0, 3376.0, 3375.0, 3375.0, 3375.0, 3375.0, 3375.0, 3374.0, 3374.0, 3374.0, 3374.0, 3374.0, 3375.0, 3374.0, 3374.0, 3374.0, 3374.0, 3374.0, 3374.0, 3374.0, 3374.0, 3374.0, 3374.0, 3374.0, 3374.0, 3374.0, 3374.0, 3374.0, 3374.0, 3374.0, 3374.0, 3374.0, 3374.0, 3374.0, 3374.0, 3374.0, 3374.0, 3373.0, 3374.0, 3374.0, 3374.0, 3373.0, 3373.0, 3374.0, 3374.0, 3374.0, 3374.0, 3374.0, 3373.0, 3374.0, 3373.0, 3374.0, 3374.0, 3374.0, 3374.0, 3373.0, 3373.0, 3374.0, 3373.0, 3374.0, 3373.0, 3373.0, 3374.0, 3373.0, 3373.0, 3373.0, 3373.0, 3373.0, 3374.0, 3373.0, 3373.0, 3373.0, 3373.0, 3373.0, 3373.0, 3373.0, 3373.0, 3373.0, 3373.0, 3373.0, 3373.0, 3373.0, 3373.0, 3373.0, 3372.0, 3373.0, 3372.0, 3373.0, 3372.0, 3373.0, 3373.0, 3373.0, 3373.0, 3372.0, 3373.0, 3373.0, 3373.0, 3373.0, 3373.0, 3373.0, 3373.0, 3373.0, 3373.0, 3373.0, 3372.0, 3373.0, 3373.0, 3373.0, 3372.0, 3373.0, 3372.0, 3373.0, 3373.0, 3373.0, 3372.0, 3373.0, 3373.0, 3373.0, 3373.0, 3372.0, 3373.0, 3372.0, 3373.0, 3372.0, 3373.0, 3372.0, 3373.0, 3373.0, 3372.0, 3373.0, 3372.0, 3372.0, 3372.0, 3372.0, 3372.0, 3372.0, 3372.0, 3372.0, 3372.0, 3372.0, 3371.0, 3371.0, 3372.0, 3371.0, 3372.0, 3371.0, 3371.0, 3371.0, 3371.0, 3371.0, 3371.0, 3370.0, 3371.0, 3370.0, 3370.0, 3370.0, 3371.0, 3371.0, 3371.0, 3371.0, 3370.0, 3371.0, 3370.0, 3370.0, 3370.0, 3371.0, 3370.0, 3370.0, 3370.0, 3370.0]
    },
    "slices": {}
  }
}