{
  "AcquisitionMatrixPE": 80,
  "AcquisitionNumber": 1,
  "AcquisitionTime": "13:30:22.140000",
  "BandwidthPerPixelPhaseEncode": 44.643,
  "BaseResolution": 80,
  "BodyPartExamined": "BRAIN",
  "CoilCombinationMethod": "Sum of Squares",
  "ConsistencyInfo": "N4_VE11C_LATEST_20160120",
  "ConversionSoftware": "dcm2niix",
  "ConversionSoftwareVersion": "v1.0.20220720",
  "DerivedVendorReportedEchoSpacing": 0.000559998,
  "DeviceSerialNumber": "66112",
  "DwellTime": 2.7e-06,
  "EchoTime": 0.035,
  "EchoTrainLength": 39,
  "EffectiveEchoSpacing": 0.000279999,
  "FlipAngle": 90,
  "HeudiconvVersion": "0.13.1",
  "ImageOrientationPatientDICOM": [0.997183, -0.0745998, 0.00783375, 0.0686805, 0.950034, 0.304497],
  "ImageOrientationText": "Tra>Cor(17.7)>Sag(1.7)",
  "ImageType": [
    "ORIGINAL",
    "PRIMARY",
    "M",
    "ND",
    "NORM",
    "MOSAIC"
],
  "ImagingFrequency": 123.252,
  "InPlanePhaseEncodingDirectionDICOM": "COL",
  "InstitutionAddress": "Maynard 3,Hanover,NH,US,03755",
  "InstitutionName": "Dartmouth College - PBS",
  "InstitutionalDepartmentName": "Department",
  "MRAcquisitionType": "2D",
  "MagneticFieldStrength": 3,
  "Manufacturer": "Siemens",
  "ManufacturersModelName": "Prisma",
  "Modality": "MR",
  "MultibandAccelerationFactor": 4,
  "NonlinearGradientCorrection": false,
  "ParallelReductionFactorInPlane": 2,
  "PartialFourier": 1,
  "PatientPosition": "HFS",
  "PercentPhaseFOV": 100,
  "PercentSampling": 100,
  "PhaseEncodingDirection": "j-",
  "PhaseEncodingSteps": 79,
  "PhaseResolution": 1,
  "PixelBandwidth": 2315,
  "ProcedureStepDescription": "dbic^QA",
  "ProtocolName": "func-bold_task-rest_acq-p2-s4-3.5mm",
  "PulseSequenceDetails": "%SiemensSeq%\\ep2d_bold",
  "ReceiveCoilActiveElements": "HEA;HEP",
  "ReceiveCoilName": "Head_32",
  "ReconMatrixPE": 80,
  "RefLinesPE": 24,
  "RepetitionTime": 2,
  "SAR": 0.0207981,
  "ScanOptions": "FS",
  "ScanningSequence": "EP",
  "SequenceName": "*epfid2d1_80",
  "SequenceVariant": "SK",
  "SeriesDescription": "func-bold_task-rest_acq-p2-s4-3.5mm",
  "SeriesNumber": 7,
  "ShimSetting": [4146, -7692, -7510, 277, -67, -181, -64, 70],
  "SliceThickness": 3.5,
  "SliceTiming": [1.485, 0, 0.99, 0.2475, 1.2375, 0.7425, 1.7325, 0.495, 1.485, 0, 0.99, 0.2475, 1.2375, 0.7425, 1.7325, 0.495, 1.485, 0, 0.99, 0.2475, 1.2375, 0.7425, 1.7325, 0.495, 1.485, 0, 0.99, 0.2475, 1.2375, 0.7425, 1.7325, 0.495],
  "SoftwareVersions": "syngo MR E11",
  "SpacingBetweenSlices": 3.99,
  "StationName": "AWP66112",
  "TaskName": "rest",
  "TotalReadoutTime": 0.0221199,
  "TxRefAmp": 233.526,
  "dcmmeta_affine": [
    [-2.9915482997894287, 0.20604152977466583, 0.12032940983772278, 110.33922576904297],
    [0.22379948198795319, 2.850101947784424, 1.2093733549118042, -129.13900756835938],
    [0.02350124530494213, -0.9134908318519592, 3.8003995418548584, -21.843164443969727],
    [0.0, 0.0, 0.0, 1.0]
],
  "dcmmeta_reorient_transform": [
    [0.0, -1.0, 0.0, 79.0],
    [1.0, 0.0, 0.0, 0.0],
    [0.0, 0.0, 1.0, 0.0],
    [0.0, 0.0, 0.0, 1.0]
],
  "dcmmeta_shape": [80, 80, 32, 200],
  "dcmmeta_slice_dim": 2,
  "dcmmeta_version": 0.6,
  "global": {
    "const": {
      "AccessionNumber": "qa",
      "AcquisitionMatrix": [80, 0, 0, 80],
      "AngioFlag": "N",
      "BitsAllocated": 16,
      "BitsStored": 12,
      "BodyPartExamined": "BRAIN",
      "Columns": 480,
      "EchoNumbers": 1,
      "EchoTime": 35.0,
      "EchoTrainLength": 39,
      "FlipAngle": 90.0,
      "HighBit": 11,
      "ImageOrientationPatient": [0.99718278057744, -0.074599829122, 0.00783374845186, 0.06868050933953, 0.95003399643636, 0.30449695113748],
      "ImagePositionPatient": [-766.13447772345, -621.27954706821, -281.40736243236],
      "ImageType": [
        "ORIGINAL",
        "PRIMARY",
        "M",
        "ND",
        "NORM",
        "MOSAIC"
],
      "ImagedNucleus": "1H",
      "ImagingFrequency": 123.252444,
      "InPlanePhaseEncodingDirection": "COL",
      "MRAcquisitionType": "2D",
      "MagneticFieldStrength": 3.0,
      "Manufacturer": "SIEMENS",
      "ManufacturerModelName": "Prisma",
      "Modality": "MR",
      "NumberOfAverages": 1.0,
      "NumberOfPhaseEncodingSteps": 79,
      "PercentPhaseFieldOfView": 100.0,
      "PercentSampling": 100.0,
      "PerformedProcedureStepStartTime": "110746.437000",
      "PhotometricInterpretation": "MONOCHROME2",
      "PixelBandwidth": 2315.0,
      "PixelRepresentation": 0,
      "PixelSpacing": [3.0, 3.0],
      "ProtocolName": "func-bold_task-rest_acq-p2-s4-3.5mm",
      "RepetitionTime": 2000.0,
      "Rows": 480,
      "SAR": 0.02079809485213,
      "SamplesPerPixel": 1,
      "ScanOptions": "FS",
      "ScanningSequence": "EP",
      "SequenceName": "*epfid2d1_80",
      "SequenceVariant": "SK",
      "SeriesDescription": "func-bold_task-rest_acq-p2-s4-3.5mm",
      "SeriesNumber": 7,
      "SeriesTime": "133111.366000",
      "SliceLocation": -56.619794438525,
      "SliceThickness": 3.5,
      "SmallestImagePixelValue": 0,
      "SoftwareVersions": "syngo MR E11",
      "SpacingBetweenSlices": 3.9899999714674,
      "SpecificCharacterSet": "ISO_IR 100",
      "StudyID": "49",
      "StudyTime": "110746.363000",
      "TransmitCoilName": "Body",
      "VariableFlipAngleFlag": "N",
      "WindowCenter": 896.0,
      "WindowCenterWidthExplanation": "Algo1",
      "dBdt": 0.0},
    "slices": {}
  },
  "time": {
    "samples": {
      "AcquisitionNumber": [1, 2, 3, 4, 5, 6, 7, 8, 9, 10, 11, 12, 13, 14, 15, 16, 17, 18, 19, 20, 21, 22, 23, 24, 25, 26, 27, 28, 29, 30, 31, 32, 33, 34, 35, 36, 37, 38, 39, 40, 41, 42, 43, 44, 45, 46, 47, 48, 49, 50, 51, 52, 53, 54, 55, 56, 57, 58, 59, 60, 61, 62, 63, 64, 65, 66, 67, 68, 69, 70, 71, 72, 73, 74, 75, 76, 77, 78, 79, 80, 81, 82, 83, 84, 85, 86, 87, 88, 89, 90, 91, 92, 93, 94, 95, 96, 97, 98, 99, 100, 101, 102, 103, 104, 105, 106, 107, 108, 109, 110, 111, 112, 113, 114, 115, 116, 117, 118, 119, 120, 121, 122, 123, 124, 125, 126, 127, 128, 129, 130, 131, 132, 133, 134, 135, 136, 137, 138, 139, 140, 141, 142, 143, 144, 145, 146, 147, 148, 149, 150, 151, 152, 153, 154, 155, 156, 157, 158, 159, 160, 161, 162, 163, 164, 165, 166, 167, 168, 169, 170, 171, 172, 173, 174, 175, 176, 177, 178, 179, 180, 181, 182, 183, 184, 185, 186, 187, 188, 189, 190, 191, 192, 193, 194, 195, 196, 197, 198, 199, 200],
      "AcquisitionTime": ["133022.140000", "133024.140000", "133026.140000", "133028.140000", "133030.140000", "133032.140000", "133034.140000", "133036.140000", "133038.140000", "133040.140000", "133042.140000", "133044.140000", "133046.140000", "133048.140000", "133050.140000", "133052.140000", "133054.140000", "133056.140000", "133058.140000", "133100.140000", "133102.140000", "133104.140000", "133106.140000", "133108.140000", "133110.140000", "133112.140000", "133114.140000", "133116.140000", "133118.140000", "133120.140000", "133122.140000", "133124.140000", "133126.140000", "133128.140000", "133130.140000", "133132.140000", "133134.140000", "133136.140000", "133138.140000", "133140.140000", "133142.140000", "133144.140000", "133146.140000", "133148.140000", "133150.140000", "133152.140000", "133154.140000", "133156.140000", "133158.140000", "133200.140000", "133202.140000", "133204.140000", "133206.140000", "133208.140000", "133210.140000", "133212.140000", "133214.140000", "133216.140000", "133218.140000", "133220.140000", "133222.140000", "133224.140000", "133226.140000", "133228.140000", "133230.140000", "133232.140000", "133234.140000", "133236.140000", "133238.140000", "133240.140000", "133242.140000", "133244.140000", "133246.140000", "133248.140000", "133250.140000", "133252.140000", "133254.140000", "133256.140000", "133258.140000", "133300.140000", "133302.140000", "133304.140000", "133306.140000", "133308.140000", "133310.140000", "133312.140000", "133314.140000", "133316.140000", "133318.140000", "133320.140000", "133322.140000", "133324.140000", "133326.140000", "133328.140000", "133330.140000", "133332.140000", "133334.140000", "133336.140000", "133338.140000", "133340.140000", "133342.140000", "133344.140000", "133346.140000", "133348.140000", "133350.140000", "133352.140000", "133354.140000", "133356.140000", "133358.140000", "133400.140000", "133402.140000", "133404.140000", "133406.140000", "133408.140000", "133410.140000", "133412.140000", "133414.140000", "133416.140000", "133418.140000", "133420.140000", "133422.140000", "133424.140000", "133426.140000", "133428.140000", "133430.140000", "133432.140000", "133434.140000", "133436.140000", "133438.140000", "133440.140000", "133442.140000", "133444.140000", "133446.140000", "133448.140000", "133450.140000", "133452.140000", "133454.140000", "133456.140000", "133458.140000", "133500.140000", "133502.140000", "133504.140000", "133506.140000", "133508.140000", "133510.140000", "133512.140000", "133514.140000", "133516.140000", "133518.140000", "133520.140000", "133522.140000", "133524.140000", "133526.140000", "133528.140000", "133530.140000", "133532.140000", "133534.140000", "133536.140000", "133538.140000", "133540.140000", "133542.140000", "133544.140000", "133546.140000", "133548.140000", "133550.140000", "133552.140000", "133554.140000", "133556.140000", "133558.140000", "133600.140000", "133602.140000", "133604.140000", "133606.140000", "133608.140000", "133610.140000", "133612.140000", "133614.140000", "133616.140000", "133618.140000", "133620.140000", "133622.140000", "133624.140000", "133626.140000", "133628.140000", "133630.140000", "133632.140000", "133634.140000", "133636.140000", "133638.140000", "133640.140000", "133642.140000", "133644.140000", "133646.140000", "133648.140000", "133650.140000", "133652.140000", "133654.140000", "133656.140000", "133658.140000", "133700.140000"],
      "ContentTime": ["133111.369000", "133111.372000", "133111.375000", "133111.382000", "133111.385000", "133111.388000", "133111.391000", "133111.393000", "133111.396000", "133111.398000", "133111.401000", "133111.403000", "133111.406000", "133111.408000", "133111.417000", "133111.420000", "133111.422000", "133111.425000", "133111.427000", "133111.430000", "133111.432000", "133111.435000", "133111.437000", "133111.440000", "133111.442000", "133151.365000", "133151.368000", "133151.370000", "133151.373000", "133151.375000", "133151.378000", "133151.380000", "133151.383000", "133151.385000", "133151.388000", "133151.390000", "133151.393000", "133151.395000", "133151.398000", "133151.401000", "133151.411000", "133151.414000", "133151.416000", "133151.419000", "133151.422000", "133231.364000", "133231.367000", "133231.370000", "133231.372000", "133231.375000", "133231.377000", "133231.380000", "133231.382000", "133231.385000", "133231.387000", "133231.390000", "133231.392000", "133231.395000", "133231.397000", "133231.400000", "133231.411000", "133231.413000", "133231.416000", "133231.418000", "133231.421000", "133311.364000", "133311.374000", "133311.377000", "133311.380000", "133311.382000", "133311.386000", "133311.388000", "133311.391000", "133311.393000", "133311.396000", "133311.398000", "133311.401000", "133311.403000", "133311.406000", "133311.409000", "133311.411000", "133311.414000", "133311.416000", "133311.419000", "133311.421000", "133351.364000", "133351.367000", "133351.370000", "133351.372000", "133351.375000", "133351.377000", "133351.380000", "133351.382000", "133351.385000", "133351.388000", "133351.390000", "133351.393000", "133351.396000", "133351.398000", "133351.401000", "133351.403000", "133351.406000", "133351.408000", "133351.411000", "133351.414000", "133431.364000", "133431.367000", "133431.370000", "133431.372000", "133431.375000", "133431.377000", "133431.380000", "133431.382000", "133431.385000", "133431.387000", "133431.390000", "133431.393000", "133431.395000", "133431.398000", "133431.400000", "133431.402000", "133431.405000", "133431.407000", "133431.410000", "133431.412000", "133511.364000", "133511.367000", "133511.370000", "133511.372000", "133511.375000", "133511.385000", "133511.388000", "133511.390000", "133511.393000", "133511.395000", "133511.398000", "133511.400000", "133511.403000", "133511.405000", "133511.408000", "133511.410000", "133511.413000", "133511.415000", "133511.418000", "133511.421000", "133531.364000", "133531.367000", "133531.370000", "133531.373000", "133531.375000", "133531.378000", "133531.380000", "133531.383000", "133531.385000", "133531.388000", "133611.364000", "133611.367000", "133611.370000", "133611.372000", "133611.375000", "133611.377000", "133611.380000", "133611.382000", "133611.385000", "133611.387000", "133611.390000", "133611.393000", "133611.395000", "133611.398000", "133611.400000", "133611.403000", "133611.405000", "133611.408000", "133611.410000", "133611.413000", "133651.364000", "133651.367000", "133651.370000", "133651.372000", "133651.375000", "133651.377000", "133651.380000", "133651.382000", "133651.385000", "133651.387000", "133651.390000", "133651.393000", "133651.395000", "133651.398000", "133651.400000", "133651.403000", "133651.412000", "133651.414000", "133651.417000", "133651.419000", "133700.803000", "133700.805000", "133700.808000", "133700.810000", "133700.813000"],
      "InstanceCreationTime": ["133111.369000", "133111.372000", "133111.375000", "133111.382000", "133111.385000", "133111.388000", "133111.391000", "133111.393000", "133111.396000", "133111.398000", "133111.401000", "133111.403000", "133111.406000", "133111.408000", "133111.417000", "133111.420000", "133111.422000", "133111.425000", "133111.427000", "133111.430000", "133111.432000", "133111.435000", "133111.437000", "133111.440000", "133111.442000", "133151.365000", "133151.368000", "133151.370000", "133151.373000", "133151.375000", "133151.378000", "133151.380000", "133151.383000", "133151.385000", "133151.388000", "133151.390000", "133151.393000", "133151.395000", "133151.398000", "133151.401000", "133151.411000", "133151.414000", "133151.416000", "133151.419000", "133151.422000", "133231.364000", "133231.367000", "133231.370000", "133231.372000", "133231.375000", "133231.377000", "133231.380000", "133231.382000", "133231.385000", "133231.387000", "133231.390000", "133231.392000", "133231.395000", "133231.397000", "133231.400000", "133231.411000", "133231.413000", "133231.416000", "133231.418000", "133231.421000", "133311.364000", "133311.374000", "133311.377000", "133311.380000", "133311.382000", "133311.386000", "133311.388000", "133311.391000", "133311.393000", "133311.396000", "133311.398000", "133311.401000", "133311.403000", "133311.406000", "133311.409000", "133311.411000", "133311.414000", "133311.416000", "133311.419000", "133311.421000", "133351.364000", "133351.367000", "133351.370000", "133351.372000", "133351.375000", "133351.377000", "133351.380000", "133351.382000", "133351.385000", "133351.388000", "133351.390000", "133351.393000", "133351.396000", "133351.398000", "133351.401000", "133351.403000", "133351.406000", "133351.408000", "133351.411000", "133351.414000", "133431.364000", "133431.367000", "133431.370000", "133431.372000", "133431.375000", "133431.377000", "133431.380000", "133431.382000", "133431.385000", "133431.387000", "133431.390000", "133431.393000", "133431.395000", "133431.398000", "133431.400000", "133431.402000", "133431.405000", "133431.407000", "133431.410000", "133431.412000", "133511.364000", "133511.367000", "133511.370000", "133511.372000", "133511.375000", "133511.385000", "133511.388000", "133511.390000", "133511.393000", "133511.395000", "133511.398000", "133511.400000", "133511.403000", "133511.405000", "133511.408000", "133511.410000", "133511.413000", "133511.415000", "133511.418000", "133511.421000", "133531.364000", "133531.367000", "133531.370000", "133531.373000", "133531.375000", "133531.378000", "133531.380000", "133531.383000", "133531.385000", "133531.388000", "133611.364000", "133611.367000", "133611.370000", "133611.372000", "133611.375000", "133611.377000", "133611.380000", "133611.382000", "133611.385000", "133611.387000", "133611.390000", "133611.393000", "133611.395000", "133611.398000", "133611.400000", "133611.403000", "133611.405000", "133611.408000", "133611.410000", "133611.413000", "133651.364000", "133651.367000", "133651.370000", "133651.372000", "133651.375000", "133651.377000", "133651.380000", "133651.382000", "133651.385000", "133651.387000", "133651.390000", "133651.393000", "133651.395000", "133651.398000", "133651.400000", "133651.403000", "133651.412000", "133651.414000", "133651.417000", "133651.419000", "133700.803000", "133700.805000", "133700.808000", "133700.810000", "133700.813000"],
      "InstanceNumber": [1, 2, 3, 4, 5, 6, 7, 8, 9, 10, 11, 12, 13, 14, 15, 16, 17, 18, 19, 20, 21, 22, 23, 24, 25, 26, 27, 28, 29, 30, 31, 32, 33, 34, 35, 36, 37, 38, 39, 40, 41, 42, 43, 44, 45, 46, 47, 48, 49, 50, 51, 52, 53, 54, 55, 56, 57, 58, 59, 60, 61, 62, 63, 64, 65, 66, 67, 68, 69, 70, 71, 72, 73, 74, 75, 76, 77, 78, 79, 80, 81, 82, 83, 84, 85, 86, 87, 88, 89, 90, 91, 92, 93, 94, 95, 96, 97, 98, 99, 100, 101, 102, 103, 104, 105, 106, 107, 108, 109, 110, 111, 112, 113, 114, 115, 116, 117, 118, 119, 120, 121, 122, 123, 124, 125, 126, 127, 128, 129, 130, 131, 132, 133, 134, 135, 136, 137, 138, 139, 140, 141, 142, 143, 144, 145, 146, 147, 148, 149, 150, 151, 152, 153, 154, 155, 156, 157, 158, 159, 160, 161, 162, 163, 164, 165, 166, 167, 168, 169, 170, 171, 172, 173, 174, 175, 176, 177, 178, 179, 180, 181, 182, 183, 184, 185, 186, 187, 188, 189, 190, 191, 192, 193, 194, 195, 196, 197, 198, 199, 200],
      "LargestImagePixelValue": [1952, 1960, 1953, 1948, 1955, 1953, 1952, 1953, 1948, 1951, 1956, 1950, 1956, 1951, 1949, 1950, 1955, 1957, 1949, 1953, 1953, 1948, 1952, 1948, 1947, 1950, 1950, 1952, 1951, 1948, 1954, 1957, 1955, 1947, 1954, 1949, 1951, 1954, 1950, 1954, 1953, 1953, 1952, 1957, 1952, 1951, 1954, 1951, 1949, 1951, 1951, 1954, 1952, 1953, 1949, 1954, 1954, 1949, 1949, 1955, 1954, 1952, 1948, 1947, 1957, 1950, 1949, 1954, 1949, 1948, 1952, 1953, 1952, 1950, 1952, 1953, 1955, 1954, 1950, 1950, 1951, 1952, 1952, 1952, 1953, 1953, 1951, 1955, 1955, 1953, 1954, 1954, 1952, 1954, 1949, 1953, 1950, 1952, 1953, 1950, 1950, 1951, 1956, 1953, 1946, 1953, 1952, 1954, 1953, 1951, 1955, 1953, 1954, 1954, 1954, 1949, 1949, 1954, 1946, 1955, 1955, 1953, 1953, 1951, 1953, 1952, 1953, 1959, 1950, 1952, 1950, 1950, 1950, 1952, 1954, 1953, 1953, 1956, 1951, 1958, 1953, 1948, 1957, 1951, 1956, 1951, 1951, 1952, 1959, 1950, 1957, 1950, 1944, 1955, 1948, 1949, 1950, 1954, 1949, 1952, 1954, 1954, 1952, 1954, 1950, 1952, 1951, 1951, 1949, 1950, 1945, 1948, 1950, 1952, 1951, 1953, 1952, 1954, 1955, 1954, 1956, 1961, 1948, 1956, 1952, 1953, 1953, 1953, 1953, 1953, 1949, 1949, 1949, 1953, 1950, 1953, 1950, 1952, 1950, 1950],
      "WindowWidth": [2013.0, 2014.0, 2013.0, 2013.0, 2013.0, 2013.0, 2013.0, 2013.0, 2013.0, 2014.0, 2013.0, 2013.0, 2013.0, 2013.0, 2014.0, 2014.0, 2014.0, 2014.0, 2013.0, 2013.0, 2013.0, 2014.0, 2013.0, 2014.0, 2014.0, 2014.0, 2014.0, 2014.0, 2014.0, 2013.0, 2014.0, 2014.0, 2014.0, 2014.0, 2014.0, 2014.0, 2014.0, 2014.0, 2015.0, 2014.0, 2014.0, 2014.0, 2014.0, 2014.0, 2014.0, 2014.0, 2014.0, 2014.0, 2014.0, 2014.0, 2013.0, 2014.0, 2014.0, 2014.0, 2014.0, 2014.0, 2014.0, 2014.0, 2014.0, 2015.0, 2015.0, 2015.0, 2015.0, 2014.0, 2014.0, 2014.0, 2014.0, 2014.0, 2015.0, 2014.0, 2014.0, 2014.0, 2015.0, 2014.0, 2014.0, 2014.0, 2014.0, 2014.0, 2014.0, 2015.0, 2015.0, 2014.0, 2014.0, 2014.0, 2015.0, 2014.0, 2014.0, 2014.0, 2014.0, 2014.0, 2015.0, 2015.0, 2015.0, 2014.0, 2015.0, 2014.0, 2015.0, 2014.0, 2015.0, 2015.0, 2015.0, 2015.0, 2014.0, 2015.0, 2014.0, 2014.0, 2014.0, 2015.0, 2015.0, 2014.0, 2014.0, 2014.0, 2015.0, 2015.0, 2015.0, 2014.0, 2014.0, 2014.0, 2014.0, 2015.0, 2015.0, 2014.0, 2014.0, 2014.0, 2014.0, 2014.0, 2014.0, 2014.0, 2015.0, 2014.0, 2014.0, 2014.0, 2014.0, 2014.0, 2014.0, 2015.0, 2014.0, 2014.0, 2015.0, 2015.0, 2015.0, 2014.0, 2014.0, 2015.0, 2015.0, 2015.0, 2015.0, 2015.0, 2014.0, 2014.0, 2014.0, 2014.0, 2014.0, 2014.0, 2015.0, 2015.0, 2014.0, 2014.0, 2015.0, 2015.0, 2014.0, 2014.0, 2014.0, 2014.0, 2015.0, 2015.0, 2014.0, 2015.0, 2014.0, 2014.0, 2014.0, 2014.0, 2015.0, 2015.0, 2015.0, 2015.0, 2015.0, 2015.0, 2014.0, 2015.0, 2015.0, 2015.0, 2014.0, 2014.0, 2015.0, 2014.0, 2015.0, 2014.0, 2015.0, 2014.0, 2014.0, 2014.0, 2014.0, 2014.0, 2014.0, 2014.0, 2014.0, 2015.0, 2015.0, 2015.0]
    },
    "slices": {}
  }
}