{
  "AcquisitionMatrixPE": 80,
  "AcquisitionNumber": 1,
  "AcquisitionTime": "13:23:27.605000",
  "BandwidthPerPixelPhaseEncode": 48.077,
  "BaseResolution": 80,
  "BodyPartExamined": "BRAIN",
  "CoilCombinationMethod": "Sum of Squares",
  "ConsistencyInfo": "N4_VE11C_LATEST_20160120",
  "ConversionSoftware": "dcm2niix",
  "ConversionSoftwareVersion": "v1.0.20220720",
  "DerivedVendorReportedEchoSpacing": 0.000519999,
  "DeviceSerialNumber": "66112",
  "DwellTime": 2.7e-06,
  "EchoTime": 0.035,
  "EchoTrainLength": 39,
  "EffectiveEchoSpacing": 0.00026,
  "FlipAngle": 90,
  "HeudiconvVersion": "0.13.1",
  "ImageOrientationPatientDICOM": [0.997183, -0.0745998, 0.00783375, 0.0686805, 0.950034, 0.304497],
  "ImageOrientationText": "Tra>Cor(17.7)>Sag(1.7)",
  "ImageType": [
    "ORIGINAL",
    "PRIMARY",
    "M",
    "ND",
    "NORM",
    "MOSAIC"
],
  "ImagingFrequency": 123.252,
  "InPlanePhaseEncodingDirectionDICOM": "COL",
  "InstitutionAddress": "Maynard 3,Hanover,NH,US,03755",
  "InstitutionName": "Dartmouth College - PBS",
  "InstitutionalDepartmentName": "Department",
  "MRAcquisitionType": "2D",
  "MagneticFieldStrength": 3,
  "Manufacturer": "Siemens",
  "ManufacturersModelName": "Prisma",
  "MatrixCoilMode": "GRAPPA",
  "Modality": "MR",
  "NonlinearGradientCorrection": false,
  "ParallelReductionFactorInPlane": 2,
  "PartialFourier": 1,
  "PatientPosition": "HFS",
  "PercentPhaseFOV": 100,
  "PercentSampling": 100,
  "PhaseEncodingDirection": "j-",
  "PhaseEncodingSteps": 79,
  "PhaseResolution": 1,
  "PixelBandwidth": 2315,
  "ProcedureStepDescription": "dbic^QA",
  "ProtocolName": "func-bold_task-rest_acq-p2",
  "PulseSequenceDetails": "%SiemensSeq%\\ep2d_bold",
  "ReceiveCoilActiveElements": "HEA;HEP",
  "ReceiveCoilName": "Head_32",
  "ReconMatrixPE": 80,
  "RefLinesPE": 24,
  "RepetitionTime": 2,
  "SAR": 0.0553098,
  "ScanOptions": "FS",
  "ScanningSequence": "EP",
  "SequenceName": "*epfid2d1_80",
  "SequenceVariant": "SK",
  "SeriesDescription": "func-bold_task-rest_acq-p2",
  "SeriesNumber": 5,
  "ShimSetting": [4146, -7692, -7510, 280, -67, -176, -65, 71],
  "SliceThickness": 3.5,
  "SliceTiming": [0.99, 0, 1.055, 0.065, 1.1225, 0.1325, 1.1875, 0.1975, 1.2525, 0.2625, 1.32, 0.33, 1.385, 0.395, 1.45, 0.4625, 1.5175, 0.5275, 1.5825, 0.5925, 1.65, 0.66, 1.715, 0.725, 1.78, 0.7925, 1.8475, 0.8575, 1.9125, 0.9225],
  "SoftwareVersions": "syngo MR E11",
  "SpacingBetweenSlices": 3.99,
  "StationName": "AWP66112",
  "TaskName": "rest",
  "TotalReadoutTime": 0.02054,
  "TxRefAmp": 233.526,
  "dcmmeta_affine": [
    [-2.9915482997894287, 0.20604152977466583, 0.12032940983772278, 110.45954895019531],
    [0.22379948198795319, 2.850101947784424, 1.2093733549118042, -127.92963409423828],
    [0.02350124530494213, -0.9134908318519592, 3.8003995418548584, -18.04276466369629],
    [0.0, 0.0, 0.0, 1.0]
],
  "dcmmeta_reorient_transform": [
    [0.0, -1.0, 0.0, 79.0],
    [1.0, 0.0, 0.0, 0.0],
    [0.0, 0.0, 1.0, 0.0],
    [0.0, 0.0, 0.0, 1.0]
],
  "dcmmeta_shape": [80, 80, 30, 200],
  "dcmmeta_slice_dim": 2,
  "dcmmeta_version": 0.6,
  "global": {
    "const": {
      "AccessionNumber": "qa",
      "AcquisitionMatrix": [80, 0, 0, 80],
      "AngioFlag": "N",
      "BitsAllocated": 16,
      "BitsStored": 12,
      "BodyPartExamined": "BRAIN",
      "Columns": 480,
      "EchoNumbers": 1,
      "EchoTime": 35.0,
      "EchoTrainLength": 39,
      "FlipAngle": 90.0,
      "HighBit": 11,
      "ImageOrientationPatient": [0.99718278057744, -0.074599829122, 0.00783374845186, 0.06868050933953, 0.95003399643636, 0.30449695113748],
      "ImagePositionPatient": [-766.25480722269, -622.48892054233, -277.60696265208],
      "ImageType": [
        "ORIGINAL",
        "PRIMARY",
        "M",
        "ND",
        "NORM",
        "MOSAIC"
],
      "ImagedNucleus": "1H",
      "ImagingFrequency": 123.252442,
      "InPlanePhaseEncodingDirection": "COL",
      "MRAcquisitionType": "2D",
      "MagneticFieldStrength": 3.0,
      "Manufacturer": "SIEMENS",
      "ManufacturerModelName": "Prisma",
      "Modality": "MR",
      "NumberOfAverages": 1.0,
      "NumberOfPhaseEncodingSteps": 79,
      "PercentPhaseFieldOfView": 100.0,
      "PercentSampling": 100.0,
      "PerformedProcedureStepStartTime": "110746.437000",
      "PhotometricInterpretation": "MONOCHROME2",
      "PixelBandwidth": 2315.0,
      "PixelRepresentation": 0,
      "PixelSpacing": [3.0, 3.0],
      "ProtocolName": "func-bold_task-rest_acq-p2",
      "RepetitionTime": 2000.0,
      "Rows": 480,
      "SAR": 0.05530979450824,
      "SamplesPerPixel": 1,
      "ScanOptions": "FS",
      "ScanningSequence": "EP",
      "SequenceName": "*epfid2d1_80",
      "SequenceVariant": "SK",
      "SeriesDescription": "func-bold_task-rest_acq-p2",
      "SeriesNumber": 5,
      "SeriesTime": "132411.295000",
      "SliceLocation": -52.629794203162,
      "SliceThickness": 3.5,
      "SmallestImagePixelValue": 0,
      "SoftwareVersions": "syngo MR E11",
      "SpacingBetweenSlices": 3.9899999533917,
      "SpecificCharacterSet": "ISO_IR 100",
      "StudyID": "49",
      "StudyTime": "110746.363000",
      "TransmitCoilName": "Body",
      "VariableFlipAngleFlag": "N",
      "WindowCenterWidthExplanation": "Algo1",
      "dBdt": 0.0},
    "slices": {}
  },
  "time": {
    "samples": {
      "AcquisitionNumber": [1, 2, 3, 4, 5, 6, 7, 8, 9, 10, 11, 12, 13, 14, 15, 16, 17, 18, 19, 20, 21, 22, 23, 24, 25, 26, 27, 28, 29, 30, 31, 32, 33, 34, 35, 36, 37, 38, 39, 40, 41, 42, 43, 44, 45, 46, 47, 48, 49, 50, 51, 52, 53, 54, 55, 56, 57, 58, 59, 60, 61, 62, 63, 64, 65, 66, 67, 68, 69, 70, 71, 72, 73, 74, 75, 76, 77, 78, 79, 80, 81, 82, 83, 84, 85, 86, 87, 88, 89, 90, 91, 92, 93, 94, 95, 96, 97, 98, 99, 100, 101, 102, 103, 104, 105, 106, 107, 108, 109, 110, 111, 112, 113, 114, 115, 116, 117, 118, 119, 120, 121, 122, 123, 124, 125, 126, 127, 128, 129, 130, 131, 132, 133, 134, 135, 136, 137, 138, 139, 140, 141, 142, 143, 144, 145, 146, 147, 148, 149, 150, 151, 152, 153, 154, 155, 156, 157, 158, 159, 160, 161, 162, 163, 164, 165, 166, 167, 168, 169, 170, 171, 172, 173, 174, 175, 176, 177, 178, 179, 180, 181, 182, 183, 184, 185, 186, 187, 188, 189, 190, 191, 192, 193, 194, 195, 196, 197, 198, 199, 200],
      "AcquisitionTime": ["132327.605000", "132329.605000", "132331.605000", "132333.605000", "132335.605000", "132337.605000", "132339.605000", "132341.605000", "132343.605000", "132345.605000", "132347.605000", "132349.605000", "132351.605000", "132353.605000", "132355.605000", "132357.605000", "132359.605000", "132401.605000", "132403.605000", "132405.605000", "132407.605000", "132409.605000", "132411.605000", "132413.605000", "132415.605000", "132417.605000", "132419.605000", "132421.605000", "132423.605000", "132425.605000", "132427.605000", "132429.605000", "132431.605000", "132433.605000", "132435.605000", "132437.605000", "132439.605000", "132441.605000", "132443.605000", "132445.605000", "132447.605000", "132449.605000", "132451.605000", "132453.605000", "132455.605000", "132457.605000", "132459.605000", "132501.605000", "132503.605000", "132505.605000", "132507.605000", "132509.605000", "132511.605000", "132513.605000", "132515.605000", "132517.605000", "132519.605000", "132521.605000", "132523.605000", "132525.605000", "132527.605000", "132529.605000", "132531.605000", "132533.605000", "132535.605000", "132537.605000", "132539.605000", "132541.605000", "132543.605000", "132545.605000", "132547.605000", "132549.605000", "132551.605000", "132553.605000", "132555.605000", "132557.605000", "132559.605000", "132601.605000", "132603.605000", "132605.605000", "132607.605000", "132609.605000", "132611.605000", "132613.605000", "132615.605000", "132617.605000", "132619.605000", "132621.605000", "132623.605000", "132625.605000", "132627.605000", "132629.605000", "132631.605000", "132633.605000", "132635.605000", "132637.605000", "132639.605000", "132641.605000", "132643.605000", "132645.605000", "132647.605000", "132649.605000", "132651.605000", "132653.605000", "132655.605000", "132657.605000", "132659.605000", "132701.605000", "132703.605000", "132705.605000", "132707.605000", "132709.605000", "132711.605000", "132713.605000", "132715.605000", "132717.605000", "132719.605000", "132721.605000", "132723.605000", "132725.605000", "132727.605000", "132729.605000", "132731.605000", "132733.605000", "132735.605000", "132737.605000", "132739.605000", "132741.605000", "132743.605000", "132745.605000", "132747.605000", "132749.605000", "132751.605000", "132753.605000", "132755.605000", "132757.605000", "132759.605000", "132801.605000", "132803.605000", "132805.605000", "132807.605000", "132809.605000", "132811.605000", "132813.605000", "132815.605000", "132817.605000", "132819.605000", "132821.605000", "132823.605000", "132825.605000", "132827.605000", "132829.605000", "132831.605000", "132833.605000", "132835.605000", "132837.605000", "132839.605000", "132841.605000", "132843.605000", "132845.605000", "132847.605000", "132849.605000", "132851.605000", "132853.605000", "132855.605000", "132857.605000", "132859.605000", "132901.605000", "132903.605000", "132905.605000", "132907.605000", "132909.605000", "132911.605000", "132913.605000", "132915.605000", "132917.605000", "132919.605000", "132921.605000", "132923.605000", "132925.605000", "132927.605000", "132929.605000", "132931.605000", "132933.605000", "132935.605000", "132937.605000", "132939.605000", "132941.605000", "132943.605000", "132945.605000", "132947.605000", "132949.605000", "132951.605000", "132953.605000", "132955.605000", "132957.605000", "132959.605000", "133001.605000", "133003.605000", "133005.605000"],
      "ContentTime": ["132411.298000", "132411.302000", "132411.305000", "132411.307000", "132411.310000", "132411.312000", "132411.315000", "132411.322000", "132411.324000", "132411.327000", "132411.329000", "132411.332000", "132411.335000", "132411.345000", "132411.347000", "132411.350000", "132411.352000", "132411.355000", "132411.357000", "132411.365000", "132411.375000", "132411.378000", "132451.293000", "132451.296000", "132451.299000", "132451.302000", "132451.304000", "132451.306000", "132451.309000", "132451.312000", "132451.314000", "132451.316000", "132451.319000", "132451.321000", "132451.324000", "132451.326000", "132451.329000", "132451.331000", "132451.334000", "132451.337000", "132451.339000", "132451.342000", "132511.294000", "132511.296000", "132511.299000", "132511.301000", "132511.304000", "132511.307000", "132511.309000", "132511.311000", "132511.314000", "132511.317000", "132551.293000", "132551.313000", "132551.316000", "132551.318000", "132551.321000", "132551.323000", "132551.326000", "132551.328000", "132551.331000", "132551.333000", "132551.336000", "132551.338000", "132551.341000", "132551.343000", "132551.346000", "132551.348000", "132551.351000", "132551.353000", "132551.356000", "132551.359000", "132631.293000", "132631.296000", "132631.299000", "132631.301000", "132631.304000", "132631.306000", "132631.309000", "132631.311000", "132631.314000", "132631.316000", "132631.318000", "132631.321000", "132631.323000", "132631.326000", "132631.328000", "132631.331000", "132631.333000", "132631.336000", "132631.338000", "132631.341000", "132711.293000", "132711.296000", "132711.299000", "132711.302000", "132711.304000", "132711.307000", "132711.309000", "132711.312000", "132711.314000", "132711.317000", "132711.319000", "132711.322000", "132711.324000", "132711.327000", "132711.329000", "132711.332000", "132711.334000", "132711.337000", "132711.339000", "132711.342000", "132751.293000", "132751.296000", "132751.299000", "132751.313000", "132751.315000", "132751.318000", "132751.320000", "132751.323000", "132751.326000", "132751.328000", "132751.331000", "132751.333000", "132751.336000", "132751.338000", "132751.341000", "132751.343000", "132751.345000", "132751.348000", "132751.350000", "132751.353000", "132831.293000", "132831.296000", "132831.299000", "132831.301000", "132831.304000", "132831.306000", "132831.309000", "132831.311000", "132831.314000", "132831.316000", "132831.319000", "132831.321000", "132831.324000", "132831.326000", "132831.329000", "132831.331000", "132831.334000", "132831.336000", "132831.339000", "132831.341000", "132911.293000", "132911.296000", "132911.299000", "132911.301000", "132911.304000", "132911.306000", "132911.309000", "132911.311000", "132911.314000", "132911.324000", "132911.326000", "132911.329000", "132911.331000", "132911.334000", "132911.336000", "132911.339000", "132911.341000", "132911.344000", "132911.346000", "132911.349000", "132951.293000", "132951.296000", "132951.299000", "132951.302000", "132951.305000", "132951.307000", "132951.310000", "132951.312000", "132951.315000", "132951.317000", "132951.320000", "132951.322000", "132951.325000", "132951.327000", "132951.330000", "132951.332000", "132951.335000", "132951.338000", "132951.340000", "132951.343000", "133007.015000", "133007.018000", "133007.021000", "133007.023000", "133007.026000", "133007.028000", "133007.031000", "133007.033000"],
      "InstanceCreationTime": ["132411.298000", "132411.302000", "132411.305000", "132411.307000", "132411.310000", "132411.312000", "132411.315000", "132411.322000", "132411.324000", "132411.327000", "132411.329000", "132411.332000", "132411.335000", "132411.345000", "132411.347000", "132411.350000", "132411.352000", "132411.355000", "132411.357000", "132411.365000", "132411.375000", "132411.378000", "132451.293000", "132451.296000", "132451.299000", "132451.302000", "132451.304000", "132451.306000", "132451.309000", "132451.312000", "132451.314000", "132451.316000", "132451.319000", "132451.321000", "132451.324000", "132451.326000", "132451.329000", "132451.331000", "132451.334000", "132451.337000", "132451.339000", "132451.342000", "132511.294000", "132511.296000", "132511.299000", "132511.301000", "132511.304000", "132511.307000", "132511.309000", "132511.311000", "132511.314000", "132511.317000", "132551.293000", "132551.313000", "132551.316000", "132551.318000", "132551.321000", "132551.323000", "132551.326000", "132551.328000", "132551.331000", "132551.333000", "132551.336000", "132551.338000", "132551.341000", "132551.343000", "132551.346000", "132551.348000", "132551.351000", "132551.353000", "132551.356000", "132551.359000", "132631.293000", "132631.296000", "132631.299000", "132631.301000", "132631.304000", "132631.306000", "132631.309000", "132631.311000", "132631.314000", "132631.316000", "132631.318000", "132631.321000", "132631.323000", "132631.326000", "132631.328000", "132631.331000", "132631.333000", "132631.336000", "132631.338000", "132631.341000", "132711.293000", "132711.296000", "132711.299000", "132711.302000", "132711.304000", "132711.307000", "132711.309000", "132711.312000", "132711.314000", "132711.317000", "132711.319000", "132711.322000", "132711.324000", "132711.327000", "132711.329000", "132711.332000", "132711.334000", "132711.337000", "132711.339000", "132711.342000", "132751.293000", "132751.296000", "132751.299000", "132751.313000", "132751.315000", "132751.318000", "132751.320000", "132751.323000", "132751.326000", "132751.328000", "132751.331000", "132751.333000", "132751.336000", "132751.338000", "132751.341000", "132751.343000", "132751.345000", "132751.348000", "132751.350000", "132751.353000", "132831.293000", "132831.296000", "132831.299000", "132831.301000", "132831.304000", "132831.306000", "132831.309000", "132831.311000", "132831.314000", "132831.316000", "132831.319000", "132831.321000", "132831.324000", "132831.326000", "132831.329000", "132831.331000", "132831.334000", "132831.336000", "132831.339000", "132831.341000", "132911.293000", "132911.296000", "132911.299000", "132911.301000", "132911.304000", "132911.306000", "132911.309000", "132911.311000", "132911.314000", "132911.324000", "132911.326000", "132911.329000", "132911.331000", "132911.334000", "132911.336000", "132911.339000", "132911.341000", "132911.344000", "132911.346000", "132911.349000", "132951.293000", "132951.296000", "132951.299000", "132951.302000", "132951.305000", "132951.307000", "132951.310000", "132951.312000", "132951.315000", "132951.317000", "132951.320000", "132951.322000", "132951.325000", "132951.327000", "132951.330000", "132951.332000", "132951.335000", "132951.338000", "132951.340000", "132951.343000", "133007.015000", "133007.018000", "133007.021000", "133007.023000", "133007.026000", "133007.028000", "133007.031000", "133007.033000"],
      "InstanceNumber": [1, 2, 3, 4, 5, 6, 7, 8, 9, 10, 11, 12, 13, 14, 15, 16, 17, 18, 19, 20, 21, 22, 23, 24, 25, 26, 27, 28, 29, 30, 31, 32, 33, 34, 35, 36, 37, 38, 39, 40, 41, 42, 43, 44, 45, 46, 47, 48, 49, 50, 51, 52, 53, 54, 55, 56, 57, 58, 59, 60, 61, 62, 63, 64, 65, 66, 67, 68, 69, 70, 71, 72, 73, 74, 75, 76, 77, 78, 79, 80, 81, 82, 83, 84, 85, 86, 87, 88, 89, 90, 91, 92, 93, 94, 95, 96, 97, 98, 99, 100, 101, 102, 103, 104, 105, 106, 107, 108, 109, 110, 111, 112, 113, 114, 115, 116, 117, 118, 119, 120, 121, 122, 123, 124, 125, 126, 127, 128, 129, 130, 131, 132, 133, 134, 135, 136, 137, 138, 139, 140, 141, 142, 143, 144, 145, 146, 147, 148, 149, 150, 151, 152, 153, 154, 155, 156, 157, 158, 159, 160, 161, 162, 163, 164, 165, 166, 167, 168, 169, 170, 171, 172, 173, 174, 175, 176, 177, 178, 179, 180, 181, 182, 183, 184, 185, 186, 187, 188, 189, 190, 191, 192, 193, 194, 195, 196, 197, 198, 199, 200],
      "LargestImagePixelValue": [1946, 1946, 1954, 1953, 1954, 1956, 1955, 1951, 1955, 1952, 1954, 1956, 1954, 1953, 1959, 1946, 1960, 1944, 1948, 1952, 1951, 1946, 1948, 1950, 1962, 1952, 1956, 1951, 1949, 1951, 1947, 1957, 1953, 1952, 1954, 1956, 1956, 1955, 1947, 1954, 1956, 1951, 1957, 1952, 1952, 1954, 1952, 1952, 1948, 1952, 1954, 1955, 1956, 1949, 1955, 1954, 1953, 1952, 1943, 1951, 1949, 1953, 1954, 1953, 1947, 1952, 1954, 1956, 1952, 1954, 1953, 1955, 1952, 1951, 1947, 1953, 1953, 1951, 1950, 1952, 1953, 1955, 1956, 1955, 1951, 1958, 1949, 1953, 1957, 1958, 1950, 1951, 1949, 1952, 1946, 1952, 1948, 1953, 1950, 1951, 1947, 1957, 1961, 1948, 1957, 1955, 1950, 1948, 1952, 1948, 1951, 1948, 1950, 1953, 1955, 1952, 1957, 1950, 1955, 1950, 1949, 1956, 1951, 1959, 1954, 1954, 1946, 1954, 1945, 1953, 1955, 1953, 1947, 1957, 1950, 1949, 1951, 1950, 1948, 1947, 1959, 1956, 1950, 1954, 1953, 1956, 1952, 1952, 1959, 1954, 1948, 1950, 1949, 1952, 1956, 1955, 1953, 1952, 1951, 1949, 1954, 1948, 1954, 1953, 1954, 1953, 1956, 1955, 1950, 1953, 1954, 1951, 1954, 1951, 1953, 1954, 1953, 1952, 1951, 1951, 1959, 1947, 1947, 1954, 1950, 1953, 1950, 1956, 1953, 1960, 1947, 1956, 1951, 1949, 1951, 1951, 1951, 1952, 1950, 1948],
      "WindowCenter": [958.0, 958.0, 958.0, 957.0, 957.0, 957.0, 957.0, 957.0, 957.0, 957.0, 958.0, 958.0, 957.0, 957.0, 957.0, 957.0, 957.0, 957.0, 958.0, 958.0, 957.0, 957.0, 958.0, 957.0, 958.0, 958.0, 957.0, 957.0, 958.0, 958.0, 957.0, 958.0, 958.0, 957.0, 957.0, 958.0, 957.0, 958.0, 958.0, 957.0, 958.0, 957.0, 957.0, 957.0, 958.0, 958.0, 958.0, 957.0, 957.0, 957.0, 958.0, 957.0, 957.0, 958.0, 957.0, 957.0, 957.0, 957.0, 958.0, 957.0, 958.0, 958.0, 958.0, 957.0, 957.0, 958.0, 958.0, 958.0, 957.0, 958.0, 958.0, 957.0, 957.0, 957.0, 958.0, 958.0, 957.0, 957.0, 957.0, 957.0, 957.0, 957.0, 957.0, 957.0, 957.0, 957.0, 957.0, 957.0, 957.0, 957.0, 957.0, 957.0, 957.0, 957.0, 957.0, 957.0, 957.0, 957.0, 957.0, 957.0, 957.0, 957.0, 957.0, 957.0, 957.0, 957.0, 957.0, 957.0, 957.0, 957.0, 957.0, 957.0, 957.0, 957.0, 957.0, 957.0, 957.0, 957.0, 957.0, 958.0, 957.0, 957.0, 958.0, 957.0, 957.0, 957.0, 957.0, 957.0, 957.0, 957.0, 957.0, 957.0, 957.0, 957.0, 957.0, 957.0, 958.0, 957.0, 957.0, 957.0, 957.0, 957.0, 957.0, 957.0, 957.0, 957.0, 957.0, 957.0, 957.0, 957.0, 957.0, 957.0, 957.0, 957.0, 957.0, 957.0, 957.0, 957.0, 957.0, 957.0, 956.0, 957.0, 957.0, 957.0, 957.0, 956.0, 957.0, 956.0, 958.0, 957.0, 957.0, 957.0, 957.0, 956.0, 957.0, 957.0, 958.0, 957.0, 956.0, 957.0, 957.0, 957.0, 957.0, 956.0, 957.0, 957.0, 957.0, 958.0, 957.0, 957.0, 956.0, 956.0, 957.0, 956.0, 957.0, 957.0, 957.0, 956.0, 957.0, 957.0],
      "WindowWidth": [2077.0, 2076.0, 2076.0, 2075.0, 2075.0, 2076.0, 2075.0, 2075.0, 2075.0, 2076.0, 2076.0, 2076.0, 2075.0, 2075.0, 2075.0, 2075.0, 2075.0, 2075.0, 2076.0, 2076.0, 2075.0, 2075.0, 2076.0, 2075.0, 2076.0, 2076.0, 2075.0, 2075.0, 2076.0, 2076.0, 2075.0, 2077.0, 2077.0, 2075.0, 2075.0, 2076.0, 2075.0, 2076.0, 2076.0, 2075.0, 2076.0, 2075.0, 2075.0, 2075.0, 2076.0, 2076.0, 2076.0, 2075.0, 2075.0, 2075.0, 2076.0, 2075.0, 2075.0, 2076.0, 2075.0, 2075.0, 2075.0, 2075.0, 2076.0, 2075.0, 2076.0, 2077.0, 2076.0, 2076.0, 2075.0, 2076.0, 2076.0, 2076.0, 2075.0, 2076.0, 2076.0, 2076.0, 2076.0, 2075.0, 2076.0, 2076.0, 2075.0, 2075.0, 2076.0, 2075.0, 2075.0, 2075.0, 2076.0, 2076.0, 2076.0, 2076.0, 2075.0, 2075.0, 2075.0, 2075.0, 2075.0, 2076.0, 2075.0, 2075.0, 2075.0, 2076.0, 2076.0, 2075.0, 2076.0, 2075.0, 2076.0, 2076.0, 2075.0, 2076.0, 2075.0, 2075.0, 2075.0, 2075.0, 2076.0, 2075.0, 2075.0, 2076.0, 2075.0, 2076.0, 2075.0, 2075.0, 2075.0, 2075.0, 2076.0, 2076.0, 2076.0, 2075.0, 2076.0, 2075.0, 2076.0, 2075.0, 2075.0, 2076.0, 2076.0, 2075.0, 2076.0, 2075.0, 2075.0, 2076.0, 2076.0, 2076.0, 2076.0, 2075.0, 2075.0, 2075.0, 2075.0, 2075.0, 2075.0, 2075.0, 2075.0, 2075.0, 2076.0, 2076.0, 2076.0, 2075.0, 2076.0, 2075.0, 2076.0, 2075.0, 2075.0, 2076.0, 2076.0, 2075.0, 2075.0, 2075.0, 2075.0, 2075.0, 2074.0, 2075.0, 2075.0, 2075.0, 2076.0, 2075.0, 2076.0, 2075.0, 2075.0, 2075.0, 2076.0, 2075.0, 2075.0, 2076.0, 2076.0, 2075.0, 2075.0, 2076.0, 2076.0, 2075.0, 2075.0, 2075.0, 2075.0, 2075.0, 2075.0, 2076.0, 2075.0, 2075.0, 2075.0, 2074.0, 2076.0, 2075.0, 2076.0, 2075.0, 2075.0, 2075.0, 2076.0, 2076.0]
    },
    "slices": {}
  }
}