{
  "AcquisitionNumber": 1,
  "AcquisitionTime": "12:34:59.180000",
  "BandwidthPerPixelPhaseEncode": 44.643,
  "BodyPartExamined": "BRAIN",
  "ConversionSoftware": "dcm2niix",
  "ConversionSoftwareVersion": "v1.0.20170624 GCC6.3.0",
  "DeviceSerialNumber": "66112",
  "EchoTime": 0.035,
  "EchoTrainLength": 39,
  "EffectiveEchoSpacing": 0.000279999,
  "FlipAngle": 90,
  "ImageType": [
    "ORIGINAL",
    "PRIMARY",
    "M",
    "ND",
    "NORM",
    "MOSAIC"
],
  "InstitutionAddress": "Maynard_3_Hanover_NH_US_03755",
  "InstitutionName": "Dartmouth_College_-_PBS",
  "MagneticFieldStrength": 3,
  "Manufacturer": "Siemens",
  "ManufacturersModelName": "Prisma",
  "PhaseEncodingDirection": "j-",
  "PhaseEncodingLines": 80,
  "ProcedureStepDescription": "dbic_QA",
  "ProtocolName": "func-bold_task-rest_acq-p2-s4-3.5mm",
  "RepetitionTime": 2,
  "ScanningSequence": "EP",
  "SequenceName": "_epfid2d1_80",
  "SequenceVariant": "SK",
  "SeriesDescription": "func-bold_task-rest_acq-p2-s4-3.5mm",
  "SliceTiming": [1.485, 0, 0.99, 0.2475, 1.2375, 0.7425, 1.7325, 0.495, 1.485, 0, 0.99, 0.2475, 1.2375, 0.7425, 1.7325, 0.495, 1.485, 0, 0.99, 0.2475, 1.2375, 0.7425, 1.7325, 0.495, 1.485, 0, 0.99, 0.2475, 1.2375, 0.7425, 1.7325, 0.495],
  "SoftwareVersions": "syngo_MR_E11",
  "TaskName": "rest",
  "TotalReadoutTime": 0.0218399,
  "dcmmeta_affine": [
    [-2.9594247341156006, -0.47667232155799866, -0.16064399480819702, 142.59886169433594],
    [-0.49077725410461426, 2.817136287689209, 1.2064803838729858, -103.18771362304688],
    [0.030711736530065536, -0.9146186113357544, 3.7998287677764893, -21.131223678588867],
    [0.0, 0.0, 0.0, 1.0]
],
  "dcmmeta_reorient_transform": [
    [0.0, -1.0, 0.0, 79.0],
    [1.0, 0.0, 0.0, 0.0],
    [0.0, 0.0, 1.0, 0.0],
    [0.0, 0.0, 0.0, 1.0]
],
  "dcmmeta_shape": [80, 80, 32, 200],
  "dcmmeta_slice_dim": 2,
  "dcmmeta_version": 0.6,
  "global": {
    "const": {
      "AccessionNumber": "qa",
      "AcquisitionMatrix": [80, 0, 0, 80],
      "AngioFlag": "N",
      "BitsAllocated": 16,
      "BitsStored": 12,
      "BodyPartExamined": "BRAIN",
      "Columns": 480,
      "EchoNumbers": 1,
      "EchoTime": 35.0,
      "EchoTrainLength": 39,
      "FlipAngle": 90.0,
      "HighBit": 11,
      "ImageOrientationPatient": [0.98647489573494, 0.16359241697783, 0.01023724533739, -0.1588907787917, 0.93904539697098, 0.30487286340798],
      "ImagePositionPatient": [-601.49221178593, -780.94873127691, -282.45215808792],
      "ImageType": [
        "ORIGINAL",
        "PRIMARY",
        "M",
        "ND",
        "NORM",
        "MOSAIC"
],
      "ImagedNucleus": "1H",
      "ImagingFrequency": 123.252477,
      "InPlanePhaseEncodingDirection": "COL",
      "MRAcquisitionType": "2D",
      "MagneticFieldStrength": 3.0,
      "Manufacturer": "SIEMENS",
      "ManufacturerModelName": "Prisma",
      "Modality": "MR",
      "NumberOfAverages": 1.0,
      "NumberOfPhaseEncodingSteps": 79,
      "PercentPhaseFieldOfView": 100.0,
      "PercentSampling": 100.0,
      "PerformedProcedureStepStartTime": "121301.785000",
      "PhotometricInterpretation": "MONOCHROME2",
      "PixelBandwidth": 2315.0,
      "PixelRepresentation": 0,
      "PixelSpacing": [3.0, 3.0],
      "PositionReferenceIndicator": "",
      "ProtocolName": "func-bold_task-rest_acq-p2-s4-3.5mm",
      "RepetitionTime": 2000.0,
      "Rows": 480,
      "SAR": 0.020853910693,
      "SamplesPerPixel": 1,
      "ScanOptions": "FS",
      "ScanningSequence": "EP",
      "SequenceName": "*epfid2d1_80",
      "SequenceVariant": "SK",
      "SeriesDescription": "func-bold_task-rest_acq-p2-s4-3.5mm",
      "SeriesNumber": 7,
      "SeriesTime": "123539.254000",
      "SliceLocation": -57.066825850005,
      "SliceThickness": 3.5,
      "SmallestImagePixelValue": 0,
      "SoftwareVersions": "syngo MR E11",
      "SpacingBetweenSlices": 3.9900000494808,
      "SpecificCharacterSet": "ISO_IR 100",
      "StudyID": "75",
      "StudyTime": "121301.689000",
      "TransmitCoilName": "Body",
      "VariableFlipAngleFlag": "N",
      "WindowCenter": 926.0,
      "WindowCenterWidthExplanation": "Algo1",
      "dBdt": 0.0},
    "slices": {}
  },
  "time": {
    "samples": {
      "AcquisitionNumber": [1, 2, 3, 4, 5, 6, 7, 8, 9, 10, 11, 12, 13, 14, 15, 16, 17, 18, 19, 20, 21, 22, 23, 24, 25, 26, 27, 28, 29, 30, 31, 32, 33, 34, 35, 36, 37, 38, 39, 40, 41, 42, 43, 44, 45, 46, 47, 48, 49, 50, 51, 52, 53, 54, 55, 56, 57, 58, 59, 60, 61, 62, 63, 64, 65, 66, 67, 68, 69, 70, 71, 72, 73, 74, 75, 76, 77, 78, 79, 80, 81, 82, 83, 84, 85, 86, 87, 88, 89, 90, 91, 92, 93, 94, 95, 96, 97, 98, 99, 100, 101, 102, 103, 104, 105, 106, 107, 108, 109, 110, 111, 112, 113, 114, 115, 116, 117, 118, 119, 120, 121, 122, 123, 124, 125, 126, 127, 128, 129, 130, 131, 132, 133, 134, 135, 136, 137, 138, 139, 140, 141, 142, 143, 144, 145, 146, 147, 148, 149, 150, 151, 152, 153, 154, 155, 156, 157, 158, 159, 160, 161, 162, 163, 164, 165, 166, 167, 168, 169, 170, 171, 172, 173, 174, 175, 176, 177, 178, 179, 180, 181, 182, 183, 184, 185, 186, 187, 188, 189, 190, 191, 192, 193, 194, 195, 196, 197, 198, 199, 200],
      "AcquisitionTime": ["123459.180000", "123501.180000", "123503.180000", "123505.180000", "123507.180000", "123509.180000", "123511.180000", "123513.180000", "123515.180000", "123517.180000", "123519.180000", "123521.180000", "123523.180000", "123525.180000", "123527.180000", "123529.180000", "123531.180000", "123533.180000", "123535.180000", "123537.180000", "123539.180000", "123541.180000", "123543.180000", "123545.180000", "123547.180000", "123549.180000", "123551.180000", "123553.180000", "123555.180000", "123557.180000", "123559.180000", "123601.180000", "123603.180000", "123605.180000", "123607.180000", "123609.180000", "123611.180000", "123613.180000", "123615.180000", "123617.180000", "123619.180000", "123621.180000", "123623.180000", "123625.180000", "123627.180000", "123629.180000", "123631.180000", "123633.180000", "123635.180000", "123637.180000", "123639.180000", "123641.180000", "123643.180000", "123645.180000", "123647.180000", "123649.180000", "123651.180000", "123653.180000", "123655.180000", "123657.180000", "123659.180000", "123701.180000", "123703.180000", "123705.180000", "123707.180000", "123709.180000", "123711.180000", "123713.180000", "123715.180000", "123717.180000", "123719.180000", "123721.180000", "123723.180000", "123725.180000", "123727.180000", "123729.180000", "123731.180000", "123733.180000", "123735.180000", "123737.180000", "123739.180000", "123741.180000", "123743.180000", "123745.180000", "123747.180000", "123749.180000", "123751.180000", "123753.180000", "123755.180000", "123757.180000", "123759.180000", "123801.180000", "123803.180000", "123805.180000", "123807.180000", "123809.180000", "123811.180000", "123813.180000", "123815.180000", "123817.180000", "123819.180000", "123821.180000", "123823.180000", "123825.180000", "123827.180000", "123829.180000", "123831.180000", "123833.180000", "123835.180000", "123837.180000", "123839.180000", "123841.180000", "123843.180000", "123845.180000", "123847.180000", "123849.180000", "123851.180000", "123853.180000", "123855.180000", "123857.180000", "123859.180000", "123901.180000", "123903.180000", "123905.180000", "123907.180000", "123909.180000", "123911.180000", "123913.180000", "123915.180000", "123917.180000", "123919.180000", "123921.180000", "123923.180000", "123925.180000", "123927.180000", "123929.180000", "123931.180000", "123933.180000", "123935.180000", "123937.180000", "123939.180000", "123941.180000", "123943.180000", "123945.180000", "123947.180000", "123949.180000", "123951.180000", "123953.180000", "123955.180000", "123957.180000", "123959.180000", "124001.180000", "124003.180000", "124005.180000", "124007.180000", "124009.180000", "124011.180000", "124013.180000", "124015.180000", "124017.180000", "124019.180000", "124021.180000", "124023.180000", "124025.180000", "124027.180000", "124029.180000", "124031.180000", "124033.180000", "124035.180000", "124037.180000", "124039.180000", "124041.180000", "124043.180000", "124045.180000", "124047.180000", "124049.180000", "124051.180000", "124053.180000", "124055.180000", "124057.180000", "124059.180000", "124101.180000", "124103.180000", "124105.180000", "124107.180000", "124109.180000", "124111.180000", "124113.180000", "124115.180000", "124117.180000", "124119.180000", "124121.180000", "124123.180000", "124125.180000", "124127.180000", "124129.180000", "124131.180000", "124133.180000", "124135.180000", "124137.180000"],
      "ContentTime": ["123539.257000", "123539.260000", "123539.263000", "123539.266000", "123539.268000", "123539.278000", "123539.280000", "123539.283000", "123539.285000", "123539.288000", "123539.290000", "123539.293000", "123539.295000", "123539.298000", "123539.300000", "123539.303000", "123539.305000", "123539.308000", "123539.310000", "123539.320000", "123619.253000", "123619.255000", "123619.258000", "123619.261000", "123619.263000", "123619.266000", "123619.268000", "123619.271000", "123619.273000", "123619.276000", "123619.278000", "123619.281000", "123619.283000", "123619.286000", "123619.289000", "123619.291000", "123619.294000", "123619.296000", "123619.299000", "123619.301000", "123659.253000", "123659.256000", "123659.259000", "123659.261000", "123659.264000", "123659.266000", "123659.269000", "123659.272000", "123659.274000", "123659.277000", "123659.279000", "123659.282000", "123659.284000", "123659.287000", "123659.289000", "123659.292000", "123659.294000", "123659.297000", "123659.300000", "123659.302000", "123739.253000", "123739.256000", "123739.259000", "123739.261000", "123739.264000", "123739.266000", "123739.269000", "123739.272000", "123739.274000", "123739.277000", "123739.279000", "123739.282000", "123739.284000", "123739.287000", "123739.289000", "123739.292000", "123739.294000", "123739.297000", "123739.299000", "123739.302000", "123819.252000", "123819.255000", "123819.258000", "123819.261000", "123819.263000", "123819.266000", "123819.268000", "123819.271000", "123819.273000", "123819.276000", "123819.278000", "123819.281000", "123819.283000", "123819.286000", "123819.289000", "123819.291000", "123819.294000", "123819.296000", "123819.299000", "123819.301000", "123859.253000", "123859.256000", "123859.259000", "123859.261000", "123859.264000", "123859.266000", "123859.269000", "123859.272000", "123859.274000", "123859.277000", "123859.279000", "123859.282000", "123859.284000", "123859.287000", "123859.289000", "123859.292000", "123859.294000", "123859.304000", "123859.307000", "123859.309000", "123939.253000", "123939.256000", "123939.259000", "123939.261000", "123939.264000", "123939.266000", "123939.269000", "123939.272000", "123939.274000", "123939.277000", "123939.279000", "123939.290000", "123939.293000", "123939.295000", "123939.298000", "123939.300000", "123939.303000", "123939.305000", "123939.308000", "123939.311000", "124019.252000", "124019.255000", "124019.258000", "124019.260000", "124019.263000", "124019.265000", "124019.268000", "124019.271000", "124019.273000", "124019.276000", "124019.278000", "124019.281000", "124019.283000", "124019.286000", "124019.288000", "124019.291000", "124019.293000", "124019.296000", "124019.299000", "124019.301000", "124059.253000", "124059.255000", "124059.258000", "124059.261000", "124059.263000", "124059.266000", "124059.268000", "124059.271000", "124059.273000", "124059.276000", "124059.283000", "124059.286000", "124059.298000", "124059.300000", "124059.303000", "124059.306000", "124059.308000", "124059.311000", "124059.313000", "124059.316000", "124138.205000", "124138.208000", "124138.211000", "124138.213000", "124138.216000", "124138.219000", "124138.221000", "124138.224000", "124138.226000", "124138.229000", "124138.232000", "124138.234000", "124138.238000", "124138.244000", "124138.249000", "124138.254000", "124138.257000", "124138.261000", "124138.267000", "124138.269000"],
      "InstanceCreationTime": ["123539.257000", "123539.260000", "123539.263000", "123539.266000", "123539.268000", "123539.278000", "123539.280000", "123539.283000", "123539.285000", "123539.288000", "123539.290000", "123539.293000", "123539.295000", "123539.298000", "123539.300000", "123539.303000", "123539.305000", "123539.308000", "123539.310000", "123539.320000", "123619.253000", "123619.255000", "123619.258000", "123619.261000", "123619.263000", "123619.266000", "123619.268000", "123619.271000", "123619.273000", "123619.276000", "123619.278000", "123619.281000", "123619.283000", "123619.286000", "123619.289000", "123619.291000", "123619.294000", "123619.296000", "123619.299000", "123619.301000", "123659.253000", "123659.256000", "123659.259000", "123659.261000", "123659.264000", "123659.266000", "123659.269000", "123659.272000", "123659.274000", "123659.277000", "123659.279000", "123659.282000", "123659.284000", "123659.287000", "123659.289000", "123659.292000", "123659.294000", "123659.297000", "123659.300000", "123659.302000", "123739.253000", "123739.256000", "123739.259000", "123739.261000", "123739.264000", "123739.266000", "123739.269000", "123739.272000", "123739.274000", "123739.277000", "123739.279000", "123739.282000", "123739.284000", "123739.287000", "123739.289000", "123739.292000", "123739.294000", "123739.297000", "123739.299000", "123739.302000", "123819.252000", "123819.255000", "123819.258000", "123819.261000", "123819.263000", "123819.266000", "123819.268000", "123819.271000", "123819.273000", "123819.276000", "123819.278000", "123819.281000", "123819.283000", "123819.286000", "123819.289000", "123819.291000", "123819.294000", "123819.296000", "123819.299000", "123819.301000", "123859.253000", "123859.256000", "123859.259000", "123859.261000", "123859.264000", "123859.266000", "123859.269000", "123859.272000", "123859.274000", "123859.277000", "123859.279000", "123859.282000", "123859.284000", "123859.287000", "123859.289000", "123859.292000", "123859.294000", "123859.304000", "123859.307000", "123859.309000", "123939.253000", "123939.256000", "123939.259000", "123939.261000", "123939.264000", "123939.266000", "123939.269000", "123939.272000", "123939.274000", "123939.277000", "123939.279000", "123939.290000", "123939.293000", "123939.295000", "123939.298000", "123939.300000", "123939.303000", "123939.305000", "123939.308000", "123939.311000", "124019.252000", "124019.255000", "124019.258000", "124019.260000", "124019.263000", "124019.265000", "124019.268000", "124019.271000", "124019.273000", "124019.276000", "124019.278000", "124019.281000", "124019.283000", "124019.286000", "124019.288000", "124019.291000", "124019.293000", "124019.296000", "124019.299000", "124019.301000", "124059.253000", "124059.255000", "124059.258000", "124059.261000", "124059.263000", "124059.266000", "124059.268000", "124059.271000", "124059.273000", "124059.276000", "124059.283000", "124059.286000", "124059.298000", "124059.300000", "124059.303000", "124059.306000", "124059.308000", "124059.311000", "124059.313000", "124059.316000", "124138.205000", "124138.208000", "124138.211000", "124138.213000", "124138.216000", "124138.219000", "124138.221000", "124138.224000", "124138.226000", "124138.229000", "124138.232000", "124138.234000", "124138.238000", "124138.244000", "124138.249000", "124138.254000", "124138.257000", "124138.261000", "124138.267000", "124138.269000"],
      "InstanceNumber": [1, 2, 3, 4, 5, 6, 7, 8, 9, 10, 11, 12, 13, 14, 15, 16, 17, 18, 19, 20, 21, 22, 23, 24, 25, 26, 27, 28, 29, 30, 31, 32, 33, 34, 35, 36, 37, 38, 39, 40, 41, 42, 43, 44, 45, 46, 47, 48, 49, 50, 51, 52, 53, 54, 55, 56, 57, 58, 59, 60, 61, 62, 63, 64, 65, 66, 67, 68, 69, 70, 71, 72, 73, 74, 75, 76, 77, 78, 79, 80, 81, 82, 83, 84, 85, 86, 87, 88, 89, 90, 91, 92, 93, 94, 95, 96, 97, 98, 99, 100, 101, 102, 103, 104, 105, 106, 107, 108, 109, 110, 111, 112, 113, 114, 115, 116, 117, 118, 119, 120, 121, 122, 123, 124, 125, 126, 127, 128, 129, 130, 131, 132, 133, 134, 135, 136, 137, 138, 139, 140, 141, 142, 143, 144, 145, 146, 147, 148, 149, 150, 151, 152, 153, 154, 155, 156, 157, 158, 159, 160, 161, 162, 163, 164, 165, 166, 167, 168, 169, 170, 171, 172, 173, 174, 175, 176, 177, 178, 179, 180, 181, 182, 183, 184, 185, 186, 187, 188, 189, 190, 191, 192, 193, 194, 195, 196, 197, 198, 199, 200],
      "LargestImagePixelValue": [2020, 2021, 2020, 2022, 2023, 2014, 2020, 2023, 2019, 2020, 2021, 2020, 2018, 2023, 2019, 2026, 2021, 2019, 2024, 2020, 2021, 2023, 2022, 2022, 2017, 2019, 2023, 2025, 2019, 2020, 2020, 2023, 2020, 2030, 2021, 2022, 2021, 2021, 2023, 2022, 2018, 2021, 2022, 2024, 2022, 2024, 2022, 2026, 2025, 2025, 2022, 2022, 2021, 2025, 2025, 2024, 2020, 2022, 2019, 2022, 2020, 2023, 2021, 2019, 2020, 2023, 2021, 2025, 2024, 2022, 2022, 2021, 2021, 2023, 2023, 2021, 2019, 2019, 2022, 2017, 2024, 2020, 2021, 2023, 2024, 2021, 2024, 2023, 2025, 2022, 2022, 2023, 2022, 2022, 2020, 2019, 2019, 2020, 2025, 2026, 2027, 2023, 2023, 2020, 2023, 2026, 2024, 2023, 2018, 2019, 2025, 2020, 2025, 2023, 2024, 2023, 2027, 2021, 2027, 2025, 2022, 2021, 2020, 2021, 2022, 2025, 2021, 2028, 2023, 2022, 2029, 2024, 2026, 2026, 2023, 2015, 2025, 2027, 2030, 2024, 2022, 2024, 2022, 2025, 2021, 2018, 2021, 2019, 2019, 2018, 2021, 2021, 2022, 2020, 2017, 2023, 2020, 2021, 2025, 2018, 2017, 2025, 2025, 2021, 2020, 2018, 2023, 2022, 2024, 2024, 2022, 2023, 2019, 2022, 2024, 2023, 2021, 2021, 2019, 2023, 2023, 2025, 2020, 2023, 2021, 2023, 2020, 2025, 2027, 2021, 2026, 2025, 2022, 2022, 2026, 2026, 2020, 2025, 2021, 2020],
      "WindowWidth": [2115.0, 2114.0, 2115.0, 2115.0, 2115.0, 2115.0, 2115.0, 2115.0, 2115.0, 2114.0, 2115.0, 2115.0, 2115.0, 2115.0, 2115.0, 2115.0, 2115.0, 2115.0, 2115.0, 2115.0, 2115.0, 2115.0, 2115.0, 2115.0, 2115.0, 2115.0, 2115.0, 2115.0, 2115.0, 2115.0, 2115.0, 2115.0, 2115.0, 2115.0, 2115.0, 2115.0, 2115.0, 2115.0, 2115.0, 2115.0, 2115.0, 2115.0, 2115.0, 2115.0, 2115.0, 2115.0, 2115.0, 2115.0, 2115.0, 2115.0, 2115.0, 2115.0, 2115.0, 2115.0, 2115.0, 2115.0, 2115.0, 2115.0, 2115.0, 2115.0, 2115.0, 2115.0, 2115.0, 2115.0, 2115.0, 2115.0, 2115.0, 2115.0, 2115.0, 2115.0, 2115.0, 2115.0, 2115.0, 2115.0, 2115.0, 2115.0, 2115.0, 2115.0, 2115.0, 2115.0, 2115.0, 2115.0, 2115.0, 2115.0, 2115.0, 2115.0, 2116.0, 2115.0, 2115.0, 2115.0, 2115.0, 2115.0, 2115.0, 2115.0, 2115.0, 2115.0, 2115.0, 2115.0, 2115.0, 2115.0, 2115.0, 2115.0, 2115.0, 2115.0, 2115.0, 2115.0, 2115.0, 2115.0, 2115.0, 2115.0, 2115.0, 2115.0, 2115.0, 2115.0, 2115.0, 2115.0, 2115.0, 2115.0, 2115.0, 2115.0, 2115.0, 2115.0, 2115.0, 2115.0, 2115.0, 2115.0, 2115.0, 2115.0, 2115.0, 2115.0, 2115.0, 2115.0, 2115.0, 2115.0, 2115.0, 2115.0, 2115.0, 2115.0, 2115.0, 2115.0, 2115.0, 2115.0, 2115.0, 2115.0, 2115.0, 2115.0, 2115.0, 2115.0, 2115.0, 2115.0, 2115.0, 2115.0, 2115.0, 2115.0, 2115.0, 2115.0, 2115.0, 2115.0, 2115.0, 2115.0, 2115.0, 2115.0, 2115.0, 2115.0, 2115.0, 2115.0, 2115.0, 2115.0, 2115.0, 2115.0, 2115.0, 2115.0, 2115.0, 2115.0, 2115.0, 2115.0, 2115.0, 2115.0, 2115.0, 2115.0, 2115.0, 2115.0, 2115.0, 2115.0, 2115.0, 2115.0, 2115.0, 2115.0, 2115.0, 2115.0, 2115.0, 2115.0, 2115.0, 2115.0, 2115.0, 2115.0, 2115.0, 2115.0, 2115.0, 2115.0]
    },
    "slices": {}
  }
}