{
  "AcquisitionMatrixPE": 80,
  "AcquisitionNumber": 1,
  "AcquisitionTime": "09:08:17.495000",
  "BandwidthPerPixelPhaseEncode": 25,
  "BaseResolution": 80,
  "BodyPartExamined": "BRAIN",
  "CoilCombinationMethod": "Sum of Squares",
  "ConsistencyInfo": "N4_VE11E_LATEST_20181129",
  "ConversionSoftware": "dcm2niix",
  "ConversionSoftwareVersion": "v1.0.20220720",
  "DerivedVendorReportedEchoSpacing": 0.0005,
  "DeviceSerialNumber": "66112",
  "DwellTime": 2.7e-06,
  "EchoTime": 0.03,
  "EchoTrainLength": 80,
  "EffectiveEchoSpacing": 0.0005,
  "FlipAngle": 77,
  "HeudiconvVersion": "0.13.1",
  "ImageOrientationPatientDICOM": [0.988059, -0.154074, -0.00107918, 0.146609, 0.937987, 0.314145],
  "ImageOrientationText": "Tra>Cor(18.1)>Sag(2.7)",
  "ImageType": [
    "ORIGINAL",
    "PRIMARY",
    "M",
    "ND",
    "NORM",
    "MOSAIC"
],
  "ImagingFrequency": 123.259,
  "InPlanePhaseEncodingDirectionDICOM": "COL",
  "InstitutionAddress": "Maynard 3,Hanover,NH,US,03755",
  "InstitutionName": "Dartmouth College - PBS",
  "InstitutionalDepartmentName": "Department",
  "MRAcquisitionType": "2D",
  "MagneticFieldStrength": 3,
  "Manufacturer": "Siemens",
  "ManufacturersModelName": "Prisma",
  "MatrixCoilMode": "SENSE",
  "Modality": "MR",
  "NonlinearGradientCorrection": false,
  "PartialFourier": 1,
  "PatientPosition": "HFS",
  "PercentPhaseFOV": 100,
  "PercentSampling": 100,
  "PhaseEncodingDirection": "j-",
  "PhaseEncodingSteps": 80,
  "PhaseResolution": 1,
  "PixelBandwidth": 2315,
  "ProcedureStepDescription": "dbic^QA",
  "ProtocolName": "func-bold_fa-77",
  "PulseSequenceDetails": "%SiemensSeq%\\ep2d_bold",
  "ReceiveCoilActiveElements": "HC1-7;NC1,2",
  "ReceiveCoilName": "HeadNeck_64",
  "ReconMatrixPE": 80,
  "RepetitionTime": 2,
  "SAR": 0.0284731,
  "ScanOptions": "FS",
  "ScanningSequence": "EP",
  "SequenceName": "*epfid2d1_80",
  "SequenceVariant": "SK",
  "SeriesDescription": "func-bold_fa-77",
  "SeriesNumber": 7,
  "ShimSetting": [4219, -7743, -7487, -119, -159, -88, -77, 78],
  "SliceThickness": 3.5,
  "SliceTiming": [0.99, 0, 1.0575, 0.0675, 1.1225, 0.1325, 1.19, 0.2, 1.255, 0.265, 1.32, 0.33, 1.3875, 0.3975, 1.4525, 0.4625, 1.52, 0.53, 1.585, 0.595, 1.65, 0.66, 1.7175, 0.7275, 1.7825, 0.7925, 1.8475, 0.86, 1.915, 0.925],
  "SoftwareVersions": "syngo MR E11",
  "SpacingBetweenSlices": 3.99,
  "StationName": "AWP66112",
  "TotalReadoutTime": 0.0395,
  "TxRefAmp": 214.956,
  "dcmmeta_affine": [
    [-2.9641764163970947, 0.4398263096809387, 0.1890830099582672, 99.395751953125],
    [0.4622211158275604, 2.8139595985412598, 1.2391021251678467, -128.29151916503906],
    [-0.00323753640986979, -0.9424349665641785, 3.788003921508789, -18.934402465820312],
    [0.0, 0.0, 0.0, 1.0]
],
  "dcmmeta_reorient_transform": [
    [0.0, -1.0, 0.0, 79.0],
    [1.0, 0.0, 0.0, 0.0],
    [0.0, 0.0, 1.0, 0.0],
    [0.0, 0.0, 0.0, 1.0]
],
  "dcmmeta_shape": [80, 80, 30, 200],
  "dcmmeta_slice_dim": 2,
  "dcmmeta_version": 0.6,
  "global": {
    "const": {
      "AccessionNumber": "qa64",
      "AcquisitionMatrix": [80, 0, 0, 80],
      "AngioFlag": "N",
      "BitsAllocated": 16,
      "BitsStored": 12,
      "BodyPartExamined": "BRAIN",
      "Columns": 480,
      "EchoNumbers": 1,
      "EchoTime": 30.0,
      "EchoTrainLength": 80,
      "FlipAngle": 77.0,
      "HighBit": 11,
      "ImageOrientationPatient": [0.98805876813584, -0.1540737034117, -0.0010791787969, 0.14660877204851, 0.93798656686143, 0.31414497981973],
      "ImagePositionPatient": [-814.94255656602, -564.35901399091, -281.22624346619],
      "ImageType": [
        "ORIGINAL",
        "PRIMARY",
        "M",
        "ND",
        "NORM",
        "MOSAIC"
],
      "ImagedNucleus": "1H",
      "ImagingFrequency": 123.259342,
      "InPlanePhaseEncodingDirection": "COL",
      "MRAcquisitionType": "2D",
      "MagneticFieldStrength": 3.0,
      "Manufacturer": "SIEMENS",
      "ManufacturerModelName": "Prisma",
      "Modality": "MR",
      "NumberOfAverages": 1.0,
      "NumberOfPhaseEncodingSteps": 80,
      "PercentPhaseFieldOfView": 100.0,
      "PercentSampling": 100.0,
      "PerformedProcedureStepStartTime": "085452.343000",
      "PhotometricInterpretation": "MONOCHROME2",
      "PixelBandwidth": 2315.0,
      "PixelRepresentation": 0,
      "PixelSpacing": [3.0, 3.0],
      "ProtocolName": "func-bold_fa-77",
      "RepetitionTime": 2000.0,
      "Rows": 480,
      "SAR": 0.02847305042527,
      "SamplesPerPixel": 1,
      "ScanOptions": "FS",
      "ScanningSequence": "EP",
      "SequenceName": "*epfid2d1_80",
      "SequenceVariant": "SK",
      "SeriesDescription": "func-bold_fa-77",
      "SeriesNumber": 7,
      "SeriesTime": "090914.835000",
      "SliceLocation": -53.10672738907,
      "SliceThickness": 3.5,
      "SmallestImagePixelValue": 0,
      "SoftwareVersions": "syngo MR E11",
      "SpacingBetweenSlices": 3.9899999510293,
      "SpecificCharacterSet": "ISO_IR 100",
      "StudyID": "5",
      "StudyTime": "085452.182000",
      "TransmitCoilName": "Body",
      "VariableFlipAngleFlag": "N",
      "WindowCenterWidthExplanation": "Algo1"
    },
    "slices": {}
  },
  "time": {
    "samples": {
      "AcquisitionNumber": [1, 2, 3, 4, 5, 6, 7, 8, 9, 10, 11, 12, 13, 14, 15, 16, 17, 18, 19, 20, 21, 22, 23, 24, 25, 26, 27, 28, 29, 30, 31, 32, 33, 34, 35, 36, 37, 38, 39, 40, 41, 42, 43, 44, 45, 46, 47, 48, 49, 50, 51, 52, 53, 54, 55, 56, 57, 58, 59, 60, 61, 62, 63, 64, 65, 66, 67, 68, 69, 70, 71, 72, 73, 74, 75, 76, 77, 78, 79, 80, 81, 82, 83, 84, 85, 86, 87, 88, 89, 90, 91, 92, 93, 94, 95, 96, 97, 98, 99, 100, 101, 102, 103, 104, 105, 106, 107, 108, 109, 110, 111, 112, 113, 114, 115, 116, 117, 118, 119, 120, 121, 122, 123, 124, 125, 126, 127, 128, 129, 130, 131, 132, 133, 134, 135, 136, 137, 138, 139, 140, 141, 142, 143, 144, 145, 146, 147, 148, 149, 150, 151, 152, 153, 154, 155, 156, 157, 158, 159, 160, 161, 162, 163, 164, 165, 166, 167, 168, 169, 170, 171, 172, 173, 174, 175, 176, 177, 178, 179, 180, 181, 182, 183, 184, 185, 186, 187, 188, 189, 190, 191, 192, 193, 194, 195, 196, 197, 198, 199, 200],
      "AcquisitionTime": ["090817.495000", "090819.495000", "090821.495000", "090823.495000", "090825.495000", "090827.495000", "090829.495000", "090831.495000", "090833.495000", "090835.495000", "090837.495000", "090839.495000", "090841.495000", "090843.495000", "090845.495000", "090847.495000", "090849.495000", "090851.495000", "090853.495000", "090855.495000", "090857.495000", "090859.495000", "090901.495000", "090903.495000", "090905.495000", "090907.495000", "090909.495000", "090911.495000", "090913.495000", "090915.495000", "090917.495000", "090919.495000", "090921.495000", "090923.495000", "090925.495000", "090927.495000", "090929.495000", "090931.495000", "090933.495000", "090935.495000", "090937.495000", "090939.495000", "090941.495000", "090943.495000", "090945.495000", "090947.495000", "090949.495000", "090951.495000", "090953.495000", "090955.495000", "090957.495000", "090959.495000", "091001.495000", "091003.495000", "091005.495000", "091007.495000", "091009.495000", "091011.495000", "091013.495000", "091015.495000", "091017.495000", "091019.495000", "091021.495000", "091023.495000", "091025.495000", "091027.495000", "091029.495000", "091031.495000", "091033.495000", "091035.495000", "091037.495000", "091039.495000", "091041.495000", "091043.495000", "091045.495000", "091047.495000", "091049.495000", "091051.495000", "091053.495000", "091055.495000", "091057.495000", "091059.495000", "091101.495000", "091103.495000", "091105.495000", "091107.495000", "091109.495000", "091111.495000", "091113.495000", "091115.495000", "091117.495000", "091119.495000", "091121.495000", "091123.495000", "091125.495000", "091127.495000", "091129.495000", "091131.495000", "091133.495000", "091135.495000", "091137.495000", "091139.495000", "091141.495000", "091143.495000", "091145.495000", "091147.495000", "091149.495000", "091151.495000", "091153.495000", "091155.495000", "091157.495000", "091159.495000", "091201.495000", "091203.495000", "091205.495000", "091207.495000", "091209.495000", "091211.495000", "091213.495000", "091215.495000", "091217.495000", "091219.495000", "091221.495000", "091223.495000", "091225.495000", "091227.495000", "091229.495000", "091231.495000", "091233.495000", "091235.495000", "091237.495000", "091239.495000", "091241.495000", "091243.495000", "091245.495000", "091247.495000", "091249.495000", "091251.495000", "091253.495000", "091255.495000", "091257.495000", "091259.495000", "091301.495000", "091303.495000", "091305.495000", "091307.495000", "091309.495000", "091311.495000", "091313.495000", "091315.495000", "091317.495000", "091319.495000", "091321.495000", "091323.495000", "091325.495000", "091327.495000", "091329.495000", "091331.495000", "091333.495000", "091335.495000", "091337.495000", "091339.495000", "091341.495000", "091343.495000", "091345.495000", "091347.495000", "091349.495000", "091351.495000", "091353.495000", "091355.495000", "091357.495000", "091359.495000", "091401.495000", "091403.495000", "091405.495000", "091407.495000", "091409.495000", "091411.495000", "091413.495000", "091415.495000", "091417.495000", "091419.495000", "091421.495000", "091423.495000", "091425.495000", "091427.495000", "091429.495000", "091431.495000", "091433.495000", "091435.495000", "091437.495000", "091439.495000", "091441.495000", "091443.495000", "091445.495000", "091447.495000", "091449.495000", "091451.495000", "091453.495000", "091455.495000"],
      "ContentTime": ["090914.838000", "090914.841000", "090914.843000", "090914.846000", "090914.848000", "090914.851000", "090914.853000", "090914.855000", "090914.857000", "090914.860000", "090914.862000", "090914.865000", "090914.867000", "090914.869000", "090914.871000", "090914.874000", "090914.876000", "090914.878000", "090914.881000", "090914.883000", "090914.886000", "090914.888000", "090914.890000", "090914.900000", "090914.902000", "090914.905000", "090914.907000", "090914.909000", "090954.834000", "090954.837000", "090954.839000", "090954.842000", "090954.844000", "090954.846000", "090954.849000", "090954.851000", "090954.860000", "090954.863000", "090954.865000", "090954.867000", "090954.870000", "090954.872000", "090954.874000", "090954.877000", "090954.879000", "090954.881000", "090954.883000", "090954.886000", "091034.833000", "091034.836000", "091034.838000", "091034.841000", "091034.843000", "091034.845000", "091034.848000", "091034.850000", "091034.852000", "091034.855000", "091034.857000", "091034.859000", "091034.862000", "091034.864000", "091034.866000", "091034.869000", "091034.871000", "091034.873000", "091034.876000", "091034.878000", "091114.833000", "091114.836000", "091114.838000", "091114.841000", "091114.843000", "091114.846000", "091114.848000", "091114.850000", "091114.852000", "091114.855000", "091114.857000", "091114.859000", "091114.862000", "091114.864000", "091114.866000", "091114.869000", "091114.871000", "091114.873000", "091114.876000", "091114.878000", "091154.834000", "091154.837000", "091154.839000", "091154.842000", "091154.844000", "091154.846000", "091154.849000", "091154.851000", "091154.853000", "091154.856000", "091154.858000", "091154.860000", "091154.863000", "091154.865000", "091154.867000", "091154.870000", "091154.872000", "091154.874000", "091154.877000", "091154.879000", "091234.834000", "091234.837000", "091234.839000", "091234.841000", "091234.844000", "091234.846000", "091234.848000", "091234.851000", "091234.853000", "091234.855000", "091234.858000", "091234.860000", "091234.862000", "091234.865000", "091234.867000", "091234.869000", "091234.872000", "091234.886000", "091234.888000", "091234.890000", "091314.833000", "091314.836000", "091314.839000", "091314.841000", "091314.843000", "091314.846000", "091314.848000", "091314.851000", "091314.853000", "091314.855000", "091314.858000", "091314.860000", "091314.862000", "091314.865000", "091314.867000", "091314.869000", "091314.872000", "091314.874000", "091314.876000", "091314.879000", "091354.833000", "091354.836000", "091354.838000", "091354.840000", "091354.843000", "091354.845000", "091354.847000", "091354.850000", "091354.852000", "091354.854000", "091354.857000", "091354.859000", "091354.861000", "091354.864000", "091354.866000", "091354.868000", "091354.871000", "091354.873000", "091354.875000", "091354.878000", "091434.834000", "091434.837000", "091434.839000", "091434.842000", "091434.844000", "091434.847000", "091434.849000", "091434.851000", "091434.853000", "091434.856000", "091434.858000", "091434.860000", "091434.863000", "091434.865000", "091434.867000", "091434.870000", "091434.872000", "091434.874000", "091434.877000", "091434.879000", "091457.044000", "091457.050000", "091457.052000", "091457.055000", "091457.057000", "091457.060000", "091457.062000", "091457.065000", "091457.067000", "091457.070000", "091457.072000", "091457.075000"],
      "InstanceCreationTime": ["090914.838000", "090914.841000", "090914.843000", "090914.846000", "090914.848000", "090914.851000", "090914.853000", "090914.855000", "090914.857000", "090914.860000", "090914.862000", "090914.865000", "090914.867000", "090914.869000", "090914.871000", "090914.874000", "090914.876000", "090914.878000", "090914.881000", "090914.883000", "090914.886000", "090914.888000", "090914.890000", "090914.900000", "090914.902000", "090914.905000", "090914.907000", "090914.909000", "090954.834000", "090954.837000", "090954.839000", "090954.842000", "090954.844000", "090954.846000", "090954.849000", "090954.851000", "090954.860000", "090954.863000", "090954.865000", "090954.867000", "090954.870000", "090954.872000", "090954.874000", "090954.877000", "090954.879000", "090954.881000", "090954.883000", "090954.886000", "091034.833000", "091034.836000", "091034.838000", "091034.841000", "091034.843000", "091034.845000", "091034.848000", "091034.850000", "091034.852000", "091034.855000", "091034.857000", "091034.859000", "091034.862000", "091034.864000", "091034.866000", "091034.869000", "091034.871000", "091034.873000", "091034.876000", "091034.878000", "091114.833000", "091114.836000", "091114.838000", "091114.841000", "091114.843000", "091114.846000", "091114.848000", "091114.850000", "091114.852000", "091114.855000", "091114.857000", "091114.859000", "091114.862000", "091114.864000", "091114.866000", "091114.869000", "091114.871000", "091114.873000", "091114.876000", "091114.878000", "091154.834000", "091154.837000", "091154.839000", "091154.842000", "091154.844000", "091154.846000", "091154.849000", "091154.851000", "091154.853000", "091154.856000", "091154.858000", "091154.860000", "091154.863000", "091154.865000", "091154.867000", "091154.870000", "091154.872000", "091154.874000", "091154.877000", "091154.879000", "091234.834000", "091234.837000", "091234.839000", "091234.841000", "091234.844000", "091234.846000", "091234.848000", "091234.851000", "091234.853000", "091234.855000", "091234.858000", "091234.860000", "091234.862000", "091234.865000", "091234.867000", "091234.869000", "091234.872000", "091234.886000", "091234.888000", "091234.890000", "091314.833000", "091314.836000", "091314.839000", "091314.841000", "091314.843000", "091314.846000", "091314.848000", "091314.851000", "091314.853000", "091314.855000", "091314.858000", "091314.860000", "091314.862000", "091314.865000", "091314.867000", "091314.869000", "091314.872000", "091314.874000", "091314.876000", "091314.879000", "091354.833000", "091354.836000", "091354.838000", "091354.840000", "091354.843000", "091354.845000", "091354.847000", "091354.850000", "091354.852000", "091354.854000", "091354.857000", "091354.859000", "091354.861000", "091354.864000", "091354.866000", "091354.868000", "091354.871000", "091354.873000", "091354.875000", "091354.878000", "091434.834000", "091434.837000", "091434.839000", "091434.842000", "091434.844000", "091434.847000", "091434.849000", "091434.851000", "091434.853000", "091434.856000", "091434.858000", "091434.860000", "091434.863000", "091434.865000", "091434.867000", "091434.870000", "091434.872000", "091434.874000", "091434.877000", "091434.879000", "091457.044000", "091457.050000", "091457.052000", "091457.055000", "091457.057000", "091457.060000", "091457.062000", "091457.065000", "091457.067000", "091457.070000", "091457.072000", "091457.075000"],
      "InstanceNumber": [1, 2, 3, 4, 5, 6, 7, 8, 9, 10, 11, 12, 13, 14, 15, 16, 17, 18, 19, 20, 21, 22, 23, 24, 25, 26, 27, 28, 29, 30, 31, 32, 33, 34, 35, 36, 37, 38, 39, 40, 41, 42, 43, 44, 45, 46, 47, 48, 49, 50, 51, 52, 53, 54, 55, 56, 57, 58, 59, 60, 61, 62, 63, 64, 65, 66, 67, 68, 69, 70, 71, 72, 73, 74, 75, 76, 77, 78, 79, 80, 81, 82, 83, 84, 85, 86, 87, 88, 89, 90, 91, 92, 93, 94, 95, 96, 97, 98, 99, 100, 101, 102, 103, 104, 105, 106, 107, 108, 109, 110, 111, 112, 113, 114, 115, 116, 117, 118, 119, 120, 121, 122, 123, 124, 125, 126, 127, 128, 129, 130, 131, 132, 133, 134, 135, 136, 137, 138, 139, 140, 141, 142, 143, 144, 145, 146, 147, 148, 149, 150, 151, 152, 153, 154, 155, 156, 157, 158, 159, 160, 161, 162, 163, 164, 165, 166, 167, 168, 169, 170, 171, 172, 173, 174, 175, 176, 177, 178, 179, 180, 181, 182, 183, 184, 185, 186, 187, 188, 189, 190, 191, 192, 193, 194, 195, 196, 197, 198, 199, 200],
      "LargestImagePixelValue": [3698, 3699, 3697, 3697, 3702, 3698, 3702, 3702, 3697, 3692, 3697, 3704, 3698, 3698, 3701, 3699, 3695, 3694, 3699, 3697, 3698, 3700, 3697, 3694, 3699, 3702, 3697, 3698, 3698, 3700, 3697, 3696, 3698, 3704, 3696, 3696, 3701, 3700, 3698, 3692, 3693, 3696, 3695, 3701, 3701, 3702, 3697, 3698, 3698, 3700, 3700, 3702, 3699, 3697, 3702, 3703, 3702, 3697, 3695, 3701, 3700, 3697, 3700, 3697, 3696, 3700, 3700, 3695, 3701, 3697, 3694, 3693, 3696, 3699, 3700, 3697, 3698, 3696, 3698, 3699, 3697, 3702, 3703, 3699, 3698, 3694, 3697, 3694, 3693, 3696, 3697, 3698, 3699, 3701, 3702, 3701, 3695, 3697, 3700, 3698, 3700, 3702, 3700, 3694, 3700, 3699, 3699, 3691, 3699, 3694, 3699, 3697, 3697, 3701, 3695, 3701, 3701, 3697, 3698, 3697, 3698, 3699, 3701, 3698, 3699, 3699, 3702, 3700, 3699, 3702, 3698, 3700, 3696, 3699, 3698, 3695, 3697, 3694, 3698, 3697, 3699, 3701, 3697, 3694, 3695, 3699, 3697, 3696, 3698, 3699, 3697, 3701, 3700, 3697, 3697, 3698, 3697, 3698, 3701, 3700, 3697, 3700, 3697, 3696, 3697, 3698, 3695, 3698, 3695, 3698, 3700, 3698, 3695, 3696, 3696, 3696, 3699, 3697, 3697, 3699, 3694, 3700, 3697, 3700, 3693, 3694, 3697, 3693, 3696, 3695, 3698, 3699, 3698, 3700, 3700, 3695, 3699, 3698, 3699, 3696],
      "WindowCenter": [1341.0, 1340.0, 1341.0, 1341.0, 1340.0, 1341.0, 1340.0, 1340.0, 1340.0, 1340.0, 1340.0, 1339.0, 1341.0, 1340.0, 1339.0, 1340.0, 1340.0, 1340.0, 1340.0, 1340.0, 1340.0, 1340.0, 1340.0, 1340.0, 1339.0, 1339.0, 1340.0, 1340.0, 1340.0, 1339.0, 1340.0, 1339.0, 1339.0, 1339.0, 1339.0, 1339.0, 1339.0, 1339.0, 1339.0, 1339.0, 1339.0, 1340.0, 1339.0, 1339.0, 1339.0, 1339.0, 1339.0, 1339.0, 1339.0, 1339.0, 1339.0, 1339.0, 1339.0, 1339.0, 1338.0, 1339.0, 1339.0, 1339.0, 1339.0, 1339.0, 1339.0, 1339.0, 1338.0, 1339.0, 1339.0, 1338.0, 1339.0, 1338.0, 1339.0, 1339.0, 1338.0, 1338.0, 1338.0, 1338.0, 1338.0, 1338.0, 1338.0, 1337.0, 1338.0, 1338.0, 1338.0, 1338.0, 1338.0, 1338.0, 1338.0, 1338.0, 1338.0, 1338.0, 1338.0, 1338.0, 1338.0, 1338.0, 1338.0, 1337.0, 1337.0, 1337.0, 1337.0, 1338.0, 1338.0, 1337.0, 1338.0, 1338.0, 1338.0, 1338.0, 1338.0, 1338.0, 1338.0, 1337.0, 1337.0, 1338.0, 1337.0, 1337.0, 1337.0, 1337.0, 1337.0, 1336.0, 1336.0, 1336.0, 1337.0, 1337.0, 1336.0, 1337.0, 1337.0, 1337.0, 1337.0, 1337.0, 1337.0, 1337.0, 1337.0, 1337.0, 1337.0, 1337.0, 1336.0, 1337.0, 1337.0, 1336.0, 1337.0, 1336.0, 1336.0, 1336.0, 1336.0, 1336.0, 1336.0, 1336.0, 1336.0, 1336.0, 1336.0, 1336.0, 1336.0, 1336.0, 1336.0, 1336.0, 1336.0, 1336.0, 1336.0, 1336.0, 1336.0, 1336.0, 1336.0, 1336.0, 1336.0, 1336.0, 1336.0, 1336.0, 1336.0, 1336.0, 1336.0, 1336.0, 1336.0, 1336.0, 1336.0, 1335.0, 1336.0, 1336.0, 1336.0, 1336.0, 1336.0, 1336.0, 1336.0, 1336.0, 1335.0, 1335.0, 1335.0, 1336.0, 1336.0, 1336.0, 1335.0, 1335.0, 1336.0, 1335.0, 1336.0, 1335.0, 1336.0, 1335.0, 1335.0, 1335.0, 1335.0, 1335.0, 1335.0, 1335.0],
      "WindowWidth": [3200.0, 3201.0, 3200.0, 3200.0, 3201.0, 3200.0, 3200.0, 3200.0, 3200.0, 3201.0, 3200.0, 3200.0, 3200.0, 3200.0, 3200.0, 3200.0, 3200.0, 3200.0, 3200.0, 3200.0, 3200.0, 3200.0, 3200.0, 3200.0, 3200.0, 3200.0, 3200.0, 3200.0, 3200.0, 3200.0, 3200.0, 3200.0, 3200.0, 3200.0, 3200.0, 3200.0, 3200.0, 3200.0, 3200.0, 3199.0, 3200.0, 3199.0, 3199.0, 3200.0, 3200.0, 3200.0, 3200.0, 3200.0, 3199.0, 3200.0, 3199.0, 3199.0, 3199.0, 3199.0, 3199.0, 3199.0, 3199.0, 3199.0, 3199.0, 3199.0, 3199.0, 3199.0, 3199.0, 3199.0, 3199.0, 3199.0, 3199.0, 3199.0, 3199.0, 3199.0, 3199.0, 3199.0, 3199.0, 3199.0, 3199.0, 3199.0, 3199.0, 3199.0, 3199.0, 3199.0, 3199.0, 3199.0, 3199.0, 3199.0, 3199.0, 3199.0, 3199.0, 3199.0, 3199.0, 3199.0, 3199.0, 3199.0, 3199.0, 3198.0, 3199.0, 3198.0, 3198.0, 3199.0, 3198.0, 3198.0, 3198.0, 3198.0, 3198.0, 3198.0, 3198.0, 3198.0, 3198.0, 3197.0, 3198.0, 3197.0, 3198.0, 3198.0, 3198.0, 3198.0, 3197.0, 3197.0, 3197.0, 3197.0, 3198.0, 3197.0, 3197.0, 3197.0, 3198.0, 3198.0, 3198.0, 3198.0, 3198.0, 3198.0, 3198.0, 3198.0, 3198.0, 3198.0, 3197.0, 3197.0, 3197.0, 3197.0, 3197.0, 3197.0, 3197.0, 3197.0, 3197.0, 3197.0, 3197.0, 3197.0, 3197.0, 3197.0, 3197.0, 3197.0, 3197.0, 3197.0, 3197.0, 3197.0, 3197.0, 3197.0, 3197.0, 3197.0, 3197.0, 3197.0, 3197.0, 3197.0, 3197.0, 3196.0, 3197.0, 3196.0, 3196.0, 3197.0, 3197.0, 3196.0, 3196.0, 3196.0, 3196.0, 3196.0, 3196.0, 3196.0, 3196.0, 3196.0, 3196.0, 3196.0, 3196.0, 3196.0, 3196.0, 3196.0, 3196.0, 3196.0, 3196.0, 3196.0, 3196.0, 3196.0, 3196.0, 3196.0, 3196.0, 3196.0, 3196.0, 3196.0, 3196.0, 3196.0, 3196.0, 3196.0, 3196.0, 3196.0]
    },
    "slices": {}
  }
}