{
  "AcquisitionMatrixPE": 80,
  "AcquisitionNumber": 1,
  "AcquisitionTime": "08:38:11.645000",
  "BandwidthPerPixelPhaseEncode": 48.077,
  "BaseResolution": 80,
  "BodyPartExamined": "BRAIN",
  "CoilCombinationMethod": "Sum of Squares",
  "ConsistencyInfo": "N4_VE11E_LATEST_20181129",
  "ConversionSoftware": "dcm2niix",
  "ConversionSoftwareVersion": "v1.0.20220720",
  "DerivedVendorReportedEchoSpacing": 0.000519999,
  "DeviceSerialNumber": "66112",
  "DwellTime": 2.7e-06,
  "EchoTime": 0.035,
  "EchoTrainLength": 39,
  "EffectiveEchoSpacing": 0.00026,
  "FlipAngle": 90,
  "HeudiconvVersion": "0.13.1",
  "ImageOrientationPatientDICOM": [0.999776, -0.00296536, 0.0209641, -0.00104703, 0.982008, 0.188838],
  "ImageOrientationText": "Tra>Cor(10.9)>Sag(1.2)",
  "ImageType": [
    "ORIGINAL",
    "PRIMARY",
    "M",
    "ND",
    "NORM",
    "MOSAIC"
],
  "ImagingFrequency": 123.259,
  "InPlanePhaseEncodingDirectionDICOM": "COL",
  "InstitutionAddress": "Maynard 3,Hanover,NH,US,03755",
  "InstitutionName": "Dartmouth College - PBS",
  "InstitutionalDepartmentName": "Department",
  "MRAcquisitionType": "2D",
  "MagneticFieldStrength": 3,
  "Manufacturer": "Siemens",
  "ManufacturersModelName": "Prisma",
  "MatrixCoilMode": "GRAPPA",
  "Modality": "MR",
  "NonlinearGradientCorrection": false,
  "ParallelReductionFactorInPlane": 2,
  "PartialFourier": 1,
  "PatientPosition": "HFS",
  "PercentPhaseFOV": 100,
  "PercentSampling": 100,
  "PhaseEncodingDirection": "j-",
  "PhaseEncodingSteps": 79,
  "PhaseResolution": 1,
  "PixelBandwidth": 2315,
  "ProcedureStepDescription": "dbic^QA",
  "ProtocolName": "func-bold_task-rest_acq-p2",
  "PulseSequenceDetails": "%SiemensSeq%\\ep2d_bold",
  "ReceiveCoilActiveElements": "HC1-7;NC1,2",
  "ReceiveCoilName": "HeadNeck_64",
  "ReconMatrixPE": 80,
  "RefLinesPE": 24,
  "RepetitionTime": 2,
  "SAR": 0.0360934,
  "ScanOptions": "FS",
  "ScanningSequence": "EP",
  "SequenceName": "*epfid2d1_80",
  "SequenceVariant": "SK",
  "SeriesDescription": "func-bold_task-rest_acq-p2",
  "SeriesNumber": 5,
  "ShimSetting": [4215, -7721, -7496, -149, -147, -308, -45, 99],
  "SliceThickness": 3.5,
  "SliceTiming": [0.99, 0, 1.055, 0.065, 1.1225, 0.1325, 1.1875, 0.1975, 1.255, 0.265, 1.32, 0.33, 1.385, 0.395, 1.4525, 0.4625, 1.5175, 0.5275, 1.5825, 0.595, 1.65, 0.66, 1.715, 0.725, 1.7825, 0.7925, 1.8475, 0.8575, 1.9125, 0.925],
  "SoftwareVersions": "syngo MR E11",
  "SpacingBetweenSlices": 3.99,
  "StationName": "AWP66112",
  "TaskName": "rest",
  "TotalReadoutTime": 0.02054,
  "TxRefAmp": 215.735,
  "dcmmeta_affine": [
    [-2.9993274211883545, -0.0031410979572683573, 0.08437591791152954, 121.05055236816406],
    [0.008896077051758766, 2.9460232257843018, 0.7533806562423706, -126.6072769165039],
    [0.06289219856262207, -0.5665127635002136, 3.9173202514648438, -58.79958724975586],
    [0.0, 0.0, 0.0, 1.0]
],
  "dcmmeta_reorient_transform": [
    [0.0, -1.0, 0.0, 79.0],
    [1.0, 0.0, 0.0, 0.0],
    [0.0, 0.0, 1.0, 0.0],
    [0.0, 0.0, 0.0, 1.0]
],
  "dcmmeta_shape": [80, 80, 30, 200],
  "dcmmeta_slice_dim": 2,
  "dcmmeta_version": 0.6,
  "global": {
    "const": {
      "AccessionNumber": "qa64",
      "AcquisitionMatrix": [80, 0, 0, 80],
      "AngioFlag": "N",
      "BitsAllocated": 16,
      "BitsStored": 12,
      "BodyPartExamined": "BRAIN",
      "Columns": 480,
      "EchoNumbers": 1,
      "EchoTime": 35.0,
      "EchoTrainLength": 39,
      "FlipAngle": 90.0,
      "HighBit": 11,
      "ImageOrientationPatient": [0.99977583218725, -0.0029653589658, 0.02096406498043, -0.0010470326302, 0.9820077743425, 0.18883758856109],
      "ImagePositionPatient": [-720.03968726543, -693.55401651107, -229.43508971982],
      "ImageType": [
        "ORIGINAL",
        "PRIMARY",
        "M",
        "ND",
        "NORM",
        "MOSAIC"
],
      "ImagedNucleus": "1H",
      "ImagingFrequency": 123.259133,
      "InPlanePhaseEncodingDirection": "COL",
      "MRAcquisitionType": "2D",
      "MagneticFieldStrength": 3.0,
      "Manufacturer": "SIEMENS",
      "ManufacturerModelName": "Prisma",
      "Modality": "MR",
      "NumberOfAverages": 1.0,
      "NumberOfPhaseEncodingSteps": 79,
      "PercentPhaseFieldOfView": 100.0,
      "PercentSampling": 100.0,
      "PerformedProcedureStepStartTime": "083057.297000",
      "PhotometricInterpretation": "MONOCHROME2",
      "PixelBandwidth": 2315.0,
      "PixelRepresentation": 0,
      "PixelSpacing": [3.0, 3.0],
      "ProtocolName": "func-bold_task-rest_acq-p2",
      "RepetitionTime": 2000.0,
      "Rows": 480,
      "SAR": 0.03609344267324,
      "SamplesPerPixel": 1,
      "ScanOptions": "FS",
      "ScanningSequence": "EP",
      "SequenceName": "*epfid2d1_80",
      "SequenceVariant": "SK",
      "SeriesDescription": "func-bold_task-rest_acq-p2",
      "SeriesNumber": 5,
      "SeriesTime": "083903.789000",
      "SliceLocation": -79.074321949711,
      "SliceThickness": 3.5,
      "SmallestImagePixelValue": 0,
      "SoftwareVersions": "syngo MR E11",
      "SpacingBetweenSlices": 3.9899999623884,
      "SpecificCharacterSet": "ISO_IR 100",
      "StudyID": "1",
      "StudyTime": "083057.235000",
      "TransmitCoilName": "Body",
      "VariableFlipAngleFlag": "N",
      "WindowCenterWidthExplanation": "Algo1"
    },
    "slices": {}
  },
  "time": {
    "samples": {
      "AcquisitionNumber": [1, 2, 3, 4, 5, 6, 7, 8, 9, 10, 11, 12, 13, 14, 15, 16, 17, 18, 19, 20, 21, 22, 23, 24, 25, 26, 27, 28, 29, 30, 31, 32, 33, 34, 35, 36, 37, 38, 39, 40, 41, 42, 43, 44, 45, 46, 47, 48, 49, 50, 51, 52, 53, 54, 55, 56, 57, 58, 59, 60, 61, 62, 63, 64, 65, 66, 67, 68, 69, 70, 71, 72, 73, 74, 75, 76, 77, 78, 79, 80, 81, 82, 83, 84, 85, 86, 87, 88, 89, 90, 91, 92, 93, 94, 95, 96, 97, 98, 99, 100, 101, 102, 103, 104, 105, 106, 107, 108, 109, 110, 111, 112, 113, 114, 115, 116, 117, 118, 119, 120, 121, 122, 123, 124, 125, 126, 127, 128, 129, 130, 131, 132, 133, 134, 135, 136, 137, 138, 139, 140, 141, 142, 143, 144, 145, 146, 147, 148, 149, 150, 151, 152, 153, 154, 155, 156, 157, 158, 159, 160, 161, 162, 163, 164, 165, 166, 167, 168, 169, 170, 171, 172, 173, 174, 175, 176, 177, 178, 179, 180, 181, 182, 183, 184, 185, 186, 187, 188, 189, 190, 191, 192, 193, 194, 195, 196, 197, 198, 199, 200],
      "AcquisitionTime": ["083811.645000", "083813.645000", "083815.645000", "083817.645000", "083819.645000", "083821.645000", "083823.645000", "083825.645000", "083827.645000", "083829.645000", "083831.645000", "083833.645000", "083835.645000", "083837.645000", "083839.645000", "083841.645000", "083843.645000", "083845.645000", "083847.645000", "083849.645000", "083851.645000", "083853.645000", "083855.645000", "083857.645000", "083859.645000", "083901.645000", "083903.645000", "083905.645000", "083907.645000", "083909.645000", "083911.645000", "083913.645000", "083915.645000", "083917.645000", "083919.645000", "083921.645000", "083923.645000", "083925.645000", "083927.645000", "083929.645000", "083931.645000", "083933.645000", "083935.645000", "083937.645000", "083939.645000", "083941.645000", "083943.645000", "083945.645000", "083947.645000", "083949.645000", "083951.645000", "083953.645000", "083955.645000", "083957.645000", "083959.645000", "084001.645000", "084003.645000", "084005.645000", "084007.645000", "084009.645000", "084011.645000", "084013.645000", "084015.645000", "084017.645000", "084019.645000", "084021.645000", "084023.645000", "084025.645000", "084027.645000", "084029.645000", "084031.645000", "084033.645000", "084035.645000", "084037.645000", "084039.645000", "084041.645000", "084043.645000", "084045.645000", "084047.645000", "084049.645000", "084051.645000", "084053.645000", "084055.645000", "084057.645000", "084059.645000", "084101.645000", "084103.645000", "084105.645000", "084107.645000", "084109.645000", "084111.645000", "084113.645000", "084115.645000", "084117.645000", "084119.645000", "084121.645000", "084123.645000", "084125.645000", "084127.645000", "084129.645000", "084131.645000", "084133.645000", "084135.645000", "084137.645000", "084139.645000", "084141.645000", "084143.645000", "084145.645000", "084147.645000", "084149.645000", "084151.645000", "084153.645000", "084155.645000", "084157.645000", "084159.645000", "084201.645000", "084203.645000", "084205.645000", "084207.645000", "084209.645000", "084211.645000", "084213.645000", "084215.645000", "084217.645000", "084219.645000", "084221.645000", "084223.645000", "084225.645000", "084227.645000", "084229.645000", "084231.645000", "084233.645000", "084235.645000", "084237.645000", "084239.645000", "084241.645000", "084243.645000", "084245.645000", "084247.645000", "084249.645000", "084251.645000", "084253.645000", "084255.645000", "084257.645000", "084259.645000", "084301.645000", "084303.645000", "084305.645000", "084307.645000", "084309.645000", "084311.645000", "084313.645000", "084315.645000", "084317.645000", "084319.645000", "084321.645000", "084323.645000", "084325.645000", "084327.645000", "084329.645000", "084331.645000", "084333.645000", "084335.645000", "084337.645000", "084339.645000", "084341.645000", "084343.645000", "084345.645000", "084347.645000", "084349.645000", "084351.645000", "084353.645000", "084355.645000", "084357.645000", "084359.645000", "084401.645000", "084403.645000", "084405.645000", "084407.645000", "084409.645000", "084411.645000", "084413.645000", "084415.645000", "084417.645000", "084419.645000", "084421.645000", "084423.645000", "084425.645000", "084427.645000", "084429.645000", "084431.645000", "084433.645000", "084435.645000", "084437.645000", "084439.645000", "084441.645000", "084443.645000", "084445.645000", "084447.645000", "084449.645000"],
      "ContentTime": ["083903.793000", "083903.796000", "083903.798000", "083903.800000", "083903.803000", "083903.805000", "083903.807000", "083903.810000", "083903.812000", "083903.814000", "083903.817000", "083903.819000", "083903.826000", "083903.829000", "083903.831000", "083903.833000", "083903.842000", "083903.844000", "083903.846000", "083903.849000", "083903.851000", "083903.854000", "083903.856000", "083903.858000", "083903.861000", "083903.863000", "083943.787000", "083943.790000", "083943.792000", "083943.794000", "083943.797000", "083943.799000", "083943.801000", "083943.804000", "083943.806000", "083943.808000", "083943.811000", "083943.813000", "083943.815000", "083943.818000", "083943.820000", "083943.822000", "083943.825000", "083943.827000", "083943.829000", "083943.831000", "084023.787000", "084023.790000", "084023.792000", "084023.794000", "084023.797000", "084023.799000", "084023.801000", "084023.804000", "084023.806000", "084023.808000", "084023.811000", "084023.813000", "084023.815000", "084023.817000", "084023.820000", "084023.822000", "084023.824000", "084023.827000", "084023.829000", "084023.831000", "084103.787000", "084103.790000", "084103.792000", "084103.794000", "084103.797000", "084103.799000", "084103.802000", "084103.804000", "084103.806000", "084103.808000", "084103.811000", "084103.813000", "084103.815000", "084103.818000", "084103.820000", "084103.822000", "084103.824000", "084103.827000", "084103.829000", "084103.860000", "084143.787000", "084143.790000", "084143.792000", "084143.794000", "084143.797000", "084143.799000", "084143.801000", "084143.803000", "084143.806000", "084143.808000", "084143.810000", "084143.813000", "084143.815000", "084143.817000", "084143.820000", "084143.822000", "084143.824000", "084143.826000", "084143.829000", "084143.831000", "084223.788000", "084223.791000", "084223.793000", "084223.795000", "084223.798000", "084223.800000", "084223.802000", "084223.805000", "084223.807000", "084223.809000", "084223.812000", "084223.814000", "084223.816000", "084223.818000", "084223.821000", "084223.823000", "084223.825000", "084223.828000", "084223.830000", "084223.832000", "084303.787000", "084303.790000", "084303.792000", "084303.794000", "084303.797000", "084303.799000", "084303.802000", "084303.804000", "084303.806000", "084303.808000", "084303.811000", "084303.813000", "084303.815000", "084303.818000", "084303.820000", "084303.822000", "084303.825000", "084303.827000", "084303.829000", "084303.831000", "084343.788000", "084343.790000", "084343.793000", "084343.795000", "084343.797000", "084343.800000", "084343.802000", "084343.804000", "084343.807000", "084343.809000", "084343.811000", "084343.814000", "084343.816000", "084343.818000", "084343.820000", "084343.823000", "084343.825000", "084343.827000", "084343.830000", "084343.832000", "084423.787000", "084423.790000", "084424.009000", "084424.011000", "084424.029000", "084424.032000", "084424.034000", "084424.036000", "084424.038000", "084424.041000", "084424.043000", "084424.045000", "084424.048000", "084424.050000", "084424.052000", "084424.055000", "084424.057000", "084424.059000", "084424.062000", "084424.064000", "084451.107000", "084451.110000", "084451.112000", "084451.114000", "084451.117000", "084451.119000", "084451.121000", "084451.124000", "084451.126000", "084451.128000", "084451.131000", "084451.133000", "084451.136000", "084451.145000"],
      "InstanceCreationTime": ["083903.793000", "083903.796000", "083903.798000", "083903.800000", "083903.803000", "083903.805000", "083903.807000", "083903.810000", "083903.812000", "083903.814000", "083903.817000", "083903.819000", "083903.826000", "083903.829000", "083903.831000", "083903.833000", "083903.842000", "083903.844000", "083903.846000", "083903.849000", "083903.851000", "083903.854000", "083903.856000", "083903.858000", "083903.861000", "083903.863000", "083943.787000", "083943.790000", "083943.792000", "083943.794000", "083943.797000", "083943.799000", "083943.801000", "083943.804000", "083943.806000", "083943.808000", "083943.811000", "083943.813000", "083943.815000", "083943.818000", "083943.820000", "083943.822000", "083943.825000", "083943.827000", "083943.829000", "083943.831000", "084023.787000", "084023.790000", "084023.792000", "084023.794000", "084023.797000", "084023.799000", "084023.801000", "084023.804000", "084023.806000", "084023.808000", "084023.811000", "084023.813000", "084023.815000", "084023.817000", "084023.820000", "084023.822000", "084023.824000", "084023.827000", "084023.829000", "084023.831000", "084103.787000", "084103.790000", "084103.792000", "084103.794000", "084103.797000", "084103.799000", "084103.802000", "084103.804000", "084103.806000", "084103.808000", "084103.811000", "084103.813000", "084103.815000", "084103.818000", "084103.820000", "084103.822000", "084103.824000", "084103.827000", "084103.829000", "084103.860000", "084143.787000", "084143.790000", "084143.792000", "084143.794000", "084143.797000", "084143.799000", "084143.801000", "084143.803000", "084143.806000", "084143.808000", "084143.810000", "084143.813000", "084143.815000", "084143.817000", "084143.820000", "084143.822000", "084143.824000", "084143.826000", "084143.829000", "084143.831000", "084223.788000", "084223.791000", "084223.793000", "084223.795000", "084223.798000", "084223.800000", "084223.802000", "084223.805000", "084223.807000", "084223.809000", "084223.812000", "084223.814000", "084223.816000", "084223.818000", "084223.821000", "084223.823000", "084223.825000", "084223.828000", "084223.830000", "084223.832000", "084303.787000", "084303.790000", "084303.792000", "084303.794000", "084303.797000", "084303.799000", "084303.802000", "084303.804000", "084303.806000", "084303.808000", "084303.811000", "084303.813000", "084303.815000", "084303.818000", "084303.820000", "084303.822000", "084303.825000", "084303.827000", "084303.829000", "084303.831000", "084343.788000", "084343.790000", "084343.793000", "084343.795000", "084343.797000", "084343.800000", "084343.802000", "084343.804000", "084343.807000", "084343.809000", "084343.811000", "084343.814000", "084343.816000", "084343.818000", "084343.820000", "084343.823000", "084343.825000", "084343.827000", "084343.830000", "084343.832000", "084423.787000", "084423.790000", "084424.009000", "084424.011000", "084424.029000", "084424.032000", "084424.034000", "084424.036000", "084424.038000", "084424.041000", "084424.043000", "084424.045000", "084424.048000", "084424.050000", "084424.052000", "084424.055000", "084424.057000", "084424.059000", "084424.062000", "084424.064000", "084451.107000", "084451.110000", "084451.112000", "084451.114000", "084451.117000", "084451.119000", "084451.121000", "084451.124000", "084451.126000", "084451.128000", "084451.131000", "084451.133000", "084451.136000", "084451.145000"],
      "InstanceNumber": [1, 2, 3, 4, 5, 6, 7, 8, 9, 10, 11, 12, 13, 14, 15, 16, 17, 18, 19, 20, 21, 22, 23, 24, 25, 26, 27, 28, 29, 30, 31, 32, 33, 34, 35, 36, 37, 38, 39, 40, 41, 42, 43, 44, 45, 46, 47, 48, 49, 50, 51, 52, 53, 54, 55, 56, 57, 58, 59, 60, 61, 62, 63, 64, 65, 66, 67, 68, 69, 70, 71, 72, 73, 74, 75, 76, 77, 78, 79, 80, 81, 82, 83, 84, 85, 86, 87, 88, 89, 90, 91, 92, 93, 94, 95, 96, 97, 98, 99, 100, 101, 102, 103, 104, 105, 106, 107, 108, 109, 110, 111, 112, 113, 114, 115, 116, 117, 118, 119, 120, 121, 122, 123, 124, 125, 126, 127, 128, 129, 130, 131, 132, 133, 134, 135, 136, 137, 138, 139, 140, 141, 142, 143, 144, 145, 146, 147, 148, 149, 150, 151, 152, 153, 154, 155, 156, 157, 158, 159, 160, 161, 162, 163, 164, 165, 166, 167, 168, 169, 170, 171, 172, 173, 174, 175, 176, 177, 178, 179, 180, 181, 182, 183, 184, 185, 186, 187, 188, 189, 190, 191, 192, 193, 194, 195, 196, 197, 198, 199, 200],
      "LargestImagePixelValue": [3874, 3867, 3864, 3871, 3870, 3860, 3868, 3863, 3869, 3869, 3864, 3863, 3867, 3866, 3865, 3865, 3862, 3861, 3860, 3864, 3869, 3867, 3868, 3866, 3868, 3866, 3866, 3867, 3866, 3864, 3866, 3868, 3869, 3863, 3863, 3861, 3863, 3868, 3874, 3867, 3861, 3860, 3865, 3866, 3864, 3865, 3862, 3869, 3859, 3862, 3857, 3854, 3862, 3862, 3859, 3856, 3862, 3865, 3861, 3862, 3861, 3863, 3857, 3865, 3858, 3866, 3860, 3864, 3862, 3862, 3863, 3861, 3867, 3864, 3873, 3861, 3864, 3865, 3867, 3856, 3856, 3860, 3856, 3864, 3861, 3861, 3867, 3860, 3857, 3861, 3859, 3862, 3854, 3857, 3864, 3860, 3869, 3857, 3863, 3863, 3855, 3857, 3858, 3862, 3864, 3866, 3864, 3861, 3860, 3859, 3864, 3858, 3856, 3863, 3856, 3855, 3857, 3858, 3859, 3865, 3857, 3863, 3861, 3858, 3867, 3856, 3863, 3871, 3858, 3856, 3858, 3860, 3864, 3860, 3867, 3866, 3864, 3865, 3863, 3863, 3871, 3865, 3862, 3870, 3865, 3859, 3859, 3860, 3856, 3861, 3867, 3861, 3854, 3866, 3861, 3860, 3864, 3862, 3852, 3864, 3865, 3859, 3856, 3862, 3864, 3862, 3862, 3864, 3863, 3861, 3858, 3856, 3863, 3859, 3866, 3857, 3862, 3859, 3865, 3861, 3857, 3858, 3861, 3853, 3859, 3868, 3857, 3860, 3865, 3863, 3862, 3862, 3869, 3862, 3859, 3865, 3852, 3861, 3864, 3856],
      "WindowCenter": [1486.0, 1485.0, 1485.0, 1485.0, 1484.0, 1484.0, 1484.0, 1484.0, 1485.0, 1485.0, 1484.0, 1484.0, 1484.0, 1484.0, 1484.0, 1484.0, 1485.0, 1484.0, 1485.0, 1484.0, 1484.0, 1485.0, 1484.0, 1484.0, 1484.0, 1484.0, 1484.0, 1484.0, 1484.0, 1484.0, 1484.0, 1484.0, 1483.0, 1484.0, 1483.0, 1484.0, 1484.0, 1483.0, 1484.0, 1483.0, 1483.0, 1483.0, 1482.0, 1483.0, 1483.0, 1483.0, 1482.0, 1483.0, 1483.0, 1483.0, 1482.0, 1482.0, 1482.0, 1483.0, 1482.0, 1482.0, 1482.0, 1482.0, 1482.0, 1482.0, 1483.0, 1482.0, 1482.0, 1482.0, 1482.0, 1482.0, 1481.0, 1482.0, 1481.0, 1482.0, 1482.0, 1481.0, 1481.0, 1481.0, 1481.0, 1481.0, 1481.0, 1481.0, 1482.0, 1482.0, 1482.0, 1482.0, 1482.0, 1482.0, 1482.0, 1482.0, 1482.0, 1481.0, 1481.0, 1481.0, 1481.0, 1482.0, 1481.0, 1482.0, 1482.0, 1481.0, 1482.0, 1481.0, 1481.0, 1481.0, 1482.0, 1481.0, 1481.0, 1481.0, 1480.0, 1480.0, 1481.0, 1481.0, 1482.0, 1481.0, 1481.0, 1482.0, 1481.0, 1481.0, 1480.0, 1481.0, 1481.0, 1481.0, 1480.0, 1480.0, 1480.0, 1480.0, 1481.0, 1481.0, 1480.0, 1480.0, 1481.0, 1481.0, 1481.0, 1480.0, 1481.0, 1481.0, 1481.0, 1481.0, 1481.0, 1479.0, 1480.0, 1481.0, 1480.0, 1480.0, 1480.0, 1480.0, 1480.0, 1480.0, 1480.0, 1480.0, 1480.0, 1480.0, 1480.0, 1479.0, 1480.0, 1480.0, 1479.0, 1479.0, 1480.0, 1479.0, 1480.0, 1480.0, 1479.0, 1480.0, 1480.0, 1480.0, 1479.0, 1479.0, 1479.0, 1479.0, 1479.0, 1480.0, 1480.0, 1479.0, 1479.0, 1479.0, 1479.0, 1479.0, 1479.0, 1479.0, 1479.0, 1479.0, 1479.0, 1478.0, 1479.0, 1478.0, 1478.0, 1479.0, 1478.0, 1479.0, 1479.0, 1479.0, 1479.0, 1479.0, 1478.0, 1478.0, 1478.0, 1478.0, 1478.0, 1478.0, 1479.0, 1478.0, 1478.0, 1478.0],
      "WindowWidth": [3380.0, 3379.0, 3379.0, 3379.0, 3379.0, 3379.0, 3379.0, 3379.0, 3378.0, 3378.0, 3378.0, 3379.0, 3378.0, 3378.0, 3379.0, 3379.0, 3378.0, 3378.0, 3378.0, 3378.0, 3378.0, 3378.0, 3378.0, 3378.0, 3378.0, 3378.0, 3378.0, 3378.0, 3378.0, 3378.0, 3378.0, 3378.0, 3378.0, 3378.0, 3378.0, 3378.0, 3377.0, 3378.0, 3378.0, 3378.0, 3378.0, 3378.0, 3378.0, 3378.0, 3378.0, 3378.0, 3378.0, 3377.0, 3378.0, 3378.0, 3378.0, 3377.0, 3377.0, 3378.0, 3378.0, 3378.0, 3377.0, 3378.0, 3377.0, 3377.0, 3377.0, 3377.0, 3377.0, 3377.0, 3377.0, 3377.0, 3377.0, 3377.0, 3377.0, 3377.0, 3377.0, 3377.0, 3377.0, 3377.0, 3377.0, 3377.0, 3377.0, 3377.0, 3376.0, 3376.0, 3376.0, 3376.0, 3376.0, 3376.0, 3376.0, 3376.0, 3376.0, 3376.0, 3376.0, 3376.0, 3376.0, 3376.0, 3376.0, 3376.0, 3376.0, 3376.0, 3376.0, 3376.0, 3376.0, 3376.0, 3375.0, 3376.0, 3376.0, 3375.0, 3376.0, 3376.0, 3375.0, 3375.0, 3375.0, 3375.0, 3375.0, 3375.0, 3375.0, 3375.0, 3376.0, 3375.0, 3375.0, 3375.0, 3375.0, 3375.0, 3375.0, 3375.0, 3375.0, 3375.0, 3375.0, 3375.0, 3375.0, 3375.0, 3375.0, 3375.0, 3375.0, 3375.0, 3375.0, 3375.0, 3375.0, 3375.0, 3374.0, 3374.0, 3374.0, 3374.0, 3374.0, 3374.0, 3374.0, 3374.0, 3374.0, 3374.0, 3374.0, 3374.0, 3374.0, 3374.0, 3374.0, 3374.0, 3374.0, 3374.0, 3374.0, 3374.0, 3374.0, 3374.0, 3374.0, 3374.0, 3374.0, 3374.0, 3374.0, 3374.0, 3374.0, 3374.0, 3373.0, 3373.0, 3373.0, 3374.0, 3373.0, 3373.0, 3373.0, 3373.0, 3373.0, 3373.0, 3374.0, 3373.0, 3373.0, 3373.0, 3373.0, 3373.0, 3373.0, 3373.0, 3373.0, 3373.0, 3373.0, 3373.0, 3373.0, 3373.0, 3373.0, 3373.0, 3373.0, 3373.0, 3373.0, 3373.0, 3373.0, 3373.0, 3373.0, 3373.0]
    },
    "slices": {}
  }
}