{
  "AcquisitionMatrixPE": 80,
  "AcquisitionNumber": 1,
  "AcquisitionTime": "10:33:40.202500",
  "BandwidthPerPixelPhaseEncode": 48.077,
  "BaseResolution": 80,
  "BodyPartExamined": "BRAIN",
  "CoilCombinationMethod": "Sum of Squares",
  "ConsistencyInfo": "N4_VE11C_LATEST_20160120",
  "ConversionSoftware": "dcm2niix",
  "ConversionSoftwareVersion": "v1.0.20220720",
  "DerivedVendorReportedEchoSpacing": 0.000519999,
  "DeviceSerialNumber": "66112",
  "DwellTime": 2.7e-06,
  "EchoTime": 0.035,
  "EchoTrainLength": 39,
  "EffectiveEchoSpacing": 0.00026,
  "FlipAngle": 90,
  "HeudiconvVersion": "0.13.1",
  "ImageOrientationPatientDICOM": [0.984852, 0.173158, 0.00908449, -0.167636, 0.937439, 0.305133],
  "ImageOrientationText": "Tra>Cor(17.6)>Sag(-2.5)",
  "ImageType": [
    "ORIGINAL",
    "PRIMARY",
    "M",
    "ND",
    "NORM",
    "MOSAIC"
],
  "ImagingFrequency": 123.252,
  "InPlanePhaseEncodingDirectionDICOM": "COL",
  "InstitutionAddress": "Maynard 3,Hanover,NH,US,03755",
  "InstitutionName": "Dartmouth College - PBS",
  "InstitutionalDepartmentName": "Department",
  "MRAcquisitionType": "2D",
  "MagneticFieldStrength": 3,
  "Manufacturer": "Siemens",
  "ManufacturersModelName": "Prisma",
  "MatrixCoilMode": "GRAPPA",
  "Modality": "MR",
  "NonlinearGradientCorrection": false,
  "ParallelReductionFactorInPlane": 2,
  "PartialFourier": 1,
  "PatientPosition": "HFS",
  "PercentPhaseFOV": 100,
  "PercentSampling": 100,
  "PhaseEncodingDirection": "j-",
  "PhaseEncodingSteps": 79,
  "PhaseResolution": 1,
  "PixelBandwidth": 2315,
  "ProcedureStepDescription": "dbic^QA",
  "ProtocolName": "func-bold_task-rest_acq-p2",
  "PulseSequenceDetails": "%SiemensSeq%\\ep2d_bold",
  "ReceiveCoilActiveElements": "HEA;HEP",
  "ReceiveCoilName": "Head_32",
  "ReconMatrixPE": 80,
  "RefLinesPE": 24,
  "RepetitionTime": 2,
  "SAR": 0.0555309,
  "ScanOptions": "FS",
  "ScanningSequence": "EP",
  "SequenceName": "*epfid2d1_80",
  "SequenceVariant": "SK",
  "SeriesDescription": "func-bold_task-rest_acq-p2",
  "SeriesNumber": 5,
  "ShimSetting": [4151, -7696, -7507, 345, -45, -87, -58, 68],
  "SliceThickness": 3.5,
  "SliceTiming": [0.99, 0, 1.0575, 0.0675, 1.1225, 0.1325, 1.1875, 0.1975, 1.255, 0.265, 1.32, 0.33, 1.3875, 0.3975, 1.4525, 0.4625, 1.5175, 0.5275, 1.585, 0.595, 1.65, 0.66, 1.7175, 0.7275, 1.7825, 0.7925, 1.8475, 0.8575, 1.915, 0.925],
  "SoftwareVersions": "syngo MR E11",
  "SpacingBetweenSlices": 3.99,
  "StationName": "AWP66112",
  "TaskName": "rest",
  "TotalReadoutTime": 0.02054,
  "TxRefAmp": 230.474,
  "dcmmeta_affine": [
    [-2.954556465148926, -0.5029088854789734, -0.17683681845664978, 140.47052001953125],
    [-0.5194737911224365, 2.812317371368408, 1.2051140069961548, -101.29096984863281],
    [0.02725345827639103, -0.915398359298706, 3.7995433807373047, -20.832443237304688],
    [0.0, 0.0, 0.0, 1.0]
],
  "dcmmeta_reorient_transform": [
    [0.0, -1.0, 0.0, 79.0],
    [1.0, 0.0, 0.0, 0.0],
    [0.0, 0.0, 1.0, 0.0],
    [0.0, 0.0, 0.0, 1.0]
],
  "dcmmeta_shape": [80, 80, 30, 200],
  "dcmmeta_slice_dim": 2,
  "dcmmeta_version": 0.6,
  "global": {
    "const": {
      "AccessionNumber": "qa",
      "AcquisitionMatrix": [80, 0, 0, 80],
      "AngioFlag": "N",
      "BitsAllocated": 16,
      "BitsStored": 12,
      "BodyPartExamined": "BRAIN",
      "Columns": 480,
      "EchoNumbers": 1,
      "EchoTime": 35.0,
      "EchoTrainLength": 39,
      "FlipAngle": 90.0,
      "HighBit": 11,
      "ImageOrientationPatient": [0.98485217500115, 0.17315792070609, 0.00908448635022, -0.1676363043297, 0.93743909421803, 0.30513278110085],
      "ImagePositionPatient": [-591.07023300142, -787.24030721204, -281.67927314094],
      "ImageType": [
        "ORIGINAL",
        "PRIMARY",
        "M",
        "ND",
        "NORM",
        "MOSAIC"
],
      "ImagedNucleus": "1H",
      "ImagingFrequency": 123.252425,
      "InPlanePhaseEncodingDirection": "COL",
      "MRAcquisitionType": "2D",
      "MagneticFieldStrength": 3.0,
      "Manufacturer": "SIEMENS",
      "ManufacturerModelName": "Prisma",
      "Modality": "MR",
      "NumberOfAverages": 1.0,
      "NumberOfPhaseEncodingSteps": 79,
      "PercentPhaseFieldOfView": 100.0,
      "PercentSampling": 100.0,
      "PerformedProcedureStepStartTime": "103017.670000",
      "PhotometricInterpretation": "MONOCHROME2",
      "PixelBandwidth": 2315.0,
      "PixelRepresentation": 0,
      "PixelSpacing": [3.0, 3.0],
      "ProtocolName": "func-bold_task-rest_acq-p2",
      "RepetitionTime": 2000.0,
      "Rows": 480,
      "SAR": 0.05553085875256,
      "SamplesPerPixel": 1,
      "ScanOptions": "FS",
      "ScanningSequence": "EP",
      "SequenceName": "*epfid2d1_80",
      "SequenceVariant": "SK",
      "SeriesDescription": "func-bold_task-rest_acq-p2",
      "SeriesNumber": 5,
      "SeriesTime": "103427.054000",
      "SliceLocation": -56.656964421386,
      "SliceThickness": 3.5,
      "SmallestImagePixelValue": 0,
      "SoftwareVersions": "syngo MR E11",
      "SpacingBetweenSlices": 3.9900000438018,
      "SpecificCharacterSet": "ISO_IR 100",
      "StudyID": "88",
      "StudyTime": "103017.600000",
      "TransmitCoilName": "Body",
      "VariableFlipAngleFlag": "N",
      "WindowCenterWidthExplanation": "Algo1",
      "dBdt": 0.0},
    "slices": {}
  },
  "time": {
    "samples": {
      "AcquisitionNumber": [1, 2, 3, 4, 5, 6, 7, 8, 9, 10, 11, 12, 13, 14, 15, 16, 17, 18, 19, 20, 21, 22, 23, 24, 25, 26, 27, 28, 29, 30, 31, 32, 33, 34, 35, 36, 37, 38, 39, 40, 41, 42, 43, 44, 45, 46, 47, 48, 49, 50, 51, 52, 53, 54, 55, 56, 57, 58, 59, 60, 61, 62, 63, 64, 65, 66, 67, 68, 69, 70, 71, 72, 73, 74, 75, 76, 77, 78, 79, 80, 81, 82, 83, 84, 85, 86, 87, 88, 89, 90, 91, 92, 93, 94, 95, 96, 97, 98, 99, 100, 101, 102, 103, 104, 105, 106, 107, 108, 109, 110, 111, 112, 113, 114, 115, 116, 117, 118, 119, 120, 121, 122, 123, 124, 125, 126, 127, 128, 129, 130, 131, 132, 133, 134, 135, 136, 137, 138, 139, 140, 141, 142, 143, 144, 145, 146, 147, 148, 149, 150, 151, 152, 153, 154, 155, 156, 157, 158, 159, 160, 161, 162, 163, 164, 165, 166, 167, 168, 169, 170, 171, 172, 173, 174, 175, 176, 177, 178, 179, 180, 181, 182, 183, 184, 185, 186, 187, 188, 189, 190, 191, 192, 193, 194, 195, 196, 197, 198, 199, 200],
      "AcquisitionTime": ["103340.202500", "103342.202500", "103344.202500", "103346.202500", "103348.202500", "103350.202500", "103352.202500", "103354.202500", "103356.202500", "103358.202500", "103400.202500", "103402.202500", "103404.202500", "103406.202500", "103408.202500", "103410.202500", "103412.202500", "103414.202500", "103416.202500", "103418.202500", "103420.202500", "103422.202500", "103424.202500", "103426.202500", "103428.202500", "103430.202500", "103432.202500", "103434.202500", "103436.202500", "103438.202500", "103440.202500", "103442.202500", "103444.202500", "103446.202500", "103448.202500", "103450.202500", "103452.202500", "103454.202500", "103456.202500", "103458.202500", "103500.202500", "103502.202500", "103504.202500", "103506.202500", "103508.202500", "103510.202500", "103512.202500", "103514.202500", "103516.202500", "103518.202500", "103520.202500", "103522.202500", "103524.202500", "103526.202500", "103528.202500", "103530.202500", "103532.202500", "103534.202500", "103536.202500", "103538.202500", "103540.202500", "103542.202500", "103544.202500", "103546.202500", "103548.202500", "103550.202500", "103552.202500", "103554.202500", "103556.202500", "103558.202500", "103600.202500", "103602.202500", "103604.202500", "103606.202500", "103608.202500", "103610.202500", "103612.202500", "103614.202500", "103616.202500", "103618.202500", "103620.202500", "103622.202500", "103624.202500", "103626.202500", "103628.202500", "103630.202500", "103632.202500", "103634.202500", "103636.202500", "103638.202500", "103640.202500", "103642.202500", "103644.202500", "103646.202500", "103648.202500", "103650.202500", "103652.202500", "103654.202500", "103656.202500", "103658.202500", "103700.202500", "103702.202500", "103704.202500", "103706.202500", "103708.202500", "103710.202500", "103712.202500", "103714.202500", "103716.202500", "103718.202500", "103720.202500", "103722.202500", "103724.202500", "103726.202500", "103728.202500", "103730.202500", "103732.202500", "103734.202500", "103736.202500", "103738.202500", "103740.202500", "103742.202500", "103744.202500", "103746.202500", "103748.202500", "103750.202500", "103752.202500", "103754.202500", "103756.202500", "103758.202500", "103800.202500", "103802.202500", "103804.202500", "103806.202500", "103808.202500", "103810.202500", "103812.202500", "103814.202500", "103816.202500", "103818.202500", "103820.202500", "103822.202500", "103824.202500", "103826.202500", "103828.202500", "103830.202500", "103832.202500", "103834.202500", "103836.202500", "103838.202500", "103840.202500", "103842.202500", "103844.202500", "103846.202500", "103848.202500", "103850.202500", "103852.202500", "103854.202500", "103856.202500", "103858.202500", "103900.202500", "103902.202500", "103904.202500", "103906.202500", "103908.202500", "103910.202500", "103912.202500", "103914.202500", "103916.202500", "103918.202500", "103920.202500", "103922.202500", "103924.202500", "103926.202500", "103928.202500", "103930.202500", "103932.202500", "103934.202500", "103936.202500", "103938.202500", "103940.202500", "103942.202500", "103944.202500", "103946.202500", "103948.202500", "103950.202500", "103952.202500", "103954.202500", "103956.202500", "103958.202500", "104000.202500", "104002.202500", "104004.202500", "104006.202500", "104008.202500", "104010.202500", "104012.202500", "104014.202500", "104016.202500", "104018.202500"],
      "ContentTime": ["103427.058000", "103427.061000", "103427.064000", "103427.066000", "103427.069000", "103427.071000", "103427.074000", "103427.077000", "103427.079000", "103427.082000", "103427.084000", "103427.087000", "103427.089000", "103427.101000", "103427.104000", "103427.111000", "103427.114000", "103427.117000", "103427.119000", "103427.122000", "103427.124000", "103427.127000", "103427.130000", "103507.051000", "103507.054000", "103507.057000", "103507.059000", "103507.062000", "103507.065000", "103507.067000", "103507.070000", "103507.072000", "103507.075000", "103507.077000", "103507.080000", "103507.082000", "103507.092000", "103507.094000", "103507.097000", "103507.099000", "103507.102000", "103507.105000", "103507.107000", "103547.052000", "103547.055000", "103547.058000", "103547.061000", "103547.063000", "103547.066000", "103547.069000", "103547.071000", "103547.074000", "103547.077000", "103547.079000", "103547.089000", "103547.092000", "103547.095000", "103547.097000", "103547.100000", "103547.102000", "103547.105000", "103547.108000", "103547.110000", "103627.052000", "103627.055000", "103627.058000", "103627.060000", "103627.063000", "103627.066000", "103627.068000", "103627.071000", "103627.074000", "103627.076000", "103627.079000", "103627.081000", "103627.084000", "103627.086000", "103627.089000", "103627.092000", "103627.094000", "103627.097000", "103627.099000", "103627.102000", "103707.052000", "103707.055000", "103707.058000", "103707.061000", "103707.063000", "103707.066000", "103707.068000", "103707.071000", "103707.073000", "103707.076000", "103707.078000", "103707.081000", "103707.084000", "103707.086000", "103707.089000", "103707.091000", "103707.094000", "103707.096000", "103707.099000", "103707.102000", "103747.051000", "103747.054000", "103747.057000", "103747.060000", "103747.062000", "103747.065000", "103747.067000", "103747.070000", "103747.073000", "103747.075000", "103747.078000", "103747.080000", "103747.083000", "103747.085000", "103747.088000", "103747.091000", "103747.093000", "103747.096000", "103747.098000", "103747.101000", "103827.053000", "103827.056000", "103827.058000", "103827.061000", "103827.063000", "103827.066000", "103827.069000", "103827.071000", "103827.074000", "103827.076000", "103827.079000", "103827.082000", "103827.084000", "103827.087000", "103827.089000", "103827.092000", "103827.094000", "103827.097000", "103827.100000", "103827.102000", "103907.053000", "103907.055000", "103907.058000", "103907.061000", "103907.063000", "103907.066000", "103907.068000", "103907.071000", "103907.074000", "103907.076000", "103907.079000", "103907.081000", "103907.084000", "103907.087000", "103907.089000", "103907.092000", "103907.095000", "103907.097000", "103907.100000", "103907.102000", "103947.051000", "103947.054000", "103947.057000", "103947.060000", "103947.062000", "103947.065000", "103947.067000", "103947.070000", "103947.072000", "103947.075000", "103947.078000", "103947.081000", "103947.083000", "103947.086000", "103947.088000", "103947.091000", "103947.094000", "103947.096000", "103947.099000", "103947.102000", "104019.777000", "104019.817000", "104019.820000", "104019.823000", "104019.826000", "104019.828000", "104019.831000", "104019.834000", "104019.837000", "104019.842000", "104019.846000", "104019.849000", "104019.852000", "104019.855000", "104019.858000", "104019.860000", "104019.863000"],
      "InstanceCreationTime": ["103427.058000", "103427.061000", "103427.064000", "103427.066000", "103427.069000", "103427.071000", "103427.074000", "103427.077000", "103427.079000", "103427.082000", "103427.084000", "103427.087000", "103427.089000", "103427.101000", "103427.104000", "103427.111000", "103427.114000", "103427.117000", "103427.119000", "103427.122000", "103427.124000", "103427.127000", "103427.130000", "103507.051000", "103507.054000", "103507.057000", "103507.059000", "103507.062000", "103507.065000", "103507.067000", "103507.070000", "103507.072000", "103507.075000", "103507.077000", "103507.080000", "103507.082000", "103507.092000", "103507.094000", "103507.097000", "103507.099000", "103507.102000", "103507.105000", "103507.107000", "103547.052000", "103547.055000", "103547.058000", "103547.061000", "103547.063000", "103547.066000", "103547.069000", "103547.071000", "103547.074000", "103547.077000", "103547.079000", "103547.089000", "103547.092000", "103547.095000", "103547.097000", "103547.100000", "103547.102000", "103547.105000", "103547.108000", "103547.110000", "103627.052000", "103627.055000", "103627.058000", "103627.060000", "103627.063000", "103627.066000", "103627.068000", "103627.071000", "103627.074000", "103627.076000", "103627.079000", "103627.081000", "103627.084000", "103627.086000", "103627.089000", "103627.092000", "103627.094000", "103627.097000", "103627.099000", "103627.102000", "103707.052000", "103707.055000", "103707.058000", "103707.061000", "103707.063000", "103707.066000", "103707.068000", "103707.071000", "103707.073000", "103707.076000", "103707.078000", "103707.081000", "103707.084000", "103707.086000", "103707.089000", "103707.091000", "103707.094000", "103707.096000", "103707.099000", "103707.102000", "103747.051000", "103747.054000", "103747.057000", "103747.060000", "103747.062000", "103747.065000", "103747.067000", "103747.070000", "103747.073000", "103747.075000", "103747.078000", "103747.080000", "103747.083000", "103747.085000", "103747.088000", "103747.091000", "103747.093000", "103747.096000", "103747.098000", "103747.101000", "103827.053000", "103827.056000", "103827.058000", "103827.061000", "103827.063000", "103827.066000", "103827.069000", "103827.071000", "103827.074000", "103827.076000", "103827.079000", "103827.082000", "103827.084000", "103827.087000", "103827.089000", "103827.092000", "103827.094000", "103827.097000", "103827.100000", "103827.102000", "103907.053000", "103907.055000", "103907.058000", "103907.061000", "103907.063000", "103907.066000", "103907.068000", "103907.071000", "103907.074000", "103907.076000", "103907.079000", "103907.081000", "103907.084000", "103907.087000", "103907.089000", "103907.092000", "103907.095000", "103907.097000", "103907.100000", "103907.102000", "103947.051000", "103947.054000", "103947.057000", "103947.060000", "103947.062000", "103947.065000", "103947.067000", "103947.070000", "103947.072000", "103947.075000", "103947.078000", "103947.081000", "103947.083000", "103947.086000", "103947.088000", "103947.091000", "103947.094000", "103947.096000", "103947.099000", "103947.102000", "104019.777000", "104019.817000", "104019.820000", "104019.823000", "104019.826000", "104019.828000", "104019.831000", "104019.834000", "104019.837000", "104019.842000", "104019.846000", "104019.849000", "104019.852000", "104019.855000", "104019.858000", "104019.860000", "104019.863000"],
      "InstanceNumber": [1, 2, 3, 4, 5, 6, 7, 8, 9, 10, 11, 12, 13, 14, 15, 16, 17, 18, 19, 20, 21, 22, 23, 24, 25, 26, 27, 28, 29, 30, 31, 32, 33, 34, 35, 36, 37, 38, 39, 40, 41, 42, 43, 44, 45, 46, 47, 48, 49, 50, 51, 52, 53, 54, 55, 56, 57, 58, 59, 60, 61, 62, 63, 64, 65, 66, 67, 68, 69, 70, 71, 72, 73, 74, 75, 76, 77, 78, 79, 80, 81, 82, 83, 84, 85, 86, 87, 88, 89, 90, 91, 92, 93, 94, 95, 96, 97, 98, 99, 100, 101, 102, 103, 104, 105, 106, 107, 108, 109, 110, 111, 112, 113, 114, 115, 116, 117, 118, 119, 120, 121, 122, 123, 124, 125, 126, 127, 128, 129, 130, 131, 132, 133, 134, 135, 136, 137, 138, 139, 140, 141, 142, 143, 144, 145, 146, 147, 148, 149, 150, 151, 152, 153, 154, 155, 156, 157, 158, 159, 160, 161, 162, 163, 164, 165, 166, 167, 168, 169, 170, 171, 172, 173, 174, 175, 176, 177, 178, 179, 180, 181, 182, 183, 184, 185, 186, 187, 188, 189, 190, 191, 192, 193, 194, 195, 196, 197, 198, 199, 200],
      "LargestImagePixelValue": [1987, 1976, 1984, 1982, 1980, 1983, 1986, 1978, 1969, 1981, 1982, 1985, 1983, 1978, 1985, 1984, 1979, 1986, 1991, 1979, 1978, 1976, 1985, 1984, 1976, 1985, 1984, 1977, 1986, 1985, 1983, 1992, 1982, 1983, 1984, 1990, 1978, 1974, 1993, 1995, 1975, 1980, 1983, 1986, 1988, 1978, 1982, 1984, 1980, 1986, 1988, 1981, 1986, 1977, 1980, 1987, 1981, 1978, 1975, 1981, 1975, 1980, 1980, 1979, 1981, 1985, 1978, 1987, 1981, 1964, 1976, 1977, 1969, 1985, 1997, 1977, 1973, 1984, 1972, 1977, 1971, 1981, 1978, 1991, 1980, 1987, 1982, 1980, 1980, 1984, 1978, 1971, 1974, 1975, 1967, 1979, 1979, 1979, 1988, 1983, 1986, 1978, 1987, 1973, 1983, 1980, 1985, 1986, 1991, 1980, 1968, 1974, 1988, 1974, 1979, 1976, 1981, 1985, 1982, 1982, 1981, 1978, 1974, 1981, 1980, 1981, 1979, 1982, 1984, 1982, 1983, 1979, 1987, 1984, 1983, 1984, 1986, 1983, 1978, 1984, 1981, 1988, 1973, 1982, 1978, 1986, 1976, 1990, 1981, 1984, 1979, 1989, 1980, 1981, 1981, 1988, 1981, 1981, 1980, 1989, 1981, 1984, 1984, 1979, 1979, 1978, 1982, 1987, 1995, 1987, 1985, 1980, 1985, 1981, 1980, 1976, 1979, 1985, 1986, 1988, 1980, 1986, 1988, 1986, 1982, 1980, 1981, 1978, 1977, 1987, 1979, 1978, 1988, 1985, 1973, 1980, 1977, 1981, 1986, 1983],
      "WindowCenter": [971.0, 970.0, 970.0, 970.0, 970.0, 970.0, 971.0, 971.0, 970.0, 971.0, 970.0, 970.0, 970.0, 970.0, 970.0, 970.0, 970.0, 970.0, 971.0, 971.0, 971.0, 970.0, 971.0, 970.0, 970.0, 971.0, 970.0, 971.0, 971.0, 971.0, 971.0, 971.0, 971.0, 970.0, 970.0, 971.0, 970.0, 971.0, 971.0, 971.0, 970.0, 970.0, 970.0, 971.0, 970.0, 970.0, 970.0, 970.0, 971.0, 970.0, 970.0, 970.0, 971.0, 970.0, 971.0, 970.0, 970.0, 971.0, 971.0, 971.0, 970.0, 970.0, 970.0, 970.0, 970.0, 970.0, 971.0, 970.0, 971.0, 971.0, 971.0, 970.0, 971.0, 970.0, 970.0, 970.0, 971.0, 970.0, 971.0, 970.0, 970.0, 971.0, 970.0, 970.0, 970.0, 970.0, 970.0, 970.0, 970.0, 970.0, 970.0, 970.0, 970.0, 970.0, 970.0, 970.0, 970.0, 970.0, 970.0, 970.0, 969.0, 970.0, 970.0, 970.0, 970.0, 970.0, 970.0, 970.0, 970.0, 970.0, 970.0, 970.0, 970.0, 970.0, 970.0, 970.0, 970.0, 970.0, 970.0, 970.0, 969.0, 969.0, 970.0, 970.0, 970.0, 970.0, 970.0, 970.0, 971.0, 970.0, 969.0, 969.0, 969.0, 970.0, 970.0, 969.0, 970.0, 970.0, 970.0, 969.0, 969.0, 970.0, 969.0, 970.0, 969.0, 970.0, 969.0, 970.0, 969.0, 969.0, 969.0, 969.0, 969.0, 969.0, 969.0, 969.0, 970.0, 970.0, 969.0, 969.0, 969.0, 970.0, 969.0, 970.0, 969.0, 969.0, 969.0, 969.0, 970.0, 969.0, 970.0, 970.0, 969.0, 970.0, 970.0, 970.0, 970.0, 970.0, 969.0, 970.0, 970.0, 969.0, 969.0, 970.0, 970.0, 969.0, 970.0, 969.0, 970.0, 970.0, 969.0, 969.0, 970.0, 969.0, 970.0, 970.0, 970.0, 969.0, 970.0, 969.0],
      "WindowWidth": [2115.0, 2114.0, 2114.0, 2114.0, 2114.0, 2114.0, 2115.0, 2115.0, 2114.0, 2115.0, 2114.0, 2114.0, 2114.0, 2114.0, 2114.0, 2114.0, 2114.0, 2114.0, 2115.0, 2114.0, 2115.0, 2114.0, 2115.0, 2114.0, 2114.0, 2115.0, 2114.0, 2114.0, 2115.0, 2115.0, 2115.0, 2115.0, 2115.0, 2114.0, 2114.0, 2115.0, 2114.0, 2115.0, 2115.0, 2115.0, 2114.0, 2113.0, 2114.0, 2115.0, 2114.0, 2114.0, 2114.0, 2114.0, 2115.0, 2114.0, 2114.0, 2113.0, 2114.0, 2114.0, 2115.0, 2113.0, 2113.0, 2114.0, 2114.0, 2114.0, 2114.0, 2114.0, 2113.0, 2113.0, 2114.0, 2113.0, 2115.0, 2113.0, 2114.0, 2114.0, 2114.0, 2114.0, 2114.0, 2113.0, 2113.0, 2114.0, 2114.0, 2113.0, 2114.0, 2114.0, 2113.0, 2114.0, 2113.0, 2113.0, 2114.0, 2113.0, 2114.0, 2114.0, 2114.0, 2113.0, 2114.0, 2114.0, 2114.0, 2113.0, 2113.0, 2114.0, 2113.0, 2113.0, 2113.0, 2114.0, 2113.0, 2113.0, 2114.0, 2113.0, 2114.0, 2114.0, 2114.0, 2114.0, 2113.0, 2114.0, 2114.0, 2113.0, 2114.0, 2113.0, 2114.0, 2113.0, 2114.0, 2113.0, 2113.0, 2113.0, 2113.0, 2113.0, 2113.0, 2113.0, 2113.0, 2113.0, 2113.0, 2113.0, 2114.0, 2113.0, 2113.0, 2113.0, 2112.0, 2113.0, 2113.0, 2113.0, 2113.0, 2113.0, 2113.0, 2113.0, 2113.0, 2113.0, 2113.0, 2113.0, 2113.0, 2113.0, 2113.0, 2113.0, 2113.0, 2113.0, 2113.0, 2112.0, 2113.0, 2112.0, 2113.0, 2113.0, 2113.0, 2113.0, 2113.0, 2112.0, 2112.0, 2113.0, 2113.0, 2113.0, 2112.0, 2112.0, 2112.0, 2112.0, 2113.0, 2112.0, 2113.0, 2113.0, 2113.0, 2113.0, 2113.0, 2113.0, 2112.0, 2113.0, 2112.0, 2113.0, 2113.0, 2113.0, 2112.0, 2112.0, 2113.0, 2112.0, 2113.0, 2112.0, 2112.0, 2113.0, 2112.0, 2112.0, 2112.0, 2112.0, 2112.0, 2112.0, 2112.0, 2112.0, 2113.0, 2112.0]
    },
    "slices": {}
  }
}