{
  "AcquisitionMatrixPE": 80,
  "AcquisitionNumber": 1,
  "AcquisitionTime": "10:40:35.145000",
  "BandwidthPerPixelPhaseEncode": 44.643,
  "BaseResolution": 80,
  "BodyPartExamined": "BRAIN",
  "CoilCombinationMethod": "Sum of Squares",
  "ConsistencyInfo": "N4_VE11C_LATEST_20160120",
  "ConversionSoftware": "dcm2niix",
  "ConversionSoftwareVersion": "v1.0.20220720",
  "DerivedVendorReportedEchoSpacing": 0.000559998,
  "DeviceSerialNumber": "66112",
  "DwellTime": 2.7e-06,
  "EchoTime": 0.035,
  "EchoTrainLength": 39,
  "EffectiveEchoSpacing": 0.000279999,
  "FlipAngle": 90,
  "HeudiconvVersion": "0.13.1",
  "ImageOrientationPatientDICOM": [0.984852, 0.173158, 0.00908449, -0.167636, 0.937439, 0.305133],
  "ImageOrientationText": "Tra>Cor(17.6)>Sag(-2.5)",
  "ImageType": [
    "ORIGINAL",
    "PRIMARY",
    "M",
    "ND",
    "NORM",
    "MOSAIC"
],
  "ImagingFrequency": 123.252,
  "InPlanePhaseEncodingDirectionDICOM": "COL",
  "InstitutionAddress": "Maynard 3,Hanover,NH,US,03755",
  "InstitutionName": "Dartmouth College - PBS",
  "InstitutionalDepartmentName": "Department",
  "MRAcquisitionType": "2D",
  "MagneticFieldStrength": 3,
  "Manufacturer": "Siemens",
  "ManufacturersModelName": "Prisma",
  "Modality": "MR",
  "MultibandAccelerationFactor": 4,
  "NonlinearGradientCorrection": false,
  "ParallelReductionFactorInPlane": 2,
  "PartialFourier": 1,
  "PatientPosition": "HFS",
  "PercentPhaseFOV": 100,
  "PercentSampling": 100,
  "PhaseEncodingDirection": "j-",
  "PhaseEncodingSteps": 79,
  "PhaseResolution": 1,
  "PixelBandwidth": 2315,
  "ProcedureStepDescription": "dbic^QA",
  "ProtocolName": "func-bold_task-rest_acq-p2-s4-3.5mm",
  "PulseSequenceDetails": "%SiemensSeq%\\ep2d_bold",
  "ReceiveCoilActiveElements": "HEA;HEP",
  "ReceiveCoilName": "Head_32",
  "ReconMatrixPE": 80,
  "RefLinesPE": 24,
  "RepetitionTime": 2,
  "SAR": 0.0208812,
  "ScanOptions": "FS",
  "ScanningSequence": "EP",
  "SequenceName": "*epfid2d1_80",
  "SequenceVariant": "SK",
  "SeriesDescription": "func-bold_task-rest_acq-p2-s4-3.5mm",
  "SeriesNumber": 7,
  "ShimSetting": [4151, -7697, -7506, 337, -44, -91, -58, 68],
  "SliceThickness": 3.5,
  "SliceTiming": [1.485, 0, 0.99, 0.2475, 1.2375, 0.7425, 1.7325, 0.495, 1.485, 0, 0.99, 0.2475, 1.2375, 0.7425, 1.7325, 0.495, 1.485, 0, 0.99, 0.2475, 1.2375, 0.7425, 1.7325, 0.495, 1.485, 0, 0.99, 0.2475, 1.2375, 0.7425, 1.7325, 0.495],
  "SoftwareVersions": "syngo MR E11",
  "SpacingBetweenSlices": 3.99,
  "StationName": "AWP66112",
  "TaskName": "rest",
  "TotalReadoutTime": 0.0221199,
  "TxRefAmp": 230.474,
  "dcmmeta_affine": [
    [-2.954556465148926, -0.5029088854789734, -0.17683681845664978, 140.64735412597656],
    [-0.5194737911224365, 2.812317371368408, 1.2051140069961548, -102.49607849121094],
    [0.02725345827639103, -0.915398359298706, 3.7995433807373047, -24.63198471069336],
    [0.0, 0.0, 0.0, 1.0]
],
  "dcmmeta_reorient_transform": [
    [0.0, -1.0, 0.0, 79.0],
    [1.0, 0.0, 0.0, 0.0],
    [0.0, 0.0, 1.0, 0.0],
    [0.0, 0.0, 0.0, 1.0]
],
  "dcmmeta_shape": [80, 80, 32, 200],
  "dcmmeta_slice_dim": 2,
  "dcmmeta_version": 0.6,
  "global": {
    "const": {
      "AccessionNumber": "qa",
      "AcquisitionMatrix": [80, 0, 0, 80],
      "AngioFlag": "N",
      "BitsAllocated": 16,
      "BitsStored": 12,
      "BodyPartExamined": "BRAIN",
      "Columns": 480,
      "EchoNumbers": 1,
      "EchoTime": 35.0,
      "EchoTrainLength": 39,
      "FlipAngle": 90.0,
      "HighBit": 11,
      "ImageOrientationPatient": [0.98485217500115, 0.17315792070609, 0.00908448635022, -0.1676363043297, 0.93743909421803, 0.30513278110085],
      "ImagePositionPatient": [-591.24706973047, -786.03519380109, -285.47881461433],
      "ImageType": [
        "ORIGINAL",
        "PRIMARY",
        "M",
        "ND",
        "NORM",
        "MOSAIC"
],
      "ImagedNucleus": "1H",
      "ImagingFrequency": 123.252425,
      "InPlanePhaseEncodingDirection": "COL",
      "MRAcquisitionType": "2D",
      "MagneticFieldStrength": 3.0,
      "Manufacturer": "SIEMENS",
      "ManufacturerModelName": "Prisma",
      "Modality": "MR",
      "NumberOfAverages": 1.0,
      "NumberOfPhaseEncodingSteps": 79,
      "PercentPhaseFieldOfView": 100.0,
      "PercentSampling": 100.0,
      "PerformedProcedureStepStartTime": "103017.670000",
      "PhotometricInterpretation": "MONOCHROME2",
      "PixelBandwidth": 2315.0,
      "PixelRepresentation": 0,
      "PixelSpacing": [3.0, 3.0],
      "ProtocolName": "func-bold_task-rest_acq-p2-s4-3.5mm",
      "RepetitionTime": 2000.0,
      "Rows": 480,
      "SAR": 0.02088122207542,
      "SamplesPerPixel": 1,
      "ScanOptions": "FS",
      "ScanningSequence": "EP",
      "SequenceName": "*epfid2d1_80",
      "SequenceVariant": "SK",
      "SeriesDescription": "func-bold_task-rest_acq-p2-s4-3.5mm",
      "SeriesNumber": 7,
      "SeriesTime": "104127.126000",
      "SliceLocation": -60.646962537926,
      "SliceThickness": 3.5,
      "SmallestImagePixelValue": 0,
      "SoftwareVersions": "syngo MR E11",
      "SpacingBetweenSlices": 3.9900000462757,
      "SpecificCharacterSet": "ISO_IR 100",
      "StudyID": "88",
      "StudyTime": "103017.600000",
      "TransmitCoilName": "Body",
      "VariableFlipAngleFlag": "N",
      "WindowCenterWidthExplanation": "Algo1",
      "dBdt": 0.0},
    "slices": {}
  },
  "time": {
    "samples": {
      "AcquisitionNumber": [1, 2, 3, 4, 5, 6, 7, 8, 9, 10, 11, 12, 13, 14, 15, 16, 17, 18, 19, 20, 21, 22, 23, 24, 25, 26, 27, 28, 29, 30, 31, 32, 33, 34, 35, 36, 37, 38, 39, 40, 41, 42, 43, 44, 45, 46, 47, 48, 49, 50, 51, 52, 53, 54, 55, 56, 57, 58, 59, 60, 61, 62, 63, 64, 65, 66, 67, 68, 69, 70, 71, 72, 73, 74, 75, 76, 77, 78, 79, 80, 81, 82, 83, 84, 85, 86, 87, 88, 89, 90, 91, 92, 93, 94, 95, 96, 97, 98, 99, 100, 101, 102, 103, 104, 105, 106, 107, 108, 109, 110, 111, 112, 113, 114, 115, 116, 117, 118, 119, 120, 121, 122, 123, 124, 125, 126, 127, 128, 129, 130, 131, 132, 133, 134, 135, 136, 137, 138, 139, 140, 141, 142, 143, 144, 145, 146, 147, 148, 149, 150, 151, 152, 153, 154, 155, 156, 157, 158, 159, 160, 161, 162, 163, 164, 165, 166, 167, 168, 169, 170, 171, 172, 173, 174, 175, 176, 177, 178, 179, 180, 181, 182, 183, 184, 185, 186, 187, 188, 189, 190, 191, 192, 193, 194, 195, 196, 197, 198, 199, 200],
      "AcquisitionTime": ["104035.145000", "104037.145000", "104039.145000", "104041.145000", "104043.145000", "104045.145000", "104047.145000", "104049.145000", "104051.145000", "104053.145000", "104055.145000", "104057.145000", "104059.145000", "104101.145000", "104103.145000", "104105.145000", "104107.145000", "104109.145000", "104111.145000", "104113.145000", "104115.145000", "104117.145000", "104119.145000", "104121.145000", "104123.145000", "104125.145000", "104127.145000", "104129.145000", "104131.145000", "104133.145000", "104135.145000", "104137.145000", "104139.145000", "104141.145000", "104143.145000", "104145.145000", "104147.145000", "104149.145000", "104151.145000", "104153.145000", "104155.145000", "104157.145000", "104159.145000", "104201.145000", "104203.145000", "104205.145000", "104207.145000", "104209.145000", "104211.145000", "104213.145000", "104215.145000", "104217.145000", "104219.145000", "104221.145000", "104223.145000", "104225.145000", "104227.145000", "104229.145000", "104231.145000", "104233.145000", "104235.145000", "104237.145000", "104239.145000", "104241.145000", "104243.145000", "104245.145000", "104247.145000", "104249.145000", "104251.145000", "104253.145000", "104255.145000", "104257.145000", "104259.145000", "104301.145000", "104303.145000", "104305.145000", "104307.145000", "104309.145000", "104311.145000", "104313.145000", "104315.145000", "104317.145000", "104319.145000", "104321.145000", "104323.145000", "104325.145000", "104327.145000", "104329.145000", "104331.145000", "104333.145000", "104335.145000", "104337.145000", "104339.145000", "104341.145000", "104343.145000", "104345.145000", "104347.145000", "104349.145000", "104351.145000", "104353.145000", "104355.145000", "104357.145000", "104359.145000", "104401.145000", "104403.145000", "104405.145000", "104407.145000", "104409.145000", "104411.145000", "104413.145000", "104415.145000", "104417.145000", "104419.145000", "104421.145000", "104423.145000", "104425.145000", "104427.145000", "104429.145000", "104431.145000", "104433.145000", "104435.145000", "104437.145000", "104439.145000", "104441.145000", "104443.145000", "104445.145000", "104447.145000", "104449.145000", "104451.145000", "104453.145000", "104455.145000", "104457.145000", "104459.145000", "104501.145000", "104503.145000", "104505.145000", "104507.145000", "104509.145000", "104511.145000", "104513.145000", "104515.145000", "104517.145000", "104519.145000", "104521.145000", "104523.145000", "104525.145000", "104527.145000", "104529.145000", "104531.145000", "104533.145000", "104535.145000", "104537.145000", "104539.145000", "104541.145000", "104543.145000", "104545.145000", "104547.145000", "104549.145000", "104551.145000", "104553.145000", "104555.145000", "104557.145000", "104559.145000", "104601.145000", "104603.145000", "104605.145000", "104607.145000", "104609.145000", "104611.145000", "104613.145000", "104615.145000", "104617.145000", "104619.145000", "104621.145000", "104623.145000", "104625.145000", "104627.145000", "104629.145000", "104631.145000", "104633.145000", "104635.145000", "104637.145000", "104639.145000", "104641.145000", "104643.145000", "104645.145000", "104647.145000", "104649.145000", "104651.145000", "104653.145000", "104655.145000", "104657.145000", "104659.145000", "104701.145000", "104703.145000", "104705.145000", "104707.145000", "104709.145000", "104711.145000", "104713.145000"],
      "ContentTime": ["104127.141000", "104127.144000", "104127.147000", "104127.149000", "104127.152000", "104127.154000", "104127.157000", "104127.168000", "104127.170000", "104127.173000", "104127.176000", "104127.178000", "104127.181000", "104127.183000", "104127.186000", "104127.188000", "104127.191000", "104127.193000", "104127.206000", "104127.209000", "104127.211000", "104127.214000", "104127.217000", "104127.219000", "104127.222000", "104127.225000", "104207.123000", "104207.126000", "104207.129000", "104207.131000", "104207.134000", "104207.137000", "104207.148000", "104207.151000", "104207.153000", "104207.156000", "104207.158000", "104207.161000", "104207.163000", "104207.166000", "104207.169000", "104207.171000", "104207.174000", "104207.177000", "104207.179000", "104207.182000", "104247.125000", "104247.128000", "104247.130000", "104247.133000", "104247.135000", "104247.138000", "104247.140000", "104247.143000", "104247.145000", "104247.148000", "104247.151000", "104247.153000", "104247.156000", "104247.159000", "104247.161000", "104247.164000", "104247.166000", "104247.169000", "104247.172000", "104247.174000", "104327.124000", "104327.127000", "104327.136000", "104327.138000", "104327.141000", "104327.143000", "104327.146000", "104327.148000", "104327.151000", "104327.154000", "104327.156000", "104327.159000", "104327.161000", "104327.164000", "104327.166000", "104327.169000", "104327.175000", "104327.178000", "104327.181000", "104327.183000", "104407.124000", "104407.127000", "104407.130000", "104407.133000", "104407.135000", "104407.138000", "104407.140000", "104407.143000", "104407.145000", "104407.148000", "104407.151000", "104407.153000", "104407.156000", "104407.158000", "104407.161000", "104407.163000", "104407.166000", "104407.168000", "104407.171000", "104407.174000", "104447.124000", "104447.126000", "104447.129000", "104447.132000", "104447.134000", "104447.137000", "104447.139000", "104447.142000", "104447.144000", "104447.147000", "104447.150000", "104447.152000", "104447.155000", "104447.157000", "104447.160000", "104447.162000", "104447.165000", "104447.167000", "104447.170000", "104447.173000", "104527.124000", "104527.127000", "104527.130000", "104527.132000", "104527.135000", "104527.138000", "104527.140000", "104527.143000", "104527.145000", "104527.148000", "104527.151000", "104527.153000", "104527.156000", "104527.158000", "104527.161000", "104527.163000", "104527.166000", "104527.169000", "104527.171000", "104527.174000", "104607.124000", "104607.127000", "104607.130000", "104607.133000", "104607.135000", "104607.138000", "104607.141000", "104607.143000", "104607.146000", "104607.148000", "104607.151000", "104607.153000", "104607.156000", "104607.159000", "104607.161000", "104607.164000", "104607.166000", "104607.169000", "104607.172000", "104607.174000", "104647.124000", "104647.126000", "104647.129000", "104647.131000", "104647.134000", "104647.137000", "104647.139000", "104647.142000", "104647.145000", "104647.147000", "104647.150000", "104647.152000", "104647.155000", "104647.158000", "104647.160000", "104647.163000", "104647.165000", "104647.168000", "104647.171000", "104647.173000", "104713.808000", "104713.811000", "104713.814000", "104713.816000", "104713.819000", "104713.822000", "104713.824000", "104713.827000", "104713.830000", "104713.832000", "104713.835000", "104713.838000", "104713.848000", "104713.851000"],
      "InstanceCreationTime": ["104127.141000", "104127.144000", "104127.147000", "104127.149000", "104127.152000", "104127.154000", "104127.157000", "104127.168000", "104127.170000", "104127.173000", "104127.176000", "104127.178000", "104127.181000", "104127.183000", "104127.186000", "104127.188000", "104127.191000", "104127.193000", "104127.206000", "104127.209000", "104127.211000", "104127.214000", "104127.217000", "104127.219000", "104127.222000", "104127.225000", "104207.123000", "104207.126000", "104207.129000", "104207.131000", "104207.134000", "104207.137000", "104207.148000", "104207.151000", "104207.153000", "104207.156000", "104207.158000", "104207.161000", "104207.163000", "104207.166000", "104207.169000", "104207.171000", "104207.174000", "104207.177000", "104207.179000", "104207.182000", "104247.125000", "104247.128000", "104247.130000", "104247.133000", "104247.135000", "104247.138000", "104247.140000", "104247.143000", "104247.145000", "104247.148000", "104247.151000", "104247.153000", "104247.156000", "104247.159000", "104247.161000", "104247.164000", "104247.166000", "104247.169000", "104247.172000", "104247.174000", "104327.124000", "104327.127000", "104327.136000", "104327.138000", "104327.141000", "104327.143000", "104327.146000", "104327.148000", "104327.151000", "104327.154000", "104327.156000", "104327.159000", "104327.161000", "104327.164000", "104327.166000", "104327.169000", "104327.175000", "104327.178000", "104327.181000", "104327.183000", "104407.124000", "104407.127000", "104407.130000", "104407.133000", "104407.135000", "104407.138000", "104407.140000", "104407.143000", "104407.145000", "104407.148000", "104407.151000", "104407.153000", "104407.156000", "104407.158000", "104407.161000", "104407.163000", "104407.166000", "104407.168000", "104407.171000", "104407.174000", "104447.124000", "104447.126000", "104447.129000", "104447.132000", "104447.134000", "104447.137000", "104447.139000", "104447.142000", "104447.144000", "104447.147000", "104447.150000", "104447.152000", "104447.155000", "104447.157000", "104447.160000", "104447.162000", "104447.165000", "104447.167000", "104447.170000", "104447.173000", "104527.124000", "104527.127000", "104527.130000", "104527.132000", "104527.135000", "104527.138000", "104527.140000", "104527.143000", "104527.145000", "104527.148000", "104527.151000", "104527.153000", "104527.156000", "104527.158000", "104527.161000", "104527.163000", "104527.166000", "104527.169000", "104527.171000", "104527.174000", "104607.124000", "104607.127000", "104607.130000", "104607.133000", "104607.135000", "104607.138000", "104607.141000", "104607.143000", "104607.146000", "104607.148000", "104607.151000", "104607.153000", "104607.156000", "104607.159000", "104607.161000", "104607.164000", "104607.166000", "104607.169000", "104607.172000", "104607.174000", "104647.124000", "104647.126000", "104647.129000", "104647.131000", "104647.134000", "104647.137000", "104647.139000", "104647.142000", "104647.145000", "104647.147000", "104647.150000", "104647.152000", "104647.155000", "104647.158000", "104647.160000", "104647.163000", "104647.165000", "104647.168000", "104647.171000", "104647.173000", "104713.808000", "104713.811000", "104713.814000", "104713.816000", "104713.819000", "104713.822000", "104713.824000", "104713.827000", "104713.830000", "104713.832000", "104713.835000", "104713.838000", "104713.848000", "104713.851000"],
      "InstanceNumber": [1, 2, 3, 4, 5, 6, 7, 8, 9, 10, 11, 12, 13, 14, 15, 16, 17, 18, 19, 20, 21, 22, 23, 24, 25, 26, 27, 28, 29, 30, 31, 32, 33, 34, 35, 36, 37, 38, 39, 40, 41, 42, 43, 44, 45, 46, 47, 48, 49, 50, 51, 52, 53, 54, 55, 56, 57, 58, 59, 60, 61, 62, 63, 64, 65, 66, 67, 68, 69, 70, 71, 72, 73, 74, 75, 76, 77, 78, 79, 80, 81, 82, 83, 84, 85, 86, 87, 88, 89, 90, 91, 92, 93, 94, 95, 96, 97, 98, 99, 100, 101, 102, 103, 104, 105, 106, 107, 108, 109, 110, 111, 112, 113, 114, 115, 116, 117, 118, 119, 120, 121, 122, 123, 124, 125, 126, 127, 128, 129, 130, 131, 132, 133, 134, 135, 136, 137, 138, 139, 140, 141, 142, 143, 144, 145, 146, 147, 148, 149, 150, 151, 152, 153, 154, 155, 156, 157, 158, 159, 160, 161, 162, 163, 164, 165, 166, 167, 168, 169, 170, 171, 172, 173, 174, 175, 176, 177, 178, 179, 180, 181, 182, 183, 184, 185, 186, 187, 188, 189, 190, 191, 192, 193, 194, 195, 196, 197, 198, 199, 200],
      "LargestImagePixelValue": [2005, 2007, 2006, 2005, 2006, 2000, 2000, 2000, 2009, 2003, 2008, 2012, 2006, 2003, 2003, 2003, 2006, 2008, 2007, 1998, 2002, 2003, 2006, 2007, 2002, 2004, 1999, 2005, 2002, 2004, 2003, 2003, 2003, 1998, 2003, 2000, 2001, 2004, 2005, 2006, 2000, 2002, 1999, 2002, 2005, 2001, 2001, 2001, 2003, 2002, 2001, 1999, 2004, 2003, 2006, 2002, 2002, 2005, 2009, 2000, 2006, 1999, 2003, 2004, 2009, 2001, 2001, 2003, 2002, 2000, 2007, 2000, 2003, 1999, 2003, 2001, 1999, 2005, 2001, 2002, 2004, 2001, 2005, 2001, 2000, 2006, 2001, 2001, 2004, 2004, 2001, 2002, 2002, 2006, 2003, 2000, 2004, 2002, 2004, 2001, 2001, 2002, 2004, 2003, 2005, 2002, 1999, 2000, 2003, 2002, 2007, 2001, 2001, 1992, 1995, 1997, 2002, 2007, 2009, 2006, 2001, 2002, 2001, 2000, 2000, 2002, 2001, 2001, 1996, 1995, 1993, 2002, 2000, 1999, 1999, 2007, 2012, 2004, 1996, 1995, 1994, 2006, 2000, 2003, 2002, 1998, 1999, 1998, 1994, 2002, 1996, 1995, 2003, 2005, 2005, 1998, 2002, 1995, 1997, 2007, 2006, 2011, 2016, 2009, 2005, 1994, 1994, 1993, 1997, 1995, 1997, 1996, 2002, 2001, 1997, 2001, 2001, 1994, 2004, 1997, 1998, 1991, 1992, 1989, 1993, 2000, 1996, 1996, 2001, 2007, 2010, 2008, 1999, 2007, 2003, 2003, 2000, 1994, 2000, 2006],
      "WindowCenter": [908.0, 908.0, 908.0, 908.0, 908.0, 908.0, 908.0, 908.0, 908.0, 908.0, 908.0, 908.0, 908.0, 908.0, 908.0, 908.0, 908.0, 908.0, 908.0, 908.0, 908.0, 908.0, 908.0, 908.0, 908.0, 908.0, 908.0, 908.0, 908.0, 908.0, 908.0, 908.0, 908.0, 908.0, 908.0, 908.0, 908.0, 908.0, 908.0, 908.0, 908.0, 908.0, 908.0, 908.0, 908.0, 908.0, 908.0, 908.0, 908.0, 908.0, 908.0, 908.0, 908.0, 907.0, 908.0, 908.0, 908.0, 907.0, 908.0, 908.0, 908.0, 907.0, 908.0, 908.0, 908.0, 908.0, 908.0, 908.0, 907.0, 908.0, 908.0, 908.0, 908.0, 908.0, 908.0, 908.0, 908.0, 908.0, 908.0, 908.0, 908.0, 908.0, 908.0, 908.0, 908.0, 908.0, 908.0, 908.0, 908.0, 908.0, 908.0, 908.0, 908.0, 907.0, 908.0, 908.0, 908.0, 908.0, 908.0, 908.0, 908.0, 908.0, 908.0, 908.0, 908.0, 907.0, 908.0, 908.0, 908.0, 908.0, 908.0, 908.0, 908.0, 908.0, 908.0, 908.0, 908.0, 908.0, 908.0, 908.0, 908.0, 908.0, 908.0, 908.0, 908.0, 908.0, 908.0, 908.0, 908.0, 908.0, 908.0, 908.0, 908.0, 908.0, 908.0, 908.0, 908.0, 908.0, 908.0, 908.0, 908.0, 908.0, 908.0, 908.0, 908.0, 908.0, 908.0, 908.0, 908.0, 908.0, 908.0, 908.0, 908.0, 908.0, 908.0, 908.0, 907.0, 908.0, 908.0, 908.0, 908.0, 908.0, 908.0, 908.0, 908.0, 908.0, 907.0, 908.0, 908.0, 908.0, 908.0, 908.0, 908.0, 908.0, 908.0, 908.0, 908.0, 908.0, 908.0, 908.0, 908.0, 908.0, 908.0, 908.0, 908.0, 908.0, 908.0, 908.0, 908.0, 908.0, 908.0, 908.0, 908.0, 908.0, 908.0, 908.0, 908.0, 908.0, 908.0, 908.0],
      "WindowWidth": [2053.0, 2053.0, 2053.0, 2053.0, 2053.0, 2053.0, 2053.0, 2053.0, 2053.0, 2054.0, 2053.0, 2053.0, 2052.0, 2053.0, 2053.0, 2053.0, 2053.0, 2053.0, 2053.0, 2053.0, 2053.0, 2053.0, 2053.0, 2053.0, 2053.0, 2053.0, 2053.0, 2053.0, 2053.0, 2053.0, 2053.0, 2053.0, 2053.0, 2053.0, 2053.0, 2053.0, 2053.0, 2053.0, 2054.0, 2053.0, 2053.0, 2053.0, 2054.0, 2053.0, 2053.0, 2053.0, 2053.0, 2053.0, 2054.0, 2053.0, 2054.0, 2053.0, 2052.0, 2052.0, 2052.0, 2052.0, 2052.0, 2053.0, 2052.0, 2052.0, 2052.0, 2053.0, 2053.0, 2052.0, 2053.0, 2053.0, 2052.0, 2053.0, 2053.0, 2052.0, 2052.0, 2052.0, 2052.0, 2052.0, 2052.0, 2052.0, 2052.0, 2052.0, 2052.0, 2052.0, 2053.0, 2053.0, 2052.0, 2052.0, 2052.0, 2052.0, 2052.0, 2052.0, 2053.0, 2052.0, 2052.0, 2052.0, 2052.0, 2052.0, 2052.0, 2052.0, 2052.0, 2053.0, 2052.0, 2052.0, 2052.0, 2052.0, 2052.0, 2053.0, 2053.0, 2052.0, 2052.0, 2053.0, 2052.0, 2052.0, 2052.0, 2053.0, 2053.0, 2052.0, 2052.0, 2052.0, 2052.0, 2053.0, 2052.0, 2052.0, 2052.0, 2053.0, 2052.0, 2053.0, 2053.0, 2054.0, 2053.0, 2053.0, 2053.0, 2052.0, 2052.0, 2053.0, 2052.0, 2053.0, 2053.0, 2052.0, 2052.0, 2052.0, 2052.0, 2052.0, 2052.0, 2052.0, 2052.0, 2052.0, 2052.0, 2052.0, 2052.0, 2052.0, 2052.0, 2052.0, 2052.0, 2052.0, 2053.0, 2052.0, 2052.0, 2052.0, 2052.0, 2052.0, 2052.0, 2052.0, 2052.0, 2053.0, 2052.0, 2052.0, 2052.0, 2052.0, 2052.0, 2052.0, 2052.0, 2052.0, 2052.0, 2052.0, 2052.0, 2052.0, 2052.0, 2052.0, 2052.0, 2052.0, 2052.0, 2052.0, 2052.0, 2052.0, 2052.0, 2052.0, 2052.0, 2052.0, 2052.0, 2052.0, 2052.0, 2052.0, 2052.0, 2052.0, 2052.0, 2052.0, 2052.0, 2052.0, 2052.0, 2052.0, 2052.0, 2052.0]
    },
    "slices": {}
  }
}