{
  "AcquisitionMatrixPE": 80,
  "AcquisitionNumber": 1,
  "AcquisitionTime": "09:26:58.505000",
  "BandwidthPerPixelPhaseEncode": 25,
  "BaseResolution": 80,
  "BodyPartExamined": "BRAIN",
  "CoilCombinationMethod": "Sum of Squares",
  "ConsistencyInfo": "N4_VE11E_LATEST_20181129",
  "ConversionSoftware": "dcm2niix",
  "ConversionSoftwareVersion": "v1.0.20220720",
  "DerivedVendorReportedEchoSpacing": 0.0005,
  "DeviceSerialNumber": "66112",
  "DwellTime": 2.7e-06,
  "EchoTime": 0.03,
  "EchoTrainLength": 80,
  "EffectiveEchoSpacing": 0.0005,
  "FlipAngle": 10,
  "HeudiconvVersion": "0.13.1",
  "ImageOrientationPatientDICOM": [0.987691, 0.156367, 0.00401568, -0.150256, 0.941327, 0.302202],
  "ImageOrientationText": "Tra>Cor(17.4)>Sag(-2.5)",
  "ImageType": [
    "ORIGINAL",
    "PRIMARY",
    "M",
    "ND",
    "NORM",
    "MOSAIC"
],
  "ImagingFrequency": 123.259,
  "InPlanePhaseEncodingDirectionDICOM": "COL",
  "InstitutionAddress": "Maynard 3,Hanover,NH,US,03755",
  "InstitutionName": "Dartmouth College - PBS",
  "InstitutionalDepartmentName": "Department",
  "MRAcquisitionType": "2D",
  "MagneticFieldStrength": 3,
  "Manufacturer": "Siemens",
  "ManufacturersModelName": "Prisma",
  "MatrixCoilMode": "SENSE",
  "Modality": "MR",
  "NonlinearGradientCorrection": false,
  "PartialFourier": 1,
  "PatientPosition": "HFS",
  "PercentPhaseFOV": 100,
  "PercentSampling": 100,
  "PhaseEncodingDirection": "j-",
  "PhaseEncodingSteps": 80,
  "PhaseResolution": 1,
  "PixelBandwidth": 2315,
  "ProcedureStepDescription": "dbic^QA",
  "ProtocolName": "func-bold_fa-10",
  "PulseSequenceDetails": "%SiemensSeq%\\ep2d_bold",
  "ReceiveCoilActiveElements": "HC1-7;NC1,2",
  "ReceiveCoilName": "HeadNeck_64",
  "ReconMatrixPE": 80,
  "RepetitionTime": 2,
  "SAR": 0.00757498,
  "ScanOptions": "FS",
  "ScanningSequence": "EP",
  "SequenceName": "*epfid2d1_80",
  "SequenceVariant": "SK",
  "SeriesDescription": "func-bold_fa-10",
  "SeriesNumber": 7,
  "ShimSetting": [4216, -7740, -7488, -125, -165, -240, -66, 82],
  "SliceThickness": 3.5,
  "SliceTiming": [0.99, 0, 1.0575, 0.0675, 1.1225, 0.1325, 1.19, 0.2, 1.255, 0.265, 1.32, 0.33, 1.3875, 0.3975, 1.4525, 0.4625, 1.5175, 0.53, 1.585, 0.595, 1.65, 0.66, 1.7175, 0.7275, 1.7825, 0.7925, 1.8475, 0.86, 1.915, 0.925],
  "SoftwareVersions": "syngo MR E11",
  "SpacingBetweenSlices": 3.99,
  "StationName": "AWP66112",
  "TotalReadoutTime": 0.0395,
  "TxRefAmp": 214.258,
  "dcmmeta_affine": [
    [-2.9630722999572754, -0.4507678747177124, -0.17346319556236267, 138.9611358642578],
    [-0.469102144241333, 2.823981761932373, 1.1933516263961792, -107.52478790283203],
    [0.012047032825648785, -0.9066063165664673, 3.8034093379974365, -22.003633499145508],
    [0.0, 0.0, 0.0, 1.0]
],
  "dcmmeta_reorient_transform": [
    [0.0, -1.0, 0.0, 79.0],
    [1.0, 0.0, 0.0, 0.0],
    [0.0, 0.0, 1.0, 0.0],
    [0.0, 0.0, 0.0, 1.0]
],
  "dcmmeta_shape": [80, 80, 30, 200],
  "dcmmeta_slice_dim": 2,
  "dcmmeta_version": 0.6,
  "global": {
    "const": {
      "AccessionNumber": "qa64",
      "AcquisitionMatrix": [80, 0, 0, 80],
      "AngioFlag": "N",
      "BitsAllocated": 16,
      "BitsStored": 12,
      "BodyPartExamined": "BRAIN",
      "Columns": 480,
      "EchoNumbers": 1,
      "EchoTime": 30.0,
      "EchoTrainLength": 80,
      "FlipAngle": 10.0,
      "HighBit": 11,
      "ImageOrientationPatient": [0.98769080016497, 0.15636738023684, 0.00401567769605, -0.1502559564191, 0.94132727261917, 0.30220210684895],
      "ImagePositionPatient": [-605.81137721566, -774.18656652972, -277.35620321835],
      "ImageType": [
        "ORIGINAL",
        "PRIMARY",
        "M",
        "ND",
        "NORM",
        "MOSAIC"
],
      "ImagedNucleus": "1H",
      "ImagingFrequency": 123.259175,
      "InPlanePhaseEncodingDirection": "COL",
      "MRAcquisitionType": "2D",
      "MagneticFieldStrength": 3.0,
      "Manufacturer": "SIEMENS",
      "ManufacturerModelName": "Prisma",
      "Modality": "MR",
      "NumberOfAverages": 1.0,
      "NumberOfPhaseEncodingSteps": 80,
      "PercentPhaseFieldOfView": 100.0,
      "PercentSampling": 100.0,
      "PerformedProcedureStepStartTime": "085124.489000",
      "PhotometricInterpretation": "MONOCHROME2",
      "PixelBandwidth": 2315.0,
      "PixelRepresentation": 0,
      "PixelSpacing": [3.0, 3.0],
      "ProtocolName": "func-bold_fa-10",
      "RepetitionTime": 2000.0,
      "Rows": 480,
      "SAR": 0.00757498144519,
      "SamplesPerPixel": 1,
      "ScanOptions": "FS",
      "ScanningSequence": "EP",
      "SequenceName": "*epfid2d1_80",
      "SequenceVariant": "SK",
      "SeriesDescription": "func-bold_fa-10",
      "SeriesNumber": 7,
      "SeriesTime": "092738.870000",
      "SliceLocation": -59.175024243429,
      "SliceThickness": 3.5,
      "SmallestImagePixelValue": 0,
      "SoftwareVersions": "syngo MR E11",
      "SpacingBetweenSlices": 3.9899999932145,
      "SpecificCharacterSet": "ISO_IR 100",
      "StudyID": "28",
      "StudyTime": "085124.271000",
      "TransmitCoilName": "Body",
      "VariableFlipAngleFlag": "N",
      "WindowCenterWidthExplanation": "Algo1"
    },
    "slices": {}
  },
  "time": {
    "samples": {
      "AcquisitionNumber": [1, 2, 3, 4, 5, 6, 7, 8, 9, 10, 11, 12, 13, 14, 15, 16, 17, 18, 19, 20, 21, 22, 23, 24, 25, 26, 27, 28, 29, 30, 31, 32, 33, 34, 35, 36, 37, 38, 39, 40, 41, 42, 43, 44, 45, 46, 47, 48, 49, 50, 51, 52, 53, 54, 55, 56, 57, 58, 59, 60, 61, 62, 63, 64, 65, 66, 67, 68, 69, 70, 71, 72, 73, 74, 75, 76, 77, 78, 79, 80, 81, 82, 83, 84, 85, 86, 87, 88, 89, 90, 91, 92, 93, 94, 95, 96, 97, 98, 99, 100, 101, 102, 103, 104, 105, 106, 107, 108, 109, 110, 111, 112, 113, 114, 115, 116, 117, 118, 119, 120, 121, 122, 123, 124, 125, 126, 127, 128, 129, 130, 131, 132, 133, 134, 135, 136, 137, 138, 139, 140, 141, 142, 143, 144, 145, 146, 147, 148, 149, 150, 151, 152, 153, 154, 155, 156, 157, 158, 159, 160, 161, 162, 163, 164, 165, 166, 167, 168, 169, 170, 171, 172, 173, 174, 175, 176, 177, 178, 179, 180, 181, 182, 183, 184, 185, 186, 187, 188, 189, 190, 191, 192, 193, 194, 195, 196, 197, 198, 199, 200],
      "AcquisitionTime": ["092658.505000", "092700.505000", "092702.505000", "092704.505000", "092706.505000", "092708.505000", "092710.505000", "092712.505000", "092714.505000", "092716.505000", "092718.505000", "092720.505000", "092722.505000", "092724.505000", "092726.505000", "092728.505000", "092730.505000", "092732.505000", "092734.505000", "092736.505000", "092738.505000", "092740.505000", "092742.505000", "092744.505000", "092746.505000", "092748.505000", "092750.505000", "092752.505000", "092754.505000", "092756.505000", "092758.505000", "092800.505000", "092802.505000", "092804.505000", "092806.505000", "092808.505000", "092810.505000", "092812.505000", "092814.505000", "092816.505000", "092818.505000", "092820.505000", "092822.505000", "092824.505000", "092826.505000", "092828.505000", "092830.505000", "092832.505000", "092834.505000", "092836.505000", "092838.505000", "092840.505000", "092842.505000", "092844.505000", "092846.505000", "092848.505000", "092850.505000", "092852.505000", "092854.505000", "092856.505000", "092858.505000", "092900.505000", "092902.505000", "092904.505000", "092906.505000", "092908.505000", "092910.505000", "092912.505000", "092914.505000", "092916.505000", "092918.505000", "092920.505000", "092922.505000", "092924.505000", "092926.505000", "092928.505000", "092930.505000", "092932.505000", "092934.505000", "092936.505000", "092938.505000", "092940.505000", "092942.505000", "092944.505000", "092946.505000", "092948.505000", "092950.505000", "092952.505000", "092954.505000", "092956.505000", "092958.505000", "093000.505000", "093002.505000", "093004.505000", "093006.505000", "093008.505000", "093010.505000", "093012.505000", "093014.505000", "093016.505000", "093018.505000", "093020.505000", "093022.505000", "093024.505000", "093026.505000", "093028.505000", "093030.505000", "093032.505000", "093034.505000", "093036.505000", "093038.505000", "093040.505000", "093042.505000", "093044.505000", "093046.505000", "093048.505000", "093050.505000", "093052.505000", "093054.505000", "093056.505000", "093058.505000", "093100.505000", "093102.505000", "093104.505000", "093106.505000", "093108.505000", "093110.505000", "093112.505000", "093114.505000", "093116.505000", "093118.505000", "093120.505000", "093122.505000", "093124.505000", "093126.505000", "093128.505000", "093130.505000", "093132.505000", "093134.505000", "093136.505000", "093138.505000", "093140.505000", "093142.505000", "093144.505000", "093146.505000", "093148.505000", "093150.505000", "093152.505000", "093154.505000", "093156.505000", "093158.505000", "093200.505000", "093202.505000", "093204.505000", "093206.505000", "093208.505000", "093210.505000", "093212.505000", "093214.505000", "093216.505000", "093218.505000", "093220.505000", "093222.505000", "093224.505000", "093226.505000", "093228.505000", "093230.505000", "093232.505000", "093234.505000", "093236.505000", "093238.505000", "093240.505000", "093242.505000", "093244.505000", "093246.505000", "093248.505000", "093250.505000", "093252.505000", "093254.505000", "093256.505000", "093258.505000", "093300.505000", "093302.505000", "093304.505000", "093306.505000", "093308.505000", "093310.505000", "093312.505000", "093314.505000", "093316.505000", "093318.505000", "093320.505000", "093322.505000", "093324.505000", "093326.505000", "093328.505000", "093330.505000", "093332.505000", "093334.505000", "093336.505000"],
      "ContentTime": ["092738.873000", "092738.876000", "092738.879000", "092738.881000", "092738.883000", "092738.894000", "092738.896000", "092738.901000", "092738.904000", "092738.906000", "092738.908000", "092738.910000", "092738.913000", "092738.915000", "092738.917000", "092738.919000", "092738.922000", "092738.924000", "092738.926000", "092738.929000", "092818.867000", "092818.870000", "092818.872000", "092818.880000", "092818.883000", "092818.889000", "092818.891000", "092818.893000", "092818.896000", "092818.898000", "092818.900000", "092818.903000", "092818.905000", "092818.907000", "092818.909000", "092818.912000", "092818.914000", "092818.916000", "092818.919000", "092818.921000", "092858.868000", "092858.870000", "092858.873000", "092858.875000", "092858.877000", "092858.880000", "092858.882000", "092858.884000", "092858.887000", "092858.889000", "092858.891000", "092858.893000", "092858.896000", "092858.898000", "092858.900000", "092858.902000", "092858.905000", "092858.913000", "092858.915000", "092858.918000", "092938.877000", "092938.879000", "092938.882000", "092938.884000", "092938.886000", "092938.889000", "092938.891000", "092938.893000", "092938.895000", "092938.898000", "092938.900000", "092938.902000", "092938.904000", "092938.907000", "092938.909000", "092938.911000", "092938.914000", "092938.916000", "092938.918000", "092938.920000", "093018.868000", "093018.871000", "093018.873000", "093018.875000", "093018.877000", "093018.880000", "093018.882000", "093018.884000", "093018.886000", "093018.889000", "093018.891000", "093018.893000", "093018.896000", "093018.898000", "093018.900000", "093018.902000", "093018.905000", "093018.907000", "093018.909000", "093018.912000", "093058.867000", "093058.869000", "093058.872000", "093058.874000", "093058.876000", "093058.879000", "093058.881000", "093058.883000", "093058.885000", "093058.888000", "093058.890000", "093058.892000", "093058.894000", "093058.897000", "093058.899000", "093058.901000", "093058.903000", "093058.906000", "093058.908000", "093058.910000", "093138.868000", "093138.871000", "093138.873000", "093138.875000", "093138.878000", "093138.880000", "093138.882000", "093138.885000", "093138.887000", "093138.889000", "093138.891000", "093138.894000", "093138.896000", "093138.898000", "093138.901000", "093138.907000", "093138.909000", "093138.911000", "093138.914000", "093138.916000", "093218.868000", "093218.871000", "093218.873000", "093218.875000", "093218.877000", "093218.880000", "093218.882000", "093218.884000", "093218.886000", "093218.889000", "093218.891000", "093218.893000", "093218.896000", "093218.898000", "093218.900000", "093218.903000", "093218.905000", "093218.907000", "093218.909000", "093218.912000", "093258.867000", "093258.870000", "093258.872000", "093258.874000", "093258.877000", "093258.879000", "093258.881000", "093258.883000", "093258.886000", "093258.888000", "093258.890000", "093258.892000", "093258.895000", "093258.897000", "093258.899000", "093258.901000", "093258.904000", "093258.906000", "093258.908000", "093258.911000", "093337.996000", "093337.998000", "093338.001000", "093338.003000", "093338.005000", "093338.008000", "093338.010000", "093338.012000", "093338.015000", "093338.017000", "093338.019000", "093338.022000", "093338.024000", "093338.027000", "093338.030000", "093338.033000", "093338.037000", "093338.040000", "093338.046000", "093338.064000"],
      "InstanceCreationTime": ["092738.873000", "092738.876000", "092738.879000", "092738.881000", "092738.883000", "092738.894000", "092738.896000", "092738.901000", "092738.904000", "092738.906000", "092738.908000", "092738.910000", "092738.913000", "092738.915000", "092738.917000", "092738.919000", "092738.922000", "092738.924000", "092738.926000", "092738.929000", "092818.867000", "092818.870000", "092818.872000", "092818.880000", "092818.883000", "092818.889000", "092818.891000", "092818.893000", "092818.896000", "092818.898000", "092818.900000", "092818.903000", "092818.905000", "092818.907000", "092818.909000", "092818.912000", "092818.914000", "092818.916000", "092818.919000", "092818.921000", "092858.868000", "092858.870000", "092858.873000", "092858.875000", "092858.877000", "092858.880000", "092858.882000", "092858.884000", "092858.887000", "092858.889000", "092858.891000", "092858.893000", "092858.896000", "092858.898000", "092858.900000", "092858.902000", "092858.905000", "092858.913000", "092858.915000", "092858.918000", "092938.877000", "092938.879000", "092938.882000", "092938.884000", "092938.886000", "092938.889000", "092938.891000", "092938.893000", "092938.895000", "092938.898000", "092938.900000", "092938.902000", "092938.904000", "092938.907000", "092938.909000", "092938.911000", "092938.914000", "092938.916000", "092938.918000", "092938.920000", "093018.868000", "093018.871000", "093018.873000", "093018.875000", "093018.877000", "093018.880000", "093018.882000", "093018.884000", "093018.886000", "093018.889000", "093018.891000", "093018.893000", "093018.896000", "093018.898000", "093018.900000", "093018.902000", "093018.905000", "093018.907000", "093018.909000", "093018.912000", "093058.867000", "093058.869000", "093058.872000", "093058.874000", "093058.876000", "093058.879000", "093058.881000", "093058.883000", "093058.885000", "093058.888000", "093058.890000", "093058.892000", "093058.894000", "093058.897000", "093058.899000", "093058.901000", "093058.903000", "093058.906000", "093058.908000", "093058.910000", "093138.868000", "093138.871000", "093138.873000", "093138.875000", "093138.878000", "093138.880000", "093138.882000", "093138.885000", "093138.887000", "093138.889000", "093138.891000", "093138.894000", "093138.896000", "093138.898000", "093138.901000", "093138.907000", "093138.909000", "093138.911000", "093138.914000", "093138.916000", "093218.868000", "093218.871000", "093218.873000", "093218.875000", "093218.877000", "093218.880000", "093218.882000", "093218.884000", "093218.886000", "093218.889000", "093218.891000", "093218.893000", "093218.896000", "093218.898000", "093218.900000", "093218.903000", "093218.905000", "093218.907000", "093218.909000", "093218.912000", "093258.867000", "093258.870000", "093258.872000", "093258.874000", "093258.877000", "093258.879000", "093258.881000", "093258.883000", "093258.886000", "093258.888000", "093258.890000", "093258.892000", "093258.895000", "093258.897000", "093258.899000", "093258.901000", "093258.904000", "093258.906000", "093258.908000", "093258.911000", "093337.996000", "093337.998000", "093338.001000", "093338.003000", "093338.005000", "093338.008000", "093338.010000", "093338.012000", "093338.015000", "093338.017000", "093338.019000", "093338.022000", "093338.024000", "093338.027000", "093338.030000", "093338.033000", "093338.037000", "093338.040000", "093338.046000", "093338.064000"],
      "InstanceNumber": [1, 2, 3, 4, 5, 6, 7, 8, 9, 10, 11, 12, 13, 14, 15, 16, 17, 18, 19, 20, 21, 22, 23, 24, 25, 26, 27, 28, 29, 30, 31, 32, 33, 34, 35, 36, 37, 38, 39, 40, 41, 42, 43, 44, 45, 46, 47, 48, 49, 50, 51, 52, 53, 54, 55, 56, 57, 58, 59, 60, 61, 62, 63, 64, 65, 66, 67, 68, 69, 70, 71, 72, 73, 74, 75, 76, 77, 78, 79, 80, 81, 82, 83, 84, 85, 86, 87, 88, 89, 90, 91, 92, 93, 94, 95, 96, 97, 98, 99, 100, 101, 102, 103, 104, 105, 106, 107, 108, 109, 110, 111, 112, 113, 114, 115, 116, 117, 118, 119, 120, 121, 122, 123, 124, 125, 126, 127, 128, 129, 130, 131, 132, 133, 134, 135, 136, 137, 138, 139, 140, 141, 142, 143, 144, 145, 146, 147, 148, 149, 150, 151, 152, 153, 154, 155, 156, 157, 158, 159, 160, 161, 162, 163, 164, 165, 166, 167, 168, 169, 170, 171, 172, 173, 174, 175, 176, 177, 178, 179, 180, 181, 182, 183, 184, 185, 186, 187, 188, 189, 190, 191, 192, 193, 194, 195, 196, 197, 198, 199, 200],
      "LargestImagePixelValue": [680, 681, 683, 679, 679, 684, 684, 680, 680, 683, 678, 684, 684, 682, 683, 681, 683, 679, 682, 683, 682, 682, 683, 679, 679, 686, 681, 682, 682, 683, 683, 683, 684, 682, 683, 682, 682, 680, 680, 683, 682, 680, 685, 680, 680, 682, 682, 683, 683, 682, 681, 681, 681, 683, 682, 683, 682, 679, 681, 682, 683, 680, 681, 684, 681, 679, 681, 680, 682, 680, 683, 682, 681, 680, 681, 678, 680, 680, 680, 681, 681, 678, 682, 679, 680, 681, 681, 679, 681, 682, 681, 685, 682, 684, 680, 682, 685, 682, 679, 680, 680, 678, 679, 681, 678, 678, 682, 680, 682, 681, 679, 679, 680, 682, 680, 683, 682, 684, 681, 684, 682, 680, 681, 684, 680, 680, 683, 685, 681, 683, 684, 683, 680, 684, 682, 679, 681, 681, 681, 680, 685, 678, 677, 679, 680, 679, 685, 682, 679, 677, 683, 681, 679, 679, 678, 683, 678, 682, 678, 679, 679, 682, 681, 681, 680, 681, 678, 681, 681, 682, 682, 682, 679, 679, 679, 680, 681, 683, 679, 679, 680, 679, 682, 685, 683, 682, 679, 677, 681, 684, 680, 682, 679, 678, 683, 677, 678, 681, 683, 677],
      "WindowCenter": [463.0, 463.0, 464.0, 463.0, 463.0, 463.0, 463.0, 463.0, 463.0, 463.0, 463.0, 463.0, 463.0, 463.0, 463.0, 463.0, 463.0, 463.0, 463.0, 463.0, 463.0, 463.0, 463.0, 463.0, 463.0, 463.0, 463.0, 463.0, 463.0, 463.0, 463.0, 463.0, 463.0, 463.0, 463.0, 463.0, 463.0, 463.0, 463.0, 463.0, 463.0, 463.0, 463.0, 463.0, 463.0, 463.0, 463.0, 463.0, 463.0, 463.0, 463.0, 463.0, 463.0, 463.0, 463.0, 463.0, 463.0, 463.0, 463.0, 463.0, 463.0, 463.0, 463.0, 463.0, 463.0, 463.0, 463.0, 463.0, 463.0, 463.0, 463.0, 463.0, 463.0, 463.0, 463.0, 463.0, 463.0, 463.0, 463.0, 463.0, 463.0, 463.0, 463.0, 463.0, 463.0, 463.0, 463.0, 463.0, 463.0, 463.0, 463.0, 463.0, 463.0, 463.0, 463.0, 463.0, 463.0, 463.0, 463.0, 463.0, 463.0, 463.0, 463.0, 463.0, 463.0, 463.0, 463.0, 463.0, 463.0, 463.0, 463.0, 463.0, 463.0, 463.0, 463.0, 463.0, 463.0, 463.0, 463.0, 463.0, 463.0, 463.0, 463.0, 463.0, 463.0, 463.0, 463.0, 463.0, 463.0, 463.0, 463.0, 463.0, 463.0, 463.0, 463.0, 463.0, 462.0, 463.0, 463.0, 463.0, 463.0, 463.0, 462.0, 463.0, 463.0, 462.0, 463.0, 463.0, 463.0, 462.0, 463.0, 463.0, 462.0, 463.0, 463.0, 462.0, 462.0, 463.0, 462.0, 462.0, 463.0, 463.0, 462.0, 462.0, 463.0, 462.0, 462.0, 463.0, 462.0, 462.0, 462.0, 462.0, 462.0, 462.0, 462.0, 462.0, 462.0, 462.0, 462.0, 462.0, 462.0, 462.0, 462.0, 462.0, 462.0, 462.0, 462.0, 462.0, 462.0, 462.0, 462.0, 462.0, 462.0, 462.0, 462.0, 462.0, 462.0, 462.0, 462.0, 462.0],
      "WindowWidth": [962.0, 962.0, 963.0, 962.0, 962.0, 963.0, 963.0, 962.0, 962.0, 963.0, 962.0, 962.0, 963.0, 962.0, 962.0, 963.0, 962.0, 962.0, 962.0, 963.0, 962.0, 962.0, 963.0, 962.0, 962.0, 962.0, 962.0, 962.0, 962.0, 962.0, 962.0, 962.0, 962.0, 962.0, 962.0, 962.0, 962.0, 962.0, 962.0, 962.0, 962.0, 962.0, 962.0, 962.0, 962.0, 962.0, 962.0, 962.0, 962.0, 962.0, 961.0, 961.0, 962.0, 962.0, 962.0, 962.0, 962.0, 961.0, 961.0, 962.0, 962.0, 961.0, 962.0, 962.0, 961.0, 962.0, 962.0, 962.0, 961.0, 962.0, 962.0, 961.0, 962.0, 962.0, 962.0, 961.0, 961.0, 962.0, 961.0, 961.0, 962.0, 961.0, 961.0, 962.0, 961.0, 961.0, 962.0, 961.0, 961.0, 961.0, 961.0, 961.0, 961.0, 961.0, 961.0, 961.0, 961.0, 961.0, 961.0, 961.0, 961.0, 961.0, 961.0, 961.0, 961.0, 961.0, 961.0, 961.0, 961.0, 961.0, 961.0, 961.0, 961.0, 961.0, 961.0, 961.0, 961.0, 961.0, 961.0, 961.0, 961.0, 961.0, 961.0, 961.0, 961.0, 961.0, 961.0, 961.0, 961.0, 961.0, 961.0, 961.0, 961.0, 961.0, 961.0, 961.0, 960.0, 961.0, 960.0, 960.0, 961.0, 961.0, 960.0, 961.0, 961.0, 960.0, 960.0, 961.0, 961.0, 960.0, 961.0, 961.0, 960.0, 961.0, 961.0, 960.0, 960.0, 961.0, 960.0, 960.0, 961.0, 961.0, 960.0, 960.0, 961.0, 960.0, 960.0, 961.0, 960.0, 960.0, 960.0, 960.0, 960.0, 960.0, 960.0, 960.0, 960.0, 960.0, 960.0, 960.0, 960.0, 960.0, 960.0, 960.0, 960.0, 960.0, 960.0, 960.0, 960.0, 960.0, 960.0, 960.0, 960.0, 960.0, 960.0, 960.0, 959.0, 960.0, 960.0, 960.0]
    },
    "slices": {}
  }
}