{
  "AcquisitionMatrixPE": 80,
  "AcquisitionNumber": 1,
  "AcquisitionTime": "09:47:4.967500",
  "BandwidthPerPixelPhaseEncode": 48.077,
  "BaseResolution": 80,
  "BodyPartExamined": "BRAIN",
  "CoilCombinationMethod": "Sum of Squares",
  "ConsistencyInfo": "N4_VE11E_LATEST_20181129",
  "ConversionSoftware": "dcm2niix",
  "ConversionSoftwareVersion": "v1.0.20220720",
  "DerivedVendorReportedEchoSpacing": 0.000519999,
  "DeviceSerialNumber": "66112",
  "DwellTime": 2.7e-06,
  "EchoTime": 0.035,
  "EchoTrainLength": 39,
  "EffectiveEchoSpacing": 0.00026,
  "FlipAngle": 90,
  "HeudiconvVersion": "0.13.1",
  "ImageOrientationPatientDICOM": [0.989606, -0.143776, 0.00298973, 0.136087, 0.942995, 0.30371],
  "ImageOrientationText": "Tra>Cor(17.5)>Sag(2.7)",
  "ImageType": [
    "ORIGINAL",
    "PRIMARY",
    "M",
    "ND",
    "NORM",
    "MOSAIC"
],
  "ImagingFrequency": 123.259,
  "InPlanePhaseEncodingDirectionDICOM": "COL",
  "InstitutionAddress": "Maynard 3,Hanover,NH,US,03755",
  "InstitutionName": "Dartmouth College - PBS",
  "InstitutionalDepartmentName": "Department",
  "MRAcquisitionType": "2D",
  "MagneticFieldStrength": 3,
  "Manufacturer": "Siemens",
  "ManufacturersModelName": "Prisma",
  "MatrixCoilMode": "GRAPPA",
  "Modality": "MR",
  "NonlinearGradientCorrection": false,
  "ParallelReductionFactorInPlane": 2,
  "PartialFourier": 1,
  "PatientPosition": "HFS",
  "PercentPhaseFOV": 100,
  "PercentSampling": 100,
  "PhaseEncodingDirection": "j-",
  "PhaseEncodingSteps": 79,
  "PhaseResolution": 1,
  "PixelBandwidth": 2315,
  "ProcedureStepDescription": "dbic^QA",
  "ProtocolName": "func-bold_task-rest_acq-p2",
  "PulseSequenceDetails": "%SiemensSeq%\\ep2d_bold",
  "ReceiveCoilActiveElements": "HEA;HEP",
  "ReceiveCoilName": "Head_32",
  "ReconMatrixPE": 80,
  "RefLinesPE": 24,
  "RepetitionTime": 2,
  "SAR": 0.0722607,
  "ScanOptions": "FS",
  "ScanningSequence": "EP",
  "SequenceName": "*epfid2d1_80",
  "SequenceVariant": "SK",
  "SeriesDescription": "func-bold_task-rest_acq-p2",
  "SeriesNumber": 5,
  "ShimSetting": [4225, -7728, -7494, -15, -154, -121, -51, 69],
  "SliceThickness": 3.5,
  "SliceTiming": [0.99, 0, 1.055, 0.065, 1.1225, 0.1325, 1.1875, 0.1975, 1.255, 0.265, 1.32, 0.33, 1.385, 0.395, 1.4525, 0.4625, 1.5175, 0.5275, 1.585, 0.595, 1.65, 0.66, 1.715, 0.725, 1.7825, 0.7925, 1.8475, 0.8575, 1.915, 0.925],
  "SoftwareVersions": "syngo MR E11",
  "SpacingBetweenSlices": 3.99,
  "StationName": "AWP66112",
  "TaskName": "rest",
  "TotalReadoutTime": 0.02054,
  "TxRefAmp": 226.55,
  "dcmmeta_affine": [
    [-2.9688169956207275, 0.40826115012168884, 0.18547774851322174, 101.32640838623047],
    [0.43132928013801575, 2.828986644744873, 1.197583794593811, -137.8304443359375],
    [0.008969203568994999, -0.9111300706863403, 3.801511526107788, -50.46267318725586],
    [0.0, 0.0, 0.0, 1.0]
],
  "dcmmeta_reorient_transform": [
    [0.0, -1.0, 0.0, 79.0],
    [1.0, 0.0, 0.0, 0.0],
    [0.0, 0.0, 1.0, 0.0],
    [0.0, 0.0, 0.0, 1.0]
],
  "dcmmeta_shape": [80, 80, 30, 200],
  "dcmmeta_slice_dim": 2,
  "dcmmeta_version": 0.6,
  "global": {
    "const": {
      "AccessionNumber": "qa",
      "AcquisitionMatrix": [80, 0, 0, 80],
      "AngioFlag": "N",
      "BitsAllocated": 16,
      "BitsStored": 12,
      "BodyPartExamined": "BRAIN",
      "Columns": 480,
      "EchoNumbers": 1,
      "EchoTime": 35.0,
      "EchoTrainLength": 39,
      "FlipAngle": 90.0,
      "HighBit": 11,
      "ImageOrientationPatient": [0.98960567885821, -0.1437764301218, 0.00298973460631, 0.13608704821769, 0.9429955105161, 0.30371003021612],
      "ImagePositionPatient": [-808.99467235104, -565.19093269285, -306.46180827225],
      "ImageType": [
        "ORIGINAL",
        "PRIMARY",
        "M",
        "ND",
        "NORM",
        "MOSAIC"
],
      "ImagedNucleus": "1H",
      "ImagingFrequency": 123.259257,
      "InPlanePhaseEncodingDirection": "COL",
      "MRAcquisitionType": "2D",
      "MagneticFieldStrength": 3.0,
      "Manufacturer": "SIEMENS",
      "ManufacturerModelName": "Prisma",
      "Modality": "MR",
      "NumberOfAverages": 1.0,
      "NumberOfPhaseEncodingSteps": 79,
      "PercentPhaseFieldOfView": 100.0,
      "PercentSampling": 100.0,
      "PerformedProcedureStepStartTime": "094552.619000",
      "PhotometricInterpretation": "MONOCHROME2",
      "PixelBandwidth": 2315.0,
      "PixelRepresentation": 0,
      "PixelSpacing": [3.0, 3.0],
      "ProtocolName": "func-bold_task-rest_acq-p2",
      "RepetitionTime": 2000.0,
      "Rows": 480,
      "SAR": 0.07226072777117,
      "SamplesPerPixel": 1,
      "ScanOptions": "FS",
      "ScanningSequence": "EP",
      "SequenceName": "*epfid2d1_80",
      "SequenceVariant": "SK",
      "SeriesDescription": "func-bold_task-rest_acq-p2",
      "SeriesNumber": 5,
      "SeriesTime": "094746.785000",
      "SliceLocation": -84.737883708434,
      "SliceThickness": 3.5,
      "SmallestImagePixelValue": 0,
      "SoftwareVersions": "syngo MR E11",
      "SpacingBetweenSlices": 3.9899999427787,
      "SpecificCharacterSet": "ISO_IR 100",
      "StudyID": "10",
      "StudyTime": "094552.545000",
      "TransmitCoilName": "Body",
      "VariableFlipAngleFlag": "N",
      "WindowCenterWidthExplanation": "Algo1"
    },
    "slices": {}
  },
  "time": {
    "samples": {
      "AcquisitionNumber": [1, 2, 3, 4, 5, 6, 7, 8, 9, 10, 11, 12, 13, 14, 15, 16, 17, 18, 19, 20, 21, 22, 23, 24, 25, 26, 27, 28, 29, 30, 31, 32, 33, 34, 35, 36, 37, 38, 39, 40, 41, 42, 43, 44, 45, 46, 47, 48, 49, 50, 51, 52, 53, 54, 55, 56, 57, 58, 59, 60, 61, 62, 63, 64, 65, 66, 67, 68, 69, 70, 71, 72, 73, 74, 75, 76, 77, 78, 79, 80, 81, 82, 83, 84, 85, 86, 87, 88, 89, 90, 91, 92, 93, 94, 95, 96, 97, 98, 99, 100, 101, 102, 103, 104, 105, 106, 107, 108, 109, 110, 111, 112, 113, 114, 115, 116, 117, 118, 119, 120, 121, 122, 123, 124, 125, 126, 127, 128, 129, 130, 131, 132, 133, 134, 135, 136, 137, 138, 139, 140, 141, 142, 143, 144, 145, 146, 147, 148, 149, 150, 151, 152, 153, 154, 155, 156, 157, 158, 159, 160, 161, 162, 163, 164, 165, 166, 167, 168, 169, 170, 171, 172, 173, 174, 175, 176, 177, 178, 179, 180, 181, 182, 183, 184, 185, 186, 187, 188, 189, 190, 191, 192, 193, 194, 195, 196, 197, 198, 199, 200],
      "AcquisitionTime": ["094704.967500", "094706.967500", "094708.967500", "094710.967500", "094712.967500", "094714.967500", "094716.967500", "094718.967500", "094720.967500", "094722.967500", "094724.967500", "094726.967500", "094728.967500", "094730.967500", "094732.967500", "094734.967500", "094736.967500", "094738.967500", "094740.967500", "094742.967500", "094744.967500", "094746.967500", "094748.967500", "094750.967500", "094752.967500", "094754.967500", "094756.967500", "094758.967500", "094800.967500", "094802.967500", "094804.967500", "094806.967500", "094808.967500", "094810.967500", "094812.967500", "094814.967500", "094816.967500", "094818.967500", "094820.967500", "094822.967500", "094824.967500", "094826.967500", "094828.967500", "094830.967500", "094832.967500", "094834.967500", "094836.967500", "094838.967500", "094840.967500", "094842.967500", "094844.967500", "094846.967500", "094848.967500", "094850.967500", "094852.967500", "094854.967500", "094856.967500", "094858.967500", "094900.967500", "094902.967500", "094904.967500", "094906.967500", "094908.967500", "094910.967500", "094912.967500", "094914.967500", "094916.967500", "094918.967500", "094920.967500", "094922.967500", "094924.967500", "094926.967500", "094928.967500", "094930.967500", "094932.967500", "094934.967500", "094936.967500", "094938.967500", "094940.967500", "094942.967500", "094944.967500", "094946.967500", "094948.967500", "094950.967500", "094952.967500", "094954.967500", "094956.967500", "094958.967500", "095000.967500", "095002.967500", "095004.967500", "095006.967500", "095008.967500", "095010.967500", "095012.967500", "095014.967500", "095016.967500", "095018.967500", "095020.967500", "095022.967500", "095024.967500", "095026.967500", "095028.967500", "095030.967500", "095032.967500", "095034.967500", "095036.967500", "095038.967500", "095040.967500", "095042.967500", "095044.967500", "095046.967500", "095048.967500", "095050.967500", "095052.967500", "095054.967500", "095056.967500", "095058.967500", "095100.967500", "095102.967500", "095104.967500", "095106.967500", "095108.967500", "095110.967500", "095112.967500", "095114.967500", "095116.967500", "095118.967500", "095120.967500", "095122.967500", "095124.967500", "095126.967500", "095128.967500", "095130.967500", "095132.967500", "095134.967500", "095136.967500", "095138.967500", "095140.967500", "095142.967500", "095144.967500", "095146.967500", "095148.967500", "095150.967500", "095152.967500", "095154.967500", "095156.967500", "095158.967500", "095200.967500", "095202.967500", "095204.967500", "095206.967500", "095208.967500", "095210.967500", "095212.967500", "095214.967500", "095216.967500", "095218.967500", "095220.967500", "095222.967500", "095224.967500", "095226.967500", "095228.967500", "095230.967500", "095232.967500", "095234.967500", "095236.967500", "095238.967500", "095240.967500", "095242.967500", "095244.967500", "095246.967500", "095248.967500", "095250.967500", "095252.967500", "095254.967500", "095256.967500", "095258.967500", "095300.967500", "095302.967500", "095304.967500", "095306.967500", "095308.967500", "095310.967500", "095312.967500", "095314.967500", "095316.967500", "095318.967500", "095320.967500", "095322.967500", "095324.967500", "095326.967500", "095328.967500", "095330.967500", "095332.967500", "095334.967500", "095336.967500", "095338.967500", "095340.967500", "095342.967500"],
      "ContentTime": ["094746.788000", "094746.791000", "094746.794000", "094746.796000", "094746.798000", "094746.801000", "094746.803000", "094746.805000", "094746.808000", "094746.810000", "094746.812000", "094746.815000", "094746.817000", "094746.820000", "094746.822000", "094746.824000", "094746.826000", "094746.829000", "094746.838000", "094746.840000", "094746.842000", "094826.783000", "094826.786000", "094826.788000", "094826.791000", "094826.793000", "094826.795000", "094826.798000", "094826.800000", "094826.802000", "094826.805000", "094826.807000", "094826.809000", "094826.812000", "094826.815000", "094826.817000", "094826.819000", "094826.821000", "094826.824000", "094826.826000", "094826.828000", "094906.782000", "094906.785000", "094906.787000", "094906.789000", "094906.792000", "094906.794000", "094906.797000", "094906.802000", "094906.804000", "094906.806000", "094906.809000", "094906.811000", "094906.813000", "094906.816000", "094906.818000", "094906.820000", "094906.822000", "094906.825000", "094906.827000", "094906.829000", "094946.783000", "094946.786000", "094946.788000", "094946.791000", "094946.793000", "094946.795000", "094946.798000", "094946.891000", "094946.893000", "094946.896000", "094946.898000", "094946.900000", "094946.902000", "094946.905000", "094946.907000", "094946.909000", "094946.912000", "094946.914000", "094946.916000", "094946.919000", "095026.783000", "095026.786000", "095026.788000", "095026.790000", "095026.793000", "095026.795000", "095026.797000", "095026.800000", "095026.802000", "095026.805000", "095026.807000", "095026.809000", "095026.812000", "095026.814000", "095026.816000", "095026.819000", "095026.821000", "095026.824000", "095026.826000", "095026.828000", "095106.782000", "095106.785000", "095106.788000", "095106.790000", "095106.792000", "095106.795000", "095106.797000", "095106.799000", "095106.802000", "095106.804000", "095106.806000", "095106.809000", "095106.811000", "095106.813000", "095106.816000", "095106.818000", "095106.820000", "095106.823000", "095106.825000", "095106.828000", "095146.783000", "095146.786000", "095146.789000", "095146.791000", "095146.793000", "095146.796000", "095146.798000", "095146.886000", "095146.889000", "095146.891000", "095146.893000", "095146.896000", "095146.898000", "095146.900000", "095146.903000", "095146.905000", "095146.907000", "095146.910000", "095146.912000", "095146.914000", "095226.783000", "095226.786000", "095226.788000", "095226.790000", "095226.793000", "095226.795000", "095226.798000", "095226.846000", "095226.848000", "095226.851000", "095226.853000", "095226.856000", "095226.858000", "095226.861000", "095226.863000", "095226.865000", "095226.868000", "095226.870000", "095226.872000", "095226.875000", "095306.783000", "095306.786000", "095306.788000", "095306.791000", "095306.793000", "095306.795000", "095306.798000", "095306.800000", "095306.802000", "095306.805000", "095306.807000", "095306.810000", "095306.812000", "095306.814000", "095306.817000", "095306.819000", "095306.822000", "095306.824000", "095306.826000", "095306.829000", "095344.669000", "095344.677000", "095344.679000", "095344.682000", "095344.684000", "095344.687000", "095344.689000", "095344.692000", "095344.696000", "095344.699000", "095344.701000", "095344.704000", "095344.706000", "095344.709000", "095344.712000", "095344.714000", "095344.717000", "095344.720000", "095344.722000"],
      "InstanceCreationTime": ["094746.788000", "094746.791000", "094746.794000", "094746.796000", "094746.798000", "094746.801000", "094746.803000", "094746.805000", "094746.808000", "094746.810000", "094746.812000", "094746.815000", "094746.817000", "094746.820000", "094746.822000", "094746.824000", "094746.826000", "094746.829000", "094746.838000", "094746.840000", "094746.842000", "094826.783000", "094826.786000", "094826.788000", "094826.791000", "094826.793000", "094826.795000", "094826.798000", "094826.800000", "094826.802000", "094826.805000", "094826.807000", "094826.809000", "094826.812000", "094826.815000", "094826.817000", "094826.819000", "094826.821000", "094826.824000", "094826.826000", "094826.828000", "094906.782000", "094906.785000", "094906.787000", "094906.789000", "094906.792000", "094906.794000", "094906.797000", "094906.802000", "094906.804000", "094906.806000", "094906.809000", "094906.811000", "094906.813000", "094906.816000", "094906.818000", "094906.820000", "094906.822000", "094906.825000", "094906.827000", "094906.829000", "094946.783000", "094946.786000", "094946.788000", "094946.791000", "094946.793000", "094946.795000", "094946.798000", "094946.891000", "094946.893000", "094946.896000", "094946.898000", "094946.900000", "094946.902000", "094946.905000", "094946.907000", "094946.909000", "094946.912000", "094946.914000", "094946.916000", "094946.919000", "095026.783000", "095026.786000", "095026.788000", "095026.790000", "095026.793000", "095026.795000", "095026.797000", "095026.800000", "095026.802000", "095026.805000", "095026.807000", "095026.809000", "095026.812000", "095026.814000", "095026.816000", "095026.819000", "095026.821000", "095026.824000", "095026.826000", "095026.828000", "095106.782000", "095106.785000", "095106.788000", "095106.790000", "095106.792000", "095106.795000", "095106.797000", "095106.799000", "095106.802000", "095106.804000", "095106.806000", "095106.809000", "095106.811000", "095106.813000", "095106.816000", "095106.818000", "095106.820000", "095106.823000", "095106.825000", "095106.828000", "095146.783000", "095146.786000", "095146.789000", "095146.791000", "095146.793000", "095146.796000", "095146.798000", "095146.886000", "095146.889000", "095146.891000", "095146.893000", "095146.896000", "095146.898000", "095146.900000", "095146.903000", "095146.905000", "095146.907000", "095146.910000", "095146.912000", "095146.914000", "095226.783000", "095226.786000", "095226.788000", "095226.790000", "095226.793000", "095226.795000", "095226.798000", "095226.846000", "095226.848000", "095226.851000", "095226.853000", "095226.856000", "095226.858000", "095226.861000", "095226.863000", "095226.865000", "095226.868000", "095226.870000", "095226.872000", "095226.875000", "095306.783000", "095306.786000", "095306.788000", "095306.791000", "095306.793000", "095306.795000", "095306.798000", "095306.800000", "095306.802000", "095306.805000", "095306.807000", "095306.810000", "095306.812000", "095306.814000", "095306.817000", "095306.819000", "095306.822000", "095306.824000", "095306.826000", "095306.829000", "095344.669000", "095344.677000", "095344.679000", "095344.682000", "095344.684000", "095344.687000", "095344.689000", "095344.692000", "095344.696000", "095344.699000", "095344.701000", "095344.704000", "095344.706000", "095344.709000", "095344.712000", "095344.714000", "095344.717000", "095344.720000", "095344.722000"],
      "InstanceNumber": [1, 2, 3, 4, 5, 6, 7, 8, 9, 10, 11, 12, 13, 14, 15, 16, 17, 18, 19, 20, 21, 22, 23, 24, 25, 26, 27, 28, 29, 30, 31, 32, 33, 34, 35, 36, 37, 38, 39, 40, 41, 42, 43, 44, 45, 46, 47, 48, 49, 50, 51, 52, 53, 54, 55, 56, 57, 58, 59, 60, 61, 62, 63, 64, 65, 66, 67, 68, 69, 70, 71, 72, 73, 74, 75, 76, 77, 78, 79, 80, 81, 82, 83, 84, 85, 86, 87, 88, 89, 90, 91, 92, 93, 94, 95, 96, 97, 98, 99, 100, 101, 102, 103, 104, 105, 106, 107, 108, 109, 110, 111, 112, 113, 114, 115, 116, 117, 118, 119, 120, 121, 122, 123, 124, 125, 126, 127, 128, 129, 130, 131, 132, 133, 134, 135, 136, 137, 138, 139, 140, 141, 142, 143, 144, 145, 146, 147, 148, 149, 150, 151, 152, 153, 154, 155, 156, 157, 158, 159, 160, 161, 162, 163, 164, 165, 166, 167, 168, 169, 170, 171, 172, 173, 174, 175, 176, 177, 178, 179, 180, 181, 182, 183, 184, 185, 186, 187, 188, 189, 190, 191, 192, 193, 194, 195, 196, 197, 198, 199, 200],
      "LargestImagePixelValue": [2077, 2073, 2082, 2074, 2085, 2083, 2079, 2081, 2079, 2082, 2075, 2079, 2075, 2078, 2079, 2080, 2077, 2082, 2080, 2080, 2078, 2083, 2087, 2078, 2079, 2080, 2084, 2079, 2085, 2079, 2086, 2080, 2085, 2083, 2080, 2085, 2086, 2083, 2084, 2083, 2083, 2085, 2085, 2082, 2082, 2084, 2086, 2079, 2085, 2084, 2081, 2083, 2082, 2084, 2085, 2081, 2084, 2078, 2086, 2080, 2081, 2088, 2084, 2089, 2080, 2087, 2087, 2084, 2082, 2082, 2083, 2085, 2089, 2085, 2082, 2083, 2084, 2083, 2088, 2085, 2085, 2082, 2087, 2085, 2083, 2085, 2084, 2094, 2085, 2084, 2086, 2082, 2089, 2086, 2080, 2090, 2088, 2083, 2089, 2085, 2078, 2083, 2086, 2086, 2086, 2088, 2078, 2087, 2082, 2089, 2083, 2089, 2081, 2085, 2086, 2087, 2084, 2086, 2085, 2085, 2085, 2084, 2087, 2087, 2085, 2085, 2076, 2084, 2084, 2088, 2083, 2090, 2082, 2089, 2086, 2080, 2084, 2078, 2087, 2082, 2079, 2085, 2090, 2091, 2089, 2083, 2081, 2083, 2087, 2087, 2083, 2083, 2085, 2086, 2085, 2087, 2090, 2087, 2086, 2083, 2083, 2079, 2088, 2084, 2080, 2083, 2081, 2082, 2083, 2082, 2085, 2088, 2086, 2080, 2087, 2081, 2084, 2085, 2086, 2082, 2082, 2085, 2083, 2086, 2081, 2086, 2075, 2088, 2079, 2087, 2087, 2084, 2082, 2081, 2082, 2086, 2083, 2081, 2086, 2083],
      "WindowCenter": [976.0, 976.0, 976.0, 976.0, 976.0, 976.0, 976.0, 976.0, 976.0, 976.0, 976.0, 976.0, 976.0, 976.0, 976.0, 976.0, 976.0, 976.0, 976.0, 976.0, 976.0, 976.0, 976.0, 976.0, 976.0, 977.0, 976.0, 976.0, 976.0, 976.0, 976.0, 976.0, 976.0, 976.0, 976.0, 976.0, 976.0, 976.0, 976.0, 976.0, 976.0, 976.0, 976.0, 976.0, 976.0, 976.0, 976.0, 976.0, 976.0, 976.0, 976.0, 976.0, 976.0, 976.0, 976.0, 976.0, 976.0, 976.0, 976.0, 976.0, 976.0, 976.0, 976.0, 976.0, 976.0, 976.0, 976.0, 976.0, 976.0, 976.0, 976.0, 976.0, 976.0, 976.0, 976.0, 976.0, 976.0, 976.0, 976.0, 976.0, 976.0, 976.0, 976.0, 976.0, 976.0, 976.0, 976.0, 975.0, 976.0, 976.0, 976.0, 976.0, 975.0, 975.0, 976.0, 976.0, 976.0, 975.0, 976.0, 976.0, 975.0, 975.0, 975.0, 976.0, 976.0, 976.0, 976.0, 975.0, 975.0, 976.0, 976.0, 976.0, 975.0, 975.0, 975.0, 976.0, 975.0, 975.0, 975.0, 975.0, 975.0, 975.0, 975.0, 975.0, 975.0, 975.0, 975.0, 975.0, 975.0, 975.0, 975.0, 975.0, 975.0, 975.0, 975.0, 975.0, 975.0, 975.0, 975.0, 975.0, 975.0, 975.0, 975.0, 975.0, 975.0, 975.0, 975.0, 975.0, 975.0, 975.0, 975.0, 975.0, 975.0, 975.0, 975.0, 975.0, 975.0, 975.0, 975.0, 975.0, 975.0, 975.0, 975.0, 975.0, 975.0, 975.0, 975.0, 975.0, 976.0, 975.0, 975.0, 975.0, 975.0, 975.0, 975.0, 975.0, 975.0, 975.0, 975.0, 975.0, 975.0, 975.0, 975.0, 975.0, 975.0, 975.0, 975.0, 975.0, 975.0, 975.0, 975.0, 975.0, 975.0, 975.0, 975.0, 975.0, 975.0, 975.0, 975.0, 975.0],
      "WindowWidth": [2214.0, 2213.0, 2214.0, 2214.0, 2214.0, 2213.0, 2214.0, 2213.0, 2213.0, 2213.0, 2213.0, 2213.0, 2213.0, 2213.0, 2213.0, 2213.0, 2213.0, 2213.0, 2213.0, 2213.0, 2213.0, 2213.0, 2213.0, 2213.0, 2213.0, 2214.0, 2213.0, 2213.0, 2213.0, 2213.0, 2213.0, 2213.0, 2213.0, 2213.0, 2213.0, 2213.0, 2213.0, 2213.0, 2213.0, 2213.0, 2213.0, 2213.0, 2213.0, 2213.0, 2213.0, 2213.0, 2213.0, 2213.0, 2213.0, 2213.0, 2213.0, 2213.0, 2213.0, 2213.0, 2213.0, 2213.0, 2213.0, 2213.0, 2213.0, 2213.0, 2213.0, 2213.0, 2213.0, 2213.0, 2213.0, 2213.0, 2213.0, 2213.0, 2212.0, 2213.0, 2212.0, 2212.0, 2213.0, 2212.0, 2212.0, 2212.0, 2212.0, 2213.0, 2212.0, 2212.0, 2212.0, 2212.0, 2212.0, 2212.0, 2212.0, 2212.0, 2212.0, 2212.0, 2212.0, 2212.0, 2212.0, 2212.0, 2212.0, 2212.0, 2212.0, 2212.0, 2212.0, 2212.0, 2212.0, 2212.0, 2212.0, 2212.0, 2212.0, 2212.0, 2212.0, 2212.0, 2212.0, 2212.0, 2212.0, 2212.0, 2212.0, 2212.0, 2212.0, 2212.0, 2212.0, 2212.0, 2212.0, 2212.0, 2212.0, 2212.0, 2212.0, 2212.0, 2212.0, 2211.0, 2211.0, 2211.0, 2211.0, 2211.0, 2211.0, 2212.0, 2212.0, 2212.0, 2212.0, 2212.0, 2211.0, 2211.0, 2211.0, 2212.0, 2211.0, 2212.0, 2211.0, 2211.0, 2211.0, 2212.0, 2211.0, 2211.0, 2211.0, 2211.0, 2211.0, 2211.0, 2211.0, 2211.0, 2211.0, 2211.0, 2211.0, 2211.0, 2211.0, 2211.0, 2211.0, 2211.0, 2211.0, 2211.0, 2211.0, 2211.0, 2211.0, 2211.0, 2211.0, 2211.0, 2211.0, 2211.0, 2211.0, 2211.0, 2211.0, 2211.0, 2211.0, 2211.0, 2211.0, 2211.0, 2211.0, 2211.0, 2211.0, 2211.0, 2211.0, 2211.0, 2211.0, 2211.0, 2211.0, 2211.0, 2211.0, 2210.0, 2211.0, 2211.0, 2211.0, 2211.0, 2211.0, 2210.0, 2211.0, 2211.0, 2211.0, 2211.0]
    },
    "slices": {}
  }
}