{
  "AcquisitionMatrixPE": 80,
  "AcquisitionNumber": 1,
  "AcquisitionTime": "09:53:59.077500",
  "BandwidthPerPixelPhaseEncode": 46.296,
  "BaseResolution": 80,
  "BodyPartExamined": "BRAIN",
  "CoilCombinationMethod": "Sum of Squares",
  "ConsistencyInfo": "N4_VE11E_LATEST_20181129",
  "ConversionSoftware": "dcm2niix",
  "ConversionSoftwareVersion": "v1.0.20220720",
  "DerivedVendorReportedEchoSpacing": 0.000540003,
  "DeviceSerialNumber": "66112",
  "DwellTime": 2.7e-06,
  "EchoTime": 0.035,
  "EchoTrainLength": 39,
  "EffectiveEchoSpacing": 0.000270002,
  "FlipAngle": 90,
  "HeudiconvVersion": "0.13.1",
  "ImageOrientationPatientDICOM": [0.989606, -0.143776, 0.00298973, 0.136087, 0.942995, 0.30371],
  "ImageOrientationText": "Tra>Cor(17.5)>Sag(2.7)",
  "ImageType": [
    "ORIGINAL",
    "PRIMARY",
    "M",
    "ND",
    "NORM",
    "MOSAIC"
],
  "ImagingFrequency": 123.259,
  "InPlanePhaseEncodingDirectionDICOM": "COL",
  "InstitutionAddress": "Maynard 3,Hanover,NH,US,03755",
  "InstitutionName": "Dartmouth College - PBS",
  "InstitutionalDepartmentName": "Department",
  "MRAcquisitionType": "2D",
  "MagneticFieldStrength": 3,
  "Manufacturer": "Siemens",
  "ManufacturersModelName": "Prisma",
  "Modality": "MR",
  "MultibandAccelerationFactor": 4,
  "NonlinearGradientCorrection": false,
  "ParallelReductionFactorInPlane": 2,
  "PartialFourier": 1,
  "PatientPosition": "HFS",
  "PercentPhaseFOV": 100,
  "PercentSampling": 100,
  "PhaseEncodingDirection": "j-",
  "PhaseEncodingSteps": 79,
  "PhaseResolution": 1,
  "PixelBandwidth": 2315,
  "ProcedureStepDescription": "dbic^QA",
  "ProtocolName": "func-bold_task-rest_acq-p2-s4-3.5mm",
  "PulseSequenceDetails": "%SiemensSeq%\\ep2d_bold",
  "ReceiveCoilActiveElements": "HEA;HEP",
  "ReceiveCoilName": "Head_32",
  "ReconMatrixPE": 80,
  "RefLinesPE": 24,
  "RepetitionTime": 2,
  "SAR": 0.0271739,
  "ScanOptions": "FS",
  "ScanningSequence": "EP",
  "SequenceName": "*epfid2d1_80",
  "SequenceVariant": "SK",
  "SeriesDescription": "func-bold_task-rest_acq-p2-s4-3.5mm",
  "SeriesNumber": 7,
  "ShimSetting": [4224, -7729, -7492, -19, -152, -113, -46, 69],
  "SliceThickness": 3.5,
  "SliceTiming": [1.485, 0, 0.99, 0.2475, 1.2375, 0.7425, 1.7325, 0.495, 1.485, 0, 0.99, 0.2475, 1.2375, 0.7425, 1.7325, 0.495, 1.485, 0, 0.99, 0.2475, 1.2375, 0.7425, 1.7325, 0.495, 1.485, 0, 0.99, 0.2475, 1.2375, 0.7425, 1.7325, 0.495],
  "SoftwareVersions": "syngo MR E11",
  "SpacingBetweenSlices": 3.99,
  "StationName": "AWP66112",
  "TaskName": "rest",
  "TotalReadoutTime": 0.0213301,
  "TxRefAmp": 226.55,
  "dcmmeta_affine": [
    [-2.9688169956207275, 0.40826115012168884, 0.18547774851322174, 101.14093017578125],
    [0.43132928013801575, 2.828986644744873, 1.197583794593811, -139.0280303955078],
    [0.008969203568994999, -0.9111300706863403, 3.801511764526367, -54.26418685913086],
    [0.0, 0.0, 0.0, 1.0]
],
  "dcmmeta_reorient_transform": [
    [0.0, -1.0, 0.0, 79.0],
    [1.0, 0.0, 0.0, 0.0],
    [0.0, 0.0, 1.0, 0.0],
    [0.0, 0.0, 0.0, 1.0]
],
  "dcmmeta_shape": [80, 80, 32, 200],
  "dcmmeta_slice_dim": 2,
  "dcmmeta_version": 0.6,
  "global": {
    "const": {
      "AccessionNumber": "qa",
      "AcquisitionMatrix": [80, 0, 0, 80],
      "AngioFlag": "N",
      "BitsAllocated": 16,
      "BitsStored": 12,
      "BodyPartExamined": "BRAIN",
      "Columns": 480,
      "EchoNumbers": 1,
      "EchoTime": 35.0,
      "EchoTrainLength": 39,
      "FlipAngle": 90.0,
      "HighBit": 11,
      "ImageOrientationPatient": [0.98960567885821, -0.1437764301218, 0.00298973460631, 0.13608704821769, 0.9429955105161, 0.30371003021612],
      "ImagePositionPatient": [-808.80919461743, -563.99334854063, -310.26332194413],
      "ImageType": [
        "ORIGINAL",
        "PRIMARY",
        "M",
        "ND",
        "NORM",
        "MOSAIC"
],
      "ImagedNucleus": "1H",
      "ImagingFrequency": 123.259257,
      "InPlanePhaseEncodingDirection": "COL",
      "MRAcquisitionType": "2D",
      "MagneticFieldStrength": 3.0,
      "Manufacturer": "SIEMENS",
      "ManufacturerModelName": "Prisma",
      "Modality": "MR",
      "NumberOfAverages": 1.0,
      "NumberOfPhaseEncodingSteps": 79,
      "PercentPhaseFieldOfView": 100.0,
      "PercentSampling": 100.0,
      "PerformedProcedureStepStartTime": "094552.619000",
      "PhotometricInterpretation": "MONOCHROME2",
      "PixelBandwidth": 2315.0,
      "PixelRepresentation": 0,
      "PixelSpacing": [3.0, 3.0],
      "ProtocolName": "func-bold_task-rest_acq-p2-s4-3.5mm",
      "RepetitionTime": 2000.0,
      "Rows": 480,
      "SAR": 0.027173887126,
      "SamplesPerPixel": 1,
      "ScanOptions": "FS",
      "ScanningSequence": "EP",
      "SequenceName": "*epfid2d1_80",
      "SequenceVariant": "SK",
      "SeriesDescription": "func-bold_task-rest_acq-p2-s4-3.5mm",
      "SeriesNumber": 7,
      "SeriesTime": "095446.870000",
      "SliceLocation": -88.727885712039,
      "SliceThickness": 3.5,
      "SmallestImagePixelValue": 0,
      "SoftwareVersions": "syngo MR E11",
      "SpacingBetweenSlices": 3.9899999982897,
      "SpecificCharacterSet": "ISO_IR 100",
      "StudyID": "10",
      "StudyTime": "094552.545000",
      "TransmitCoilName": "Body",
      "VariableFlipAngleFlag": "N",
      "WindowCenterWidthExplanation": "Algo1"
    },
    "slices": {}
  },
  "time": {
    "samples": {
      "AcquisitionNumber": [1, 2, 3, 4, 5, 6, 7, 8, 9, 10, 11, 12, 13, 14, 15, 16, 17, 18, 19, 20, 21, 22, 23, 24, 25, 26, 27, 28, 29, 30, 31, 32, 33, 34, 35, 36, 37, 38, 39, 40, 41, 42, 43, 44, 45, 46, 47, 48, 49, 50, 51, 52, 53, 54, 55, 56, 57, 58, 59, 60, 61, 62, 63, 64, 65, 66, 67, 68, 69, 70, 71, 72, 73, 74, 75, 76, 77, 78, 79, 80, 81, 82, 83, 84, 85, 86, 87, 88, 89, 90, 91, 92, 93, 94, 95, 96, 97, 98, 99, 100, 101, 102, 103, 104, 105, 106, 107, 108, 109, 110, 111, 112, 113, 114, 115, 116, 117, 118, 119, 120, 121, 122, 123, 124, 125, 126, 127, 128, 129, 130, 131, 132, 133, 134, 135, 136, 137, 138, 139, 140, 141, 142, 143, 144, 145, 146, 147, 148, 149, 150, 151, 152, 153, 154, 155, 156, 157, 158, 159, 160, 161, 162, 163, 164, 165, 166, 167, 168, 169, 170, 171, 172, 173, 174, 175, 176, 177, 178, 179, 180, 181, 182, 183, 184, 185, 186, 187, 188, 189, 190, 191, 192, 193, 194, 195, 196, 197, 198, 199, 200],
      "AcquisitionTime": ["095359.077500", "095401.077500", "095403.077500", "095405.077500", "095407.077500", "095409.077500", "095411.077500", "095413.077500", "095415.077500", "095417.077500", "095419.077500", "095421.077500", "095423.077500", "095425.077500", "095427.077500", "095429.077500", "095431.077500", "095433.077500", "095435.077500", "095437.077500", "095439.077500", "095441.077500", "095443.077500", "095445.077500", "095447.077500", "095449.077500", "095451.077500", "095453.077500", "095455.077500", "095457.077500", "095459.077500", "095501.077500", "095503.077500", "095505.077500", "095507.077500", "095509.077500", "095511.077500", "095513.077500", "095515.077500", "095517.077500", "095519.077500", "095521.077500", "095523.077500", "095525.077500", "095527.077500", "095529.077500", "095531.077500", "095533.077500", "095535.077500", "095537.077500", "095539.077500", "095541.077500", "095543.077500", "095545.077500", "095547.077500", "095549.077500", "095551.077500", "095553.077500", "095555.077500", "095557.077500", "095559.077500", "095601.077500", "095603.077500", "095605.077500", "095607.077500", "095609.077500", "095611.077500", "095613.077500", "095615.077500", "095617.077500", "095619.077500", "095621.077500", "095623.077500", "095625.077500", "095627.077500", "095629.077500", "095631.077500", "095633.077500", "095635.077500", "095637.077500", "095639.077500", "095641.077500", "095643.077500", "095645.077500", "095647.077500", "095649.077500", "095651.077500", "095653.077500", "095655.077500", "095657.077500", "095659.077500", "095701.077500", "095703.077500", "095705.077500", "095707.077500", "095709.077500", "095711.077500", "095713.077500", "095715.077500", "095717.077500", "095719.077500", "095721.077500", "095723.077500", "095725.077500", "095727.077500", "095729.077500", "095731.077500", "095733.077500", "095735.077500", "095737.077500", "095739.077500", "095741.077500", "095743.077500", "095745.077500", "095747.077500", "095749.077500", "095751.077500", "095753.077500", "095755.077500", "095757.077500", "095759.077500", "095801.077500", "095803.077500", "095805.077500", "095807.077500", "095809.077500", "095811.077500", "095813.077500", "095815.077500", "095817.077500", "095819.077500", "095821.077500", "095823.077500", "095825.077500", "095827.077500", "095829.077500", "095831.077500", "095833.077500", "095835.077500", "095837.077500", "095839.077500", "095841.077500", "095843.077500", "095845.077500", "095847.077500", "095849.077500", "095851.077500", "095853.077500", "095855.077500", "095857.077500", "095859.077500", "095901.077500", "095903.077500", "095905.077500", "095907.077500", "095909.077500", "095911.077500", "095913.077500", "095915.077500", "095917.077500", "095919.077500", "095921.077500", "095923.077500", "095925.077500", "095927.077500", "095929.077500", "095931.077500", "095933.077500", "095935.077500", "095937.077500", "095939.077500", "095941.077500", "095943.077500", "095945.077500", "095947.077500", "095949.077500", "095951.077500", "095953.077500", "095955.077500", "095957.077500", "095959.077500", "100001.077500", "100003.077500", "100005.077500", "100007.077500", "100009.077500", "100011.077500", "100013.077500", "100015.077500", "100017.077500", "100019.077500", "100021.077500", "100023.077500", "100025.077500", "100027.077500", "100029.077500", "100031.077500", "100033.077500", "100035.077500", "100037.077500"],
      "ContentTime": ["095446.873000", "095446.876000", "095446.879000", "095446.881000", "095446.884000", "095446.886000", "095446.889000", "095446.891000", "095446.898000", "095446.901000", "095446.903000", "095446.905000", "095446.926000", "095446.928000", "095446.931000", "095446.933000", "095446.952000", "095446.955000", "095446.957000", "095446.960000", "095446.962000", "095446.965000", "095446.968000", "095446.970000", "095526.868000", "095526.871000", "095526.873000", "095526.875000", "095526.877000", "095526.880000", "095526.882000", "095526.885000", "095526.887000", "095526.889000", "095526.892000", "095526.894000", "095526.896000", "095526.899000", "095526.901000", "095526.903000", "095526.906000", "095526.915000", "095526.918000", "095526.920000", "095606.867000", "095606.870000", "095606.872000", "095606.874000", "095606.877000", "095606.879000", "095606.882000", "095606.884000", "095606.886000", "095606.889000", "095606.891000", "095606.893000", "095606.896000", "095606.898000", "095606.900000", "095606.903000", "095606.905000", "095606.907000", "095606.910000", "095606.923000", "095646.868000", "095646.871000", "095646.873000", "095646.876000", "095646.878000", "095646.881000", "095646.883000", "095646.885000", "095646.888000", "095646.890000", "095646.892000", "095646.895000", "095646.897000", "095646.899000", "095646.902000", "095646.904000", "095646.906000", "095646.909000", "095646.911000", "095646.913000", "095726.868000", "095726.871000", "095726.873000", "095726.876000", "095726.878000", "095726.881000", "095726.883000", "095726.885000", "095726.888000", "095726.890000", "095726.892000", "095726.895000", "095726.897000", "095726.900000", "095726.902000", "095726.904000", "095726.906000", "095726.909000", "095726.911000", "095726.914000", "095806.867000", "095806.870000", "095806.872000", "095806.874000", "095806.877000", "095806.879000", "095806.882000", "095806.884000", "095806.886000", "095806.889000", "095806.891000", "095806.893000", "095806.896000", "095806.898000", "095806.900000", "095806.903000", "095806.905000", "095806.907000", "095806.910000", "095806.912000", "095846.868000", "095846.871000", "095846.873000", "095846.876000", "095846.878000", "095846.881000", "095846.883000", "095846.885000", "095846.887000", "095846.890000", "095846.892000", "095846.895000", "095846.897000", "095846.899000", "095846.902000", "095846.904000", "095846.906000", "095846.909000", "095846.911000", "095846.913000", "095926.868000", "095926.871000", "095926.873000", "095926.876000", "095926.878000", "095926.880000", "095926.883000", "095926.885000", "095926.887000", "095926.890000", "095926.892000", "095926.894000", "095926.897000", "095926.899000", "095926.902000", "095926.904000", "095926.906000", "095926.909000", "095926.911000", "095926.913000", "100006.868000", "100006.871000", "100006.874000", "100006.876000", "100006.878000", "100006.884000", "100006.886000", "100006.889000", "100006.891000", "100006.893000", "100006.896000", "100006.898000", "100006.900000", "100006.903000", "100006.911000", "100006.913000", "100006.915000", "100006.918000", "100006.920000", "100006.923000", "100038.553000", "100038.556000", "100038.558000", "100038.561000", "100038.563000", "100038.566000", "100038.568000", "100038.570000", "100038.573000", "100038.575000", "100038.578000", "100038.580000", "100038.582000", "100038.585000", "100038.587000", "100038.590000"],
      "InstanceCreationTime": ["095446.873000", "095446.876000", "095446.879000", "095446.881000", "095446.884000", "095446.886000", "095446.889000", "095446.891000", "095446.898000", "095446.901000", "095446.903000", "095446.905000", "095446.926000", "095446.928000", "095446.931000", "095446.933000", "095446.952000", "095446.955000", "095446.957000", "095446.960000", "095446.962000", "095446.965000", "095446.968000", "095446.970000", "095526.868000", "095526.871000", "095526.873000", "095526.875000", "095526.877000", "095526.880000", "095526.882000", "095526.885000", "095526.887000", "095526.889000", "095526.892000", "095526.894000", "095526.896000", "095526.899000", "095526.901000", "095526.903000", "095526.906000", "095526.915000", "095526.918000", "095526.920000", "095606.867000", "095606.870000", "095606.872000", "095606.874000", "095606.877000", "095606.879000", "095606.882000", "095606.884000", "095606.886000", "095606.889000", "095606.891000", "095606.893000", "095606.896000", "095606.898000", "095606.900000", "095606.903000", "095606.905000", "095606.907000", "095606.910000", "095606.923000", "095646.868000", "095646.871000", "095646.873000", "095646.876000", "095646.878000", "095646.881000", "095646.883000", "095646.885000", "095646.888000", "095646.890000", "095646.892000", "095646.895000", "095646.897000", "095646.899000", "095646.902000", "095646.904000", "095646.906000", "095646.909000", "095646.911000", "095646.913000", "095726.868000", "095726.871000", "095726.873000", "095726.876000", "095726.878000", "095726.881000", "095726.883000", "095726.885000", "095726.888000", "095726.890000", "095726.892000", "095726.895000", "095726.897000", "095726.900000", "095726.902000", "095726.904000", "095726.906000", "095726.909000", "095726.911000", "095726.914000", "095806.867000", "095806.870000", "095806.872000", "095806.874000", "095806.877000", "095806.879000", "095806.882000", "095806.884000", "095806.886000", "095806.889000", "095806.891000", "095806.893000", "095806.896000", "095806.898000", "095806.900000", "095806.903000", "095806.905000", "095806.907000", "095806.910000", "095806.912000", "095846.868000", "095846.871000", "095846.873000", "095846.876000", "095846.878000", "095846.881000", "095846.883000", "095846.885000", "095846.887000", "095846.890000", "095846.892000", "095846.895000", "095846.897000", "095846.899000", "095846.902000", "095846.904000", "095846.906000", "095846.909000", "095846.911000", "095846.913000", "095926.868000", "095926.871000", "095926.873000", "095926.876000", "095926.878000", "095926.880000", "095926.883000", "095926.885000", "095926.887000", "095926.890000", "095926.892000", "095926.894000", "095926.897000", "095926.899000", "095926.902000", "095926.904000", "095926.906000", "095926.909000", "095926.911000", "095926.913000", "100006.868000", "100006.871000", "100006.874000", "100006.876000", "100006.878000", "100006.884000", "100006.886000", "100006.889000", "100006.891000", "100006.893000", "100006.896000", "100006.898000", "100006.900000", "100006.903000", "100006.911000", "100006.913000", "100006.915000", "100006.918000", "100006.920000", "100006.923000", "100038.553000", "100038.556000", "100038.558000", "100038.561000", "100038.563000", "100038.566000", "100038.568000", "100038.570000", "100038.573000", "100038.575000", "100038.578000", "100038.580000", "100038.582000", "100038.585000", "100038.587000", "100038.590000"],
      "InstanceNumber": [1, 2, 3, 4, 5, 6, 7, 8, 9, 10, 11, 12, 13, 14, 15, 16, 17, 18, 19, 20, 21, 22, 23, 24, 25, 26, 27, 28, 29, 30, 31, 32, 33, 34, 35, 36, 37, 38, 39, 40, 41, 42, 43, 44, 45, 46, 47, 48, 49, 50, 51, 52, 53, 54, 55, 56, 57, 58, 59, 60, 61, 62, 63, 64, 65, 66, 67, 68, 69, 70, 71, 72, 73, 74, 75, 76, 77, 78, 79, 80, 81, 82, 83, 84, 85, 86, 87, 88, 89, 90, 91, 92, 93, 94, 95, 96, 97, 98, 99, 100, 101, 102, 103, 104, 105, 106, 107, 108, 109, 110, 111, 112, 113, 114, 115, 116, 117, 118, 119, 120, 121, 122, 123, 124, 125, 126, 127, 128, 129, 130, 131, 132, 133, 134, 135, 136, 137, 138, 139, 140, 141, 142, 143, 144, 145, 146, 147, 148, 149, 150, 151, 152, 153, 154, 155, 156, 157, 158, 159, 160, 161, 162, 163, 164, 165, 166, 167, 168, 169, 170, 171, 172, 173, 174, 175, 176, 177, 178, 179, 180, 181, 182, 183, 184, 185, 186, 187, 188, 189, 190, 191, 192, 193, 194, 195, 196, 197, 198, 199, 200],
      "LargestImagePixelValue": [2108, 2111, 2109, 2109, 2109, 2106, 2107, 2106, 2112, 2106, 2106, 2105, 2108, 2107, 2106, 2105, 2108, 2102, 2109, 2109, 2106, 2107, 2104, 2110, 2107, 2107, 2109, 2106, 2111, 2105, 2108, 2107, 2109, 2105, 2107, 2108, 2109, 2103, 2107, 2105, 2106, 2106, 2105, 2108, 2106, 2105, 2103, 2105, 2106, 2108, 2105, 2109, 2108, 2106, 2104, 2106, 2106, 2108, 2110, 2111, 2109, 2106, 2110, 2103, 2106, 2105, 2106, 2108, 2108, 2107, 2102, 2102, 2107, 2107, 2105, 2101, 2105, 2104, 2106, 2106, 2108, 2101, 2104, 2104, 2108, 2107, 2101, 2104, 2104, 2107, 2106, 2104, 2102, 2105, 2109, 2103, 2104, 2106, 2103, 2106, 2105, 2105, 2103, 2103, 2106, 2102, 2104, 2107, 2109, 2105, 2101, 2105, 2105, 2105, 2103, 2110, 2105, 2103, 2104, 2107, 2102, 2108, 2108, 2104, 2110, 2102, 2105, 2100, 2106, 2106, 2103, 2106, 2106, 2105, 2104, 2107, 2106, 2108, 2107, 2106, 2106, 2101, 2101, 2105, 2102, 2106, 2103, 2105, 2104, 2109, 2102, 2104, 2107, 2105, 2107, 2106, 2108, 2107, 2109, 2101, 2103, 2106, 2106, 2105, 2104, 2102, 2107, 2106, 2103, 2104, 2103, 2104, 2104, 2103, 2103, 2105, 2107, 2106, 2105, 2104, 2104, 2104, 2107, 2102, 2103, 2107, 2104, 2104, 2102, 2109, 2104, 2102, 2102, 2105, 2108, 2102, 2103, 2103, 2106, 2104],
      "WindowCenter": [918.0, 919.0, 918.0, 920.0, 918.0, 918.0, 919.0, 918.0, 918.0, 918.0, 919.0, 917.0, 918.0, 919.0, 919.0, 918.0, 919.0, 918.0, 918.0, 917.0, 918.0, 919.0, 919.0, 918.0, 918.0, 917.0, 918.0, 918.0, 919.0, 917.0, 919.0, 918.0, 918.0, 919.0, 918.0, 919.0, 918.0, 917.0, 918.0, 917.0, 918.0, 919.0, 919.0, 918.0, 918.0, 919.0, 920.0, 919.0, 918.0, 919.0, 918.0, 918.0, 917.0, 919.0, 918.0, 919.0, 918.0, 918.0, 918.0, 919.0, 919.0, 918.0, 917.0, 919.0, 918.0, 918.0, 918.0, 917.0, 918.0, 919.0, 918.0, 918.0, 919.0, 918.0, 919.0, 919.0, 918.0, 917.0, 919.0, 919.0, 918.0, 918.0, 918.0, 919.0, 918.0, 919.0, 918.0, 917.0, 919.0, 919.0, 918.0, 918.0, 917.0, 917.0, 919.0, 917.0, 918.0, 919.0, 919.0, 918.0, 918.0, 919.0, 917.0, 919.0, 918.0, 918.0, 918.0, 917.0, 918.0, 919.0, 918.0, 920.0, 917.0, 919.0, 918.0, 918.0, 919.0, 920.0, 918.0, 919.0, 918.0, 919.0, 918.0, 917.0, 918.0, 919.0, 919.0, 917.0, 918.0, 919.0, 918.0, 919.0, 919.0, 918.0, 918.0, 919.0, 918.0, 919.0, 919.0, 918.0, 919.0, 919.0, 918.0, 918.0, 918.0, 919.0, 919.0, 918.0, 919.0, 917.0, 919.0, 918.0, 919.0, 917.0, 919.0, 918.0, 919.0, 919.0, 919.0, 919.0, 919.0, 919.0, 918.0, 918.0, 917.0, 919.0, 919.0, 919.0, 919.0, 919.0, 917.0, 918.0, 919.0, 919.0, 918.0, 918.0, 919.0, 919.0, 918.0, 919.0, 918.0, 917.0, 918.0, 918.0, 918.0, 918.0, 918.0, 919.0, 919.0, 918.0, 918.0, 919.0, 919.0, 919.0, 918.0, 919.0, 918.0, 918.0, 918.0, 918.0],
      "WindowWidth": [2184.0, 2185.0, 2184.0, 2186.0, 2184.0, 2184.0, 2184.0, 2184.0, 2184.0, 2184.0, 2184.0, 2183.0, 2184.0, 2185.0, 2185.0, 2184.0, 2184.0, 2184.0, 2185.0, 2184.0, 2184.0, 2184.0, 2185.0, 2184.0, 2185.0, 2184.0, 2183.0, 2184.0, 2185.0, 2184.0, 2185.0, 2184.0, 2184.0, 2184.0, 2184.0, 2185.0, 2184.0, 2183.0, 2184.0, 2183.0, 2185.0, 2185.0, 2185.0, 2184.0, 2183.0, 2185.0, 2187.0, 2185.0, 2184.0, 2185.0, 2184.0, 2184.0, 2184.0, 2185.0, 2184.0, 2184.0, 2184.0, 2185.0, 2184.0, 2185.0, 2184.0, 2184.0, 2184.0, 2185.0, 2184.0, 2184.0, 2184.0, 2183.0, 2184.0, 2185.0, 2183.0, 2184.0, 2185.0, 2185.0, 2185.0, 2185.0, 2183.0, 2183.0, 2185.0, 2187.0, 2184.0, 2184.0, 2183.0, 2185.0, 2185.0, 2185.0, 2183.0, 2182.0, 2186.0, 2185.0, 2184.0, 2184.0, 2183.0, 2183.0, 2185.0, 2183.0, 2184.0, 2184.0, 2184.0, 2184.0, 2185.0, 2185.0, 2183.0, 2184.0, 2184.0, 2184.0, 2184.0, 2183.0, 2184.0, 2185.0, 2184.0, 2186.0, 2183.0, 2185.0, 2184.0, 2184.0, 2186.0, 2186.0, 2184.0, 2184.0, 2184.0, 2185.0, 2184.0, 2183.0, 2184.0, 2184.0, 2185.0, 2183.0, 2184.0, 2185.0, 2183.0, 2185.0, 2185.0, 2184.0, 2184.0, 2185.0, 2183.0, 2184.0, 2185.0, 2184.0, 2185.0, 2184.0, 2183.0, 2183.0, 2184.0, 2185.0, 2184.0, 2183.0, 2184.0, 2183.0, 2185.0, 2184.0, 2185.0, 2182.0, 2185.0, 2184.0, 2185.0, 2184.0, 2185.0, 2184.0, 2185.0, 2185.0, 2183.0, 2183.0, 2182.0, 2184.0, 2185.0, 2185.0, 2185.0, 2184.0, 2183.0, 2184.0, 2186.0, 2184.0, 2183.0, 2183.0, 2184.0, 2184.0, 2183.0, 2184.0, 2183.0, 2183.0, 2184.0, 2184.0, 2183.0, 2183.0, 2183.0, 2185.0, 2185.0, 2183.0, 2183.0, 2184.0, 2184.0, 2185.0, 2184.0, 2184.0, 2183.0, 2183.0, 2184.0, 2184.0]
    },
    "slices": {}
  }
}