{
  "AcquisitionMatrixPE": 80,
  "AcquisitionNumber": 1,
  "AcquisitionTime": "10:07:35.457500",
  "BandwidthPerPixelPhaseEncode": 25,
  "BaseResolution": 80,
  "BodyPartExamined": "BRAIN",
  "CoilCombinationMethod": "Sum of Squares",
  "ConsistencyInfo": "N4_VE11E_LATEST_20181129",
  "ConversionSoftware": "dcm2niix",
  "ConversionSoftwareVersion": "v1.0.20220720",
  "DerivedVendorReportedEchoSpacing": 0.0005,
  "DeviceSerialNumber": "66112",
  "DwellTime": 2.7e-06,
  "EchoTime": 0.03,
  "EchoTrainLength": 80,
  "EffectiveEchoSpacing": 0.0005,
  "FlipAngle": 10,
  "HeudiconvVersion": "0.13.1",
  "ImageOrientationPatientDICOM": [0.989606, -0.143776, 0.00298973, 0.136087, 0.942995, 0.30371],
  "ImageOrientationText": "Tra>Cor(17.5)>Sag(2.7)",
  "ImageType": [
    "ORIGINAL",
    "PRIMARY",
    "M",
    "ND",
    "NORM",
    "MOSAIC"
],
  "ImagingFrequency": 123.259,
  "InPlanePhaseEncodingDirectionDICOM": "COL",
  "InstitutionAddress": "Maynard 3,Hanover,NH,US,03755",
  "InstitutionName": "Dartmouth College - PBS",
  "InstitutionalDepartmentName": "Department",
  "MRAcquisitionType": "2D",
  "MagneticFieldStrength": 3,
  "Manufacturer": "Siemens",
  "ManufacturersModelName": "Prisma",
  "MatrixCoilMode": "SENSE",
  "Modality": "MR",
  "NonlinearGradientCorrection": false,
  "PartialFourier": 1,
  "PatientPosition": "HFS",
  "PercentPhaseFOV": 100,
  "PercentSampling": 100,
  "PhaseEncodingDirection": "j-",
  "PhaseEncodingSteps": 80,
  "PhaseResolution": 1,
  "PixelBandwidth": 2315,
  "ProcedureStepDescription": "dbic^QA",
  "ProtocolName": "func-bold_fa-10",
  "PulseSequenceDetails": "%SiemensSeq%\\ep2d_bold",
  "ReceiveCoilActiveElements": "HEA;HEP",
  "ReceiveCoilName": "Head_32",
  "ReconMatrixPE": 80,
  "RepetitionTime": 2,
  "SAR": 0.0152328,
  "ScanOptions": "FS",
  "ScanningSequence": "EP",
  "SequenceName": "*epfid2d1_80",
  "SequenceVariant": "SK",
  "SeriesDescription": "func-bold_fa-10",
  "SeriesNumber": 10,
  "ShimSetting": [4223, -7730, -7489, -28, -144, -95, -36, 64],
  "SliceThickness": 3.5,
  "SliceTiming": [0.99, 0, 1.055, 0.065, 1.1225, 0.1325, 1.1875, 0.1975, 1.2525, 0.265, 1.32, 0.33, 1.385, 0.395, 1.4525, 0.4625, 1.5175, 0.5275, 1.5825, 0.595, 1.65, 0.66, 1.715, 0.725, 1.7825, 0.7925, 1.8475, 0.8575, 1.9125, 0.9225],
  "SoftwareVersions": "syngo MR E11",
  "SpacingBetweenSlices": 3.99,
  "StationName": "AWP66112",
  "TotalReadoutTime": 0.0395,
  "TxRefAmp": 226.55,
  "dcmmeta_affine": [
    [-2.9688169956207275, 0.40826115012168884, 0.18547774851322174, 101.00403594970703],
    [0.43132928013801575, 2.828986644744873, 1.197583794593811, -140.57196044921875],
    [0.008969203568994999, -0.9111300706863403, 3.801511764526367, -25.395811080932617],
    [0.0, 0.0, 0.0, 1.0]
],
  "dcmmeta_reorient_transform": [
    [0.0, -1.0, 0.0, 79.0],
    [1.0, 0.0, 0.0, 0.0],
    [0.0, 0.0, 1.0, 0.0],
    [0.0, 0.0, 0.0, 1.0]
],
  "dcmmeta_shape": [80, 80, 30, 200],
  "dcmmeta_slice_dim": 2,
  "dcmmeta_version": 0.6,
  "global": {
    "const": {
      "AccessionNumber": "qa",
      "AcquisitionMatrix": [80, 0, 0, 80],
      "AngioFlag": "N",
      "BitsAllocated": 16,
      "BitsStored": 12,
      "BodyPartExamined": "BRAIN",
      "Columns": 480,
      "EchoNumbers": 1,
      "EchoTime": 30.0,
      "EchoTrainLength": 80,
      "FlipAngle": 10.0,
      "HighBit": 11,
      "ImageOrientationPatient": [0.98960567885821, -0.1437764301218, 0.00298973460631, 0.13608704821769, 0.9429955105161, 0.30371003021612],
      "ImagePositionPatient": [-808.67230182187, -562.44942230161, -281.39494807328],
      "ImageType": [
        "ORIGINAL",
        "PRIMARY",
        "M",
        "ND",
        "NORM",
        "MOSAIC"
],
      "ImagedNucleus": "1H",
      "ImagingFrequency": 123.259257,
      "InPlanePhaseEncodingDirection": "COL",
      "MRAcquisitionType": "2D",
      "MagneticFieldStrength": 3.0,
      "Manufacturer": "SIEMENS",
      "ManufacturerModelName": "Prisma",
      "Modality": "MR",
      "NumberOfAverages": 1.0,
      "NumberOfPhaseEncodingSteps": 80,
      "PercentPhaseFieldOfView": 100.0,
      "PercentSampling": 100.0,
      "PerformedProcedureStepStartTime": "094552.619000",
      "PhotometricInterpretation": "MONOCHROME2",
      "PixelBandwidth": 2315.0,
      "PixelRepresentation": 0,
      "PixelSpacing": [3.0, 3.0],
      "ProtocolName": "func-bold_fa-10",
      "RepetitionTime": 2000.0,
      "Rows": 480,
      "SAR": 0.01523281729529,
      "SamplesPerPixel": 1,
      "ScanOptions": "FS",
      "ScanningSequence": "EP",
      "SequenceName": "*epfid2d1_80",
      "SequenceVariant": "SK",
      "SeriesDescription": "func-bold_fa-10",
      "SeriesNumber": 10,
      "SeriesTime": "100826.784000",
      "SliceLocation": -61.693026260811,
      "SliceThickness": 3.5,
      "SmallestImagePixelValue": 0,
      "SoftwareVersions": "syngo MR E11",
      "SpacingBetweenSlices": 3.9900000050601,
      "SpecificCharacterSet": "ISO_IR 100",
      "StudyID": "10",
      "StudyTime": "094552.545000",
      "TransmitCoilName": "Body",
      "VariableFlipAngleFlag": "N",
      "WindowCenterWidthExplanation": "Algo1"
    },
    "slices": {}
  },
  "time": {
    "samples": {
      "AcquisitionNumber": [1, 2, 3, 4, 5, 6, 7, 8, 9, 10, 11, 12, 13, 14, 15, 16, 17, 18, 19, 20, 21, 22, 23, 24, 25, 26, 27, 28, 29, 30, 31, 32, 33, 34, 35, 36, 37, 38, 39, 40, 41, 42, 43, 44, 45, 46, 47, 48, 49, 50, 51, 52, 53, 54, 55, 56, 57, 58, 59, 60, 61, 62, 63, 64, 65, 66, 67, 68, 69, 70, 71, 72, 73, 74, 75, 76, 77, 78, 79, 80, 81, 82, 83, 84, 85, 86, 87, 88, 89, 90, 91, 92, 93, 94, 95, 96, 97, 98, 99, 100, 101, 102, 103, 104, 105, 106, 107, 108, 109, 110, 111, 112, 113, 114, 115, 116, 117, 118, 119, 120, 121, 122, 123, 124, 125, 126, 127, 128, 129, 130, 131, 132, 133, 134, 135, 136, 137, 138, 139, 140, 141, 142, 143, 144, 145, 146, 147, 148, 149, 150, 151, 152, 153, 154, 155, 156, 157, 158, 159, 160, 161, 162, 163, 164, 165, 166, 167, 168, 169, 170, 171, 172, 173, 174, 175, 176, 177, 178, 179, 180, 181, 182, 183, 184, 185, 186, 187, 188, 189, 190, 191, 192, 193, 194, 195, 196, 197, 198, 199, 200],
      "AcquisitionTime": ["100735.457500", "100737.457500", "100739.457500", "100741.457500", "100743.457500", "100745.457500", "100747.457500", "100749.457500", "100751.457500", "100753.457500", "100755.457500", "100757.457500", "100759.457500", "100801.457500", "100803.457500", "100805.457500", "100807.457500", "100809.457500", "100811.457500", "100813.457500", "100815.457500", "100817.457500", "100819.457500", "100821.457500", "100823.457500", "100825.457500", "100827.457500", "100829.457500", "100831.457500", "100833.457500", "100835.457500", "100837.457500", "100839.457500", "100841.457500", "100843.457500", "100845.457500", "100847.457500", "100849.457500", "100851.457500", "100853.457500", "100855.457500", "100857.457500", "100859.457500", "100901.457500", "100903.457500", "100905.457500", "100907.457500", "100909.457500", "100911.457500", "100913.457500", "100915.457500", "100917.457500", "100919.457500", "100921.457500", "100923.457500", "100925.457500", "100927.457500", "100929.457500", "100931.457500", "100933.457500", "100935.457500", "100937.457500", "100939.457500", "100941.457500", "100943.457500", "100945.457500", "100947.457500", "100949.457500", "100951.457500", "100953.457500", "100955.457500", "100957.457500", "100959.457500", "101001.457500", "101003.457500", "101005.457500", "101007.457500", "101009.457500", "101011.457500", "101013.457500", "101015.457500", "101017.457500", "101019.457500", "101021.457500", "101023.457500", "101025.457500", "101027.457500", "101029.457500", "101031.457500", "101033.457500", "101035.457500", "101037.457500", "101039.457500", "101041.457500", "101043.457500", "101045.457500", "101047.457500", "101049.457500", "101051.457500", "101053.457500", "101055.457500", "101057.457500", "101059.457500", "101101.457500", "101103.457500", "101105.457500", "101107.457500", "101109.457500", "101111.457500", "101113.457500", "101115.457500", "101117.457500", "101119.457500", "101121.457500", "101123.457500", "101125.457500", "101127.457500", "101129.457500", "101131.457500", "101133.457500", "101135.457500", "101137.457500", "101139.457500", "101141.457500", "101143.457500", "101145.457500", "101147.457500", "101149.457500", "101151.457500", "101153.457500", "101155.457500", "101157.457500", "101159.457500", "101201.457500", "101203.457500", "101205.457500", "101207.457500", "101209.457500", "101211.457500", "101213.457500", "101215.457500", "101217.457500", "101219.457500", "101221.457500", "101223.457500", "101225.457500", "101227.457500", "101229.457500", "101231.457500", "101233.457500", "101235.457500", "101237.457500", "101239.457500", "101241.457500", "101243.457500", "101245.457500", "101247.457500", "101249.457500", "101251.457500", "101253.457500", "101255.457500", "101257.457500", "101259.457500", "101301.457500", "101303.457500", "101305.457500", "101307.457500", "101309.457500", "101311.457500", "101313.457500", "101315.457500", "101317.457500", "101319.457500", "101321.457500", "101323.457500", "101325.457500", "101327.457500", "101329.457500", "101331.457500", "101333.457500", "101335.457500", "101337.457500", "101339.457500", "101341.457500", "101343.457500", "101345.457500", "101347.457500", "101349.457500", "101351.457500", "101353.457500", "101355.457500", "101357.457500", "101359.457500", "101401.457500", "101403.457500", "101405.457500", "101407.457500", "101409.457500", "101411.457500", "101413.457500"],
      "ContentTime": ["100826.787000", "100826.791000", "100826.793000", "100826.795000", "100826.798000", "100826.800000", "100826.803000", "100826.805000", "100826.807000", "100826.810000", "100826.812000", "100826.814000", "100826.817000", "100826.819000", "100826.821000", "100826.824000", "100826.826000", "100826.828000", "100826.834000", "100826.836000", "100826.840000", "100826.842000", "100826.845000", "100826.847000", "100826.849000", "100906.783000", "100906.786000", "100906.788000", "100906.791000", "100906.793000", "100906.795000", "100906.798000", "100906.800000", "100906.802000", "100906.805000", "100906.807000", "100906.809000", "100906.812000", "100906.814000", "100906.816000", "100906.819000", "100906.821000", "100906.823000", "100906.826000", "100906.828000", "100946.782000", "100946.785000", "100946.787000", "100946.789000", "100946.792000", "100946.794000", "100946.796000", "100946.799000", "100946.801000", "100946.804000", "100946.806000", "100946.808000", "100946.810000", "100946.813000", "100946.815000", "100946.818000", "100946.820000", "100946.822000", "100946.825000", "100946.827000", "101026.783000", "101026.786000", "101026.788000", "101026.791000", "101026.793000", "101026.795000", "101026.797000", "101026.800000", "101026.802000", "101026.805000", "101026.807000", "101026.809000", "101026.811000", "101026.814000", "101026.816000", "101026.819000", "101026.821000", "101026.823000", "101026.825000", "101026.828000", "101106.784000", "101106.786000", "101106.789000", "101106.791000", "101106.793000", "101106.796000", "101106.798000", "101106.828000", "101106.830000", "101106.833000", "101106.835000", "101106.839000", "101106.841000", "101106.844000", "101106.846000", "101106.848000", "101106.851000", "101106.853000", "101106.855000", "101106.858000", "101146.782000", "101146.785000", "101146.787000", "101146.790000", "101146.792000", "101146.794000", "101146.797000", "101146.799000", "101146.830000", "101146.841000", "101146.843000", "101146.846000", "101146.848000", "101146.850000", "101146.853000", "101146.855000", "101146.857000", "101146.860000", "101146.862000", "101146.864000", "101226.783000", "101226.786000", "101226.788000", "101226.791000", "101226.793000", "101226.796000", "101226.798000", "101226.827000", "101226.829000", "101226.831000", "101226.834000", "101226.836000", "101226.840000", "101226.842000", "101226.845000", "101226.847000", "101226.849000", "101226.852000", "101226.854000", "101226.856000", "101306.783000", "101306.786000", "101306.789000", "101306.791000", "101306.793000", "101306.796000", "101306.798000", "101306.800000", "101306.803000", "101306.805000", "101306.807000", "101306.810000", "101306.812000", "101306.814000", "101306.817000", "101306.819000", "101306.821000", "101306.824000", "101306.826000", "101306.828000", "101346.783000", "101346.786000", "101346.788000", "101346.791000", "101346.793000", "101346.796000", "101346.798000", "101346.814000", "101346.816000", "101346.819000", "101346.821000", "101346.824000", "101346.826000", "101346.828000", "101346.831000", "101346.833000", "101346.835000", "101346.839000", "101346.841000", "101346.844000", "101414.884000", "101414.888000", "101414.891000", "101414.894000", "101414.896000", "101414.900000", "101414.903000", "101414.905000", "101414.907000", "101414.910000", "101414.913000", "101414.919000", "101414.921000", "101414.929000", "101414.932000"],
      "InstanceCreationTime": ["100826.787000", "100826.791000", "100826.793000", "100826.795000", "100826.798000", "100826.800000", "100826.803000", "100826.805000", "100826.807000", "100826.810000", "100826.812000", "100826.814000", "100826.817000", "100826.819000", "100826.821000", "100826.824000", "100826.826000", "100826.828000", "100826.834000", "100826.836000", "100826.840000", "100826.842000", "100826.845000", "100826.847000", "100826.849000", "100906.783000", "100906.786000", "100906.788000", "100906.791000", "100906.793000", "100906.795000", "100906.798000", "100906.800000", "100906.802000", "100906.805000", "100906.807000", "100906.809000", "100906.812000", "100906.814000", "100906.816000", "100906.819000", "100906.821000", "100906.823000", "100906.826000", "100906.828000", "100946.782000", "100946.785000", "100946.787000", "100946.789000", "100946.792000", "100946.794000", "100946.796000", "100946.799000", "100946.801000", "100946.804000", "100946.806000", "100946.808000", "100946.810000", "100946.813000", "100946.815000", "100946.818000", "100946.820000", "100946.822000", "100946.825000", "100946.827000", "101026.783000", "101026.786000", "101026.788000", "101026.791000", "101026.793000", "101026.795000", "101026.797000", "101026.800000", "101026.802000", "101026.805000", "101026.807000", "101026.809000", "101026.811000", "101026.814000", "101026.816000", "101026.819000", "101026.821000", "101026.823000", "101026.825000", "101026.828000", "101106.784000", "101106.786000", "101106.789000", "101106.791000", "101106.793000", "101106.796000", "101106.798000", "101106.828000", "101106.830000", "101106.833000", "101106.835000", "101106.839000", "101106.841000", "101106.844000", "101106.846000", "101106.848000", "101106.851000", "101106.853000", "101106.855000", "101106.858000", "101146.782000", "101146.785000", "101146.787000", "101146.790000", "101146.792000", "101146.794000", "101146.797000", "101146.799000", "101146.830000", "101146.841000", "101146.843000", "101146.846000", "101146.848000", "101146.850000", "101146.853000", "101146.855000", "101146.857000", "101146.860000", "101146.862000", "101146.864000", "101226.783000", "101226.786000", "101226.788000", "101226.791000", "101226.793000", "101226.796000", "101226.798000", "101226.827000", "101226.829000", "101226.831000", "101226.834000", "101226.836000", "101226.840000", "101226.842000", "101226.845000", "101226.847000", "101226.849000", "101226.852000", "101226.854000", "101226.856000", "101306.783000", "101306.786000", "101306.789000", "101306.791000", "101306.793000", "101306.796000", "101306.798000", "101306.800000", "101306.803000", "101306.805000", "101306.807000", "101306.810000", "101306.812000", "101306.814000", "101306.817000", "101306.819000", "101306.821000", "101306.824000", "101306.826000", "101306.828000", "101346.783000", "101346.786000", "101346.788000", "101346.791000", "101346.793000", "101346.796000", "101346.798000", "101346.814000", "101346.816000", "101346.819000", "101346.821000", "101346.824000", "101346.826000", "101346.828000", "101346.831000", "101346.833000", "101346.835000", "101346.839000", "101346.841000", "101346.844000", "101414.884000", "101414.888000", "101414.891000", "101414.894000", "101414.896000", "101414.900000", "101414.903000", "101414.905000", "101414.907000", "101414.910000", "101414.913000", "101414.919000", "101414.921000", "101414.929000", "101414.932000"],
      "InstanceNumber": [1, 2, 3, 4, 5, 6, 7, 8, 9, 10, 11, 12, 13, 14, 15, 16, 17, 18, 19, 20, 21, 22, 23, 24, 25, 26, 27, 28, 29, 30, 31, 32, 33, 34, 35, 36, 37, 38, 39, 40, 41, 42, 43, 44, 45, 46, 47, 48, 49, 50, 51, 52, 53, 54, 55, 56, 57, 58, 59, 60, 61, 62, 63, 64, 65, 66, 67, 68, 69, 70, 71, 72, 73, 74, 75, 76, 77, 78, 79, 80, 81, 82, 83, 84, 85, 86, 87, 88, 89, 90, 91, 92, 93, 94, 95, 96, 97, 98, 99, 100, 101, 102, 103, 104, 105, 106, 107, 108, 109, 110, 111, 112, 113, 114, 115, 116, 117, 118, 119, 120, 121, 122, 123, 124, 125, 126, 127, 128, 129, 130, 131, 132, 133, 134, 135, 136, 137, 138, 139, 140, 141, 142, 143, 144, 145, 146, 147, 148, 149, 150, 151, 152, 153, 154, 155, 156, 157, 158, 159, 160, 161, 162, 163, 164, 165, 166, 167, 168, 169, 170, 171, 172, 173, 174, 175, 176, 177, 178, 179, 180, 181, 182, 183, 184, 185, 186, 187, 188, 189, 190, 191, 192, 193, 194, 195, 196, 197, 198, 199, 200],
      "LargestImagePixelValue": [352, 348, 349, 350, 348, 350, 352, 349, 350, 353, 354, 349, 349, 349, 348, 348, 354, 351, 348, 348, 350, 351, 351, 350, 350, 348, 350, 350, 350, 351, 350, 348, 350, 351, 349, 349, 350, 351, 350, 350, 350, 350, 348, 349, 350, 351, 348, 351, 349, 347, 350, 349, 354, 348, 350, 349, 354, 349, 350, 348, 349, 350, 350, 349, 350, 350, 349, 353, 349, 349, 350, 350, 349, 350, 349, 351, 348, 349, 349, 349, 350, 349, 349, 351, 348, 349, 349, 351, 349, 350, 350, 348, 349, 351, 349, 351, 352, 348, 350, 350, 352, 350, 349, 349, 349, 348, 350, 348, 351, 351, 352, 350, 350, 352, 351, 349, 350, 349, 350, 350, 350, 349, 348, 348, 349, 349, 349, 351, 350, 349, 349, 348, 352, 347, 348, 352, 351, 350, 349, 348, 349, 350, 349, 349, 349, 351, 346, 348, 349, 349, 350, 351, 349, 348, 349, 349, 348, 349, 350, 351, 348, 351, 351, 348, 349, 351, 349, 350, 350, 350, 350, 349, 350, 350, 348, 351, 349, 348, 349, 349, 350, 348, 351, 349, 348, 350, 351, 349, 350, 348, 349, 348, 350, 348, 348, 348, 349, 351, 349, 349],
      "WindowCenter": [292.0, 292.0, 292.0, 292.0, 292.0, 292.0, 292.0, 292.0, 292.0, 292.0, 293.0, 291.0, 292.0, 291.0, 292.0, 292.0, 292.0, 292.0, 291.0, 292.0, 292.0, 292.0, 292.0, 292.0, 292.0, 292.0, 292.0, 292.0, 292.0, 292.0, 292.0, 291.0, 292.0, 292.0, 292.0, 291.0, 292.0, 292.0, 292.0, 292.0, 292.0, 292.0, 292.0, 291.0, 292.0, 292.0, 291.0, 292.0, 291.0, 292.0, 292.0, 292.0, 292.0, 291.0, 292.0, 292.0, 292.0, 291.0, 292.0, 292.0, 291.0, 292.0, 292.0, 291.0, 292.0, 292.0, 291.0, 292.0, 291.0, 292.0, 292.0, 292.0, 292.0, 292.0, 291.0, 292.0, 292.0, 291.0, 291.0, 292.0, 292.0, 291.0, 291.0, 292.0, 291.0, 291.0, 292.0, 292.0, 290.0, 292.0, 292.0, 292.0, 291.0, 292.0, 291.0, 292.0, 292.0, 291.0, 292.0, 292.0, 292.0, 292.0, 290.0, 291.0, 291.0, 291.0, 292.0, 291.0, 292.0, 292.0, 292.0, 292.0, 292.0, 292.0, 292.0, 291.0, 292.0, 291.0, 292.0, 292.0, 292.0, 291.0, 291.0, 291.0, 292.0, 291.0, 291.0, 292.0, 292.0, 291.0, 291.0, 291.0, 292.0, 291.0, 290.0, 292.0, 292.0, 292.0, 291.0, 291.0, 291.0, 292.0, 291.0, 291.0, 291.0, 292.0, 291.0, 291.0, 292.0, 291.0, 292.0, 292.0, 291.0, 291.0, 291.0, 291.0, 291.0, 291.0, 292.0, 292.0, 291.0, 292.0, 292.0, 291.0, 291.0, 291.0, 291.0, 292.0, 291.0, 292.0, 292.0, 291.0, 292.0, 292.0, 291.0, 291.0, 291.0, 291.0, 291.0, 291.0, 292.0, 291.0, 292.0, 291.0, 290.0, 291.0, 292.0, 291.0, 292.0, 291.0, 291.0, 291.0, 291.0, 291.0, 291.0, 291.0, 291.0, 292.0, 291.0, 291.0],
      "WindowWidth": [636.0, 635.0, 635.0, 636.0, 635.0, 635.0, 636.0, 635.0, 636.0, 636.0, 636.0, 635.0, 635.0, 635.0, 635.0, 635.0, 636.0, 636.0, 635.0, 635.0, 635.0, 636.0, 635.0, 636.0, 635.0, 635.0, 636.0, 636.0, 636.0, 635.0, 635.0, 635.0, 636.0, 636.0, 635.0, 635.0, 636.0, 636.0, 636.0, 636.0, 636.0, 636.0, 635.0, 634.0, 636.0, 635.0, 634.0, 636.0, 634.0, 635.0, 636.0, 635.0, 636.0, 634.0, 635.0, 635.0, 635.0, 634.0, 636.0, 635.0, 635.0, 635.0, 636.0, 634.0, 635.0, 635.0, 634.0, 636.0, 634.0, 635.0, 636.0, 635.0, 635.0, 635.0, 634.0, 636.0, 635.0, 634.0, 634.0, 635.0, 635.0, 633.0, 634.0, 635.0, 634.0, 633.0, 635.0, 636.0, 633.0, 635.0, 636.0, 635.0, 634.0, 635.0, 634.0, 635.0, 635.0, 634.0, 635.0, 635.0, 635.0, 636.0, 633.0, 634.0, 634.0, 634.0, 635.0, 634.0, 635.0, 635.0, 635.0, 635.0, 635.0, 635.0, 635.0, 633.0, 635.0, 634.0, 635.0, 635.0, 635.0, 634.0, 633.0, 634.0, 635.0, 633.0, 633.0, 635.0, 635.0, 634.0, 633.0, 634.0, 635.0, 634.0, 633.0, 635.0, 635.0, 635.0, 634.0, 634.0, 634.0, 635.0, 634.0, 633.0, 633.0, 635.0, 634.0, 633.0, 635.0, 634.0, 635.0, 634.0, 634.0, 633.0, 633.0, 634.0, 634.0, 634.0, 635.0, 635.0, 633.0, 635.0, 635.0, 633.0, 633.0, 634.0, 633.0, 634.0, 634.0, 634.0, 635.0, 633.0, 635.0, 635.0, 633.0, 634.0, 633.0, 633.0, 633.0, 633.0, 635.0, 634.0, 635.0, 634.0, 633.0, 634.0, 635.0, 633.0, 634.0, 633.0, 633.0, 633.0, 634.0, 633.0, 633.0, 633.0, 633.0, 635.0, 633.0, 633.0]
    },
    "slices": {}
  }
}