{
  "AcquisitionMatrixPE": 80,
  "AcquisitionNumber": 1,
  "AcquisitionTime": "10:00:49.415000",
  "BandwidthPerPixelPhaseEncode": 25,
  "BaseResolution": 80,
  "BodyPartExamined": "BRAIN",
  "CoilCombinationMethod": "Sum of Squares",
  "ConsistencyInfo": "N4_VE11E_LATEST_20181129",
  "ConversionSoftware": "dcm2niix",
  "ConversionSoftwareVersion": "v1.0.20220720",
  "DerivedVendorReportedEchoSpacing": 0.0005,
  "DeviceSerialNumber": "66112",
  "DwellTime": 2.7e-06,
  "EchoTime": 0.03,
  "EchoTrainLength": 80,
  "EffectiveEchoSpacing": 0.0005,
  "FlipAngle": 77,
  "HeudiconvVersion": "0.13.1",
  "ImageOrientationPatientDICOM": [0.989606, -0.143776, 0.00298973, 0.136087, 0.942995, 0.30371],
  "ImageOrientationText": "Tra>Cor(17.5)>Sag(2.7)",
  "ImageType": [
    "ORIGINAL",
    "PRIMARY",
    "M",
    "ND",
    "NORM",
    "MOSAIC"
],
  "ImagingFrequency": 123.259,
  "InPlanePhaseEncodingDirectionDICOM": "COL",
  "InstitutionAddress": "Maynard 3,Hanover,NH,US,03755",
  "InstitutionName": "Dartmouth College - PBS",
  "InstitutionalDepartmentName": "Department",
  "MRAcquisitionType": "2D",
  "MagneticFieldStrength": 3,
  "Manufacturer": "Siemens",
  "ManufacturersModelName": "Prisma",
  "MatrixCoilMode": "SENSE",
  "Modality": "MR",
  "NonlinearGradientCorrection": false,
  "PartialFourier": 1,
  "PatientPosition": "HFS",
  "PercentPhaseFOV": 100,
  "PercentSampling": 100,
  "PhaseEncodingDirection": "j-",
  "PhaseEncodingSteps": 80,
  "PhaseResolution": 1,
  "PixelBandwidth": 2315,
  "ProcedureStepDescription": "dbic^QA",
  "ProtocolName": "func-bold_fa-77",
  "PulseSequenceDetails": "%SiemensSeq%\\ep2d_bold",
  "ReceiveCoilActiveElements": "HEA;HEP",
  "ReceiveCoilName": "Head_32",
  "ReconMatrixPE": 80,
  "RepetitionTime": 2,
  "SAR": 0.0567861,
  "ScanOptions": "FS",
  "ScanningSequence": "EP",
  "SequenceName": "*epfid2d1_80",
  "SequenceVariant": "SK",
  "SeriesDescription": "func-bold_fa-77",
  "SeriesNumber": 8,
  "ShimSetting": [4223, -7730, -7489, -28, -144, -95, -36, 64],
  "SliceThickness": 3.5,
  "SliceTiming": [0.99, 0, 1.0575, 0.0675, 1.1225, 0.1325, 1.19, 0.2, 1.255, 0.265, 1.32, 0.33, 1.3875, 0.3975, 1.4525, 0.4625, 1.52, 0.53, 1.585, 0.595, 1.65, 0.66, 1.7175, 0.7275, 1.7825, 0.7925, 1.85, 0.86, 1.915, 0.925],
  "SoftwareVersions": "syngo MR E11",
  "SpacingBetweenSlices": 3.99,
  "StationName": "AWP66112",
  "TotalReadoutTime": 0.0395,
  "TxRefAmp": 226.55,
  "dcmmeta_affine": [
    [-2.9688169956207275, 0.40826115012168884, 0.18547774851322174, 101.00403594970703],
    [0.43132928013801575, 2.828986644744873, 1.197583794593811, -140.57196044921875],
    [0.008969203568994999, -0.9111300706863403, 3.801511764526367, -25.395811080932617],
    [0.0, 0.0, 0.0, 1.0]
],
  "dcmmeta_reorient_transform": [
    [0.0, -1.0, 0.0, 79.0],
    [1.0, 0.0, 0.0, 0.0],
    [0.0, 0.0, 1.0, 0.0],
    [0.0, 0.0, 0.0, 1.0]
],
  "dcmmeta_shape": [80, 80, 30, 200],
  "dcmmeta_slice_dim": 2,
  "dcmmeta_version": 0.6,
  "global": {
    "const": {
      "AccessionNumber": "qa",
      "AcquisitionMatrix": [80, 0, 0, 80],
      "AngioFlag": "N",
      "BitsAllocated": 16,
      "BitsStored": 12,
      "BodyPartExamined": "BRAIN",
      "Columns": 480,
      "EchoNumbers": 1,
      "EchoTime": 30.0,
      "EchoTrainLength": 80,
      "FlipAngle": 77.0,
      "HighBit": 11,
      "ImageOrientationPatient": [0.98960567885821, -0.1437764301218, 0.00298973460631, 0.13608704821769, 0.9429955105161, 0.30371003021612],
      "ImagePositionPatient": [-808.67230182187, -562.44942230161, -281.39494807328],
      "ImageType": [
        "ORIGINAL",
        "PRIMARY",
        "M",
        "ND",
        "NORM",
        "MOSAIC"
],
      "ImagedNucleus": "1H",
      "ImagingFrequency": 123.259255,
      "InPlanePhaseEncodingDirection": "COL",
      "MRAcquisitionType": "2D",
      "MagneticFieldStrength": 3.0,
      "Manufacturer": "SIEMENS",
      "ManufacturerModelName": "Prisma",
      "Modality": "MR",
      "NumberOfAverages": 1.0,
      "NumberOfPhaseEncodingSteps": 80,
      "PercentPhaseFieldOfView": 100.0,
      "PercentSampling": 100.0,
      "PerformedProcedureStepStartTime": "094552.619000",
      "PhotometricInterpretation": "MONOCHROME2",
      "PixelBandwidth": 2315.0,
      "PixelRepresentation": 0,
      "PixelSpacing": [3.0, 3.0],
      "ProtocolName": "func-bold_fa-77",
      "RepetitionTime": 2000.0,
      "Rows": 480,
      "SAR": 0.05678608324581,
      "SamplesPerPixel": 1,
      "ScanOptions": "FS",
      "ScanningSequence": "EP",
      "SequenceName": "*epfid2d1_80",
      "SequenceVariant": "SK",
      "SeriesDescription": "func-bold_fa-77",
      "SeriesNumber": 8,
      "SeriesTime": "100146.957000",
      "SliceLocation": -61.693026260811,
      "SliceThickness": 3.5,
      "SmallestImagePixelValue": 0,
      "SoftwareVersions": "syngo MR E11",
      "SpacingBetweenSlices": 3.9900000050601,
      "SpecificCharacterSet": "ISO_IR 100",
      "StudyID": "10",
      "StudyTime": "094552.545000",
      "TransmitCoilName": "Body",
      "VariableFlipAngleFlag": "N",
      "WindowCenterWidthExplanation": "Algo1"
    },
    "slices": {}
  },
  "time": {
    "samples": {
      "AcquisitionNumber": [1, 2, 3, 4, 5, 6, 7, 8, 9, 10, 11, 12, 13, 14, 15, 16, 17, 18, 19, 20, 21, 22, 23, 24, 25, 26, 27, 28, 29, 30, 31, 32, 33, 34, 35, 36, 37, 38, 39, 40, 41, 42, 43, 44, 45, 46, 47, 48, 49, 50, 51, 52, 53, 54, 55, 56, 57, 58, 59, 60, 61, 62, 63, 64, 65, 66, 67, 68, 69, 70, 71, 72, 73, 74, 75, 76, 77, 78, 79, 80, 81, 82, 83, 84, 85, 86, 87, 88, 89, 90, 91, 92, 93, 94, 95, 96, 97, 98, 99, 100, 101, 102, 103, 104, 105, 106, 107, 108, 109, 110, 111, 112, 113, 114, 115, 116, 117, 118, 119, 120, 121, 122, 123, 124, 125, 126, 127, 128, 129, 130, 131, 132, 133, 134, 135, 136, 137, 138, 139, 140, 141, 142, 143, 144, 145, 146, 147, 148, 149, 150, 151, 152, 153, 154, 155, 156, 157, 158, 159, 160, 161, 162, 163, 164, 165, 166, 167, 168, 169, 170, 171, 172, 173, 174, 175, 176, 177, 178, 179, 180, 181, 182, 183, 184, 185, 186, 187, 188, 189, 190, 191, 192, 193, 194, 195, 196, 197, 198, 199, 200],
      "AcquisitionTime": ["100049.415000", "100051.415000", "100053.415000", "100055.415000", "100057.415000", "100059.415000", "100101.415000", "100103.415000", "100105.415000", "100107.415000", "100109.415000", "100111.415000", "100113.415000", "100115.415000", "100117.415000", "100119.415000", "100121.415000", "100123.415000", "100125.415000", "100127.415000", "100129.415000", "100131.415000", "100133.415000", "100135.415000", "100137.415000", "100139.415000", "100141.415000", "100143.415000", "100145.415000", "100147.415000", "100149.415000", "100151.415000", "100153.415000", "100155.415000", "100157.415000", "100159.415000", "100201.415000", "100203.415000", "100205.415000", "100207.415000", "100209.415000", "100211.415000", "100213.415000", "100215.415000", "100217.415000", "100219.415000", "100221.415000", "100223.415000", "100225.415000", "100227.415000", "100229.415000", "100231.415000", "100233.415000", "100235.415000", "100237.415000", "100239.415000", "100241.415000", "100243.415000", "100245.415000", "100247.415000", "100249.415000", "100251.415000", "100253.415000", "100255.415000", "100257.415000", "100259.415000", "100301.415000", "100303.415000", "100305.415000", "100307.415000", "100309.415000", "100311.415000", "100313.415000", "100315.415000", "100317.415000", "100319.415000", "100321.415000", "100323.415000", "100325.415000", "100327.415000", "100329.415000", "100331.415000", "100333.415000", "100335.415000", "100337.415000", "100339.415000", "100341.415000", "100343.415000", "100345.415000", "100347.415000", "100349.415000", "100351.415000", "100353.415000", "100355.415000", "100357.415000", "100359.415000", "100401.415000", "100403.415000", "100405.415000", "100407.415000", "100409.415000", "100411.415000", "100413.415000", "100415.415000", "100417.415000", "100419.415000", "100421.415000", "100423.415000", "100425.415000", "100427.415000", "100429.415000", "100431.415000", "100433.415000", "100435.415000", "100437.415000", "100439.415000", "100441.415000", "100443.415000", "100445.415000", "100447.415000", "100449.415000", "100451.415000", "100453.415000", "100455.415000", "100457.415000", "100459.415000", "100501.415000", "100503.415000", "100505.415000", "100507.415000", "100509.415000", "100511.415000", "100513.415000", "100515.415000", "100517.415000", "100519.415000", "100521.415000", "100523.415000", "100525.415000", "100527.415000", "100529.415000", "100531.415000", "100533.415000", "100535.415000", "100537.415000", "100539.415000", "100541.415000", "100543.415000", "100545.415000", "100547.415000", "100549.415000", "100551.415000", "100553.415000", "100555.415000", "100557.415000", "100559.415000", "100601.415000", "100603.415000", "100605.415000", "100607.415000", "100609.415000", "100611.415000", "100613.415000", "100615.415000", "100617.415000", "100619.415000", "100621.415000", "100623.415000", "100625.415000", "100627.415000", "100629.415000", "100631.415000", "100633.415000", "100635.415000", "100637.415000", "100639.415000", "100641.415000", "100643.415000", "100645.415000", "100647.415000", "100649.415000", "100651.415000", "100653.415000", "100655.415000", "100657.415000", "100659.415000", "100701.415000", "100703.415000", "100705.415000", "100707.415000", "100709.415000", "100711.415000", "100713.415000", "100715.415000", "100717.415000", "100719.415000", "100721.415000", "100723.415000", "100725.415000", "100727.415000"],
      "ContentTime": ["100146.960000", "100146.963000", "100146.965000", "100146.968000", "100146.979000", "100146.981000", "100146.983000", "100146.986000", "100146.988000", "100146.990000", "100146.993000", "100146.995000", "100146.997000", "100147.001000", "100147.003000", "100147.005000", "100147.008000", "100147.010000", "100147.012000", "100147.014000", "100147.017000", "100147.020000", "100147.023000", "100147.025000", "100147.027000", "100147.030000", "100147.032000", "100147.034000", "100147.037000", "100226.955000", "100226.958000", "100226.960000", "100226.962000", "100226.965000", "100226.967000", "100226.969000", "100226.977000", "100226.980000", "100226.982000", "100226.984000", "100226.987000", "100226.989000", "100226.991000", "100226.994000", "100226.996000", "100226.998000", "100227.002000", "100227.004000", "100227.006000", "100306.955000", "100306.958000", "100306.960000", "100306.962000", "100306.965000", "100306.967000", "100306.969000", "100306.972000", "100306.974000", "100306.977000", "100306.979000", "100306.981000", "100306.984000", "100306.986000", "100306.988000", "100306.990000", "100306.993000", "100306.995000", "100306.998000", "100307.000000", "100346.955000", "100346.958000", "100346.960000", "100346.962000", "100346.965000", "100346.967000", "100346.970000", "100346.972000", "100346.975000", "100346.977000", "100346.979000", "100346.981000", "100346.984000", "100346.986000", "100346.988000", "100346.991000", "100346.993000", "100346.996000", "100346.998000", "100347.001000", "100426.955000", "100426.958000", "100426.960000", "100426.962000", "100426.965000", "100426.967000", "100426.969000", "100426.972000", "100426.974000", "100426.977000", "100426.979000", "100426.981000", "100426.984000", "100426.986000", "100426.988000", "100426.991000", "100426.993000", "100426.995000", "100426.998000", "100427.001000", "100506.954000", "100506.957000", "100506.959000", "100506.961000", "100506.964000", "100506.966000", "100506.968000", "100506.970000", "100506.973000", "100506.975000", "100506.978000", "100506.980000", "100506.982000", "100506.985000", "100506.987000", "100506.989000", "100506.992000", "100506.994000", "100506.996000", "100507.000000", "100546.956000", "100546.958000", "100546.960000", "100546.963000", "100546.965000", "100546.968000", "100546.970000", "100546.972000", "100546.975000", "100546.977000", "100546.979000", "100546.982000", "100546.984000", "100546.986000", "100546.989000", "100546.991000", "100546.993000", "100546.996000", "100546.998000", "100547.001000", "100626.955000", "100626.958000", "100626.960000", "100626.963000", "100626.965000", "100626.967000", "100626.970000", "100626.972000", "100626.975000", "100626.977000", "100626.979000", "100626.982000", "100626.984000", "100626.986000", "100626.989000", "100626.991000", "100626.993000", "100626.996000", "100626.998000", "100627.001000", "100706.954000", "100706.957000", "100706.959000", "100706.962000", "100706.964000", "100706.967000", "100706.969000", "100706.971000", "100706.974000", "100706.976000", "100706.979000", "100706.981000", "100706.983000", "100706.986000", "100706.988000", "100706.990000", "100706.993000", "100706.995000", "100706.997000", "100707.001000", "100728.482000", "100728.485000", "100728.487000", "100728.490000", "100728.506000", "100728.508000", "100728.511000", "100728.513000", "100728.519000", "100728.522000", "100728.526000"],
      "InstanceCreationTime": ["100146.960000", "100146.963000", "100146.965000", "100146.968000", "100146.979000", "100146.981000", "100146.983000", "100146.986000", "100146.988000", "100146.990000", "100146.993000", "100146.995000", "100146.997000", "100147.001000", "100147.003000", "100147.005000", "100147.008000", "100147.010000", "100147.012000", "100147.014000", "100147.017000", "100147.020000", "100147.023000", "100147.025000", "100147.027000", "100147.030000", "100147.032000", "100147.034000", "100147.037000", "100226.955000", "100226.958000", "100226.960000", "100226.962000", "100226.965000", "100226.967000", "100226.969000", "100226.977000", "100226.980000", "100226.982000", "100226.984000", "100226.987000", "100226.989000", "100226.991000", "100226.994000", "100226.996000", "100226.998000", "100227.002000", "100227.004000", "100227.006000", "100306.955000", "100306.958000", "100306.960000", "100306.962000", "100306.965000", "100306.967000", "100306.969000", "100306.972000", "100306.974000", "100306.977000", "100306.979000", "100306.981000", "100306.984000", "100306.986000", "100306.988000", "100306.990000", "100306.993000", "100306.995000", "100306.998000", "100307.000000", "100346.955000", "100346.958000", "100346.960000", "100346.962000", "100346.965000", "100346.967000", "100346.970000", "100346.972000", "100346.975000", "100346.977000", "100346.979000", "100346.981000", "100346.984000", "100346.986000", "100346.988000", "100346.991000", "100346.993000", "100346.996000", "100346.998000", "100347.001000", "100426.955000", "100426.958000", "100426.960000", "100426.962000", "100426.965000", "100426.967000", "100426.969000", "100426.972000", "100426.974000", "100426.977000", "100426.979000", "100426.981000", "100426.984000", "100426.986000", "100426.988000", "100426.991000", "100426.993000", "100426.995000", "100426.998000", "100427.001000", "100506.954000", "100506.957000", "100506.959000", "100506.961000", "100506.964000", "100506.966000", "100506.968000", "100506.970000", "100506.973000", "100506.975000", "100506.978000", "100506.980000", "100506.982000", "100506.985000", "100506.987000", "100506.989000", "100506.992000", "100506.994000", "100506.996000", "100507.000000", "100546.956000", "100546.958000", "100546.960000", "100546.963000", "100546.965000", "100546.968000", "100546.970000", "100546.972000", "100546.975000", "100546.977000", "100546.979000", "100546.982000", "100546.984000", "100546.986000", "100546.989000", "100546.991000", "100546.993000", "100546.996000", "100546.998000", "100547.001000", "100626.955000", "100626.958000", "100626.960000", "100626.963000", "100626.965000", "100626.967000", "100626.970000", "100626.972000", "100626.975000", "100626.977000", "100626.979000", "100626.982000", "100626.984000", "100626.986000", "100626.989000", "100626.991000", "100626.993000", "100626.996000", "100626.998000", "100627.001000", "100706.954000", "100706.957000", "100706.959000", "100706.962000", "100706.964000", "100706.967000", "100706.969000", "100706.971000", "100706.974000", "100706.976000", "100706.979000", "100706.981000", "100706.983000", "100706.986000", "100706.988000", "100706.990000", "100706.993000", "100706.995000", "100706.997000", "100707.001000", "100728.482000", "100728.485000", "100728.487000", "100728.490000", "100728.506000", "100728.508000", "100728.511000", "100728.513000", "100728.519000", "100728.522000", "100728.526000"],
      "InstanceNumber": [1, 2, 3, 4, 5, 6, 7, 8, 9, 10, 11, 12, 13, 14, 15, 16, 17, 18, 19, 20, 21, 22, 23, 24, 25, 26, 27, 28, 29, 30, 31, 32, 33, 34, 35, 36, 37, 38, 39, 40, 41, 42, 43, 44, 45, 46, 47, 48, 49, 50, 51, 52, 53, 54, 55, 56, 57, 58, 59, 60, 61, 62, 63, 64, 65, 66, 67, 68, 69, 70, 71, 72, 73, 74, 75, 76, 77, 78, 79, 80, 81, 82, 83, 84, 85, 86, 87, 88, 89, 90, 91, 92, 93, 94, 95, 96, 97, 98, 99, 100, 101, 102, 103, 104, 105, 106, 107, 108, 109, 110, 111, 112, 113, 114, 115, 116, 117, 118, 119, 120, 121, 122, 123, 124, 125, 126, 127, 128, 129, 130, 131, 132, 133, 134, 135, 136, 137, 138, 139, 140, 141, 142, 143, 144, 145, 146, 147, 148, 149, 150, 151, 152, 153, 154, 155, 156, 157, 158, 159, 160, 161, 162, 163, 164, 165, 166, 167, 168, 169, 170, 171, 172, 173, 174, 175, 176, 177, 178, 179, 180, 181, 182, 183, 184, 185, 186, 187, 188, 189, 190, 191, 192, 193, 194, 195, 196, 197, 198, 199, 200],
      "LargestImagePixelValue": [2041, 2042, 2043, 2040, 2041, 2040, 2041, 2041, 2041, 2041, 2043, 2041, 2042, 2042, 2040, 2041, 2042, 2043, 2043, 2041, 2040, 2042, 2043, 2043, 2043, 2043, 2041, 2041, 2041, 2040, 2043, 2042, 2042, 2040, 2043, 2039, 2043, 2041, 2042, 2041, 2040, 2041, 2039, 2041, 2040, 2040, 2039, 2038, 2039, 2040, 2041, 2038, 2041, 2040, 2040, 2040, 2039, 2040, 2040, 2040, 2040, 2040, 2039, 2040, 2040, 2042, 2039, 2041, 2041, 2041, 2041, 2040, 2040, 2039, 2039, 2041, 2039, 2040, 2039, 2039, 2040, 2040, 2040, 2038, 2040, 2040, 2040, 2040, 2040, 2041, 2039, 2041, 2039, 2039, 2038, 2040, 2040, 2041, 2039, 2039, 2039, 2040, 2039, 2040, 2039, 2040, 2040, 2040, 2041, 2040, 2041, 2040, 2039, 2039, 2040, 2040, 2039, 2040, 2041, 2040, 2040, 2039, 2040, 2039, 2038, 2040, 2040, 2040, 2041, 2039, 2039, 2038, 2040, 2038, 2038, 2038, 2039, 2038, 2039, 2038, 2039, 2039, 2040, 2040, 2039, 2040, 2038, 2038, 2040, 2040, 2038, 2040, 2040, 2039, 2038, 2040, 2039, 2039, 2040, 2039, 2040, 2039, 2041, 2039, 2040, 2039, 2039, 2040, 2041, 2040, 2038, 2038, 2040, 2039, 2040, 2040, 2039, 2041, 2039, 2040, 2040, 2041, 2042, 2039, 2038, 2039, 2039, 2039, 2041, 2040, 2039, 2038, 2041, 2040, 2040, 2041, 2040, 2042, 2040, 2040],
      "WindowCenter": [1002.0, 1002.0, 1003.0, 1003.0, 1003.0, 1003.0, 1003.0, 1003.0, 1003.0, 1002.0, 1003.0, 1003.0, 1003.0, 1002.0, 1002.0, 1003.0, 1002.0, 1003.0, 1003.0, 1002.0, 1002.0, 1003.0, 1002.0, 1003.0, 1003.0, 1004.0, 1003.0, 1003.0, 1002.0, 1003.0, 1003.0, 1002.0, 1002.0, 1003.0, 1003.0, 1003.0, 1003.0, 1004.0, 1003.0, 1003.0, 1003.0, 1003.0, 1001.0, 1002.0, 1002.0, 1003.0, 1003.0, 1003.0, 1003.0, 1003.0, 1003.0, 1001.0, 1003.0, 1003.0, 1001.0, 1002.0, 1002.0, 1003.0, 1003.0, 1002.0, 1003.0, 1002.0, 1003.0, 1003.0, 1002.0, 1003.0, 1003.0, 1002.0, 1003.0, 1004.0, 1003.0, 1003.0, 1003.0, 1002.0, 1003.0, 1002.0, 1003.0, 1003.0, 1003.0, 1002.0, 1002.0, 1002.0, 1003.0, 1002.0, 1002.0, 1003.0, 1002.0, 1002.0, 1003.0, 1003.0, 1003.0, 1003.0, 1003.0, 1003.0, 1002.0, 1003.0, 1002.0, 1003.0, 1002.0, 1002.0, 1002.0, 1001.0, 1002.0, 1002.0, 1002.0, 1002.0, 1002.0, 1002.0, 1002.0, 1002.0, 1002.0, 1002.0, 1002.0, 1002.0, 1003.0, 1002.0, 1002.0, 1002.0, 1002.0, 1002.0, 1001.0, 1002.0, 1002.0, 1002.0, 1001.0, 1002.0, 1002.0, 1000.0, 1002.0, 1002.0, 1002.0, 1002.0, 1002.0, 1001.0, 1001.0, 1002.0, 1002.0, 1001.0, 1002.0, 1002.0, 1002.0, 1001.0, 1002.0, 1002.0, 1002.0, 1001.0, 1002.0, 1002.0, 1002.0, 1001.0, 1002.0, 1002.0, 1001.0, 1001.0, 1002.0, 1002.0, 1002.0, 1002.0, 1002.0, 1001.0, 1003.0, 1002.0, 1002.0, 1001.0, 1002.0, 1002.0, 1002.0, 1002.0, 1002.0, 1001.0, 1002.0, 1000.0, 1002.0, 1002.0, 1002.0, 1002.0, 1002.0, 1002.0, 1001.0, 1003.0, 1002.0, 1002.0, 1002.0, 1002.0, 1001.0, 1001.0, 1000.0, 1001.0, 1002.0, 1001.0, 1002.0, 1002.0, 1002.0, 1002.0, 1002.0, 1001.0, 1002.0, 1001.0, 1002.0, 1002.0],
      "WindowWidth": [2229.0, 2229.0, 2230.0, 2230.0, 2229.0, 2230.0, 2230.0, 2230.0, 2230.0, 2229.0, 2230.0, 2230.0, 2230.0, 2229.0, 2229.0, 2230.0, 2229.0, 2230.0, 2230.0, 2228.0, 2229.0, 2230.0, 2229.0, 2230.0, 2230.0, 2230.0, 2230.0, 2230.0, 2229.0, 2230.0, 2229.0, 2229.0, 2229.0, 2229.0, 2229.0, 2229.0, 2229.0, 2230.0, 2229.0, 2229.0, 2229.0, 2229.0, 2228.0, 2228.0, 2228.0, 2229.0, 2229.0, 2229.0, 2229.0, 2229.0, 2229.0, 2228.0, 2229.0, 2229.0, 2228.0, 2228.0, 2229.0, 2229.0, 2229.0, 2229.0, 2229.0, 2228.0, 2229.0, 2229.0, 2228.0, 2229.0, 2229.0, 2228.0, 2228.0, 2229.0, 2228.0, 2228.0, 2228.0, 2228.0, 2229.0, 2228.0, 2228.0, 2228.0, 2229.0, 2228.0, 2228.0, 2228.0, 2228.0, 2228.0, 2228.0, 2228.0, 2228.0, 2229.0, 2228.0, 2228.0, 2228.0, 2228.0, 2228.0, 2228.0, 2228.0, 2228.0, 2228.0, 2228.0, 2227.0, 2228.0, 2228.0, 2227.0, 2228.0, 2228.0, 2228.0, 2228.0, 2228.0, 2228.0, 2228.0, 2228.0, 2228.0, 2228.0, 2228.0, 2228.0, 2229.0, 2228.0, 2228.0, 2228.0, 2228.0, 2228.0, 2227.0, 2228.0, 2228.0, 2228.0, 2227.0, 2228.0, 2228.0, 2226.0, 2228.0, 2228.0, 2227.0, 2228.0, 2228.0, 2227.0, 2227.0, 2228.0, 2228.0, 2227.0, 2228.0, 2228.0, 2228.0, 2227.0, 2228.0, 2228.0, 2228.0, 2227.0, 2228.0, 2228.0, 2227.0, 2227.0, 2228.0, 2227.0, 2227.0, 2227.0, 2227.0, 2228.0, 2228.0, 2228.0, 2227.0, 2227.0, 2228.0, 2228.0, 2227.0, 2226.0, 2228.0, 2227.0, 2228.0, 2228.0, 2227.0, 2226.0, 2227.0, 2226.0, 2227.0, 2227.0, 2227.0, 2227.0, 2227.0, 2227.0, 2226.0, 2228.0, 2227.0, 2227.0, 2227.0, 2227.0, 2226.0, 2226.0, 2226.0, 2226.0, 2227.0, 2226.0, 2227.0, 2227.0, 2227.0, 2227.0, 2227.0, 2226.0, 2227.0, 2226.0, 2227.0, 2227.0]
    },
    "slices": {}
  }
}