{
  "AcquisitionMatrixPE": 80,
  "AcquisitionNumber": 1,
  "AcquisitionTime": "09:06:31.552500",
  "BandwidthPerPixelPhaseEncode": 25,
  "BaseResolution": 80,
  "BodyPartExamined": "BRAIN",
  "CoilCombinationMethod": "Sum of Squares",
  "ConsistencyInfo": "N4_VE11C_LATEST_20160120",
  "ConversionSoftware": "dcm2niix",
  "ConversionSoftwareVersion": "v1.0.20220720",
  "DerivedVendorReportedEchoSpacing": 0.0005,
  "DeviceSerialNumber": "66112",
  "DwellTime": 2.7e-06,
  "EchoTime": 0.03,
  "EchoTrainLength": 80,
  "EffectiveEchoSpacing": 0.0005,
  "FlipAngle": 77,
  "HeudiconvVersion": "0.13.1",
  "ImageOrientationPatientDICOM": [0.999576, -0.028521, 0.00590407, 0.0251274, 0.946961, 0.320364],
  "ImageOrientationText": "Tra>Cor(18.7)>Sag(0.8)",
  "ImageType": [
    "ORIGINAL",
    "PRIMARY",
    "M",
    "ND",
    "NORM",
    "MOSAIC"
],
  "ImagingFrequency": 123.252,
  "InPlanePhaseEncodingDirectionDICOM": "COL",
  "InstitutionAddress": "Maynard 3,Hanover,NH,US,03755",
  "InstitutionName": "Dartmouth College - PBS",
  "InstitutionalDepartmentName": "Department",
  "MRAcquisitionType": "2D",
  "MagneticFieldStrength": 3,
  "Manufacturer": "Siemens",
  "ManufacturersModelName": "Prisma",
  "MatrixCoilMode": "SENSE",
  "Modality": "MR",
  "NonlinearGradientCorrection": false,
  "PartialFourier": 1,
  "PatientPosition": "HFS",
  "PercentPhaseFOV": 100,
  "PercentSampling": 100,
  "PhaseEncodingDirection": "j-",
  "PhaseEncodingSteps": 80,
  "PhaseResolution": 1,
  "PixelBandwidth": 2315,
  "ProcedureStepDescription": "dbic^QA",
  "ProtocolName": "func-bold_fa-77",
  "PulseSequenceDetails": "%SiemensSeq%\\ep2d_bold",
  "ReceiveCoilActiveElements": "HC1-7;NC1,2",
  "ReceiveCoilName": "HeadNeck_64",
  "ReconMatrixPE": 80,
  "RepetitionTime": 2,
  "SAR": 0.0266666,
  "ScanOptions": "FS",
  "ScanningSequence": "EP",
  "SequenceName": "*epfid2d1_80",
  "SequenceVariant": "SK",
  "SeriesDescription": "func-bold_fa-77",
  "SeriesNumber": 7,
  "ShimSetting": [4142, -7675, -7515, 244, -69, -373, -19, 95],
  "SliceThickness": 3.5,
  "SliceTiming": [0.99, 0, 1.055, 0.065, 1.1225, 0.1325, 1.1875, 0.1975, 1.2525, 0.265, 1.32, 0.33, 1.385, 0.395, 1.4525, 0.4625, 1.5175, 0.5275, 1.5825, 0.595, 1.65, 0.66, 1.715, 0.725, 1.7825, 0.7925, 1.8475, 0.8575, 1.9125, 0.925],
  "SoftwareVersions": "syngo MR E11",
  "SpacingBetweenSlices": 3.99,
  "StationName": "AWP66112",
  "TotalReadoutTime": 0.0395,
  "TxRefAmp": 217.788,
  "dcmmeta_affine": [
    [-2.998727321624756, 0.07538234442472458, 0.05876476690173149, 117.33961486816406],
    [0.08556286990642548, 2.840883731842041, 1.2771177291870117, -114.54849243164062],
    [0.017712216824293137, -0.9610916376113892, 3.7796318531036377, -39.948509216308594],
    [0.0, 0.0, 0.0, 1.0]
],
  "dcmmeta_reorient_transform": [
    [0.0, -1.0, 0.0, 79.0],
    [1.0, 0.0, 0.0, 0.0],
    [0.0, 0.0, 1.0, 0.0],
    [0.0, 0.0, 0.0, 1.0]
],
  "dcmmeta_shape": [80, 80, 30, 200],
  "dcmmeta_slice_dim": 2,
  "dcmmeta_version": 0.6,
  "global": {
    "const": {
      "AccessionNumber": "qa64",
      "AcquisitionMatrix": [80, 0, 0, 80],
      "AngioFlag": "N",
      "BitsAllocated": 16,
      "BitsStored": 12,
      "BodyPartExamined": "BRAIN",
      "Columns": 480,
      "EchoNumbers": 1,
      "EchoTime": 30.0,
      "EchoTrainLength": 80,
      "FlipAngle": 77.0,
      "HighBit": 11,
      "ImageOrientationPatient": [0.9995757585072, -0.028520956067, 0.00590407230504, 0.02512744857964, 0.94696124247328, 0.32036388151808],
      "ImagePositionPatient": [-738.1167475376, -660.94549498324, -311.63552196749],
      "ImageType": [
        "ORIGINAL",
        "PRIMARY",
        "M",
        "ND",
        "NORM",
        "MOSAIC"
],
      "ImagedNucleus": "1H",
      "ImagingFrequency": 123.252367,
      "InPlanePhaseEncodingDirection": "COL",
      "MRAcquisitionType": "2D",
      "MagneticFieldStrength": 3.0,
      "Manufacturer": "SIEMENS",
      "ManufacturerModelName": "Prisma",
      "Modality": "MR",
      "NumberOfAverages": 1.0,
      "NumberOfPhaseEncodingSteps": 80,
      "PercentPhaseFieldOfView": 100.0,
      "PercentSampling": 100.0,
      "PerformedProcedureStepStartTime": "085534.831000",
      "PhotometricInterpretation": "MONOCHROME2",
      "PixelBandwidth": 2315.0,
      "PixelRepresentation": 0,
      "PixelSpacing": [3.0, 3.0],
      "ProtocolName": "func-bold_fa-77",
      "RepetitionTime": 2000.0,
      "Rows": 480,
      "SAR": 0.02666657640617,
      "SamplesPerPixel": 1,
      "ScanOptions": "FS",
      "ScanningSequence": "EP",
      "SequenceName": "*epfid2d1_80",
      "SequenceVariant": "SK",
      "SeriesDescription": "func-bold_fa-77",
      "SeriesNumber": 7,
      "SeriesTime": "090713.789000",
      "SliceLocation": -72.778728748797,
      "SliceThickness": 3.5,
      "SmallestImagePixelValue": 0,
      "SoftwareVersions": "syngo MR E11",
      "SpacingBetweenSlices": 3.9900000428329,
      "SpecificCharacterSet": "ISO_IR 100",
      "StudyID": "12",
      "StudyTime": "085534.751000",
      "TransmitCoilName": "Body",
      "VariableFlipAngleFlag": "N",
      "WindowCenterWidthExplanation": "Algo1",
      "dBdt": 0.0},
    "slices": {}
  },
  "time": {
    "samples": {
      "AcquisitionNumber": [1, 2, 3, 4, 5, 6, 7, 8, 9, 10, 11, 12, 13, 14, 15, 16, 17, 18, 19, 20, 21, 22, 23, 24, 25, 26, 27, 28, 29, 30, 31, 32, 33, 34, 35, 36, 37, 38, 39, 40, 41, 42, 43, 44, 45, 46, 47, 48, 49, 50, 51, 52, 53, 54, 55, 56, 57, 58, 59, 60, 61, 62, 63, 64, 65, 66, 67, 68, 69, 70, 71, 72, 73, 74, 75, 76, 77, 78, 79, 80, 81, 82, 83, 84, 85, 86, 87, 88, 89, 90, 91, 92, 93, 94, 95, 96, 97, 98, 99, 100, 101, 102, 103, 104, 105, 106, 107, 108, 109, 110, 111, 112, 113, 114, 115, 116, 117, 118, 119, 120, 121, 122, 123, 124, 125, 126, 127, 128, 129, 130, 131, 132, 133, 134, 135, 136, 137, 138, 139, 140, 141, 142, 143, 144, 145, 146, 147, 148, 149, 150, 151, 152, 153, 154, 155, 156, 157, 158, 159, 160, 161, 162, 163, 164, 165, 166, 167, 168, 169, 170, 171, 172, 173, 174, 175, 176, 177, 178, 179, 180, 181, 182, 183, 184, 185, 186, 187, 188, 189, 190, 191, 192, 193, 194, 195, 196, 197, 198, 199, 200],
      "AcquisitionTime": ["090631.552500", "090633.552500", "090635.552500", "090637.552500", "090639.552500", "090641.552500", "090643.552500", "090645.552500", "090647.552500", "090649.552500", "090651.552500", "090653.552500", "090655.552500", "090657.552500", "090659.552500", "090701.552500", "090703.552500", "090705.552500", "090707.552500", "090709.552500", "090711.552500", "090713.552500", "090715.552500", "090717.552500", "090719.552500", "090721.552500", "090723.552500", "090725.552500", "090727.552500", "090729.552500", "090731.552500", "090733.552500", "090735.552500", "090737.552500", "090739.552500", "090741.552500", "090743.552500", "090745.552500", "090747.552500", "090749.552500", "090751.552500", "090753.552500", "090755.552500", "090757.552500", "090759.552500", "090801.552500", "090803.552500", "090805.552500", "090807.552500", "090809.552500", "090811.552500", "090813.552500", "090815.552500", "090817.552500", "090819.552500", "090821.552500", "090823.552500", "090825.552500", "090827.552500", "090829.552500", "090831.552500", "090833.552500", "090835.552500", "090837.552500", "090839.552500", "090841.552500", "090843.552500", "090845.552500", "090847.552500", "090849.552500", "090851.552500", "090853.552500", "090855.552500", "090857.552500", "090859.552500", "090901.552500", "090903.552500", "090905.552500", "090907.552500", "090909.552500", "090911.552500", "090913.552500", "090915.552500", "090917.552500", "090919.552500", "090921.552500", "090923.552500", "090925.552500", "090927.552500", "090929.552500", "090931.552500", "090933.552500", "090935.552500", "090937.552500", "090939.552500", "090941.552500", "090943.552500", "090945.552500", "090947.552500", "090949.552500", "090951.552500", "090953.552500", "090955.552500", "090957.552500", "090959.552500", "091001.552500", "091003.552500", "091005.552500", "091007.552500", "091009.552500", "091011.552500", "091013.552500", "091015.552500", "091017.552500", "091019.552500", "091021.552500", "091023.552500", "091025.552500", "091027.552500", "091029.552500", "091031.552500", "091033.552500", "091035.552500", "091037.552500", "091039.552500", "091041.552500", "091043.552500", "091045.552500", "091047.552500", "091049.552500", "091051.552500", "091053.552500", "091055.552500", "091057.552500", "091059.552500", "091101.552500", "091103.552500", "091105.552500", "091107.552500", "091109.552500", "091111.552500", "091113.552500", "091115.552500", "091117.552500", "091119.552500", "091121.552500", "091123.552500", "091125.552500", "091127.552500", "091129.552500", "091131.552500", "091133.552500", "091135.552500", "091137.552500", "091139.552500", "091141.552500", "091143.552500", "091145.552500", "091147.552500", "091149.552500", "091151.552500", "091153.552500", "091155.552500", "091157.552500", "091159.552500", "091201.552500", "091203.552500", "091205.552500", "091207.552500", "091209.552500", "091211.552500", "091213.552500", "091215.552500", "091217.552500", "091219.552500", "091221.552500", "091223.552500", "091225.552500", "091227.552500", "091229.552500", "091231.552500", "091233.552500", "091235.552500", "091237.552500", "091239.552500", "091241.552500", "091243.552500", "091245.552500", "091247.552500", "091249.552500", "091251.552500", "091253.552500", "091255.552500", "091257.552500", "091259.552500", "091301.552500", "091303.552500", "091305.552500", "091307.552500", "091309.552500"],
      "ContentTime": ["090713.792000", "090713.796000", "090713.799000", "090713.801000", "090713.809000", "090713.812000", "090713.814000", "090713.817000", "090713.819000", "090713.822000", "090713.825000", "090713.827000", "090713.832000", "090713.835000", "090713.837000", "090713.840000", "090713.843000", "090713.845000", "090713.848000", "090713.850000", "090713.853000", "090753.789000", "090753.792000", "090753.794000", "090753.802000", "090753.805000", "090753.807000", "090753.810000", "090753.812000", "090753.815000", "090753.818000", "090753.820000", "090753.823000", "090753.826000", "090753.828000", "090753.831000", "090753.833000", "090753.836000", "090753.839000", "090753.841000", "090753.844000", "090833.789000", "090833.792000", "090833.794000", "090833.797000", "090833.799000", "090833.802000", "090833.805000", "090833.807000", "090833.810000", "090833.813000", "090833.815000", "090833.818000", "090833.820000", "090833.823000", "090833.826000", "090833.828000", "090833.831000", "090833.833000", "090833.836000", "090833.838000", "090913.787000", "090913.791000", "090913.793000", "090913.796000", "090913.798000", "090913.801000", "090913.804000", "090913.806000", "090913.809000", "090913.812000", "090913.814000", "090913.817000", "090913.819000", "090913.822000", "090913.825000", "090913.827000", "090913.830000", "090913.832000", "090913.835000", "090913.838000", "090953.788000", "090953.792000", "090953.794000", "090953.797000", "090953.799000", "090953.802000", "090953.805000", "090953.807000", "090953.810000", "090953.813000", "090953.815000", "090953.818000", "090953.820000", "090953.823000", "090953.826000", "090953.828000", "090953.831000", "090953.833000", "090953.836000", "090953.839000", "091033.789000", "091033.792000", "091033.794000", "091033.797000", "091033.799000", "091033.802000", "091033.805000", "091033.807000", "091033.810000", "091033.813000", "091033.815000", "091033.818000", "091033.820000", "091033.823000", "091033.826000", "091033.828000", "091033.831000", "091033.834000", "091033.836000", "091033.839000", "091113.788000", "091113.791000", "091113.793000", "091113.796000", "091113.798000", "091113.801000", "091113.804000", "091113.806000", "091113.809000", "091113.812000", "091113.814000", "091113.817000", "091113.819000", "091113.822000", "091113.825000", "091113.827000", "091113.830000", "091113.832000", "091113.835000", "091113.838000", "091153.788000", "091153.791000", "091153.793000", "091153.796000", "091153.799000", "091153.801000", "091153.804000", "091153.807000", "091153.809000", "091153.812000", "091153.815000", "091153.817000", "091153.820000", "091153.822000", "091153.825000", "091153.828000", "091153.830000", "091153.833000", "091153.835000", "091153.838000", "091233.789000", "091233.792000", "091233.794000", "091233.797000", "091233.799000", "091233.802000", "091233.805000", "091233.807000", "091233.810000", "091233.813000", "091233.815000", "091233.818000", "091233.820000", "091233.823000", "091233.826000", "091233.828000", "091233.831000", "091233.834000", "091233.836000", "091233.839000", "091311.520000", "091311.523000", "091311.526000", "091311.528000", "091311.531000", "091311.534000", "091311.536000", "091311.539000", "091311.541000", "091311.544000", "091311.547000", "091311.550000", "091311.555000", "091311.560000", "091311.564000", "091311.567000", "091311.572000", "091311.576000", "091311.579000"],
      "InstanceCreationTime": ["090713.792000", "090713.796000", "090713.799000", "090713.801000", "090713.809000", "090713.812000", "090713.814000", "090713.817000", "090713.819000", "090713.822000", "090713.825000", "090713.827000", "090713.832000", "090713.835000", "090713.837000", "090713.840000", "090713.843000", "090713.845000", "090713.848000", "090713.850000", "090713.853000", "090753.789000", "090753.792000", "090753.794000", "090753.802000", "090753.805000", "090753.807000", "090753.810000", "090753.812000", "090753.815000", "090753.818000", "090753.820000", "090753.823000", "090753.826000", "090753.828000", "090753.831000", "090753.833000", "090753.836000", "090753.839000", "090753.841000", "090753.844000", "090833.789000", "090833.792000", "090833.794000", "090833.797000", "090833.799000", "090833.802000", "090833.805000", "090833.807000", "090833.810000", "090833.813000", "090833.815000", "090833.818000", "090833.820000", "090833.823000", "090833.826000", "090833.828000", "090833.831000", "090833.833000", "090833.836000", "090833.838000", "090913.787000", "090913.791000", "090913.793000", "090913.796000", "090913.798000", "090913.801000", "090913.804000", "090913.806000", "090913.809000", "090913.812000", "090913.814000", "090913.817000", "090913.819000", "090913.822000", "090913.825000", "090913.827000", "090913.830000", "090913.832000", "090913.835000", "090913.838000", "090953.788000", "090953.792000", "090953.794000", "090953.797000", "090953.799000", "090953.802000", "090953.805000", "090953.807000", "090953.810000", "090953.813000", "090953.815000", "090953.818000", "090953.820000", "090953.823000", "090953.826000", "090953.828000", "090953.831000", "090953.833000", "090953.836000", "090953.839000", "091033.789000", "091033.792000", "091033.794000", "091033.797000", "091033.799000", "091033.802000", "091033.805000", "091033.807000", "091033.810000", "091033.813000", "091033.815000", "091033.818000", "091033.820000", "091033.823000", "091033.826000", "091033.828000", "091033.831000", "091033.834000", "091033.836000", "091033.839000", "091113.788000", "091113.791000", "091113.793000", "091113.796000", "091113.798000", "091113.801000", "091113.804000", "091113.806000", "091113.809000", "091113.812000", "091113.814000", "091113.817000", "091113.819000", "091113.822000", "091113.825000", "091113.827000", "091113.830000", "091113.832000", "091113.835000", "091113.838000", "091153.788000", "091153.791000", "091153.793000", "091153.796000", "091153.799000", "091153.801000", "091153.804000", "091153.807000", "091153.809000", "091153.812000", "091153.815000", "091153.817000", "091153.820000", "091153.822000", "091153.825000", "091153.828000", "091153.830000", "091153.833000", "091153.835000", "091153.838000", "091233.789000", "091233.792000", "091233.794000", "091233.797000", "091233.799000", "091233.802000", "091233.805000", "091233.807000", "091233.810000", "091233.813000", "091233.815000", "091233.818000", "091233.820000", "091233.823000", "091233.826000", "091233.828000", "091233.831000", "091233.834000", "091233.836000", "091233.839000", "091311.520000", "091311.523000", "091311.526000", "091311.528000", "091311.531000", "091311.534000", "091311.536000", "091311.539000", "091311.541000", "091311.544000", "091311.547000", "091311.550000", "091311.555000", "091311.560000", "091311.564000", "091311.567000", "091311.572000", "091311.576000", "091311.579000"],
      "InstanceNumber": [1, 2, 3, 4, 5, 6, 7, 8, 9, 10, 11, 12, 13, 14, 15, 16, 17, 18, 19, 20, 21, 22, 23, 24, 25, 26, 27, 28, 29, 30, 31, 32, 33, 34, 35, 36, 37, 38, 39, 40, 41, 42, 43, 44, 45, 46, 47, 48, 49, 50, 51, 52, 53, 54, 55, 56, 57, 58, 59, 60, 61, 62, 63, 64, 65, 66, 67, 68, 69, 70, 71, 72, 73, 74, 75, 76, 77, 78, 79, 80, 81, 82, 83, 84, 85, 86, 87, 88, 89, 90, 91, 92, 93, 94, 95, 96, 97, 98, 99, 100, 101, 102, 103, 104, 105, 106, 107, 108, 109, 110, 111, 112, 113, 114, 115, 116, 117, 118, 119, 120, 121, 122, 123, 124, 125, 126, 127, 128, 129, 130, 131, 132, 133, 134, 135, 136, 137, 138, 139, 140, 141, 142, 143, 144, 145, 146, 147, 148, 149, 150, 151, 152, 153, 154, 155, 156, 157, 158, 159, 160, 161, 162, 163, 164, 165, 166, 167, 168, 169, 170, 171, 172, 173, 174, 175, 176, 177, 178, 179, 180, 181, 182, 183, 184, 185, 186, 187, 188, 189, 190, 191, 192, 193, 194, 195, 196, 197, 198, 199, 200],
      "LargestImagePixelValue": [3951, 3953, 3957, 3957, 3954, 3955, 3956, 3954, 3952, 3955, 3954, 3959, 3959, 3955, 3957, 3956, 3952, 3951, 3955, 3954, 3957, 3956, 3959, 3956, 3953, 3952, 3953, 3958, 3956, 3954, 3959, 3957, 3951, 3954, 3954, 3951, 3953, 3952, 3957, 3957, 3956, 3955, 3954, 3951, 3954, 3952, 3956, 3956, 3952, 3957, 3955, 3954, 3953, 3953, 3952, 3951, 3960, 3955, 3952, 3952, 3950, 3955, 3958, 3955, 3950, 3950, 3951, 3955, 3959, 3955, 3953, 3952, 3949, 3952, 3952, 3951, 3953, 3949, 3951, 3950, 3950, 3951, 3952, 3955, 3953, 3955, 3950, 3946, 3948, 3950, 3953, 3954, 3954, 3949, 3948, 3944, 3945, 3951, 3951, 3954, 3949, 3948, 3949, 3952, 3949, 3950, 3951, 3952, 3948, 3951, 3948, 3950, 3951, 3948, 3948, 3945, 3949, 3953, 3954, 3948, 3951, 3946, 3945, 3950, 3951, 3949, 3945, 3950, 3952, 3945, 3946, 3946, 3950, 3950, 3950, 3947, 3947, 3946, 3947, 3947, 3945, 3948, 3949, 3951, 3950, 3945, 3948, 3950, 3953, 3944, 3945, 3951, 3949, 3950, 3949, 3949, 3948, 3945, 3947, 3953, 3948, 3947, 3948, 3949, 3947, 3951, 3953, 3947, 3948, 3945, 3946, 3949, 3950, 3949, 3949, 3945, 3946, 3946, 3946, 3953, 3948, 3950, 3948, 3951, 3949, 3956, 3949, 3949, 3949, 3949, 3950, 3953, 3948, 3943, 3942, 3949, 3947, 3949, 3946, 3948],
      "WindowCenter": [1385.0, 1384.0, 1384.0, 1384.0, 1384.0, 1384.0, 1384.0, 1384.0, 1384.0, 1384.0, 1384.0, 1383.0, 1384.0, 1384.0, 1384.0, 1384.0, 1384.0, 1384.0, 1384.0, 1384.0, 1384.0, 1384.0, 1383.0, 1384.0, 1384.0, 1383.0, 1383.0, 1384.0, 1384.0, 1384.0, 1384.0, 1384.0, 1384.0, 1383.0, 1384.0, 1383.0, 1384.0, 1384.0, 1384.0, 1384.0, 1383.0, 1384.0, 1383.0, 1383.0, 1384.0, 1383.0, 1383.0, 1383.0, 1383.0, 1383.0, 1382.0, 1382.0, 1383.0, 1383.0, 1383.0, 1383.0, 1383.0, 1383.0, 1383.0, 1383.0, 1383.0, 1383.0, 1383.0, 1383.0, 1383.0, 1383.0, 1382.0, 1383.0, 1383.0, 1382.0, 1383.0, 1382.0, 1382.0, 1382.0, 1382.0, 1383.0, 1382.0, 1383.0, 1383.0, 1383.0, 1382.0, 1383.0, 1383.0, 1383.0, 1382.0, 1382.0, 1382.0, 1382.0, 1382.0, 1382.0, 1382.0, 1382.0, 1382.0, 1383.0, 1382.0, 1383.0, 1382.0, 1382.0, 1382.0, 1383.0, 1382.0, 1382.0, 1382.0, 1381.0, 1382.0, 1382.0, 1382.0, 1382.0, 1383.0, 1382.0, 1382.0, 1383.0, 1382.0, 1382.0, 1382.0, 1382.0, 1382.0, 1382.0, 1382.0, 1382.0, 1381.0, 1381.0, 1382.0, 1381.0, 1381.0, 1382.0, 1382.0, 1382.0, 1381.0, 1382.0, 1382.0, 1382.0, 1382.0, 1381.0, 1381.0, 1381.0, 1381.0, 1381.0, 1381.0, 1381.0, 1381.0, 1381.0, 1382.0, 1381.0, 1380.0, 1381.0, 1381.0, 1381.0, 1381.0, 1381.0, 1380.0, 1381.0, 1381.0, 1381.0, 1381.0, 1380.0, 1380.0, 1381.0, 1381.0, 1380.0, 1381.0, 1380.0, 1381.0, 1380.0, 1380.0, 1380.0, 1380.0, 1380.0, 1380.0, 1380.0, 1380.0, 1380.0, 1380.0, 1380.0, 1380.0, 1380.0, 1380.0, 1380.0, 1380.0, 1380.0, 1380.0, 1381.0, 1380.0, 1380.0, 1380.0, 1380.0, 1380.0, 1380.0, 1380.0, 1380.0, 1380.0, 1380.0, 1379.0, 1380.0, 1380.0, 1380.0, 1379.0, 1379.0, 1379.0, 1380.0],
      "WindowWidth": [3298.0, 3299.0, 3299.0, 3299.0, 3299.0, 3299.0, 3298.0, 3298.0, 3298.0, 3298.0, 3298.0, 3298.0, 3298.0, 3298.0, 3298.0, 3298.0, 3298.0, 3298.0, 3298.0, 3298.0, 3298.0, 3298.0, 3298.0, 3298.0, 3298.0, 3298.0, 3298.0, 3297.0, 3298.0, 3298.0, 3298.0, 3298.0, 3297.0, 3298.0, 3297.0, 3298.0, 3297.0, 3297.0, 3297.0, 3297.0, 3298.0, 3297.0, 3298.0, 3298.0, 3297.0, 3297.0, 3297.0, 3297.0, 3297.0, 3297.0, 3297.0, 3297.0, 3297.0, 3297.0, 3297.0, 3297.0, 3297.0, 3297.0, 3297.0, 3296.0, 3297.0, 3297.0, 3297.0, 3297.0, 3297.0, 3297.0, 3297.0, 3297.0, 3297.0, 3297.0, 3296.0, 3297.0, 3297.0, 3297.0, 3297.0, 3296.0, 3297.0, 3296.0, 3296.0, 3296.0, 3297.0, 3296.0, 3296.0, 3296.0, 3297.0, 3296.0, 3296.0, 3296.0, 3296.0, 3296.0, 3296.0, 3296.0, 3296.0, 3296.0, 3296.0, 3296.0, 3296.0, 3296.0, 3296.0, 3296.0, 3296.0, 3295.0, 3296.0, 3296.0, 3295.0, 3295.0, 3295.0, 3295.0, 3295.0, 3295.0, 3295.0, 3295.0, 3295.0, 3295.0, 3295.0, 3295.0, 3295.0, 3295.0, 3295.0, 3295.0, 3295.0, 3295.0, 3295.0, 3295.0, 3295.0, 3295.0, 3295.0, 3295.0, 3295.0, 3295.0, 3295.0, 3295.0, 3295.0, 3295.0, 3295.0, 3295.0, 3295.0, 3295.0, 3295.0, 3295.0, 3295.0, 3295.0, 3295.0, 3295.0, 3295.0, 3294.0, 3294.0, 3294.0, 3295.0, 3294.0, 3295.0, 3295.0, 3294.0, 3294.0, 3294.0, 3294.0, 3294.0, 3294.0, 3294.0, 3295.0, 3294.0, 3295.0, 3294.0, 3295.0, 3294.0, 3294.0, 3294.0, 3294.0, 3294.0, 3294.0, 3294.0, 3294.0, 3294.0, 3294.0, 3294.0, 3294.0, 3294.0, 3294.0, 3294.0, 3294.0, 3294.0, 3294.0, 3294.0, 3294.0, 3294.0, 3294.0, 3294.0, 3294.0, 3294.0, 3293.0, 3294.0, 3293.0, 3294.0, 3293.0, 3293.0, 3293.0, 3293.0, 3293.0, 3293.0, 3293.0]
    },
    "slices": {}
  }
}