{
  "AcquisitionMatrixPE": 80,
  "AcquisitionNumber": 1,
  "AcquisitionTime": "08:59:42.900000",
  "BandwidthPerPixelPhaseEncode": 48.077,
  "BaseResolution": 80,
  "BodyPartExamined": "BRAIN",
  "CoilCombinationMethod": "Sum of Squares",
  "ConsistencyInfo": "N4_VE11C_LATEST_20160120",
  "ConversionSoftware": "dcm2niix",
  "ConversionSoftwareVersion": "v1.0.20220720",
  "DerivedVendorReportedEchoSpacing": 0.000519999,
  "DeviceSerialNumber": "66112",
  "DwellTime": 2.7e-06,
  "EchoTime": 0.035,
  "EchoTrainLength": 39,
  "EffectiveEchoSpacing": 0.00026,
  "FlipAngle": 90,
  "HeudiconvVersion": "0.13.1",
  "ImageOrientationPatientDICOM": [0.99958, -0.0283556, 0.00595999, 0.0249529, 0.946966, 0.320363],
  "ImageOrientationText": "Tra>Cor(18.7)>Sag(0.8)",
  "ImageType": [
    "ORIGINAL",
    "PRIMARY",
    "M",
    "ND",
    "NORM",
    "MOSAIC"
],
  "ImagingFrequency": 123.252,
  "InPlanePhaseEncodingDirectionDICOM": "COL",
  "InstitutionAddress": "Maynard 3,Hanover,NH,US,03755",
  "InstitutionName": "Dartmouth College - PBS",
  "InstitutionalDepartmentName": "Department",
  "MRAcquisitionType": "2D",
  "MagneticFieldStrength": 3,
  "Manufacturer": "Siemens",
  "ManufacturersModelName": "Prisma",
  "MatrixCoilMode": "GRAPPA",
  "Modality": "MR",
  "NonlinearGradientCorrection": false,
  "ParallelReductionFactorInPlane": 2,
  "PartialFourier": 1,
  "PatientPosition": "HFS",
  "PercentPhaseFOV": 100,
  "PercentSampling": 100,
  "PhaseEncodingDirection": "j-",
  "PhaseEncodingSteps": 79,
  "PhaseResolution": 1,
  "PixelBandwidth": 2315,
  "ProcedureStepDescription": "dbic^QA",
  "ProtocolName": "func-bold_task-rest_acq-p2",
  "PulseSequenceDetails": "%SiemensSeq%\\ep2d_bold",
  "ReceiveCoilActiveElements": "HC1-7;NC1,2",
  "ReceiveCoilName": "HeadNeck_64",
  "ReconMatrixPE": 80,
  "RefLinesPE": 24,
  "RepetitionTime": 2,
  "SAR": 0.0339334,
  "ScanOptions": "FS",
  "ScanningSequence": "EP",
  "SequenceName": "*epfid2d1_80",
  "SequenceVariant": "SK",
  "SeriesDescription": "func-bold_task-rest_acq-p2",
  "SeriesNumber": 5,
  "ShimSetting": [4142, -7675, -7515, 242, -69, -374, -19, 95],
  "SliceThickness": 3.5,
  "SliceTiming": [0.99, 0, 1.0575, 0.0675, 1.1225, 0.1325, 1.1875, 0.1975, 1.255, 0.265, 1.32, 0.33, 1.3875, 0.3975, 1.4525, 0.4625, 1.5175, 0.5275, 1.585, 0.595, 1.65, 0.66, 1.7175, 0.7275, 1.7825, 0.7925, 1.8475, 0.8575, 1.915, 0.925],
  "SoftwareVersions": "syngo MR E11",
  "SpacingBetweenSlices": 3.99,
  "StationName": "AWP66112",
  "TaskName": "rest",
  "TotalReadoutTime": 0.02054,
  "TxRefAmp": 217.788,
  "dcmmeta_affine": [
    [-2.9987404346466064, 0.07485868781805038, 0.058764662593603134, 119.28202056884766],
    [0.08506675064563751, 2.8408985137939453, 1.2771176099777222, -114.28944396972656],
    [0.017879972234368324, -0.9610885381698608, 3.7796318531036377, -40.99433517456055],
    [0.0, 0.0, 0.0, 1.0]
],
  "dcmmeta_reorient_transform": [
    [0.0, -1.0, 0.0, 79.0],
    [1.0, 0.0, 0.0, 0.0],
    [0.0, 0.0, 1.0, 0.0],
    [0.0, 0.0, 0.0, 1.0]
],
  "dcmmeta_shape": [80, 80, 30, 200],
  "dcmmeta_slice_dim": 2,
  "dcmmeta_version": 0.6,
  "global": {
    "const": {
      "AccessionNumber": "qa64",
      "AcquisitionMatrix": [80, 0, 0, 80],
      "AngioFlag": "N",
      "BitsAllocated": 16,
      "BitsStored": 12,
      "BodyPartExamined": "BRAIN",
      "Columns": 480,
      "EchoNumbers": 1,
      "EchoTime": 35.0,
      "EchoTrainLength": 39,
      "FlipAngle": 90.0,
      "HighBit": 11,
      "ImageOrientationPatient": [0.9995801315416, -0.0283555838225, 0.00595999105456, 0.02495289697006, 0.94696620910714, 0.32036284388495],
      "ImagePositionPatient": [-739.91567166456, -661.3079197742, -312.71403020674],
      "ImageType": [
        "ORIGINAL",
        "PRIMARY",
        "M",
        "ND",
        "NORM",
        "MOSAIC"
],
      "ImagedNucleus": "1H",
      "ImagingFrequency": 123.252368,
      "InPlanePhaseEncodingDirection": "COL",
      "MRAcquisitionType": "2D",
      "MagneticFieldStrength": 3.0,
      "Manufacturer": "SIEMENS",
      "ManufacturerModelName": "Prisma",
      "Modality": "MR",
      "NumberOfAverages": 1.0,
      "NumberOfPhaseEncodingSteps": 79,
      "PercentPhaseFieldOfView": 100.0,
      "PercentSampling": 100.0,
      "PerformedProcedureStepStartTime": "085534.831000",
      "PhotometricInterpretation": "MONOCHROME2",
      "PixelBandwidth": 2315.0,
      "PixelRepresentation": 0,
      "PixelSpacing": [3.0, 3.0],
      "ProtocolName": "func-bold_task-rest_acq-p2",
      "RepetitionTime": 2000.0,
      "Rows": 480,
      "SAR": 0.03393342148223,
      "SamplesPerPixel": 1,
      "ScanOptions": "FS",
      "ScanningSequence": "EP",
      "SequenceName": "*epfid2d1_80",
      "SequenceVariant": "SK",
      "SeriesDescription": "func-bold_task-rest_acq-p2",
      "SeriesNumber": 5,
      "SeriesTime": "090033.720000",
      "SliceLocation": -73.65789483375,
      "SliceThickness": 3.5,
      "SmallestImagePixelValue": 0,
      "SoftwareVersions": "syngo MR E11",
      "SpacingBetweenSlices": 3.9899999764486,
      "SpecificCharacterSet": "ISO_IR 100",
      "StudyID": "12",
      "StudyTime": "085534.751000",
      "TransmitCoilName": "Body",
      "VariableFlipAngleFlag": "N",
      "WindowCenterWidthExplanation": "Algo1",
      "dBdt": 0.0},
    "slices": {}
  },
  "time": {
    "samples": {
      "AcquisitionNumber": [1, 2, 3, 4, 5, 6, 7, 8, 9, 10, 11, 12, 13, 14, 15, 16, 17, 18, 19, 20, 21, 22, 23, 24, 25, 26, 27, 28, 29, 30, 31, 32, 33, 34, 35, 36, 37, 38, 39, 40, 41, 42, 43, 44, 45, 46, 47, 48, 49, 50, 51, 52, 53, 54, 55, 56, 57, 58, 59, 60, 61, 62, 63, 64, 65, 66, 67, 68, 69, 70, 71, 72, 73, 74, 75, 76, 77, 78, 79, 80, 81, 82, 83, 84, 85, 86, 87, 88, 89, 90, 91, 92, 93, 94, 95, 96, 97, 98, 99, 100, 101, 102, 103, 104, 105, 106, 107, 108, 109, 110, 111, 112, 113, 114, 115, 116, 117, 118, 119, 120, 121, 122, 123, 124, 125, 126, 127, 128, 129, 130, 131, 132, 133, 134, 135, 136, 137, 138, 139, 140, 141, 142, 143, 144, 145, 146, 147, 148, 149, 150, 151, 152, 153, 154, 155, 156, 157, 158, 159, 160, 161, 162, 163, 164, 165, 166, 167, 168, 169, 170, 171, 172, 173, 174, 175, 176, 177, 178, 179, 180, 181, 182, 183, 184, 185, 186, 187, 188, 189, 190, 191, 192, 193, 194, 195, 196, 197, 198, 199, 200],
      "AcquisitionTime": ["085942.900000", "085944.900000", "085946.900000", "085948.900000", "085950.900000", "085952.900000", "085954.900000", "085956.900000", "085958.900000", "090000.900000", "090002.900000", "090004.900000", "090006.900000", "090008.900000", "090010.900000", "090012.900000", "090014.900000", "090016.900000", "090018.900000", "090020.900000", "090022.900000", "090024.900000", "090026.900000", "090028.900000", "090030.900000", "090032.900000", "090034.900000", "090036.900000", "090038.900000", "090040.900000", "090042.900000", "090044.900000", "090046.900000", "090048.900000", "090050.900000", "090052.900000", "090054.900000", "090056.900000", "090058.900000", "090100.900000", "090102.900000", "090104.900000", "090106.900000", "090108.900000", "090110.900000", "090112.900000", "090114.900000", "090116.900000", "090118.900000", "090120.900000", "090122.900000", "090124.900000", "090126.900000", "090128.900000", "090130.900000", "090132.900000", "090134.900000", "090136.900000", "090138.900000", "090140.900000", "090142.900000", "090144.900000", "090146.900000", "090148.900000", "090150.900000", "090152.900000", "090154.900000", "090156.900000", "090158.900000", "090200.900000", "090202.900000", "090204.900000", "090206.900000", "090208.900000", "090210.900000", "090212.900000", "090214.900000", "090216.900000", "090218.900000", "090220.900000", "090222.900000", "090224.900000", "090226.900000", "090228.900000", "090230.900000", "090232.900000", "090234.900000", "090236.900000", "090238.900000", "090240.900000", "090242.900000", "090244.900000", "090246.900000", "090248.900000", "090250.900000", "090252.900000", "090254.900000", "090256.900000", "090258.900000", "090300.900000", "090302.900000", "090304.900000", "090306.900000", "090308.900000", "090310.900000", "090312.900000", "090314.900000", "090316.900000", "090318.900000", "090320.900000", "090322.900000", "090324.900000", "090326.900000", "090328.900000", "090330.900000", "090332.900000", "090334.900000", "090336.900000", "090338.900000", "090340.900000", "090342.900000", "090344.900000", "090346.900000", "090348.900000", "090350.900000", "090352.900000", "090354.900000", "090356.900000", "090358.900000", "090400.900000", "090402.900000", "090404.900000", "090406.900000", "090408.900000", "090410.900000", "090412.900000", "090414.900000", "090416.900000", "090418.900000", "090420.900000", "090422.900000", "090424.900000", "090426.900000", "090428.900000", "090430.900000", "090432.900000", "090434.900000", "090436.900000", "090438.900000", "090440.900000", "090442.900000", "090444.900000", "090446.900000", "090448.900000", "090450.900000", "090452.900000", "090454.900000", "090456.900000", "090458.900000", "090500.900000", "090502.900000", "090504.900000", "090506.900000", "090508.900000", "090510.900000", "090512.900000", "090514.900000", "090516.900000", "090518.900000", "090520.900000", "090522.900000", "090524.900000", "090526.900000", "090528.900000", "090530.900000", "090532.900000", "090534.900000", "090536.900000", "090538.900000", "090540.900000", "090542.900000", "090544.900000", "090546.900000", "090548.900000", "090550.900000", "090552.900000", "090554.900000", "090556.900000", "090558.900000", "090600.900000", "090602.900000", "090604.900000", "090606.900000", "090608.900000", "090610.900000", "090612.900000", "090614.900000", "090616.900000", "090618.900000", "090620.900000"],
      "ContentTime": ["090033.724000", "090033.728000", "090033.730000", "090033.733000", "090033.736000", "090033.739000", "090033.741000", "090033.744000", "090033.747000", "090033.749000", "090033.752000", "090033.754000", "090033.757000", "090033.760000", "090033.762000", "090033.765000", "090033.768000", "090033.771000", "090033.774000", "090033.777000", "090033.779000", "090033.782000", "090033.785000", "090033.787000", "090033.790000", "090113.720000", "090113.722000", "090113.725000", "090113.728000", "090113.731000", "090113.733000", "090113.736000", "090113.738000", "090113.741000", "090113.744000", "090113.746000", "090113.749000", "090113.752000", "090113.777000", "090113.780000", "090113.783000", "090113.786000", "090113.788000", "090113.791000", "090113.793000", "090133.720000", "090133.723000", "090133.725000", "090133.728000", "090133.731000", "090133.733000", "090133.736000", "090133.738000", "090133.741000", "090133.744000", "090213.719000", "090213.721000", "090213.724000", "090213.727000", "090213.737000", "090213.739000", "090213.742000", "090213.745000", "090213.747000", "090213.750000", "090213.753000", "090213.755000", "090213.758000", "090213.761000", "090213.763000", "090213.766000", "090213.769000", "090213.772000", "090213.774000", "090213.777000", "090253.718000", "090253.721000", "090253.724000", "090253.727000", "090253.729000", "090253.732000", "090253.735000", "090253.737000", "090253.740000", "090253.743000", "090253.745000", "090253.748000", "090253.751000", "090253.753000", "090253.756000", "090253.759000", "090253.761000", "090253.764000", "090253.767000", "090253.771000", "090333.720000", "090333.722000", "090333.725000", "090333.728000", "090333.731000", "090333.733000", "090333.736000", "090333.739000", "090333.741000", "090333.744000", "090333.747000", "090333.749000", "090333.752000", "090333.755000", "090333.757000", "090333.760000", "090333.763000", "090333.765000", "090333.768000", "090333.771000", "090413.719000", "090413.722000", "090413.724000", "090413.727000", "090413.730000", "090413.732000", "090413.735000", "090413.738000", "090413.740000", "090413.743000", "090413.746000", "090413.748000", "090413.751000", "090413.754000", "090413.756000", "090413.759000", "090413.762000", "090413.764000", "090413.767000", "090413.770000", "090453.719000", "090453.721000", "090453.724000", "090453.727000", "090453.729000", "090453.732000", "090453.735000", "090453.737000", "090453.740000", "090453.743000", "090453.745000", "090453.748000", "090453.751000", "090453.754000", "090453.756000", "090453.759000", "090453.762000", "090453.764000", "090453.767000", "090453.770000", "090533.720000", "090533.723000", "090533.725000", "090533.728000", "090533.731000", "090533.733000", "090533.736000", "090533.739000", "090533.741000", "090533.744000", "090533.747000", "090533.749000", "090533.752000", "090533.755000", "090533.757000", "090533.760000", "090533.763000", "090533.765000", "090533.768000", "090533.771000", "090613.720000", "090613.723000", "090613.725000", "090613.728000", "090613.731000", "090613.733000", "090613.736000", "090613.739000", "090613.742000", "090613.744000", "090613.747000", "090613.749000", "090613.752000", "090613.755000", "090613.758000", "090613.760000", "090613.763000", "090613.766000", "090613.768000", "090613.771000", "090622.576000", "090622.579000", "090622.582000", "090622.585000", "090622.587000"],
      "InstanceCreationTime": ["090033.724000", "090033.728000", "090033.730000", "090033.733000", "090033.736000", "090033.739000", "090033.741000", "090033.744000", "090033.747000", "090033.749000", "090033.752000", "090033.754000", "090033.757000", "090033.760000", "090033.762000", "090033.765000", "090033.768000", "090033.771000", "090033.774000", "090033.777000", "090033.779000", "090033.782000", "090033.785000", "090033.787000", "090033.790000", "090113.720000", "090113.722000", "090113.725000", "090113.728000", "090113.731000", "090113.733000", "090113.736000", "090113.738000", "090113.741000", "090113.744000", "090113.746000", "090113.749000", "090113.752000", "090113.777000", "090113.780000", "090113.783000", "090113.786000", "090113.788000", "090113.791000", "090113.793000", "090133.720000", "090133.723000", "090133.725000", "090133.728000", "090133.731000", "090133.733000", "090133.736000", "090133.738000", "090133.741000", "090133.744000", "090213.719000", "090213.721000", "090213.724000", "090213.727000", "090213.737000", "090213.739000", "090213.742000", "090213.745000", "090213.747000", "090213.750000", "090213.753000", "090213.755000", "090213.758000", "090213.761000", "090213.763000", "090213.766000", "090213.769000", "090213.772000", "090213.774000", "090213.777000", "090253.718000", "090253.721000", "090253.724000", "090253.727000", "090253.729000", "090253.732000", "090253.735000", "090253.737000", "090253.740000", "090253.743000", "090253.745000", "090253.748000", "090253.751000", "090253.753000", "090253.756000", "090253.759000", "090253.761000", "090253.764000", "090253.767000", "090253.771000", "090333.720000", "090333.722000", "090333.725000", "090333.728000", "090333.731000", "090333.733000", "090333.736000", "090333.739000", "090333.741000", "090333.744000", "090333.747000", "090333.749000", "090333.752000", "090333.755000", "090333.757000", "090333.760000", "090333.763000", "090333.765000", "090333.768000", "090333.771000", "090413.719000", "090413.722000", "090413.724000", "090413.727000", "090413.730000", "090413.732000", "090413.735000", "090413.738000", "090413.740000", "090413.743000", "090413.746000", "090413.748000", "090413.751000", "090413.754000", "090413.756000", "090413.759000", "090413.762000", "090413.764000", "090413.767000", "090413.770000", "090453.719000", "090453.721000", "090453.724000", "090453.727000", "090453.729000", "090453.732000", "090453.735000", "090453.737000", "090453.740000", "090453.743000", "090453.745000", "090453.748000", "090453.751000", "090453.754000", "090453.756000", "090453.759000", "090453.762000", "090453.764000", "090453.767000", "090453.770000", "090533.720000", "090533.723000", "090533.725000", "090533.728000", "090533.731000", "090533.733000", "090533.736000", "090533.739000", "090533.741000", "090533.744000", "090533.747000", "090533.749000", "090533.752000", "090533.755000", "090533.757000", "090533.760000", "090533.763000", "090533.765000", "090533.768000", "090533.771000", "090613.720000", "090613.723000", "090613.725000", "090613.728000", "090613.731000", "090613.733000", "090613.736000", "090613.739000", "090613.742000", "090613.744000", "090613.747000", "090613.749000", "090613.752000", "090613.755000", "090613.758000", "090613.760000", "090613.763000", "090613.766000", "090613.768000", "090613.771000", "090622.576000", "090622.579000", "090622.582000", "090622.585000", "090622.587000"],
      "InstanceNumber": [1, 2, 3, 4, 5, 6, 7, 8, 9, 10, 11, 12, 13, 14, 15, 16, 17, 18, 19, 20, 21, 22, 23, 24, 25, 26, 27, 28, 29, 30, 31, 32, 33, 34, 35, 36, 37, 38, 39, 40, 41, 42, 43, 44, 45, 46, 47, 48, 49, 50, 51, 52, 53, 54, 55, 56, 57, 58, 59, 60, 61, 62, 63, 64, 65, 66, 67, 68, 69, 70, 71, 72, 73, 74, 75, 76, 77, 78, 79, 80, 81, 82, 83, 84, 85, 86, 87, 88, 89, 90, 91, 92, 93, 94, 95, 96, 97, 98, 99, 100, 101, 102, 103, 104, 105, 106, 107, 108, 109, 110, 111, 112, 113, 114, 115, 116, 117, 118, 119, 120, 121, 122, 123, 124, 125, 126, 127, 128, 129, 130, 131, 132, 133, 134, 135, 136, 137, 138, 139, 140, 141, 142, 143, 144, 145, 146, 147, 148, 149, 150, 151, 152, 153, 154, 155, 156, 157, 158, 159, 160, 161, 162, 163, 164, 165, 166, 167, 168, 169, 170, 171, 172, 173, 174, 175, 176, 177, 178, 179, 180, 181, 182, 183, 184, 185, 186, 187, 188, 189, 190, 191, 192, 193, 194, 195, 196, 197, 198, 199, 200],
      "LargestImagePixelValue": [3952, 3943, 3957, 3944, 3948, 3951, 3963, 3956, 3944, 3961, 3989, 3956, 3948, 3951, 3955, 3945, 3962, 3948, 3958, 3942, 3948, 3948, 3958, 3948, 3952, 3946, 3949, 3944, 3946, 3957, 3956, 3943, 3946, 3947, 3949, 3960, 3950, 3958, 3953, 3940, 3945, 3960, 3960, 3954, 3943, 3957, 3950, 3955, 3950, 3945, 3956, 3941, 3950, 3955, 3947, 3945, 3942, 3944, 3954, 3946, 3952, 3957, 3936, 3941, 3943, 3946, 3955, 3942, 3944, 3953, 3934, 3942, 3941, 3945, 3955, 3952, 3948, 3942, 3936, 3940, 3952, 3939, 3944, 3952, 3944, 3942, 3940, 3956, 3940, 3950, 3943, 3939, 3948, 3949, 3945, 3939, 3946, 3942, 3934, 3944, 3947, 3952, 3950, 3935, 3947, 3948, 3953, 3938, 3942, 3940, 3945, 3942, 3954, 3947, 3949, 3950, 3945, 3951, 3940, 3947, 3946, 3944, 3946, 3948, 3942, 3948, 3947, 3934, 3946, 3959, 3945, 3954, 3949, 3945, 3955, 3943, 3949, 3930, 3956, 3952, 3943, 3942, 3937, 3934, 3942, 3955, 3942, 3947, 3940, 3935, 3938, 3940, 3945, 3950, 3944, 3945, 3949, 3931, 3935, 3947, 3947, 3939, 3940, 3944, 3931, 3937, 3936, 3943, 3941, 3940, 3928, 3941, 3941, 3943, 3939, 3938, 3939, 3943, 3934, 3944, 3940, 3940, 3938, 3947, 3926, 3937, 3942, 3938, 3931, 3934, 3940, 3935, 3936, 3944, 3931, 3948, 3952, 3932, 3943, 3940],
      "WindowCenter": [1455.0, 1455.0, 1454.0, 1455.0, 1455.0, 1455.0, 1454.0, 1454.0, 1454.0, 1454.0, 1454.0, 1454.0, 1454.0, 1454.0, 1455.0, 1454.0, 1454.0, 1454.0, 1453.0, 1454.0, 1453.0, 1453.0, 1453.0, 1453.0, 1453.0, 1453.0, 1453.0, 1454.0, 1453.0, 1453.0, 1453.0, 1453.0, 1453.0, 1453.0, 1453.0, 1454.0, 1453.0, 1453.0, 1453.0, 1453.0, 1453.0, 1452.0, 1453.0, 1453.0, 1453.0, 1452.0, 1453.0, 1452.0, 1453.0, 1453.0, 1453.0, 1453.0, 1452.0, 1452.0, 1452.0, 1452.0, 1452.0, 1452.0, 1452.0, 1452.0, 1453.0, 1452.0, 1452.0, 1452.0, 1452.0, 1452.0, 1451.0, 1451.0, 1452.0, 1451.0, 1452.0, 1452.0, 1451.0, 1451.0, 1451.0, 1451.0, 1452.0, 1452.0, 1452.0, 1452.0, 1452.0, 1451.0, 1452.0, 1451.0, 1451.0, 1451.0, 1450.0, 1450.0, 1451.0, 1450.0, 1451.0, 1452.0, 1451.0, 1451.0, 1451.0, 1450.0, 1451.0, 1450.0, 1451.0, 1451.0, 1451.0, 1451.0, 1451.0, 1450.0, 1450.0, 1450.0, 1450.0, 1450.0, 1450.0, 1451.0, 1451.0, 1450.0, 1450.0, 1450.0, 1450.0, 1450.0, 1450.0, 1450.0, 1450.0, 1450.0, 1449.0, 1450.0, 1450.0, 1450.0, 1450.0, 1451.0, 1450.0, 1449.0, 1450.0, 1450.0, 1449.0, 1450.0, 1449.0, 1449.0, 1449.0, 1449.0, 1449.0, 1449.0, 1449.0, 1449.0, 1449.0, 1448.0, 1449.0, 1449.0, 1450.0, 1449.0, 1449.0, 1449.0, 1449.0, 1449.0, 1448.0, 1449.0, 1449.0, 1449.0, 1449.0, 1449.0, 1448.0, 1450.0, 1448.0, 1449.0, 1449.0, 1448.0, 1449.0, 1449.0, 1449.0, 1449.0, 1449.0, 1449.0, 1448.0, 1448.0, 1448.0, 1448.0, 1448.0, 1448.0, 1448.0, 1449.0, 1448.0, 1448.0, 1449.0, 1448.0, 1448.0, 1448.0, 1448.0, 1449.0, 1449.0, 1448.0, 1448.0, 1448.0, 1448.0, 1448.0, 1448.0, 1448.0, 1448.0, 1448.0, 1448.0, 1447.0, 1448.0, 1448.0, 1448.0, 1448.0],
      "WindowWidth": [3331.0, 3329.0, 3330.0, 3329.0, 3329.0, 3329.0, 3329.0, 3329.0, 3329.0, 3329.0, 3329.0, 3329.0, 3329.0, 3329.0, 3329.0, 3329.0, 3329.0, 3328.0, 3329.0, 3328.0, 3329.0, 3329.0, 3329.0, 3329.0, 3329.0, 3329.0, 3329.0, 3328.0, 3329.0, 3328.0, 3328.0, 3328.0, 3328.0, 3328.0, 3328.0, 3328.0, 3328.0, 3328.0, 3328.0, 3328.0, 3328.0, 3328.0, 3328.0, 3328.0, 3327.0, 3328.0, 3327.0, 3328.0, 3328.0, 3327.0, 3327.0, 3327.0, 3328.0, 3327.0, 3327.0, 3328.0, 3327.0, 3327.0, 3327.0, 3327.0, 3327.0, 3327.0, 3327.0, 3327.0, 3327.0, 3327.0, 3327.0, 3327.0, 3327.0, 3327.0, 3327.0, 3327.0, 3327.0, 3327.0, 3327.0, 3327.0, 3327.0, 3326.0, 3326.0, 3326.0, 3326.0, 3326.0, 3326.0, 3327.0, 3326.0, 3326.0, 3327.0, 3327.0, 3326.0, 3327.0, 3326.0, 3326.0, 3326.0, 3326.0, 3326.0, 3326.0, 3326.0, 3326.0, 3326.0, 3326.0, 3326.0, 3326.0, 3326.0, 3326.0, 3326.0, 3326.0, 3326.0, 3326.0, 3326.0, 3326.0, 3326.0, 3326.0, 3326.0, 3326.0, 3326.0, 3326.0, 3326.0, 3326.0, 3325.0, 3326.0, 3326.0, 3325.0, 3325.0, 3325.0, 3325.0, 3325.0, 3325.0, 3326.0, 3325.0, 3325.0, 3325.0, 3325.0, 3325.0, 3325.0, 3325.0, 3325.0, 3325.0, 3325.0, 3325.0, 3325.0, 3325.0, 3325.0, 3325.0, 3325.0, 3325.0, 3325.0, 3325.0, 3325.0, 3324.0, 3325.0, 3325.0, 3324.0, 3324.0, 3324.0, 3324.0, 3324.0, 3325.0, 3324.0, 3325.0, 3324.0, 3325.0, 3325.0, 3324.0, 3324.0, 3324.0, 3324.0, 3324.0, 3324.0, 3324.0, 3324.0, 3324.0, 3324.0, 3324.0, 3324.0, 3325.0, 3324.0, 3324.0, 3324.0, 3324.0, 3324.0, 3324.0, 3324.0, 3324.0, 3324.0, 3324.0, 3324.0, 3324.0, 3324.0, 3324.0, 3324.0, 3324.0, 3324.0, 3324.0, 3324.0, 3324.0, 3324.0, 3323.0, 3323.0, 3323.0, 3323.0]
    },
    "slices": {}
  }
}