{
  "AcquisitionMatrixPE": 80,
  "AcquisitionNumber": 1,
  "AcquisitionTime": "09:13:18.537500",
  "BandwidthPerPixelPhaseEncode": 25,
  "BaseResolution": 80,
  "BodyPartExamined": "BRAIN",
  "CoilCombinationMethod": "Sum of Squares",
  "ConsistencyInfo": "N4_VE11C_LATEST_20160120",
  "ConversionSoftware": "dcm2niix",
  "ConversionSoftwareVersion": "v1.0.20220720",
  "DerivedVendorReportedEchoSpacing": 0.0005,
  "DeviceSerialNumber": "66112",
  "DwellTime": 2.7e-06,
  "EchoTime": 0.03,
  "EchoTrainLength": 80,
  "EffectiveEchoSpacing": 0.0005,
  "FlipAngle": 10,
  "HeudiconvVersion": "0.13.1",
  "ImageOrientationPatientDICOM": [0.999576, -0.028521, 0.00590407, 0.0251274, 0.946961, 0.320364],
  "ImageOrientationText": "Tra>Cor(18.7)>Sag(0.8)",
  "ImageType": [
    "ORIGINAL",
    "PRIMARY",
    "M",
    "ND",
    "NORM",
    "MOSAIC"
],
  "ImagingFrequency": 123.252,
  "InPlanePhaseEncodingDirectionDICOM": "COL",
  "InstitutionAddress": "Maynard 3,Hanover,NH,US,03755",
  "InstitutionName": "Dartmouth College - PBS",
  "InstitutionalDepartmentName": "Department",
  "MRAcquisitionType": "2D",
  "MagneticFieldStrength": 3,
  "Manufacturer": "Siemens",
  "ManufacturersModelName": "Prisma",
  "MatrixCoilMode": "SENSE",
  "Modality": "MR",
  "NonlinearGradientCorrection": false,
  "PartialFourier": 1,
  "PatientPosition": "HFS",
  "PercentPhaseFOV": 100,
  "PercentSampling": 100,
  "PhaseEncodingDirection": "j-",
  "PhaseEncodingSteps": 80,
  "PhaseResolution": 1,
  "PixelBandwidth": 2315,
  "ProcedureStepDescription": "dbic^QA",
  "ProtocolName": "func-bold_fa-10",
  "PulseSequenceDetails": "%SiemensSeq%\\ep2d_bold",
  "ReceiveCoilActiveElements": "HC1-7;NC1,2",
  "ReceiveCoilName": "HeadNeck_64",
  "ReconMatrixPE": 80,
  "RepetitionTime": 2,
  "SAR": 0.00715328,
  "ScanOptions": "FS",
  "ScanningSequence": "EP",
  "SequenceName": "*epfid2d1_80",
  "SequenceVariant": "SK",
  "SeriesDescription": "func-bold_fa-10",
  "SeriesNumber": 9,
  "ShimSetting": [4142, -7675, -7515, 244, -69, -373, -19, 95],
  "SliceThickness": 3.5,
  "SliceTiming": [0.99, 0, 1.055, 0.065, 1.12, 0.13, 1.1875, 0.1975, 1.2525, 0.2625, 1.32, 0.33, 1.385, 0.395, 1.45, 0.46, 1.5175, 0.5275, 1.5825, 0.5925, 1.65, 0.66, 1.715, 0.725, 1.78, 0.79, 1.8475, 0.8575, 1.9125, 0.9225],
  "SoftwareVersions": "syngo MR E11",
  "SpacingBetweenSlices": 3.99,
  "StationName": "AWP66112",
  "TotalReadoutTime": 0.0395,
  "TxRefAmp": 217.788,
  "dcmmeta_affine": [
    [-2.998727321624756, 0.07538234442472458, 0.05876476690173149, 117.33961486816406],
    [0.08556286990642548, 2.840883731842041, 1.2771177291870117, -114.54849243164062],
    [0.017712216824293137, -0.9610916376113892, 3.7796318531036377, -39.948509216308594],
    [0.0, 0.0, 0.0, 1.0]
],
  "dcmmeta_reorient_transform": [
    [0.0, -1.0, 0.0, 79.0],
    [1.0, 0.0, 0.0, 0.0],
    [0.0, 0.0, 1.0, 0.0],
    [0.0, 0.0, 0.0, 1.0]
],
  "dcmmeta_shape": [80, 80, 30, 200],
  "dcmmeta_slice_dim": 2,
  "dcmmeta_version": 0.6,
  "global": {
    "const": {
      "AccessionNumber": "qa64",
      "AcquisitionMatrix": [80, 0, 0, 80],
      "AngioFlag": "N",
      "BitsAllocated": 16,
      "BitsStored": 12,
      "BodyPartExamined": "BRAIN",
      "Columns": 480,
      "EchoNumbers": 1,
      "EchoTime": 30.0,
      "EchoTrainLength": 80,
      "FlipAngle": 10.0,
      "HighBit": 11,
      "ImageOrientationPatient": [0.9995757585072, -0.028520956067, 0.00590407230504, 0.02512744857964, 0.94696124247328, 0.32036388151808],
      "ImagePositionPatient": [-738.1167475376, -660.94549498324, -311.63552196749],
      "ImageType": [
        "ORIGINAL",
        "PRIMARY",
        "M",
        "ND",
        "NORM",
        "MOSAIC"
],
      "ImagedNucleus": "1H",
      "ImagingFrequency": 123.252367,
      "InPlanePhaseEncodingDirection": "COL",
      "MRAcquisitionType": "2D",
      "MagneticFieldStrength": 3.0,
      "Manufacturer": "SIEMENS",
      "ManufacturerModelName": "Prisma",
      "Modality": "MR",
      "NumberOfAverages": 1.0,
      "NumberOfPhaseEncodingSteps": 80,
      "PercentPhaseFieldOfView": 100.0,
      "PercentSampling": 100.0,
      "PerformedProcedureStepStartTime": "085534.831000",
      "PhotometricInterpretation": "MONOCHROME2",
      "PixelBandwidth": 2315.0,
      "PixelRepresentation": 0,
      "PixelSpacing": [3.0, 3.0],
      "ProtocolName": "func-bold_fa-10",
      "RepetitionTime": 2000.0,
      "Rows": 480,
      "SAR": 0.00715328482142,
      "SamplesPerPixel": 1,
      "ScanOptions": "FS",
      "ScanningSequence": "EP",
      "SequenceName": "*epfid2d1_80",
      "SequenceVariant": "SK",
      "SeriesDescription": "func-bold_fa-10",
      "SeriesNumber": 9,
      "SeriesTime": "091413.650000",
      "SliceLocation": -72.778728748797,
      "SliceThickness": 3.5,
      "SmallestImagePixelValue": 0,
      "SoftwareVersions": "syngo MR E11",
      "SpacingBetweenSlices": 3.9900000428329,
      "SpecificCharacterSet": "ISO_IR 100",
      "StudyID": "12",
      "StudyTime": "085534.751000",
      "TransmitCoilName": "Body",
      "VariableFlipAngleFlag": "N",
      "WindowCenterWidthExplanation": "Algo1",
      "dBdt": 0.0},
    "slices": {}
  },
  "time": {
    "samples": {
      "AcquisitionNumber": [1, 2, 3, 4, 5, 6, 7, 8, 9, 10, 11, 12, 13, 14, 15, 16, 17, 18, 19, 20, 21, 22, 23, 24, 25, 26, 27, 28, 29, 30, 31, 32, 33, 34, 35, 36, 37, 38, 39, 40, 41, 42, 43, 44, 45, 46, 47, 48, 49, 50, 51, 52, 53, 54, 55, 56, 57, 58, 59, 60, 61, 62, 63, 64, 65, 66, 67, 68, 69, 70, 71, 72, 73, 74, 75, 76, 77, 78, 79, 80, 81, 82, 83, 84, 85, 86, 87, 88, 89, 90, 91, 92, 93, 94, 95, 96, 97, 98, 99, 100, 101, 102, 103, 104, 105, 106, 107, 108, 109, 110, 111, 112, 113, 114, 115, 116, 117, 118, 119, 120, 121, 122, 123, 124, 125, 126, 127, 128, 129, 130, 131, 132, 133, 134, 135, 136, 137, 138, 139, 140, 141, 142, 143, 144, 145, 146, 147, 148, 149, 150, 151, 152, 153, 154, 155, 156, 157, 158, 159, 160, 161, 162, 163, 164, 165, 166, 167, 168, 169, 170, 171, 172, 173, 174, 175, 176, 177, 178, 179, 180, 181, 182, 183, 184, 185, 186, 187, 188, 189, 190, 191, 192, 193, 194, 195, 196, 197, 198, 199, 200],
      "AcquisitionTime": ["091318.537500", "091320.537500", "091322.537500", "091324.537500", "091326.537500", "091328.537500", "091330.537500", "091332.537500", "091334.537500", "091336.537500", "091338.537500", "091340.537500", "091342.537500", "091344.537500", "091346.537500", "091348.537500", "091350.537500", "091352.537500", "091354.537500", "091356.537500", "091358.537500", "091400.537500", "091402.537500", "091404.537500", "091406.537500", "091408.537500", "091410.537500", "091412.537500", "091414.537500", "091416.537500", "091418.537500", "091420.537500", "091422.537500", "091424.537500", "091426.537500", "091428.537500", "091430.537500", "091432.537500", "091434.537500", "091436.537500", "091438.537500", "091440.537500", "091442.537500", "091444.537500", "091446.537500", "091448.537500", "091450.537500", "091452.537500", "091454.537500", "091456.537500", "091458.537500", "091500.537500", "091502.537500", "091504.537500", "091506.537500", "091508.537500", "091510.537500", "091512.537500", "091514.537500", "091516.537500", "091518.537500", "091520.537500", "091522.537500", "091524.537500", "091526.537500", "091528.537500", "091530.537500", "091532.537500", "091534.537500", "091536.537500", "091538.537500", "091540.537500", "091542.537500", "091544.537500", "091546.537500", "091548.537500", "091550.537500", "091552.537500", "091554.537500", "091556.537500", "091558.537500", "091600.537500", "091602.537500", "091604.537500", "091606.537500", "091608.537500", "091610.537500", "091612.537500", "091614.537500", "091616.537500", "091618.537500", "091620.537500", "091622.537500", "091624.537500", "091626.537500", "091628.537500", "091630.537500", "091632.537500", "091634.537500", "091636.537500", "091638.537500", "091640.537500", "091642.537500", "091644.537500", "091646.537500", "091648.537500", "091650.537500", "091652.537500", "091654.537500", "091656.537500", "091658.537500", "091700.537500", "091702.537500", "091704.537500", "091706.537500", "091708.537500", "091710.537500", "091712.537500", "091714.537500", "091716.537500", "091718.537500", "091720.537500", "091722.537500", "091724.537500", "091726.537500", "091728.537500", "091730.537500", "091732.537500", "091734.537500", "091736.537500", "091738.537500", "091740.537500", "091742.537500", "091744.537500", "091746.537500", "091748.537500", "091750.537500", "091752.537500", "091754.537500", "091756.537500", "091758.537500", "091800.537500", "091802.537500", "091804.537500", "091806.537500", "091808.537500", "091810.537500", "091812.537500", "091814.537500", "091816.537500", "091818.537500", "091820.537500", "091822.537500", "091824.537500", "091826.537500", "091828.537500", "091830.537500", "091832.537500", "091834.537500", "091836.537500", "091838.537500", "091840.537500", "091842.537500", "091844.537500", "091846.537500", "091848.537500", "091850.537500", "091852.537500", "091854.537500", "091856.537500", "091858.537500", "091900.537500", "091902.537500", "091904.537500", "091906.537500", "091908.537500", "091910.537500", "091912.537500", "091914.537500", "091916.537500", "091918.537500", "091920.537500", "091922.537500", "091924.537500", "091926.537500", "091928.537500", "091930.537500", "091932.537500", "091934.537500", "091936.537500", "091938.537500", "091940.537500", "091942.537500", "091944.537500", "091946.537500", "091948.537500", "091950.537500", "091952.537500", "091954.537500", "091956.537500"],
      "ContentTime": ["091413.653000", "091413.658000", "091413.661000", "091413.663000", "091413.666000", "091413.668000", "091413.671000", "091413.674000", "091413.676000", "091413.679000", "091413.681000", "091413.684000", "091413.687000", "091413.689000", "091413.692000", "091413.700000", "091413.703000", "091413.705000", "091413.708000", "091413.710000", "091413.713000", "091413.716000", "091413.718000", "091413.721000", "091413.723000", "091413.726000", "091413.729000", "091453.650000", "091453.652000", "091453.655000", "091453.658000", "091453.661000", "091453.663000", "091453.666000", "091453.668000", "091453.671000", "091453.673000", "091453.676000", "091453.679000", "091453.681000", "091453.684000", "091453.687000", "091453.689000", "091453.692000", "091453.694000", "091453.697000", "091453.700000", "091533.650000", "091533.652000", "091533.655000", "091533.658000", "091533.660000", "091533.663000", "091533.666000", "091533.668000", "091533.671000", "091533.673000", "091533.676000", "091533.679000", "091533.681000", "091533.684000", "091533.687000", "091533.689000", "091533.692000", "091533.695000", "091533.697000", "091533.700000", "091613.648000", "091613.651000", "091613.654000", "091613.657000", "091613.659000", "091613.662000", "091613.664000", "091613.667000", "091613.669000", "091613.672000", "091613.674000", "091613.677000", "091613.680000", "091613.682000", "091613.685000", "091613.687000", "091613.690000", "091613.692000", "091613.695000", "091613.698000", "091653.650000", "091653.653000", "091653.655000", "091653.658000", "091653.660000", "091653.663000", "091653.666000", "091653.668000", "091653.671000", "091653.673000", "091653.676000", "091653.678000", "091653.681000", "091653.684000", "091653.686000", "091653.689000", "091653.691000", "091653.694000", "091653.696000", "091653.699000", "091733.650000", "091733.652000", "091733.655000", "091733.658000", "091733.660000", "091733.663000", "091733.665000", "091733.668000", "091733.671000", "091733.673000", "091733.676000", "091733.678000", "091733.681000", "091733.683000", "091733.686000", "091733.689000", "091733.691000", "091733.694000", "091733.696000", "091733.699000", "091813.648000", "091813.651000", "091813.654000", "091813.656000", "091813.659000", "091813.661000", "091813.664000", "091813.667000", "091813.669000", "091813.672000", "091813.674000", "091813.677000", "091813.680000", "091813.682000", "091813.685000", "091813.687000", "091813.690000", "091813.692000", "091813.695000", "091813.697000", "091853.649000", "091853.651000", "091853.654000", "091853.657000", "091853.659000", "091853.662000", "091853.664000", "091853.667000", "091853.669000", "091853.672000", "091853.675000", "091853.677000", "091853.680000", "091853.682000", "091853.685000", "091853.688000", "091853.690000", "091853.693000", "091853.695000", "091853.698000", "091933.650000", "091933.652000", "091933.655000", "091933.658000", "091933.660000", "091933.663000", "091933.665000", "091933.668000", "091933.671000", "091933.673000", "091933.676000", "091933.678000", "091933.681000", "091933.683000", "091933.686000", "091933.689000", "091933.691000", "091933.694000", "091933.696000", "091933.699000", "091958.014000", "091958.017000", "091958.019000", "091958.022000", "091958.024000", "091958.027000", "091958.030000", "091958.032000", "091958.035000", "091958.037000", "091958.040000", "091958.043000", "091958.046000"],
      "InstanceCreationTime": ["091413.653000", "091413.658000", "091413.661000", "091413.663000", "091413.666000", "091413.668000", "091413.671000", "091413.674000", "091413.676000", "091413.679000", "091413.681000", "091413.684000", "091413.687000", "091413.689000", "091413.692000", "091413.700000", "091413.703000", "091413.705000", "091413.708000", "091413.710000", "091413.713000", "091413.716000", "091413.718000", "091413.721000", "091413.723000", "091413.726000", "091413.729000", "091453.650000", "091453.652000", "091453.655000", "091453.658000", "091453.661000", "091453.663000", "091453.666000", "091453.668000", "091453.671000", "091453.673000", "091453.676000", "091453.679000", "091453.681000", "091453.684000", "091453.687000", "091453.689000", "091453.692000", "091453.694000", "091453.697000", "091453.700000", "091533.650000", "091533.652000", "091533.655000", "091533.658000", "091533.660000", "091533.663000", "091533.666000", "091533.668000", "091533.671000", "091533.673000", "091533.676000", "091533.679000", "091533.681000", "091533.684000", "091533.687000", "091533.689000", "091533.692000", "091533.695000", "091533.697000", "091533.700000", "091613.648000", "091613.651000", "091613.654000", "091613.657000", "091613.659000", "091613.662000", "091613.664000", "091613.667000", "091613.669000", "091613.672000", "091613.674000", "091613.677000", "091613.680000", "091613.682000", "091613.685000", "091613.687000", "091613.690000", "091613.692000", "091613.695000", "091613.698000", "091653.650000", "091653.653000", "091653.655000", "091653.658000", "091653.660000", "091653.663000", "091653.666000", "091653.668000", "091653.671000", "091653.673000", "091653.676000", "091653.678000", "091653.681000", "091653.684000", "091653.686000", "091653.689000", "091653.691000", "091653.694000", "091653.696000", "091653.699000", "091733.650000", "091733.652000", "091733.655000", "091733.658000", "091733.660000", "091733.663000", "091733.665000", "091733.668000", "091733.671000", "091733.673000", "091733.676000", "091733.678000", "091733.681000", "091733.683000", "091733.686000", "091733.689000", "091733.691000", "091733.694000", "091733.696000", "091733.699000", "091813.648000", "091813.651000", "091813.654000", "091813.656000", "091813.659000", "091813.661000", "091813.664000", "091813.667000", "091813.669000", "091813.672000", "091813.674000", "091813.677000", "091813.680000", "091813.682000", "091813.685000", "091813.687000", "091813.690000", "091813.692000", "091813.695000", "091813.697000", "091853.649000", "091853.651000", "091853.654000", "091853.657000", "091853.659000", "091853.662000", "091853.664000", "091853.667000", "091853.669000", "091853.672000", "091853.675000", "091853.677000", "091853.680000", "091853.682000", "091853.685000", "091853.688000", "091853.690000", "091853.693000", "091853.695000", "091853.698000", "091933.650000", "091933.652000", "091933.655000", "091933.658000", "091933.660000", "091933.663000", "091933.665000", "091933.668000", "091933.671000", "091933.673000", "091933.676000", "091933.678000", "091933.681000", "091933.683000", "091933.686000", "091933.689000", "091933.691000", "091933.694000", "091933.696000", "091933.699000", "091958.014000", "091958.017000", "091958.019000", "091958.022000", "091958.024000", "091958.027000", "091958.030000", "091958.032000", "091958.035000", "091958.037000", "091958.040000", "091958.043000", "091958.046000"],
      "InstanceNumber": [1, 2, 3, 4, 5, 6, 7, 8, 9, 10, 11, 12, 13, 14, 15, 16, 17, 18, 19, 20, 21, 22, 23, 24, 25, 26, 27, 28, 29, 30, 31, 32, 33, 34, 35, 36, 37, 38, 39, 40, 41, 42, 43, 44, 45, 46, 47, 48, 49, 50, 51, 52, 53, 54, 55, 56, 57, 58, 59, 60, 61, 62, 63, 64, 65, 66, 67, 68, 69, 70, 71, 72, 73, 74, 75, 76, 77, 78, 79, 80, 81, 82, 83, 84, 85, 86, 87, 88, 89, 90, 91, 92, 93, 94, 95, 96, 97, 98, 99, 100, 101, 102, 103, 104, 105, 106, 107, 108, 109, 110, 111, 112, 113, 114, 115, 116, 117, 118, 119, 120, 121, 122, 123, 124, 125, 126, 127, 128, 129, 130, 131, 132, 133, 134, 135, 136, 137, 138, 139, 140, 141, 142, 143, 144, 145, 146, 147, 148, 149, 150, 151, 152, 153, 154, 155, 156, 157, 158, 159, 160, 161, 162, 163, 164, 165, 166, 167, 168, 169, 170, 171, 172, 173, 174, 175, 176, 177, 178, 179, 180, 181, 182, 183, 184, 185, 186, 187, 188, 189, 190, 191, 192, 193, 194, 195, 196, 197, 198, 199, 200],
      "LargestImagePixelValue": [653, 654, 654, 653, 653, 656, 652, 655, 656, 653, 653, 654, 654, 655, 654, 654, 654, 653, 656, 655, 654, 656, 654, 654, 653, 654, 652, 652, 653, 654, 653, 653, 652, 654, 654, 653, 652, 651, 653, 655, 654, 653, 653, 652, 653, 652, 653, 652, 653, 652, 653, 653, 653, 655, 652, 651, 655, 655, 654, 653, 651, 655, 653, 654, 652, 653, 655, 653, 653, 652, 654, 652, 652, 653, 651, 653, 652, 653, 653, 652, 653, 652, 655, 653, 654, 653, 654, 654, 655, 652, 654, 652, 655, 656, 652, 652, 653, 651, 652, 653, 652, 653, 655, 652, 654, 651, 654, 651, 653, 654, 651, 653, 652, 655, 656, 652, 651, 651, 654, 653, 650, 653, 650, 653, 655, 654, 651, 652, 652, 652, 649, 650, 652, 652, 655, 651, 651, 653, 650, 653, 656, 652, 653, 652, 653, 651, 652, 654, 654, 650, 654, 654, 652, 652, 654, 652, 650, 655, 652, 652, 651, 653, 654, 653, 654, 651, 654, 651, 652, 653, 650, 650, 655, 652, 656, 651, 650, 653, 652, 652, 652, 652, 650, 655, 650, 652, 654, 651, 652, 652, 651, 651, 653, 651, 652, 650, 651, 651, 652, 649],
      "WindowCenter": [457.0, 457.0, 456.0, 456.0, 456.0, 456.0, 456.0, 456.0, 456.0, 456.0, 456.0, 456.0, 456.0, 456.0, 456.0, 456.0, 456.0, 456.0, 456.0, 456.0, 456.0, 456.0, 456.0, 456.0, 456.0, 456.0, 456.0, 456.0, 456.0, 456.0, 456.0, 456.0, 456.0, 456.0, 456.0, 456.0, 456.0, 456.0, 456.0, 456.0, 456.0, 456.0, 456.0, 456.0, 456.0, 456.0, 456.0, 456.0, 456.0, 456.0, 456.0, 456.0, 456.0, 456.0, 456.0, 456.0, 456.0, 456.0, 456.0, 456.0, 456.0, 456.0, 456.0, 456.0, 456.0, 456.0, 456.0, 456.0, 456.0, 456.0, 456.0, 456.0, 456.0, 456.0, 456.0, 456.0, 456.0, 456.0, 456.0, 456.0, 456.0, 456.0, 456.0, 456.0, 456.0, 456.0, 456.0, 456.0, 456.0, 456.0, 456.0, 456.0, 456.0, 456.0, 456.0, 456.0, 456.0, 456.0, 456.0, 456.0, 456.0, 456.0, 456.0, 456.0, 456.0, 456.0, 456.0, 456.0, 456.0, 456.0, 456.0, 456.0, 456.0, 456.0, 456.0, 456.0, 456.0, 456.0, 456.0, 456.0, 456.0, 456.0, 456.0, 456.0, 456.0, 456.0, 456.0, 456.0, 456.0, 456.0, 455.0, 456.0, 456.0, 456.0, 456.0, 456.0, 456.0, 456.0, 456.0, 456.0, 456.0, 456.0, 456.0, 456.0, 456.0, 456.0, 456.0, 456.0, 456.0, 456.0, 456.0, 456.0, 456.0, 456.0, 455.0, 456.0, 455.0, 456.0, 455.0, 455.0, 455.0, 455.0, 455.0, 455.0, 455.0, 455.0, 455.0, 455.0, 455.0, 455.0, 455.0, 455.0, 455.0, 455.0, 455.0, 455.0, 455.0, 455.0, 455.0, 455.0, 455.0, 455.0, 455.0, 455.0, 455.0, 455.0, 455.0, 455.0, 455.0, 455.0, 455.0, 455.0, 455.0, 455.0, 455.0, 455.0, 455.0, 455.0, 455.0, 455.0],
      "WindowWidth": [948.0, 948.0, 947.0, 947.0, 947.0, 947.0, 947.0, 947.0, 947.0, 947.0, 947.0, 947.0, 947.0, 947.0, 947.0, 947.0, 947.0, 947.0, 947.0, 947.0, 947.0, 947.0, 947.0, 947.0, 947.0, 947.0, 947.0, 947.0, 947.0, 947.0, 947.0, 947.0, 947.0, 947.0, 947.0, 947.0, 947.0, 947.0, 947.0, 947.0, 947.0, 947.0, 947.0, 947.0, 947.0, 947.0, 947.0, 947.0, 947.0, 947.0, 947.0, 947.0, 947.0, 947.0, 947.0, 947.0, 947.0, 947.0, 947.0, 947.0, 947.0, 947.0, 947.0, 947.0, 947.0, 947.0, 947.0, 947.0, 947.0, 947.0, 947.0, 947.0, 947.0, 947.0, 947.0, 947.0, 947.0, 947.0, 947.0, 947.0, 946.0, 947.0, 947.0, 947.0, 947.0, 947.0, 947.0, 947.0, 947.0, 947.0, 947.0, 947.0, 947.0, 947.0, 947.0, 947.0, 947.0, 947.0, 946.0, 947.0, 947.0, 947.0, 947.0, 947.0, 947.0, 946.0, 947.0, 946.0, 947.0, 946.0, 946.0, 946.0, 946.0, 946.0, 946.0, 947.0, 947.0, 946.0, 947.0, 946.0, 946.0, 946.0, 946.0, 946.0, 946.0, 946.0, 946.0, 946.0, 946.0, 946.0, 945.0, 946.0, 946.0, 946.0, 946.0, 946.0, 946.0, 946.0, 946.0, 946.0, 946.0, 946.0, 946.0, 946.0, 946.0, 946.0, 946.0, 946.0, 946.0, 946.0, 946.0, 946.0, 946.0, 946.0, 945.0, 946.0, 945.0, 945.0, 945.0, 945.0, 945.0, 945.0, 945.0, 945.0, 945.0, 945.0, 945.0, 945.0, 945.0, 945.0, 945.0, 945.0, 945.0, 945.0, 945.0, 945.0, 945.0, 945.0, 945.0, 945.0, 945.0, 945.0, 945.0, 945.0, 945.0, 945.0, 945.0, 945.0, 945.0, 945.0, 945.0, 945.0, 945.0, 945.0, 945.0, 945.0, 945.0, 945.0, 945.0, 945.0]
    },
    "slices": {}
  }
}