{
  "AcquisitionMatrixPE": 80,
  "AcquisitionNumber": 1,
  "AcquisitionTime": "11:25:7.140000",
  "BandwidthPerPixelPhaseEncode": 44.643,
  "BaseResolution": 80,
  "BodyPartExamined": "BRAIN",
  "CoilCombinationMethod": "Sum of Squares",
  "ConsistencyInfo": "N4_VE11C_LATEST_20160120",
  "ConversionSoftware": "dcm2niix",
  "ConversionSoftwareVersion": "v1.0.20220720",
  "DerivedVendorReportedEchoSpacing": 0.000559998,
  "DeviceSerialNumber": "66112",
  "DwellTime": 2.7e-06,
  "EchoTime": 0.035,
  "EchoTrainLength": 39,
  "EffectiveEchoSpacing": 0.000279999,
  "FlipAngle": 90,
  "HeudiconvVersion": "0.13.1",
  "ImageOrientationPatientDICOM": [0.97644, 0.215236, 0.0154484, -0.209687, 0.929485, 0.303463],
  "ImageOrientationText": "Tra>Cor(17.5)>Sag(-2.9)",
  "ImageType": [
    "ORIGINAL",
    "PRIMARY",
    "M",
    "ND",
    "NORM",
    "MOSAIC"
],
  "ImagingFrequency": 123.252,
  "InPlanePhaseEncodingDirectionDICOM": "COL",
  "InstitutionAddress": "Maynard 3,Hanover,NH,US,03755",
  "InstitutionName": "Dartmouth College - PBS",
  "InstitutionalDepartmentName": "Department",
  "MRAcquisitionType": "2D",
  "MagneticFieldStrength": 3,
  "Manufacturer": "Siemens",
  "ManufacturersModelName": "Prisma",
  "Modality": "MR",
  "MultibandAccelerationFactor": 4,
  "NonlinearGradientCorrection": false,
  "ParallelReductionFactorInPlane": 2,
  "PartialFourier": 1,
  "PatientPosition": "HFS",
  "PercentPhaseFOV": 100,
  "PercentSampling": 100,
  "PhaseEncodingDirection": "j-",
  "PhaseEncodingSteps": 79,
  "PhaseResolution": 1,
  "PixelBandwidth": 2315,
  "ProcedureStepDescription": "dbic^QA",
  "ProtocolName": "func-bold_task-rest_acq-p2-s4-3.5mm",
  "PulseSequenceDetails": "%SiemensSeq%\\ep2d_bold",
  "ReceiveCoilActiveElements": "HEA;HEP",
  "ReceiveCoilName": "Head_32",
  "ReconMatrixPE": 80,
  "RefLinesPE": 24,
  "RepetitionTime": 2,
  "SAR": 0.0178799,
  "ScanOptions": "FS",
  "ScanningSequence": "EP",
  "SequenceName": "*epfid2d1_80",
  "SequenceVariant": "SK",
  "SeriesDescription": "func-bold_task-rest_acq-p2-s4-3.5mm",
  "SeriesNumber": 7,
  "ShimSetting": [4139, -7674, -7514, 262, 34, -253, -98, 26],
  "SliceThickness": 3.5,
  "SliceTiming": [1.485, 0, 0.99, 0.2475, 1.2375, 0.7425, 1.7325, 0.495, 1.485, 0, 0.99, 0.2475, 1.2375, 0.7425, 1.7325, 0.495, 1.485, 0, 0.99, 0.2475, 1.2375, 0.7425, 1.7325, 0.495, 1.485, 0, 0.99, 0.2475, 1.2375, 0.7425, 1.7325, 0.495],
  "SoftwareVersions": "syngo MR E11",
  "SpacingBetweenSlices": 3.99,
  "StationName": "AWP66112",
  "TaskName": "rest",
  "TotalReadoutTime": 0.0221199,
  "TxRefAmp": 238.067,
  "dcmmeta_affine": [
    [-2.929319381713867, -0.6290613412857056, -0.20331916213035583, 152.53378295898438],
    [-0.6457089185714722, 2.788454055786133, 1.1952139139175415, -93.00556945800781],
    [0.046345051378011703, -0.9103880524635315, 3.801345109939575, -44.153690338134766],
    [0.0, 0.0, 0.0, 1.0]
],
  "dcmmeta_reorient_transform": [
    [0.0, -1.0, 0.0, 79.0],
    [1.0, 0.0, 0.0, 0.0],
    [0.0, 0.0, 1.0, 0.0],
    [0.0, 0.0, 0.0, 1.0]
],
  "dcmmeta_shape": [80, 80, 32, 200],
  "dcmmeta_slice_dim": 2,
  "dcmmeta_version": 0.6,
  "global": {
    "const": {
      "AccessionNumber": "qa",
      "AcquisitionMatrix": [80, 0, 0, 80],
      "AngioFlag": "N",
      "BitsAllocated": 16,
      "BitsStored": 12,
      "BodyPartExamined": "BRAIN",
      "Columns": 480,
      "EchoNumbers": 1,
      "EchoTime": 35.0,
      "EchoTrainLength": 39,
      "FlipAngle": 90.0,
      "HighBit": 11,
      "ImageOrientationPatient": [0.9764397981652, 0.21523630975224, 0.01544835018209, -0.2096871143702, 0.92948464889501, 0.30346268557374],
      "ImagePositionPatient": [-562.889549024, -814.11487029346, -307.42096893755],
      "ImageType": [
        "ORIGINAL",
        "PRIMARY",
        "M",
        "ND",
        "NORM",
        "MOSAIC"
],
      "ImagedNucleus": "1H",
      "ImagingFrequency": 123.25245,
      "InPlanePhaseEncodingDirection": "COL",
      "MRAcquisitionType": "2D",
      "MagneticFieldStrength": 3.0,
      "Manufacturer": "SIEMENS",
      "ManufacturerModelName": "Prisma",
      "Modality": "MR",
      "NumberOfAverages": 1.0,
      "NumberOfPhaseEncodingSteps": 79,
      "PercentPhaseFieldOfView": 100.0,
      "PercentSampling": 100.0,
      "PerformedProcedureStepStartTime": "105248.701000",
      "PhotometricInterpretation": "MONOCHROME2",
      "PixelBandwidth": 2315.0,
      "PixelRepresentation": 0,
      "PixelSpacing": [3.0, 3.0],
      "ProtocolName": "func-bold_task-rest_acq-p2-s4-3.5mm",
      "RepetitionTime": 2000.0,
      "Rows": 480,
      "SAR": 0.01787988195989,
      "SamplesPerPixel": 1,
      "ScanOptions": "FS",
      "ScanningSequence": "EP",
      "SequenceName": "*epfid2d1_80",
      "SequenceVariant": "SK",
      "SeriesDescription": "func-bold_task-rest_acq-p2-s4-3.5mm",
      "SeriesNumber": 7,
      "SeriesTime": "112551.118000",
      "SliceLocation": -77.69874936901,
      "SliceThickness": 3.5,
      "SmallestImagePixelValue": 0,
      "SoftwareVersions": "syngo MR E11",
      "SpacingBetweenSlices": 3.9900000459343,
      "SpecificCharacterSet": "ISO_IR 100",
      "StudyID": "64",
      "StudyTime": "105248.650000",
      "TransmitCoilName": "Body",
      "VariableFlipAngleFlag": "N",
      "WindowCenterWidthExplanation": "Algo1",
      "dBdt": 0.0},
    "slices": {}
  },
  "time": {
    "samples": {
      "AcquisitionNumber": [1, 2, 3, 4, 5, 6, 7, 8, 9, 10, 11, 12, 13, 14, 15, 16, 17, 18, 19, 20, 21, 22, 23, 24, 25, 26, 27, 28, 29, 30, 31, 32, 33, 34, 35, 36, 37, 38, 39, 40, 41, 42, 43, 44, 45, 46, 47, 48, 49, 50, 51, 52, 53, 54, 55, 56, 57, 58, 59, 60, 61, 62, 63, 64, 65, 66, 67, 68, 69, 70, 71, 72, 73, 74, 75, 76, 77, 78, 79, 80, 81, 82, 83, 84, 85, 86, 87, 88, 89, 90, 91, 92, 93, 94, 95, 96, 97, 98, 99, 100, 101, 102, 103, 104, 105, 106, 107, 108, 109, 110, 111, 112, 113, 114, 115, 116, 117, 118, 119, 120, 121, 122, 123, 124, 125, 126, 127, 128, 129, 130, 131, 132, 133, 134, 135, 136, 137, 138, 139, 140, 141, 142, 143, 144, 145, 146, 147, 148, 149, 150, 151, 152, 153, 154, 155, 156, 157, 158, 159, 160, 161, 162, 163, 164, 165, 166, 167, 168, 169, 170, 171, 172, 173, 174, 175, 176, 177, 178, 179, 180, 181, 182, 183, 184, 185, 186, 187, 188, 189, 190, 191, 192, 193, 194, 195, 196, 197, 198, 199, 200],
      "AcquisitionTime": ["112507.140000", "112509.140000", "112511.140000", "112513.140000", "112515.140000", "112517.140000", "112519.140000", "112521.140000", "112523.140000", "112525.140000", "112527.140000", "112529.140000", "112531.140000", "112533.140000", "112535.140000", "112537.140000", "112539.140000", "112541.140000", "112543.140000", "112545.140000", "112547.140000", "112549.140000", "112551.140000", "112553.140000", "112555.140000", "112557.140000", "112559.140000", "112601.140000", "112603.140000", "112605.140000", "112607.140000", "112609.140000", "112611.140000", "112613.140000", "112615.140000", "112617.140000", "112619.140000", "112621.140000", "112623.140000", "112625.140000", "112627.140000", "112629.140000", "112631.140000", "112633.140000", "112635.140000", "112637.140000", "112639.140000", "112641.140000", "112643.140000", "112645.140000", "112647.140000", "112649.140000", "112651.140000", "112653.140000", "112655.140000", "112657.140000", "112659.140000", "112701.140000", "112703.140000", "112705.140000", "112707.140000", "112709.140000", "112711.140000", "112713.140000", "112715.140000", "112717.140000", "112719.140000", "112721.140000", "112723.140000", "112725.140000", "112727.140000", "112729.140000", "112731.140000", "112733.140000", "112735.140000", "112737.140000", "112739.140000", "112741.140000", "112743.140000", "112745.140000", "112747.140000", "112749.140000", "112751.140000", "112753.140000", "112755.140000", "112757.140000", "112759.140000", "112801.140000", "112803.140000", "112805.140000", "112807.140000", "112809.140000", "112811.140000", "112813.140000", "112815.140000", "112817.140000", "112819.140000", "112821.140000", "112823.140000", "112825.140000", "112827.140000", "112829.140000", "112831.140000", "112833.140000", "112835.140000", "112837.140000", "112839.140000", "112841.140000", "112843.140000", "112845.140000", "112847.140000", "112849.140000", "112851.140000", "112853.140000", "112855.140000", "112857.140000", "112859.140000", "112901.140000", "112903.140000", "112905.140000", "112907.140000", "112909.140000", "112911.140000", "112913.140000", "112915.140000", "112917.140000", "112919.140000", "112921.140000", "112923.140000", "112925.140000", "112927.140000", "112929.140000", "112931.140000", "112933.140000", "112935.140000", "112937.140000", "112939.140000", "112941.140000", "112943.140000", "112945.140000", "112947.140000", "112949.140000", "112951.140000", "112953.140000", "112955.140000", "112957.140000", "112959.140000", "113001.140000", "113003.140000", "113005.140000", "113007.140000", "113009.140000", "113011.140000", "113013.140000", "113015.140000", "113017.140000", "113019.140000", "113021.140000", "113023.140000", "113025.140000", "113027.140000", "113029.140000", "113031.140000", "113033.140000", "113035.140000", "113037.140000", "113039.140000", "113041.140000", "113043.140000", "113045.140000", "113047.140000", "113049.140000", "113051.140000", "113053.140000", "113055.140000", "113057.140000", "113059.140000", "113101.140000", "113103.140000", "113105.140000", "113107.140000", "113109.140000", "113111.140000", "113113.140000", "113115.140000", "113117.140000", "113119.140000", "113121.140000", "113123.140000", "113125.140000", "113127.140000", "113129.140000", "113131.140000", "113133.140000", "113135.140000", "113137.140000", "113139.140000", "113141.140000", "113143.140000", "113145.140000"],
      "ContentTime": ["112551.122000", "112551.125000", "112551.128000", "112551.131000", "112551.133000", "112551.136000", "112551.138000", "112551.141000", "112551.144000", "112551.147000", "112551.149000", "112551.152000", "112551.155000", "112551.157000", "112551.168000", "112551.175000", "112551.177000", "112551.180000", "112551.183000", "112551.185000", "112551.188000", "112551.190000", "112631.117000", "112631.119000", "112631.122000", "112631.125000", "112631.127000", "112631.130000", "112631.132000", "112631.135000", "112631.137000", "112631.140000", "112631.143000", "112631.146000", "112631.149000", "112631.151000", "112631.154000", "112631.156000", "112631.159000", "112631.161000", "112631.164000", "112631.167000", "112711.117000", "112711.119000", "112711.122000", "112711.125000", "112711.127000", "112711.130000", "112711.132000", "112711.135000", "112711.138000", "112711.140000", "112711.143000", "112711.146000", "112711.149000", "112711.160000", "112711.163000", "112711.165000", "112711.168000", "112711.170000", "112711.173000", "112711.176000", "112751.117000", "112751.120000", "112751.122000", "112751.125000", "112751.127000", "112751.130000", "112751.132000", "112751.135000", "112751.138000", "112751.140000", "112751.143000", "112751.146000", "112751.148000", "112751.151000", "112751.154000", "112751.156000", "112751.159000", "112751.162000", "112751.164000", "112751.167000", "112831.117000", "112831.120000", "112831.122000", "112831.125000", "112831.127000", "112831.130000", "112831.133000", "112831.135000", "112831.138000", "112831.140000", "112831.143000", "112831.146000", "112831.149000", "112831.151000", "112831.154000", "112831.156000", "112831.159000", "112831.161000", "112831.164000", "112831.167000", "112911.116000", "112911.119000", "112911.122000", "112911.125000", "112911.127000", "112911.130000", "112911.133000", "112911.135000", "112911.138000", "112911.140000", "112911.143000", "112911.146000", "112911.149000", "112911.151000", "112911.154000", "112911.156000", "112911.159000", "112911.161000", "112911.164000", "112911.167000", "112951.117000", "112951.119000", "112951.122000", "112951.125000", "112951.127000", "112951.130000", "112951.133000", "112951.135000", "112951.138000", "112951.141000", "112951.143000", "112951.146000", "112951.149000", "112951.151000", "112951.154000", "112951.157000", "112951.159000", "112951.162000", "112951.164000", "112951.167000", "113031.117000", "113031.119000", "113031.122000", "113031.125000", "113031.127000", "113031.130000", "113031.133000", "113031.135000", "113031.138000", "113031.141000", "113031.143000", "113031.146000", "113031.149000", "113031.151000", "113031.154000", "113031.157000", "113031.159000", "113031.162000", "113031.164000", "113031.167000", "113111.117000", "113111.119000", "113111.122000", "113111.125000", "113111.127000", "113111.130000", "113111.132000", "113111.135000", "113111.138000", "113111.141000", "113111.144000", "113111.146000", "113111.149000", "113111.151000", "113111.154000", "113111.157000", "113111.159000", "113111.162000", "113111.164000", "113111.167000", "113146.125000", "113146.128000", "113146.131000", "113146.133000", "113146.136000", "113146.161000", "113146.168000", "113146.171000", "113146.174000", "113146.180000", "113146.183000", "113146.186000", "113146.189000", "113146.192000", "113146.195000", "113146.197000", "113146.200000", "113146.203000"],
      "InstanceCreationTime": ["112551.122000", "112551.125000", "112551.128000", "112551.131000", "112551.133000", "112551.136000", "112551.138000", "112551.141000", "112551.144000", "112551.147000", "112551.149000", "112551.152000", "112551.155000", "112551.157000", "112551.168000", "112551.175000", "112551.177000", "112551.180000", "112551.183000", "112551.185000", "112551.188000", "112551.190000", "112631.117000", "112631.119000", "112631.122000", "112631.125000", "112631.127000", "112631.130000", "112631.132000", "112631.135000", "112631.137000", "112631.140000", "112631.143000", "112631.146000", "112631.149000", "112631.151000", "112631.154000", "112631.156000", "112631.159000", "112631.161000", "112631.164000", "112631.167000", "112711.117000", "112711.119000", "112711.122000", "112711.125000", "112711.127000", "112711.130000", "112711.132000", "112711.135000", "112711.138000", "112711.140000", "112711.143000", "112711.146000", "112711.149000", "112711.160000", "112711.163000", "112711.165000", "112711.168000", "112711.170000", "112711.173000", "112711.176000", "112751.117000", "112751.120000", "112751.122000", "112751.125000", "112751.127000", "112751.130000", "112751.132000", "112751.135000", "112751.138000", "112751.140000", "112751.143000", "112751.146000", "112751.148000", "112751.151000", "112751.154000", "112751.156000", "112751.159000", "112751.162000", "112751.164000", "112751.167000", "112831.117000", "112831.120000", "112831.122000", "112831.125000", "112831.127000", "112831.130000", "112831.133000", "112831.135000", "112831.138000", "112831.140000", "112831.143000", "112831.146000", "112831.149000", "112831.151000", "112831.154000", "112831.156000", "112831.159000", "112831.161000", "112831.164000", "112831.167000", "112911.116000", "112911.119000", "112911.122000", "112911.125000", "112911.127000", "112911.130000", "112911.133000", "112911.135000", "112911.138000", "112911.140000", "112911.143000", "112911.146000", "112911.149000", "112911.151000", "112911.154000", "112911.156000", "112911.159000", "112911.161000", "112911.164000", "112911.167000", "112951.117000", "112951.119000", "112951.122000", "112951.125000", "112951.127000", "112951.130000", "112951.133000", "112951.135000", "112951.138000", "112951.141000", "112951.143000", "112951.146000", "112951.149000", "112951.151000", "112951.154000", "112951.157000", "112951.159000", "112951.162000", "112951.164000", "112951.167000", "113031.117000", "113031.119000", "113031.122000", "113031.125000", "113031.127000", "113031.130000", "113031.133000", "113031.135000", "113031.138000", "113031.141000", "113031.143000", "113031.146000", "113031.149000", "113031.151000", "113031.154000", "113031.157000", "113031.159000", "113031.162000", "113031.164000", "113031.167000", "113111.117000", "113111.119000", "113111.122000", "113111.125000", "113111.127000", "113111.130000", "113111.132000", "113111.135000", "113111.138000", "113111.141000", "113111.144000", "113111.146000", "113111.149000", "113111.151000", "113111.154000", "113111.157000", "113111.159000", "113111.162000", "113111.164000", "113111.167000", "113146.125000", "113146.128000", "113146.131000", "113146.133000", "113146.136000", "113146.161000", "113146.168000", "113146.171000", "113146.174000", "113146.180000", "113146.183000", "113146.186000", "113146.189000", "113146.192000", "113146.195000", "113146.197000", "113146.200000", "113146.203000"],
      "InstanceNumber": [1, 2, 3, 4, 5, 6, 7, 8, 9, 10, 11, 12, 13, 14, 15, 16, 17, 18, 19, 20, 21, 22, 23, 24, 25, 26, 27, 28, 29, 30, 31, 32, 33, 34, 35, 36, 37, 38, 39, 40, 41, 42, 43, 44, 45, 46, 47, 48, 49, 50, 51, 52, 53, 54, 55, 56, 57, 58, 59, 60, 61, 62, 63, 64, 65, 66, 67, 68, 69, 70, 71, 72, 73, 74, 75, 76, 77, 78, 79, 80, 81, 82, 83, 84, 85, 86, 87, 88, 89, 90, 91, 92, 93, 94, 95, 96, 97, 98, 99, 100, 101, 102, 103, 104, 105, 106, 107, 108, 109, 110, 111, 112, 113, 114, 115, 116, 117, 118, 119, 120, 121, 122, 123, 124, 125, 126, 127, 128, 129, 130, 131, 132, 133, 134, 135, 136, 137, 138, 139, 140, 141, 142, 143, 144, 145, 146, 147, 148, 149, 150, 151, 152, 153, 154, 155, 156, 157, 158, 159, 160, 161, 162, 163, 164, 165, 166, 167, 168, 169, 170, 171, 172, 173, 174, 175, 176, 177, 178, 179, 180, 181, 182, 183, 184, 185, 186, 187, 188, 189, 190, 191, 192, 193, 194, 195, 196, 197, 198, 199, 200],
      "LargestImagePixelValue": [2191, 2194, 2195, 2196, 2198, 2196, 2194, 2198, 2190, 2196, 2200, 2194, 2194, 2194, 2195, 2197, 2193, 2194, 2195, 2196, 2194, 2191, 2193, 2196, 2196, 2195, 2195, 2198, 2206, 2194, 2196, 2194, 2196, 2198, 2191, 2195, 2198, 2193, 2200, 2197, 2197, 2198, 2196, 2197, 2195, 2199, 2198, 2193, 2197, 2198, 2199, 2198, 2194, 2198, 2194, 2194, 2198, 2201, 2201, 2199, 2194, 2198, 2196, 2194, 2199, 2198, 2195, 2202, 2196, 2196, 2197, 2203, 2192, 2201, 2198, 2197, 2196, 2198, 2197, 2195, 2198, 2196, 2200, 2196, 2195, 2197, 2196, 2196, 2195, 2195, 2195, 2196, 2202, 2196, 2207, 2202, 2197, 2199, 2201, 2195, 2193, 2199, 2199, 2203, 2194, 2202, 2203, 2193, 2203, 2202, 2199, 2200, 2196, 2196, 2198, 2199, 2195, 2197, 2202, 2200, 2200, 2201, 2194, 2199, 2200, 2200, 2202, 2193, 2199, 2197, 2205, 2193, 2203, 2196, 2202, 2198, 2198, 2199, 2197, 2197, 2201, 2199, 2198, 2201, 2195, 2200, 2199, 2202, 2201, 2200, 2196, 2198, 2200, 2198, 2201, 2202, 2202, 2198, 2197, 2199, 2205, 2202, 2203, 2201, 2199, 2205, 2202, 2198, 2200, 2201, 2203, 2201, 2202, 2198, 2200, 2196, 2193, 2206, 2197, 2200, 2199, 2201, 2204, 2199, 2196, 2200, 2196, 2207, 2204, 2201, 2196, 2198, 2206, 2202, 2203, 2204, 2205, 2205, 2197, 2193],
      "WindowCenter": [916.0, 916.0, 916.0, 916.0, 916.0, 916.0, 916.0, 916.0, 916.0, 916.0, 916.0, 916.0, 916.0, 916.0, 916.0, 916.0, 916.0, 916.0, 916.0, 916.0, 916.0, 916.0, 916.0, 916.0, 916.0, 916.0, 916.0, 916.0, 916.0, 916.0, 916.0, 916.0, 916.0, 916.0, 916.0, 916.0, 916.0, 916.0, 916.0, 916.0, 916.0, 916.0, 916.0, 916.0, 916.0, 916.0, 916.0, 916.0, 916.0, 916.0, 916.0, 916.0, 917.0, 917.0, 916.0, 916.0, 916.0, 916.0, 916.0, 916.0, 916.0, 916.0, 916.0, 916.0, 916.0, 916.0, 917.0, 916.0, 916.0, 916.0, 916.0, 916.0, 917.0, 916.0, 916.0, 917.0, 916.0, 917.0, 916.0, 917.0, 916.0, 916.0, 917.0, 917.0, 917.0, 916.0, 916.0, 916.0, 916.0, 916.0, 916.0, 916.0, 916.0, 916.0, 916.0, 916.0, 916.0, 916.0, 917.0, 917.0, 917.0, 917.0, 917.0, 916.0, 917.0, 917.0, 917.0, 917.0, 917.0, 917.0, 917.0, 916.0, 917.0, 917.0, 916.0, 916.0, 916.0, 916.0, 917.0, 917.0, 917.0, 917.0, 917.0, 916.0, 917.0, 917.0, 917.0, 917.0, 917.0, 917.0, 917.0, 916.0, 917.0, 917.0, 917.0, 917.0, 917.0, 917.0, 917.0, 917.0, 916.0, 917.0, 917.0, 916.0, 917.0, 917.0, 917.0, 917.0, 917.0, 917.0, 916.0, 916.0, 916.0, 916.0, 917.0, 916.0, 917.0, 916.0, 916.0, 916.0, 916.0, 916.0, 917.0, 916.0, 917.0, 916.0, 917.0, 916.0, 916.0, 916.0, 917.0, 917.0, 917.0, 916.0, 916.0, 916.0, 916.0, 916.0, 916.0, 917.0, 917.0, 916.0, 917.0, 917.0, 917.0, 917.0, 917.0, 917.0, 917.0, 917.0, 916.0, 917.0, 917.0, 917.0, 916.0, 917.0, 917.0, 916.0, 917.0, 917.0],
      "WindowWidth": [2086.0, 2086.0, 2086.0, 2086.0, 2086.0, 2087.0, 2086.0, 2087.0, 2086.0, 2086.0, 2086.0, 2086.0, 2086.0, 2086.0, 2086.0, 2086.0, 2086.0, 2086.0, 2086.0, 2087.0, 2086.0, 2086.0, 2086.0, 2086.0, 2086.0, 2086.0, 2086.0, 2086.0, 2086.0, 2086.0, 2086.0, 2086.0, 2086.0, 2086.0, 2086.0, 2086.0, 2086.0, 2086.0, 2086.0, 2086.0, 2086.0, 2086.0, 2086.0, 2086.0, 2086.0, 2086.0, 2086.0, 2086.0, 2086.0, 2086.0, 2086.0, 2086.0, 2086.0, 2087.0, 2086.0, 2086.0, 2086.0, 2086.0, 2087.0, 2086.0, 2086.0, 2086.0, 2086.0, 2086.0, 2086.0, 2086.0, 2086.0, 2087.0, 2086.0, 2086.0, 2086.0, 2086.0, 2086.0, 2086.0, 2086.0, 2086.0, 2086.0, 2086.0, 2086.0, 2086.0, 2086.0, 2086.0, 2087.0, 2087.0, 2087.0, 2086.0, 2086.0, 2086.0, 2086.0, 2086.0, 2086.0, 2086.0, 2086.0, 2086.0, 2086.0, 2086.0, 2086.0, 2086.0, 2087.0, 2086.0, 2087.0, 2086.0, 2087.0, 2087.0, 2087.0, 2086.0, 2086.0, 2087.0, 2087.0, 2087.0, 2087.0, 2086.0, 2087.0, 2087.0, 2087.0, 2086.0, 2086.0, 2086.0, 2086.0, 2086.0, 2087.0, 2086.0, 2086.0, 2086.0, 2086.0, 2087.0, 2086.0, 2086.0, 2086.0, 2086.0, 2086.0, 2086.0, 2087.0, 2086.0, 2087.0, 2086.0, 2086.0, 2087.0, 2086.0, 2087.0, 2087.0, 2087.0, 2086.0, 2086.0, 2087.0, 2086.0, 2087.0, 2086.0, 2087.0, 2087.0, 2086.0, 2086.0, 2086.0, 2086.0, 2086.0, 2086.0, 2087.0, 2086.0, 2086.0, 2086.0, 2086.0, 2086.0, 2086.0, 2086.0, 2087.0, 2086.0, 2086.0, 2086.0, 2086.0, 2086.0, 2087.0, 2087.0, 2087.0, 2086.0, 2086.0, 2086.0, 2086.0, 2087.0, 2086.0, 2086.0, 2086.0, 2086.0, 2087.0, 2086.0, 2086.0, 2087.0, 2086.0, 2086.0, 2086.0, 2086.0, 2086.0, 2086.0, 2086.0, 2087.0, 2086.0, 2087.0, 2087.0, 2086.0, 2086.0, 2086.0]
    },
    "slices": {}
  }
}