{
  "AcquisitionMatrixPE": 122,
  "AcquisitionNumber": 1,
  "AcquisitionTime": "13:32:0.472500",
  "BandwidthPerPixelPhaseEncode": 27.785,
  "BaseResolution": 122,
  "BodyPartExamined": "BRAIN",
  "CoilCombinationMethod": "Adaptive Combine",
  "ConsistencyInfo": "N4_VE11C_LATEST_20160120",
  "ConversionSoftware": "dcm2niix",
  "ConversionSoftwareVersion": "v1.0.20220720",
  "DerivedVendorReportedEchoSpacing": 0.000590011,
  "DeviceSerialNumber": "66112",
  "DiffusionScheme": "Monopolar",
  "DwellTime": 2e-06,
  "EchoTime": 0.068,
  "EchoTrainLength": 61,
  "EffectiveEchoSpacing": 0.000295005,
  "FlipAngle": 90,
  "HeudiconvVersion": "0.13.1",
  "ImageOrientationPatientDICOM": [0.986644, 0.1627, 0.00790791, -0.156975, 0.936716, 0.312925],
  "ImageOrientationText": "Tra>Cor(18.1)>Sag(-2.5)",
  "ImageType": [
    "ORIGINAL",
    "PRIMARY",
    "DIFFUSION",
    "NONE",
    "ND",
    "NORM"
],
  "ImagingFrequency": 123.252,
  "InPlanePhaseEncodingDirectionDICOM": "COL",
  "InstitutionAddress": "Maynard 3,Hanover,NH,US,03755",
  "InstitutionName": "Dartmouth College - PBS",
  "InstitutionalDepartmentName": "Department",
  "MRAcquisitionType": "2D",
  "MagneticFieldStrength": 3,
  "Manufacturer": "Siemens",
  "ManufacturersModelName": "Prisma",
  "Modality": "MR",
  "MultibandAccelerationFactor": 4,
  "NonlinearGradientCorrection": false,
  "ParallelReductionFactorInPlane": 2,
  "PartialFourier": 1,
  "PatientPosition": "HFS",
  "PercentPhaseFOV": 100,
  "PercentSampling": 100,
  "PhaseEncodingDirection": "j-",
  "PhaseEncodingSteps": 122,
  "PhaseResolution": 1,
  "PixelBandwidth": 2050,
  "ProcedureStepDescription": "dbic^QA",
  "ProtocolName": "dwi_acq-DTI-30-p2-s4",
  "PulseSequenceDetails": "%SiemensSeq%\\ep2d_diff",
  "ReceiveCoilActiveElements": "HEA;HEP",
  "ReceiveCoilName": "Head_32",
  "ReconMatrixPE": 122,
  "RefLinesPE": 38,
  "RepetitionTime": 3.6,
  "SAR": 0.160342,
  "ScanOptions": "FS",
  "ScanningSequence": "EP",
  "SequenceName": "*ep_b0",
  "SequenceVariant": "SK\\SP",
  "SeriesDescription": "dwi_acq-DTI-30-p2-s4",
  "SeriesNumber": 9,
  "ShimSetting": [4147, -7690, -7509, 291, -41, -258, -88, 58],
  "SliceThickness": 2,
  "SliceTiming": [2.57812, 0, 1.78125, 0.1875, 1.98438, 0.39062, 2.1875, 0.59375, 2.375, 0.98438, 2.78125, 1.1875, 2.98438, 1.39062, 3.17188, 1.59375, 3.375, 0.79688, 2.57812, 0, 1.78125, 0.1875, 1.98438, 0.39062, 2.1875, 0.59375, 2.375, 0.98438, 2.78125, 1.1875, 2.98438, 1.39062, 3.17188, 1.59375, 3.375, 0.79688, 2.57812, 0, 1.78125, 0.1875, 1.98438, 0.39062, 2.1875, 0.59375, 2.375, 0.98438, 2.78125, 1.1875, 2.98438, 1.39062, 3.17188, 1.59375, 3.375, 0.79688, 2.57812, 0, 1.78125, 0.1875, 1.98438, 0.39062, 2.1875, 0.59375, 2.375, 0.98438, 2.78125, 1.1875, 2.98438, 1.39062, 3.17188, 1.59375, 3.375, 0.79688],
  "SoftwareVersions": "syngo MR E11",
  "SpacingBetweenSlices": 2,
  "SpoilingState": true,
  "StationName": "AWP66112",
  "TotalReadoutTime": 0.0356956,
  "TxRefAmp": 236.183,
  "dcmmeta_affine": [
    [-1.9409387111663818, -0.30880364775657654, -0.08701109886169434, 140.8087158203125],
    [-0.3200662434101105, 1.8427202701568604, 0.6199722290039062, -105.59599304199219],
    [0.015556545928120613, -0.6155892014503479, 1.8994903564453125, -28.959381103515625],
    [0.0, 0.0, 0.0, 1.0]
],
  "dcmmeta_reorient_transform": [
    [0.0, -1.0, 0.0, 121.0],
    [1.0, 0.0, 0.0, 0.0],
    [0.0, 0.0, -1.0, 71.0],
    [0.0, 0.0, 0.0, 1.0]
],
  "dcmmeta_shape": [122, 122, 72, 31],
  "dcmmeta_slice_dim": 2,
  "dcmmeta_version": 0.6,
  "global": {
    "const": {
      "AccessionNumber": "qa",
      "AcquisitionMatrix": [122, 0, 0, 122],
      "AngioFlag": "N",
      "BitsAllocated": 16,
      "BitsStored": 12,
      "BodyPartExamined": "BRAIN",
      "Columns": 122,
      "EchoNumbers": 1,
      "EchoTime": 68.0,
      "EchoTrainLength": 61,
      "FlipAngle": 90.0,
      "HighBit": 11,
      "ImageOrientationPatient": [0.98664383890772, 0.16270033833975, 0.00790791056955, -0.1569751903681, 0.93671609383647, 0.3129245103162],
      "ImageType": [
        "ORIGINAL",
        "PRIMARY",
        "DIFFUSION",
        "NONE",
        "ND",
        "NORM"
],
      "ImagedNucleus": "1H",
      "ImagingFrequency": 123.252455,
      "InPlanePhaseEncodingDirection": "COL",
      "MRAcquisitionType": "2D",
      "MagneticFieldStrength": 3.0,
      "Manufacturer": "SIEMENS",
      "ManufacturerModelName": "Prisma",
      "Modality": "MR",
      "NumberOfAverages": 1.0,
      "NumberOfPhaseEncodingSteps": 122,
      "PercentPhaseFieldOfView": 100.0,
      "PercentSampling": 100.0,
      "PerformedProcedureStepStartTime": "125923.932000",
      "PhotometricInterpretation": "MONOCHROME2",
      "PixelBandwidth": 2050.0,
      "PixelRepresentation": 0,
      "PixelSpacing": [1.9672131538391, 1.9672131538391],
      "ProtocolName": "dwi_acq-DTI-30-p2-s4",
      "RepetitionTime": 3600.0,
      "Rows": 122,
      "SAR": 0.16034191791471,
      "SamplesPerPixel": 1,
      "ScanOptions": "FS",
      "ScanningSequence": "EP",
      "SequenceVariant": [
        "SK",
        "SP"
],
      "SeriesDescription": "dwi_acq-DTI-30-p2-s4",
      "SeriesNumber": 9,
      "SeriesTime": "133205.459000",
      "SliceThickness": 2.0,
      "SmallestImagePixelValue": 0,
      "SoftwareVersions": "syngo MR E11",
      "SpacingBetweenSlices": 2.0,
      "SpecificCharacterSet": "ISO_IR 100",
      "StudyID": "59",
      "StudyTime": "125923.858000",
      "TransmitCoilName": "Body",
      "VariableFlipAngleFlag": "N",
      "WindowCenterWidthExplanation": "Algo1",
      "dBdt": 0.0},
    "slices": {
      "AcquisitionTime": ["133200.472500", "133157.887500", "133159.677500", "133158.085000", "133159.875000", "133158.285000", "133200.075000", "133158.482500", "133200.272500", "133158.882500", "133200.670000", "133159.080000", "133200.870000", "133159.280000", "133201.070000", "133159.477500", "133201.267500", "133158.682500", "133200.472500", "133157.887500", "133159.677500", "133158.085000", "133159.875000", "133158.285000", "133200.075000", "133158.482500", "133200.272500", "133158.882500", "133200.670000", "133159.080000", "133200.870000", "133159.280000", "133201.070000", "133159.477500", "133201.267500", "133158.682500", "133200.472500", "133157.887500", "133159.677500", "133158.085000", "133159.875000", "133158.285000", "133200.075000", "133158.482500", "133200.272500", "133158.882500", "133200.670000", "133159.080000", "133200.870000", "133159.280000", "133201.070000", "133159.477500", "133201.267500", "133158.682500", "133200.472500", "133157.887500", "133159.677500", "133158.085000", "133159.875000", "133158.285000", "133200.075000", "133158.482500", "133200.272500", "133158.882500", "133200.670000", "133159.080000", "133200.870000", "133159.280000", "133201.070000", "133159.477500", "133201.267500", "133158.682500", "133204.072500", "133201.487500", "133203.277500", "133201.685000", "133203.475000", "133201.885000", "133203.675000", "133202.082500", "133203.872500", "133202.482500", "133204.270000", "133202.680000", "133204.470000", "133202.880000", "133204.670000", "133203.077500", "133204.867500", "133202.282500", "133204.072500", "133201.487500", "133203.277500", "133201.685000", "133203.475000", "133201.885000", "133203.675000", "133202.082500", "133203.872500", "133202.482500", "133204.270000", "133202.680000", "133204.470000", "133202.880000", "133204.670000", "133203.077500", "133204.867500", "133202.282500", "133204.072500", "133201.487500", "133203.277500", "133201.685000", "133203.475000", "133201.885000", "133203.675000", "133202.082500", "133203.872500", "133202.482500", "133204.270000", "133202.680000", "133204.470000", "133202.880000", "133204.670000", "133203.077500", "133204.867500", "133202.282500", "133204.072500", "133201.487500", "133203.277500", "133201.685000", "133203.475000", "133201.885000", "133203.675000", "133202.082500", "133203.872500", "133202.482500", "133204.270000", "133202.680000", "133204.470000", "133202.880000", "133204.670000", "133203.077500", "133204.867500", "133202.282500", "133207.672500", "133205.087500", "133206.877500", "133205.285000", "133207.075000", "133205.485000", "133207.275000", "133205.682500", "133207.472500", "133206.082500", "133207.870000", "133206.280000", "133208.070000", "133206.480000", "133208.270000", "133206.677500", "133208.467500", "133205.882500", "133207.672500", "133205.087500", "133206.877500", "133205.285000", "133207.075000", "133205.485000", "133207.275000", "133205.682500", "133207.472500", "133206.082500", "133207.870000", "133206.280000", "133208.070000", "133206.480000", "133208.270000", "133206.677500", "133208.467500", "133205.882500", "133207.672500", "133205.087500", "133206.877500", "133205.285000", "133207.075000", "133205.485000", "133207.275000", "133205.682500", "133207.472500", "133206.082500", "133207.870000", "133206.280000", "133208.070000", "133206.480000", "133208.270000", "133206.677500", "133208.467500", "133205.882500", "133207.672500", "133205.087500", "133206.877500", "133205.285000", "133207.075000", "133205.485000", "133207.275000", "133205.682500", "133207.472500", "133206.082500", "133207.870000", "133206.280000", "133208.070000", "133206.480000", "133208.270000", "133206.677500", "133208.467500", "133205.882500", "133211.272500", "133208.687500", "133210.477500", "133208.885000", "133210.675000", "133209.085000", "133210.875000", "133209.282500", "133211.072500", "133209.682500", "133211.470000", "133209.880000", "133211.670000", "133210.080000", "133211.870000", "133210.277500", "133212.067500", "133209.482500", "133211.272500", "133208.687500", "133210.477500", "133208.885000", "133210.675000", "133209.085000", "133210.875000", "133209.282500", "133211.072500", "133209.682500", "133211.470000", "133209.880000", "133211.670000", "133210.080000", "133211.870000", "133210.277500", "133212.067500", "133209.482500", "133211.272500", "133208.687500", "133210.477500", "133208.885000", "133210.675000", "133209.085000", "133210.875000", "133209.282500", "133211.072500", "133209.682500", "133211.470000", "133209.880000", "133211.670000", "133210.080000", "133211.870000", "133210.277500", "133212.067500", "133209.482500", "133211.272500", "133208.687500", "133210.477500", "133208.885000", "133210.675000", "133209.085000", "133210.875000", "133209.282500", "133211.072500", "133209.682500", "133211.470000", "133209.880000", "133211.670000", "133210.080000", "133211.870000", "133210.277500", "133212.067500", "133209.482500", "133214.872500", "133212.287500", "133214.077500", "133212.485000", "133214.275000", "133212.685000", "133214.475000", "133212.882500", "133214.672500", "133213.282500", "133215.070000", "133213.480000", "133215.270000", "133213.680000", "133215.470000", "133213.877500", "133215.667500", "133213.082500", "133214.872500", "133212.287500", "133214.077500", "133212.485000", "133214.275000", "133212.685000", "133214.475000", "133212.882500", "133214.672500", "133213.282500", "133215.070000", "133213.480000", "133215.270000", "133213.680000", "133215.470000", "133213.877500", "133215.667500", "133213.082500", "133214.872500", "133212.287500", "133214.077500", "133212.485000", "133214.275000", "133212.685000", "133214.475000", "133212.882500", "133214.672500", "133213.282500", "133215.070000", "133213.480000", "133215.270000", "133213.680000", "133215.470000", "133213.877500", "133215.667500", "133213.082500", "133214.872500", "133212.287500", "133214.077500", "133212.485000", "133214.275000", "133212.685000", "133214.475000", "133212.882500", "133214.672500", "133213.282500", "133215.070000", "133213.480000", "133215.270000", "133213.680000", "133215.470000", "133213.877500", "133215.667500", "133213.082500", "133218.472500", "133215.887500", "133217.677500", "133216.085000", "133217.875000", "133216.285000", "133218.075000", "133216.482500", "133218.272500", "133216.882500", "133218.670000", "133217.080000", "133218.870000", "133217.280000", "133219.070000", "133217.477500", "133219.267500", "133216.682500", "133218.472500", "133215.887500", "133217.677500", "133216.085000", "133217.875000", "133216.285000", "133218.075000", "133216.482500", "133218.272500", "133216.882500", "133218.670000", "133217.080000", "133218.870000", "133217.280000", "133219.070000", "133217.477500", "133219.267500", "133216.682500", "133218.472500", "133215.887500", "133217.677500", "133216.085000", "133217.875000", "133216.285000", "133218.075000", "133216.482500", "133218.272500", "133216.882500", "133218.670000", "133217.080000", "133218.870000", "133217.280000", "133219.070000", "133217.477500", "133219.267500", "133216.682500", "133218.472500", "133215.887500", "133217.677500", "133216.085000", "133217.875000", "133216.285000", "133218.075000", "133216.482500", "133218.272500", "133216.882500", "133218.670000", "133217.080000", "133218.870000", "133217.280000", "133219.070000", "133217.477500", "133219.267500", "133216.682500", "133222.072500", "133219.487500", "133221.277500", "133219.685000", "133221.475000", "133219.885000", "133221.675000", "133220.082500", "133221.872500", "133220.482500", "133222.270000", "133220.680000", "133222.470000", "133220.880000", "133222.670000", "133221.077500", "133222.867500", "133220.282500", "133222.072500", "133219.487500", "133221.277500", "133219.685000", "133221.475000", "133219.885000", "133221.675000", "133220.082500", "133221.872500", "133220.482500", "133222.270000", "133220.680000", "133222.470000", "133220.880000", "133222.670000", "133221.077500", "133222.867500", "133220.282500", "133222.072500", "133219.487500", "133221.277500", "133219.685000", "133221.475000", "133219.885000", "133221.675000", "133220.082500", "133221.872500", "133220.482500", "133222.270000", "133220.680000", "133222.470000", "133220.880000", "133222.670000", "133221.077500", "133222.867500", "133220.282500", "133222.072500", "133219.487500", "133221.277500", "133219.685000", "133221.475000", "133219.885000", "133221.675000", "133220.082500", "133221.872500", "133220.482500", "133222.270000", "133220.680000", "133222.470000", "133220.880000", "133222.670000", "133221.077500", "133222.867500", "133220.282500", "133225.672500", "133223.087500", "133224.877500", "133223.285000", "133225.075000", "133223.485000", "133225.275000", "133223.682500", "133225.472500", "133224.082500", "133225.870000", "133224.280000", "133226.070000", "133224.480000", "133226.270000", "133224.677500", "133226.467500", "133223.882500", "133225.672500", "133223.087500", "133224.877500", "133223.285000", "133225.075000", "133223.485000", "133225.275000", "133223.682500", "133225.472500", "133224.082500", "133225.870000", "133224.280000", "133226.070000", "133224.480000", "133226.270000", "133224.677500", "133226.467500", "133223.882500", "133225.672500", "133223.087500", "133224.877500", "133223.285000", "133225.075000", "133223.485000", "133225.275000", "133223.682500", "133225.472500", "133224.082500", "133225.870000", "133224.280000", "133226.070000", "133224.480000", "133226.270000", "133224.677500", "133226.467500", "133223.882500", "133225.672500", "133223.087500", "133224.877500", "133223.285000", "133225.075000", "133223.485000", "133225.275000", "133223.682500", "133225.472500", "133224.082500", "133225.870000", "133224.280000", "133226.070000", "133224.480000", "133226.270000", "133224.677500", "133226.467500", "133223.882500", "133229.272500", "133226.687500", "133228.477500", "133226.885000", "133228.675000", "133227.085000", "133228.875000", "133227.282500", "133229.072500", "133227.682500", "133229.470000", "133227.880000", "133229.670000", "133228.080000", "133229.870000", "133228.277500", "133230.067500", "133227.482500", "133229.272500", "133226.687500", "133228.477500", "133226.885000", "133228.675000", "133227.085000", "133228.875000", "133227.282500", "133229.072500", "133227.682500", "133229.470000", "133227.880000", "133229.670000", "133228.080000", "133229.870000", "133228.277500", "133230.067500", "133227.482500", "133229.272500", "133226.687500", "133228.477500", "133226.885000", "133228.675000", "133227.085000", "133228.875000", "133227.282500", "133229.072500", "133227.682500", "133229.470000", "133227.880000", "133229.670000", "133228.080000", "133229.870000", "133228.277500", "133230.067500", "133227.482500", "133229.272500", "133226.687500", "133228.477500", "133226.885000", "133228.675000", "133227.085000", "133228.875000", "133227.282500", "133229.072500", "133227.682500", "133229.470000", "133227.880000", "133229.670000", "133228.080000", "133229.870000", "133228.277500", "133230.067500", "133227.482500", "133232.872500", "133230.287500", "133232.077500", "133230.485000", "133232.275000", "133230.685000", "133232.475000", "133230.882500", "133232.672500", "133231.282500", "133233.070000", "133231.480000", "133233.270000", "133231.680000", "133233.470000", "133231.877500", "133233.667500", "133231.082500", "133232.872500", "133230.287500", "133232.077500", "133230.485000", "133232.275000", "133230.685000", "133232.475000", "133230.882500", "133232.672500", "133231.282500", "133233.070000", "133231.480000", "133233.270000", "133231.680000", "133233.470000", "133231.877500", "133233.667500", "133231.082500", "133232.872500", "133230.287500", "133232.077500", "133230.485000", "133232.275000", "133230.685000", "133232.475000", "133230.882500", "133232.672500", "133231.282500", "133233.070000", "133231.480000", "133233.270000", "133231.680000", "133233.470000", "133231.877500", "133233.667500", "133231.082500", "133232.872500", "133230.287500", "133232.077500", "133230.485000", "133232.275000", "133230.685000", "133232.475000", "133230.882500", "133232.672500", "133231.282500", "133233.070000", "133231.480000", "133233.270000", "133231.680000", "133233.470000", "133231.877500", "133233.667500", "133231.082500", "133236.472500", "133233.887500", "133235.677500", "133234.085000", "133235.875000", "133234.285000", "133236.075000", "133234.482500", "133236.272500", "133234.882500", "133236.670000", "133235.080000", "133236.870000", "133235.280000", "133237.070000", "133235.477500", "133237.267500", "133234.682500", "133236.472500", "133233.887500", "133235.677500", "133234.085000", "133235.875000", "133234.285000", "133236.075000", "133234.482500", "133236.272500", "133234.882500", "133236.670000", "133235.080000", "133236.870000", "133235.280000", "133237.070000", "133235.477500", "133237.267500", "133234.682500", "133236.472500", "133233.887500", "133235.677500", "133234.085000", "133235.875000", "133234.285000", "133236.075000", "133234.482500", "133236.272500", "133234.882500", "133236.670000", "133235.080000", "133236.870000", "133235.280000", "133237.070000", "133235.477500", "133237.267500", "133234.682500", "133236.472500", "133233.887500", "133235.677500", "133234.085000", "133235.875000", "133234.285000", "133236.075000", "133234.482500", "133236.272500", "133234.882500", "133236.670000", "133235.080000", "133236.870000", "133235.280000", "133237.070000", "133235.477500", "133237.267500", "133234.682500", "133240.072500", "133237.487500", "133239.277500", "133237.685000", "133239.475000", "133237.885000", "133239.675000", "133238.082500", "133239.872500", "133238.482500", "133240.270000", "133238.680000", "133240.470000", "133238.880000", "133240.670000", "133239.077500", "133240.867500", "133238.282500", "133240.072500", "133237.487500", "133239.277500", "133237.685000", "133239.475000", "133237.885000", "133239.675000", "133238.082500", "133239.872500", "133238.482500", "133240.270000", "133238.680000", "133240.470000", "133238.880000", "133240.670000", "133239.077500", "133240.867500", "133238.282500", "133240.072500", "133237.487500", "133239.277500", "133237.685000", "133239.475000", "133237.885000", "133239.675000", "133238.082500", "133239.872500", "133238.482500", "133240.270000", "133238.680000", "133240.470000", "133238.880000", "133240.670000", "133239.077500", "133240.867500", "133238.282500", "133240.072500", "133237.487500", "133239.277500", "133237.685000", "133239.475000", "133237.885000", "133239.675000", "133238.082500", "133239.872500", "133238.482500", "133240.270000", "133238.680000", "133240.470000", "133238.880000", "133240.670000", "133239.077500", "133240.867500", "133238.282500", "133243.672500", "133241.087500", "133242.877500", "133241.285000", "133243.075000", "133241.485000", "133243.275000", "133241.682500", "133243.472500", "133242.082500", "133243.870000", "133242.280000", "133244.070000", "133242.480000", "133244.270000", "133242.677500", "133244.467500", "133241.882500", "133243.672500", "133241.087500", "133242.877500", "133241.285000", "133243.075000", "133241.485000", "133243.275000", "133241.682500", "133243.472500", "133242.082500", "133243.870000", "133242.280000", "133244.070000", "133242.480000", "133244.270000", "133242.677500", "133244.467500", "133241.882500", "133243.672500", "133241.087500", "133242.877500", "133241.285000", "133243.075000", "133241.485000", "133243.275000", "133241.682500", "133243.472500", "133242.082500", "133243.870000", "133242.280000", "133244.070000", "133242.480000", "133244.270000", "133242.677500", "133244.467500", "133241.882500", "133243.672500", "133241.087500", "133242.877500", "133241.285000", "133243.075000", "133241.485000", "133243.275000", "133241.682500", "133243.472500", "133242.082500", "133243.870000", "133242.280000", "133244.070000", "133242.480000", "133244.270000", "133242.677500", "133244.467500", "133241.882500", "133247.272500", "133244.687500", "133246.477500", "133244.885000", "133246.675000", "133245.085000", "133246.875000", "133245.282500", "133247.072500", "133245.682500", "133247.470000", "133245.880000", "133247.670000", "133246.080000", "133247.870000", "133246.277500", "133248.067500", "133245.482500", "133247.272500", "133244.687500", "133246.477500", "133244.885000", "133246.675000", "133245.085000", "133246.875000", "133245.282500", "133247.072500", "133245.682500", "133247.470000", "133245.880000", "133247.670000", "133246.080000", "133247.870000", "133246.277500", "133248.067500", "133245.482500", "133247.272500", "133244.687500", "133246.477500", "133244.885000", "133246.675000", "133245.085000", "133246.875000", "133245.282500", "133247.072500", "133245.682500", "133247.470000", "133245.880000", "133247.670000", "133246.080000", "133247.870000", "133246.277500", "133248.067500", "133245.482500", "133247.272500", "133244.687500", "133246.477500", "133244.885000", "133246.675000", "133245.085000", "133246.875000", "133245.282500", "133247.072500", "133245.682500", "133247.470000", "133245.880000", "133247.670000", "133246.080000", "133247.870000", "133246.277500", "133248.067500", "133245.482500", "133250.872500", "133248.287500", "133250.077500", "133248.485000", "133250.275000", "133248.685000", "133250.475000", "133248.882500", "133250.672500", "133249.282500", "133251.070000", "133249.480000", "133251.270000", "133249.680000", "133251.470000", "133249.877500", "133251.667500", "133249.082500", "133250.872500", "133248.287500", "133250.077500", "133248.485000", "133250.275000", "133248.685000", "133250.475000", "133248.882500", "133250.672500", "133249.282500", "133251.070000", "133249.480000", "133251.270000", "133249.680000", "133251.470000", "133249.877500", "133251.667500", "133249.082500", "133250.872500", "133248.287500", "133250.077500", "133248.485000", "133250.275000", "133248.685000", "133250.475000", "133248.882500", "133250.672500", "133249.282500", "133251.070000", "133249.480000", "133251.270000", "133249.680000", "133251.470000", "133249.877500", "133251.667500", "133249.082500", "133250.872500", "133248.287500", "133250.077500", "133248.485000", "133250.275000", "133248.685000", "133250.475000", "133248.882500", "133250.672500", "133249.282500", "133251.070000", "133249.480000", "133251.270000", "133249.680000", "133251.470000", "133249.877500", "133251.667500", "133249.082500", "133254.472500", "133251.887500", "133253.677500", "133252.085000", "133253.875000", "133252.285000", "133254.075000", "133252.482500", "133254.272500", "133252.882500", "133254.670000", "133253.080000", "133254.870000", "133253.280000", "133255.070000", "133253.477500", "133255.267500", "133252.682500", "133254.472500", "133251.887500", "133253.677500", "133252.085000", "133253.875000", "133252.285000", "133254.075000", "133252.482500", "133254.272500", "133252.882500", "133254.670000", "133253.080000", "133254.870000", "133253.280000", "133255.070000", "133253.477500", "133255.267500", "133252.682500", "133254.472500", "133251.887500", "133253.677500", "133252.085000", "133253.875000", "133252.285000", "133254.075000", "133252.482500", "133254.272500", "133252.882500", "133254.670000", "133253.080000", "133254.870000", "133253.280000", "133255.070000", "133253.477500", "133255.267500", "133252.682500", "133254.472500", "133251.887500", "133253.677500", "133252.085000", "133253.875000", "133252.285000", "133254.075000", "133252.482500", "133254.272500", "133252.882500", "133254.670000", "133253.080000", "133254.870000", "133253.280000", "133255.070000", "133253.477500", "133255.267500", "133252.682500", "133258.072500", "133255.487500", "133257.277500", "133255.685000", "133257.475000", "133255.885000", "133257.675000", "133256.082500", "133257.872500", "133256.482500", "133258.270000", "133256.680000", "133258.470000", "133256.880000", "133258.670000", "133257.077500", "133258.867500", "133256.282500", "133258.072500", "133255.487500", "133257.277500", "133255.685000", "133257.475000", "133255.885000", "133257.675000", "133256.082500", "133257.872500", "133256.482500", "133258.270000", "133256.680000", "133258.470000", "133256.880000", "133258.670000", "133257.077500", "133258.867500", "133256.282500", "133258.072500", "133255.487500", "133257.277500", "133255.685000", "133257.475000", "133255.885000", "133257.675000", "133256.082500", "133257.872500", "133256.482500", "133258.270000", "133256.680000", "133258.470000", "133256.880000", "133258.670000", "133257.077500", "133258.867500", "133256.282500", "133258.072500", "133255.487500", "133257.277500", "133255.685000", "133257.475000", "133255.885000", "133257.675000", "133256.082500", "133257.872500", "133256.482500", "133258.270000", "133256.680000", "133258.470000", "133256.880000", "133258.670000", "133257.077500", "133258.867500", "133256.282500", "133301.672500", "133259.087500", "133300.877500", "133259.285000", "133301.075000", "133259.485000", "133301.275000", "133259.682500", "133301.472500", "133300.082500", "133301.870000", "133300.280000", "133302.070000", "133300.480000", "133302.270000", "133300.677500", "133302.467500", "133259.882500", "133301.672500", "133259.087500", "133300.877500", "133259.285000", "133301.075000", "133259.485000", "133301.275000", "133259.682500", "133301.472500", "133300.082500", "133301.870000", "133300.280000", "133302.070000", "133300.480000", "133302.270000", "133300.677500", "133302.467500", "133259.882500", "133301.672500", "133259.087500", "133300.877500", "133259.285000", "133301.075000", "133259.485000", "133301.275000", "133259.682500", "133301.472500", "133300.082500", "133301.870000", "133300.280000", "133302.070000", "133300.480000", "133302.270000", "133300.677500", "133302.467500", "133259.882500", "133301.672500", "133259.087500", "133300.877500", "133259.285000", "133301.075000", "133259.485000", "133301.275000", "133259.682500", "133301.472500", "133300.082500", "133301.870000", "133300.280000", "133302.070000", "133300.480000", "133302.270000", "133300.677500", "133302.467500", "133259.882500", "133305.272500", "133302.687500", "133304.477500", "133302.885000", "133304.675000", "133303.085000", "133304.875000", "133303.282500", "133305.072500", "133303.682500", "133305.470000", "133303.880000", "133305.670000", "133304.080000", "133305.870000", "133304.277500", "133306.067500", "133303.482500", "133305.272500", "133302.687500", "133304.477500", "133302.885000", "133304.675000", "133303.085000", "133304.875000", "133303.282500", "133305.072500", "133303.682500", "133305.470000", "133303.880000", "133305.670000", "133304.080000", "133305.870000", "133304.277500", "133306.067500", "133303.482500", "133305.272500", "133302.687500", "133304.477500", "133302.885000", "133304.675000", "133303.085000", "133304.875000", "133303.282500", "133305.072500", "133303.682500", "133305.470000", "133303.880000", "133305.670000", "133304.080000", "133305.870000", "133304.277500", "133306.067500", "133303.482500", "133305.272500", "133302.687500", "133304.477500", "133302.885000", "133304.675000", "133303.085000", "133304.875000", "133303.282500", "133305.072500", "133303.682500", "133305.470000", "133303.880000", "133305.670000", "133304.080000", "133305.870000", "133304.277500", "133306.067500", "133303.482500", "133308.872500", "133306.287500", "133308.077500", "133306.485000", "133308.275000", "133306.685000", "133308.475000", "133306.882500", "133308.672500", "133307.282500", "133309.070000", "133307.480000", "133309.270000", "133307.680000", "133309.470000", "133307.877500", "133309.667500", "133307.082500", "133308.872500", "133306.287500", "133308.077500", "133306.485000", "133308.275000", "133306.685000", "133308.475000", "133306.882500", "133308.672500", "133307.282500", "133309.070000", "133307.480000", "133309.270000", "133307.680000", "133309.470000", "133307.877500", "133309.667500", "133307.082500", "133308.872500", "133306.287500", "133308.077500", "133306.485000", "133308.275000", "133306.685000", "133308.475000", "133306.882500", "133308.672500", "133307.282500", "133309.070000", "133307.480000", "133309.270000", "133307.680000", "133309.470000", "133307.877500", "133309.667500", "133307.082500", "133308.872500", "133306.287500", "133308.077500", "133306.485000", "133308.275000", "133306.685000", "133308.475000", "133306.882500", "133308.672500", "133307.282500", "133309.070000", "133307.480000", "133309.27