{
  "AcquisitionMatrixPE": 80,
  "AcquisitionNumber": 1,
  "AcquisitionTime": "10:16:40.507500",
  "BandwidthPerPixelPhaseEncode": 25,
  "BaseResolution": 80,
  "BodyPartExamined": "BRAIN",
  "CoilCombinationMethod": "Sum of Squares",
  "ConsistencyInfo": "N4_VE11E_LATEST_20181129",
  "ConversionSoftware": "dcm2niix",
  "ConversionSoftwareVersion": "v1.0.20220720",
  "DerivedVendorReportedEchoSpacing": 0.0005,
  "DeviceSerialNumber": "66112",
  "DwellTime": 2.7e-06,
  "EchoTime": 0.03,
  "EchoTrainLength": 80,
  "EffectiveEchoSpacing": 0.0005,
  "FlipAngle": 77,
  "HeudiconvVersion": "0.13.1",
  "ImageOrientationPatientDICOM": [0.991337, -0.131322, 0.00229443, 0.123653, 0.939048, 0.320777],
  "ImageOrientationText": "Tra>Cor(18.5)>Sag(2.5)",
  "ImageType": [
    "ORIGINAL",
    "PRIMARY",
    "M",
    "ND",
    "NORM",
    "MOSAIC"
],
  "ImagingFrequency": 123.259,
  "InPlanePhaseEncodingDirectionDICOM": "COL",
  "InstitutionAddress": "Maynard 3,Hanover,NH,US,03755",
  "InstitutionName": "Dartmouth College - PBS",
  "InstitutionalDepartmentName": "Department",
  "MRAcquisitionType": "2D",
  "MagneticFieldStrength": 3,
  "Manufacturer": "Siemens",
  "ManufacturersModelName": "Prisma",
  "MatrixCoilMode": "SENSE",
  "Modality": "MR",
  "NonlinearGradientCorrection": false,
  "PartialFourier": 1,
  "PatientPosition": "HFS",
  "PercentPhaseFOV": 100,
  "PercentSampling": 100,
  "PhaseEncodingDirection": "j-",
  "PhaseEncodingSteps": 80,
  "PhaseResolution": 1,
  "PixelBandwidth": 2315,
  "ProcedureStepDescription": "dbic^QA",
  "ProtocolName": "func-bold_fa-77",
  "PulseSequenceDetails": "%SiemensSeq%\\ep2d_bold",
  "ReceiveCoilActiveElements": "HC1-7;NC1,2",
  "ReceiveCoilName": "HeadNeck_64",
  "ReconMatrixPE": 80,
  "RepetitionTime": 2,
  "SAR": 0.0284277,
  "ScanOptions": "FS",
  "ScanningSequence": "EP",
  "SequenceName": "*epfid2d1_80",
  "SequenceVariant": "SK",
  "SeriesDescription": "func-bold_fa-77",
  "SeriesNumber": 7,
  "ShimSetting": [4216, -7731, -7483, -160, -153, -122, -100, 91],
  "SliceThickness": 3.5,
  "SliceTiming": [0.99, 0, 1.055, 0.065, 1.12, 0.13, 1.1875, 0.1975, 1.2525, 0.2625, 1.32, 0.33, 1.385, 0.395, 1.45, 0.46, 1.5175, 0.5275, 1.5825, 0.5925, 1.65, 0.66, 1.715, 0.725, 1.78, 0.79, 1.8475, 0.8575, 1.9125, 0.9225],
  "SoftwareVersions": "syngo MR E11",
  "SpacingBetweenSlices": 3.99,
  "StationName": "AWP66112",
  "TotalReadoutTime": 0.0395,
  "TxRefAmp": 214.594,
  "dcmmeta_affine": [
    [-2.974011182785034, 0.37095963954925537, 0.17667639255523682, 103.98002624511719],
    [0.3939669728279114, 2.8171451091766357, 1.26768159866333, -118.4488525390625],
    [0.006883291527628899, -0.9623317718505859, 3.7791359424591064, -28.40380096435547],
    [0.0, 0.0, 0.0, 1.0]
],
  "dcmmeta_reorient_transform": [
    [0.0, -1.0, 0.0, 79.0],
    [1.0, 0.0, 0.0, 0.0],
    [0.0, 0.0, 1.0, 0.0],
    [0.0, 0.0, 0.0, 1.0]
],
  "dcmmeta_shape": [80, 80, 30, 200],
  "dcmmeta_slice_dim": 2,
  "dcmmeta_version": 0.6,
  "global": {
    "const": {
      "AccessionNumber": "qa64",
      "AcquisitionMatrix": [80, 0, 0, 80],
      "AngioFlag": "N",
      "BitsAllocated": 16,
      "BitsStored": 12,
      "BodyPartExamined": "BRAIN",
      "Columns": 480,
      "EchoNumbers": 1,
      "EchoTime": 30.0,
      "EchoTrainLength": 80,
      "FlipAngle": 77.0,
      "HighBit": 11,
      "ImageOrientationPatient": [0.99133706810373, -0.1313223248041, 0.00229443055419, 0.12365321240993, 0.93904836359332, 0.32077726523776],
      "ImagePositionPatient": [-802.28000303127, -588.74123379863, -298.27102953954],
      "ImageType": [
        "ORIGINAL",
        "PRIMARY",
        "M",
        "ND",
        "NORM",
        "MOSAIC"
],
      "ImagedNucleus": "1H",
      "ImagingFrequency": 123.259272,
      "InPlanePhaseEncodingDirection": "COL",
      "MRAcquisitionType": "2D",
      "MagneticFieldStrength": 3.0,
      "Manufacturer": "SIEMENS",
      "ManufacturerModelName": "Prisma",
      "Modality": "MR",
      "NumberOfAverages": 1.0,
      "NumberOfPhaseEncodingSteps": 80,
      "PercentPhaseFieldOfView": 100.0,
      "PercentSampling": 100.0,
      "PerformedProcedureStepStartTime": "100305.315000",
      "PhotometricInterpretation": "MONOCHROME2",
      "PixelBandwidth": 2315.0,
      "PixelRepresentation": 0,
      "PixelSpacing": [3.0, 3.0],
      "ProtocolName": "func-bold_fa-77",
      "RepetitionTime": 2000.0,
      "Rows": 480,
      "SAR": 0.02842772475196,
      "SamplesPerPixel": 1,
      "ScanOptions": "FS",
      "ScanningSequence": "EP",
      "SequenceName": "*epfid2d1_80",
      "SequenceVariant": "SK",
      "SeriesDescription": "func-bold_fa-77",
      "SeriesNumber": 7,
      "SeriesTime": "101738.837000",
      "SliceLocation": -59.93143734205,
      "SliceThickness": 3.5,
      "SmallestImagePixelValue": 0,
      "SoftwareVersions": "syngo MR E11",
      "SpacingBetweenSlices": 3.9899999876855,
      "SpecificCharacterSet": "ISO_IR 100",
      "StudyID": "6",
      "StudyTime": "100305.207000",
      "TransmitCoilName": "Body",
      "VariableFlipAngleFlag": "N",
      "WindowCenterWidthExplanation": "Algo1"
    },
    "slices": {}
  },
  "time": {
    "samples": {
      "AcquisitionNumber": [1, 2, 3, 4, 5, 6, 7, 8, 9, 10, 11, 12, 13, 14, 15, 16, 17, 18, 19, 20, 21, 22, 23, 24, 25, 26, 27, 28, 29, 30, 31, 32, 33, 34, 35, 36, 37, 38, 39, 40, 41, 42, 43, 44, 45, 46, 47, 48, 49, 50, 51, 52, 53, 54, 55, 56, 57, 58, 59, 60, 61, 62, 63, 64, 65, 66, 67, 68, 69, 70, 71, 72, 73, 74, 75, 76, 77, 78, 79, 80, 81, 82, 83, 84, 85, 86, 87, 88, 89, 90, 91, 92, 93, 94, 95, 96, 97, 98, 99, 100, 101, 102, 103, 104, 105, 106, 107, 108, 109, 110, 111, 112, 113, 114, 115, 116, 117, 118, 119, 120, 121, 122, 123, 124, 125, 126, 127, 128, 129, 130, 131, 132, 133, 134, 135, 136, 137, 138, 139, 140, 141, 142, 143, 144, 145, 146, 147, 148, 149, 150, 151, 152, 153, 154, 155, 156, 157, 158, 159, 160, 161, 162, 163, 164, 165, 166, 167, 168, 169, 170, 171, 172, 173, 174, 175, 176, 177, 178, 179, 180, 181, 182, 183, 184, 185, 186, 187, 188, 189, 190, 191, 192, 193, 194, 195, 196, 197, 198, 199, 200],
      "AcquisitionTime": ["101640.507500", "101642.507500", "101644.507500", "101646.507500", "101648.507500", "101650.507500", "101652.507500", "101654.507500", "101656.507500", "101658.507500", "101700.507500", "101702.507500", "101704.507500", "101706.507500", "101708.507500", "101710.507500", "101712.507500", "101714.507500", "101716.507500", "101718.507500", "101720.507500", "101722.507500", "101724.507500", "101726.507500", "101728.507500", "101730.507500", "101732.507500", "101734.507500", "101736.507500", "101738.507500", "101740.507500", "101742.507500", "101744.507500", "101746.507500", "101748.507500", "101750.507500", "101752.507500", "101754.507500", "101756.507500", "101758.507500", "101800.507500", "101802.507500", "101804.507500", "101806.507500", "101808.507500", "101810.507500", "101812.507500", "101814.507500", "101816.507500", "101818.507500", "101820.507500", "101822.507500", "101824.507500", "101826.507500", "101828.507500", "101830.507500", "101832.507500", "101834.507500", "101836.507500", "101838.507500", "101840.507500", "101842.507500", "101844.507500", "101846.507500", "101848.507500", "101850.507500", "101852.507500", "101854.507500", "101856.507500", "101858.507500", "101900.507500", "101902.507500", "101904.507500", "101906.507500", "101908.507500", "101910.507500", "101912.507500", "101914.507500", "101916.507500", "101918.507500", "101920.507500", "101922.507500", "101924.507500", "101926.507500", "101928.507500", "101930.507500", "101932.507500", "101934.507500", "101936.507500", "101938.507500", "101940.507500", "101942.507500", "101944.507500", "101946.507500", "101948.507500", "101950.507500", "101952.507500", "101954.507500", "101956.507500", "101958.507500", "102000.507500", "102002.507500", "102004.507500", "102006.507500", "102008.507500", "102010.507500", "102012.507500", "102014.507500", "102016.507500", "102018.507500", "102020.507500", "102022.507500", "102024.507500", "102026.507500", "102028.507500", "102030.507500", "102032.507500", "102034.507500", "102036.507500", "102038.507500", "102040.507500", "102042.507500", "102044.507500", "102046.507500", "102048.507500", "102050.507500", "102052.507500", "102054.507500", "102056.507500", "102058.507500", "102100.507500", "102102.507500", "102104.507500", "102106.507500", "102108.507500", "102110.507500", "102112.507500", "102114.507500", "102116.507500", "102118.507500", "102120.507500", "102122.507500", "102124.507500", "102126.507500", "102128.507500", "102130.507500", "102132.507500", "102134.507500", "102136.507500", "102138.507500", "102140.507500", "102142.507500", "102144.507500", "102146.507500", "102148.507500", "102150.507500", "102152.507500", "102154.507500", "102156.507500", "102158.507500", "102200.507500", "102202.507500", "102204.507500", "102206.507500", "102208.507500", "102210.507500", "102212.507500", "102214.507500", "102216.507500", "102218.507500", "102220.507500", "102222.507500", "102224.507500", "102226.507500", "102228.507500", "102230.507500", "102232.507500", "102234.507500", "102236.507500", "102238.507500", "102240.507500", "102242.507500", "102244.507500", "102246.507500", "102248.507500", "102250.507500", "102252.507500", "102254.507500", "102256.507500", "102258.507500", "102300.507500", "102302.507500", "102304.507500", "102306.507500", "102308.507500", "102310.507500", "102312.507500", "102314.507500", "102316.507500", "102318.507500"],
      "ContentTime": ["101738.840000", "101738.843000", "101738.846000", "101738.848000", "101738.850000", "101738.853000", "101738.855000", "101738.857000", "101738.860000", "101738.862000", "101738.864000", "101738.867000", "101738.869000", "101738.871000", "101738.874000", "101738.876000", "101738.878000", "101738.881000", "101738.883000", "101738.885000", "101738.887000", "101738.890000", "101738.892000", "101738.895000", "101738.897000", "101738.907000", "101738.909000", "101738.911000", "101738.913000", "101818.835000", "101818.838000", "101818.840000", "101818.843000", "101818.845000", "101818.847000", "101818.849000", "101818.852000", "101818.854000", "101818.856000", "101818.859000", "101818.861000", "101818.863000", "101818.866000", "101818.868000", "101818.870000", "101818.873000", "101818.875000", "101818.877000", "101818.885000", "101858.835000", "101858.838000", "101858.840000", "101858.842000", "101858.845000", "101858.847000", "101858.849000", "101858.852000", "101858.854000", "101858.856000", "101858.859000", "101858.861000", "101858.863000", "101858.866000", "101858.868000", "101858.870000", "101858.873000", "101858.875000", "101858.877000", "101858.880000", "101938.835000", "101938.838000", "101938.840000", "101938.842000", "101938.845000", "101938.847000", "101938.849000", "101938.852000", "101938.854000", "101938.856000", "101938.859000", "101938.861000", "101938.863000", "101938.866000", "101938.868000", "101938.870000", "101938.873000", "101938.881000", "101938.883000", "101938.886000", "102018.836000", "102018.839000", "102018.841000", "102018.843000", "102018.846000", "102018.848000", "102018.850000", "102018.853000", "102018.855000", "102018.857000", "102018.860000", "102018.862000", "102018.864000", "102018.867000", "102018.869000", "102018.871000", "102018.874000", "102018.876000", "102018.878000", "102018.881000", "102058.835000", "102058.838000", "102058.840000", "102058.843000", "102058.845000", "102058.848000", "102058.850000", "102058.852000", "102058.855000", "102058.857000", "102058.859000", "102058.861000", "102058.864000", "102058.866000", "102058.868000", "102058.881000", "102058.883000", "102058.885000", "102058.888000", "102058.890000", "102138.835000", "102138.838000", "102138.840000", "102138.842000", "102138.845000", "102138.847000", "102138.849000", "102138.852000", "102138.854000", "102138.856000", "102138.859000", "102138.861000", "102138.863000", "102138.866000", "102138.868000", "102138.870000", "102138.873000", "102138.875000", "102138.878000", "102138.880000", "102218.835000", "102218.838000", "102218.840000", "102218.842000", "102218.845000", "102218.847000", "102218.849000", "102218.852000", "102218.854000", "102218.856000", "102218.859000", "102218.861000", "102218.863000", "102218.866000", "102218.868000", "102218.870000", "102218.873000", "102218.875000", "102218.877000", "102218.880000", "102258.835000", "102258.838000", "102258.840000", "102258.842000", "102258.845000", "102258.847000", "102258.849000", "102258.852000", "102258.854000", "102258.856000", "102258.859000", "102258.861000", "102258.863000", "102258.866000", "102258.868000", "102258.870000", "102258.873000", "102258.875000", "102258.878000", "102258.880000", "102319.991000", "102319.994000", "102319.996000", "102319.998000", "102320.002000", "102320.005000", "102320.007000", "102320.009000", "102320.012000", "102320.014000", "102320.017000"],
      "InstanceCreationTime": ["101738.840000", "101738.843000", "101738.846000", "101738.848000", "101738.850000", "101738.853000", "101738.855000", "101738.857000", "101738.860000", "101738.862000", "101738.864000", "101738.867000", "101738.869000", "101738.871000", "101738.874000", "101738.876000", "101738.878000", "101738.881000", "101738.883000", "101738.885000", "101738.887000", "101738.890000", "101738.892000", "101738.895000", "101738.897000", "101738.907000", "101738.909000", "101738.911000", "101738.913000", "101818.835000", "101818.838000", "101818.840000", "101818.843000", "101818.845000", "101818.847000", "101818.849000", "101818.852000", "101818.854000", "101818.856000", "101818.859000", "101818.861000", "101818.863000", "101818.866000", "101818.868000", "101818.870000", "101818.873000", "101818.875000", "101818.877000", "101818.885000", "101858.835000", "101858.838000", "101858.840000", "101858.842000", "101858.845000", "101858.847000", "101858.849000", "101858.852000", "101858.854000", "101858.856000", "101858.859000", "101858.861000", "101858.863000", "101858.866000", "101858.868000", "101858.870000", "101858.873000", "101858.875000", "101858.877000", "101858.880000", "101938.835000", "101938.838000", "101938.840000", "101938.842000", "101938.845000", "101938.847000", "101938.849000", "101938.852000", "101938.854000", "101938.856000", "101938.859000", "101938.861000", "101938.863000", "101938.866000", "101938.868000", "101938.870000", "101938.873000", "101938.881000", "101938.883000", "101938.886000", "102018.836000", "102018.839000", "102018.841000", "102018.843000", "102018.846000", "102018.848000", "102018.850000", "102018.853000", "102018.855000", "102018.857000", "102018.860000", "102018.862000", "102018.864000", "102018.867000", "102018.869000", "102018.871000", "102018.874000", "102018.876000", "102018.878000", "102018.881000", "102058.835000", "102058.838000", "102058.840000", "102058.843000", "102058.845000", "102058.848000", "102058.850000", "102058.852000", "102058.855000", "102058.857000", "102058.859000", "102058.861000", "102058.864000", "102058.866000", "102058.868000", "102058.881000", "102058.883000", "102058.885000", "102058.888000", "102058.890000", "102138.835000", "102138.838000", "102138.840000", "102138.842000", "102138.845000", "102138.847000", "102138.849000", "102138.852000", "102138.854000", "102138.856000", "102138.859000", "102138.861000", "102138.863000", "102138.866000", "102138.868000", "102138.870000", "102138.873000", "102138.875000", "102138.878000", "102138.880000", "102218.835000", "102218.838000", "102218.840000", "102218.842000", "102218.845000", "102218.847000", "102218.849000", "102218.852000", "102218.854000", "102218.856000", "102218.859000", "102218.861000", "102218.863000", "102218.866000", "102218.868000", "102218.870000", "102218.873000", "102218.875000", "102218.877000", "102218.880000", "102258.835000", "102258.838000", "102258.840000", "102258.842000", "102258.845000", "102258.847000", "102258.849000", "102258.852000", "102258.854000", "102258.856000", "102258.859000", "102258.861000", "102258.863000", "102258.866000", "102258.868000", "102258.870000", "102258.873000", "102258.875000", "102258.878000", "102258.880000", "102319.991000", "102319.994000", "102319.996000", "102319.998000", "102320.002000", "102320.005000", "102320.007000", "102320.009000", "102320.012000", "102320.014000", "102320.017000"],
      "InstanceNumber": [1, 2, 3, 4, 5, 6, 7, 8, 9, 10, 11, 12, 13, 14, 15, 16, 17, 18, 19, 20, 21, 22, 23, 24, 25, 26, 27, 28, 29, 30, 31, 32, 33, 34, 35, 36, 37, 38, 39, 40, 41, 42, 43, 44, 45, 46, 47, 48, 49, 50, 51, 52, 53, 54, 55, 56, 57, 58, 59, 60, 61, 62, 63, 64, 65, 66, 67, 68, 69, 70, 71, 72, 73, 74, 75, 76, 77, 78, 79, 80, 81, 82, 83, 84, 85, 86, 87, 88, 89, 90, 91, 92, 93, 94, 95, 96, 97, 98, 99, 100, 101, 102, 103, 104, 105, 106, 107, 108, 109, 110, 111, 112, 113, 114, 115, 116, 117, 118, 119, 120, 121, 122, 123, 124, 125, 126, 127, 128, 129, 130, 131, 132, 133, 134, 135, 136, 137, 138, 139, 140, 141, 142, 143, 144, 145, 146, 147, 148, 149, 150, 151, 152, 153, 154, 155, 156, 157, 158, 159, 160, 161, 162, 163, 164, 165, 166, 167, 168, 169, 170, 171, 172, 173, 174, 175, 176, 177, 178, 179, 180, 181, 182, 183, 184, 185, 186, 187, 188, 189, 190, 191, 192, 193, 194, 195, 196, 197, 198, 199, 200],
      "LargestImagePixelValue": [3631, 3625, 3622, 3621, 3621, 3624, 3627, 3631, 3632, 3627, 3624, 3627, 3634, 3632, 3628, 3628, 3625, 3626, 3628, 3628, 3626, 3630, 3625, 3629, 3627, 3629, 3632, 3623, 3628, 3629, 3632, 3629, 3630, 3627, 3626, 3628, 3626, 3625, 3625, 3631, 3631, 3632, 3632, 3623, 3623, 3624, 3631, 3635, 3635, 3631, 3623, 3626, 3620, 3622, 3626, 3625, 3625, 3626, 3626, 3624, 3626, 3625, 3622, 3627, 3623, 3626, 3629, 3633, 3631, 3629, 3637, 3634, 3633, 3625, 3629, 3627, 3630, 3627, 3629, 3624, 3622, 3624, 3626, 3631, 3635, 3635, 3630, 3624, 3627, 3625, 3628, 3626, 3624, 3627, 3629, 3631, 3625, 3627, 3626, 3629, 3622, 3624, 3626, 3624, 3628, 3623, 3623, 3622, 3624, 3623, 3623, 3639, 3640, 3633, 3632, 3636, 3628, 3623, 3624, 3621, 3628, 3624, 3627, 3625, 3624, 3621, 3623, 3644, 3647, 3639, 3636, 3633, 3629, 3630, 3633, 3635, 3635, 3631, 3626, 3629, 3632, 3632, 3636, 3633, 3621, 3619, 3620, 3630, 3631, 3629, 3627, 3623, 3631, 3628, 3626, 3628, 3629, 3634, 3631, 3626, 3629, 3626, 3629, 3630, 3624, 3620, 3622, 3625, 3626, 3630, 3631, 3630, 3624, 3625, 3626, 3627, 3624, 3635, 3636, 3635, 3630, 3622, 3623, 3621, 3622, 3624, 3624, 3627, 3630, 3625, 3626, 3622, 3621, 3621, 3628, 3632, 3630, 3628, 3627, 3629],
      "WindowCenter": [1330.0, 1330.0, 1330.0, 1331.0, 1330.0, 1331.0, 1330.0, 1331.0, 1330.0, 1330.0, 1330.0, 1330.0, 1331.0, 1330.0, 1330.0, 1329.0, 1330.0, 1330.0, 1330.0, 1330.0, 1330.0, 1330.0, 1330.0, 1330.0, 1330.0, 1330.0, 1330.0, 1330.0, 1330.0, 1330.0, 1330.0, 1330.0, 1330.0, 1329.0, 1330.0, 1330.0, 1330.0, 1329.0, 1330.0, 1330.0, 1329.0, 1330.0, 1330.0, 1330.0, 1330.0, 1330.0, 1329.0, 1330.0, 1329.0, 1329.0, 1330.0, 1329.0, 1329.0, 1330.0, 1330.0, 1330.0, 1330.0, 1330.0, 1330.0, 1330.0, 1330.0, 1329.0, 1329.0, 1329.0, 1329.0, 1329.0, 1329.0, 1329.0, 1329.0, 1329.0, 1328.0, 1329.0, 1329.0, 1329.0, 1329.0, 1329.0, 1329.0, 1329.0, 1329.0, 1329.0, 1329.0, 1329.0, 1329.0, 1329.0, 1329.0, 1328.0, 1328.0, 1328.0, 1329.0, 1328.0, 1329.0, 1329.0, 1329.0, 1329.0, 1329.0, 1329.0, 1328.0, 1329.0, 1328.0, 1329.0, 1328.0, 1329.0, 1329.0, 1329.0, 1328.0, 1328.0, 1328.0, 1328.0, 1328.0, 1328.0, 1328.0, 1328.0, 1328.0, 1328.0, 1328.0, 1328.0, 1328.0, 1328.0, 1328.0, 1328.0, 1328.0, 1328.0, 1328.0, 1328.0, 1328.0, 1328.0, 1328.0, 1328.0, 1328.0, 1328.0, 1328.0, 1328.0, 1328.0, 1328.0, 1327.0, 1327.0, 1327.0, 1328.0, 1328.0, 1328.0, 1328.0, 1328.0, 1328.0, 1327.0, 1328.0, 1328.0, 1327.0, 1328.0, 1327.0, 1328.0, 1328.0, 1328.0, 1328.0, 1328.0, 1328.0, 1328.0, 1328.0, 1327.0, 1327.0, 1328.0, 1328.0, 1328.0, 1327.0, 1328.0, 1327.0, 1328.0, 1328.0, 1328.0, 1328.0, 1327.0, 1327.0, 1328.0, 1327.0, 1327.0, 1327.0, 1327.0, 1327.0, 1327.0, 1327.0, 1327.0, 1327.0, 1327.0, 1328.0, 1327.0, 1327.0, 1327.0, 1327.0, 1327.0, 1328.0, 1327.0, 1327.0, 1327.0, 1327.0, 1327.0, 1327.0, 1327.0, 1327.0, 1327.0, 1327.0, 1327.0],
      "WindowWidth": [3201.0, 3201.0, 3201.0, 3200.0, 3201.0, 3200.0, 3201.0, 3201.0, 3201.0, 3201.0, 3201.0, 3201.0, 3200.0, 3201.0, 3201.0, 3201.0, 3201.0, 3201.0, 3201.0, 3201.0, 3201.0, 3201.0, 3201.0, 3200.0, 3201.0, 3201.0, 3201.0, 3201.0, 3201.0, 3200.0, 3201.0, 3201.0, 3200.0, 3200.0, 3200.0, 3201.0, 3200.0, 3200.0, 3201.0, 3201.0, 3200.0, 3200.0, 3200.0, 3200.0, 3200.0, 3200.0, 3200.0, 3200.0, 3200.0, 3200.0, 3200.0, 3200.0, 3200.0, 3200.0, 3200.0, 3200.0, 3200.0, 3200.0, 3200.0, 3200.0, 3200.0, 3200.0, 3200.0, 3200.0, 3200.0, 3200.0, 3200.0, 3200.0, 3200.0, 3200.0, 3200.0, 3200.0, 3200.0, 3200.0, 3200.0, 3200.0, 3200.0, 3200.0, 3200.0, 3200.0, 3199.0, 3200.0, 3200.0, 3200.0, 3199.0, 3199.0, 3199.0, 3199.0, 3199.0, 3199.0, 3199.0, 3200.0, 3199.0, 3199.0, 3199.0, 3199.0, 3199.0, 3199.0, 3199.0, 3199.0, 3199.0, 3199.0, 3199.0, 3199.0, 3199.0, 3199.0, 3199.0, 3199.0, 3199.0, 3199.0, 3199.0, 3199.0, 3199.0, 3199.0, 3199.0, 3199.0, 3199.0, 3199.0, 3199.0, 3199.0, 3199.0, 3199.0, 3199.0, 3199.0, 3198.0, 3199.0, 3199.0, 3199.0, 3199.0, 3199.0, 3199.0, 3199.0, 3199.0, 3199.0, 3198.0, 3198.0, 3198.0, 3198.0, 3198.0, 3198.0, 3199.0, 3199.0, 3199.0, 3199.0, 3199.0, 3198.0, 3198.0, 3198.0, 3198.0, 3197.0, 3198.0, 3198.0, 3198.0, 3198.0, 3198.0, 3198.0, 3198.0, 3198.0, 3198.0, 3198.0, 3198.0, 3198.0, 3198.0, 3198.0, 3198.0, 3198.0, 3198.0, 3198.0, 3198.0, 3198.0, 3198.0, 3197.0, 3198.0, 3198.0, 3198.0, 3198.0, 3198.0, 3198.0, 3198.0, 3198.0, 3198.0, 3198.0, 3197.0, 3198.0, 3198.0, 3198.0, 3198.0, 3197.0, 3197.0, 3197.0, 3197.0, 3197.0, 3197.0, 3197.0, 3197.0, 3197.0, 3197.0, 3197.0, 3197.0, 3197.0]
    },
    "slices": {}
  }
}