{
  "AcquisitionMatrixPE": 80,
  "AcquisitionNumber": 1,
  "AcquisitionTime": "10:23:27.485000",
  "BandwidthPerPixelPhaseEncode": 25,
  "BaseResolution": 80,
  "BodyPartExamined": "BRAIN",
  "CoilCombinationMethod": "Sum of Squares",
  "ConsistencyInfo": "N4_VE11E_LATEST_20181129",
  "ConversionSoftware": "dcm2niix",
  "ConversionSoftwareVersion": "v1.0.20220720",
  "DerivedVendorReportedEchoSpacing": 0.0005,
  "DeviceSerialNumber": "66112",
  "DwellTime": 2.7e-06,
  "EchoTime": 0.03,
  "EchoTrainLength": 80,
  "EffectiveEchoSpacing": 0.0005,
  "FlipAngle": 10,
  "HeudiconvVersion": "0.13.1",
  "ImageOrientationPatientDICOM": [0.991337, -0.131322, 0.00229443, 0.123653, 0.939048, 0.320777],
  "ImageOrientationText": "Tra>Cor(18.5)>Sag(2.5)",
  "ImageType": [
    "ORIGINAL",
    "PRIMARY",
    "M",
    "ND",
    "NORM",
    "MOSAIC"
],
  "ImagingFrequency": 123.259,
  "InPlanePhaseEncodingDirectionDICOM": "COL",
  "InstitutionAddress": "Maynard 3,Hanover,NH,US,03755",
  "InstitutionName": "Dartmouth College - PBS",
  "InstitutionalDepartmentName": "Department",
  "MRAcquisitionType": "2D",
  "MagneticFieldStrength": 3,
  "Manufacturer": "Siemens",
  "ManufacturersModelName": "Prisma",
  "MatrixCoilMode": "SENSE",
  "Modality": "MR",
  "NonlinearGradientCorrection": false,
  "PartialFourier": 1,
  "PatientPosition": "HFS",
  "PercentPhaseFOV": 100,
  "PercentSampling": 100,
  "PhaseEncodingDirection": "j-",
  "PhaseEncodingSteps": 80,
  "PhaseResolution": 1,
  "PixelBandwidth": 2315,
  "ProcedureStepDescription": "dbic^QA",
  "ProtocolName": "func-bold_fa-10",
  "PulseSequenceDetails": "%SiemensSeq%\\ep2d_bold",
  "ReceiveCoilActiveElements": "HC1-7;NC1,2",
  "ReceiveCoilName": "HeadNeck_64",
  "ReconMatrixPE": 80,
  "RepetitionTime": 2,
  "SAR": 0.00762571,
  "ScanOptions": "FS",
  "ScanningSequence": "EP",
  "SequenceName": "*epfid2d1_80",
  "SequenceVariant": "SK",
  "SeriesDescription": "func-bold_fa-10",
  "SeriesNumber": 9,
  "ShimSetting": [4216, -7731, -7483, -160, -153, -122, -100, 91],
  "SliceThickness": 3.5,
  "SliceTiming": [0.99, 0, 1.0575, 0.0675, 1.1225, 0.1325, 1.19, 0.2, 1.255, 0.265, 1.32, 0.33, 1.3875, 0.3975, 1.4525, 0.4625, 1.52, 0.53, 1.585, 0.595, 1.65, 0.66, 1.7175, 0.7275, 1.7825, 0.7925, 1.85, 0.86, 1.915, 0.925],
  "SoftwareVersions": "syngo MR E11",
  "SpacingBetweenSlices": 3.99,
  "StationName": "AWP66112",
  "TotalReadoutTime": 0.0395,
  "TxRefAmp": 214.594,
  "dcmmeta_affine": [
    [-2.974011182785034, 0.37095963954925537, 0.17667639255523682, 103.98002624511719],
    [0.3939669728279114, 2.8171451091766357, 1.26768159866333, -118.4488525390625],
    [0.006883291527628899, -0.9623317718505859, 3.7791359424591064, -28.40380096435547],
    [0.0, 0.0, 0.0, 1.0]
],
  "dcmmeta_reorient_transform": [
    [0.0, -1.0, 0.0, 79.0],
    [1.0, 0.0, 0.0, 0.0],
    [0.0, 0.0, 1.0, 0.0],
    [0.0, 0.0, 0.0, 1.0]
],
  "dcmmeta_shape": [80, 80, 30, 200],
  "dcmmeta_slice_dim": 2,
  "dcmmeta_version": 0.6,
  "global": {
    "const": {
      "AccessionNumber": "qa64",
      "AcquisitionMatrix": [80, 0, 0, 80],
      "AngioFlag": "N",
      "BitsAllocated": 16,
      "BitsStored": 12,
      "BodyPartExamined": "BRAIN",
      "Columns": 480,
      "EchoNumbers": 1,
      "EchoTime": 30.0,
      "EchoTrainLength": 80,
      "FlipAngle": 10.0,
      "HighBit": 11,
      "ImageOrientationPatient": [0.99133706810373, -0.1313223248041, 0.00229443055419, 0.12365321240993, 0.93904836359332, 0.32077726523776],
      "ImagePositionPatient": [-802.28000303127, -588.74123379863, -298.27102953954],
      "ImageType": [
        "ORIGINAL",
        "PRIMARY",
        "M",
        "ND",
        "NORM",
        "MOSAIC"
],
      "ImagedNucleus": "1H",
      "ImagingFrequency": 123.259279,
      "InPlanePhaseEncodingDirection": "COL",
      "MRAcquisitionType": "2D",
      "MagneticFieldStrength": 3.0,
      "Manufacturer": "SIEMENS",
      "ManufacturerModelName": "Prisma",
      "Modality": "MR",
      "NumberOfAverages": 1.0,
      "NumberOfPhaseEncodingSteps": 80,
      "PercentPhaseFieldOfView": 100.0,
      "PercentSampling": 100.0,
      "PerformedProcedureStepStartTime": "100305.315000",
      "PhotometricInterpretation": "MONOCHROME2",
      "PixelBandwidth": 2315.0,
      "PixelRepresentation": 0,
      "PixelSpacing": [3.0, 3.0],
      "ProtocolName": "func-bold_fa-10",
      "RepetitionTime": 2000.0,
      "Rows": 480,
      "SAR": 0.00762571236339,
      "SamplesPerPixel": 1,
      "ScanOptions": "FS",
      "ScanningSequence": "EP",
      "SequenceName": "*epfid2d1_80",
      "SequenceVariant": "SK",
      "SeriesDescription": "func-bold_fa-10",
      "SeriesNumber": 9,
      "SeriesTime": "102418.922000",
      "SliceLocation": -59.93143734205,
      "SliceThickness": 3.5,
      "SmallestImagePixelValue": 0,
      "SoftwareVersions": "syngo MR E11",
      "SpacingBetweenSlices": 3.9899999876855,
      "SpecificCharacterSet": "ISO_IR 100",
      "StudyID": "6",
      "StudyTime": "100305.207000",
      "TransmitCoilName": "Body",
      "VariableFlipAngleFlag": "N",
      "WindowCenterWidthExplanation": "Algo1"
    },
    "slices": {}
  },
  "time": {
    "samples": {
      "AcquisitionNumber": [1, 2, 3, 4, 5, 6, 7, 8, 9, 10, 11, 12, 13, 14, 15, 16, 17, 18, 19, 20, 21, 22, 23, 24, 25, 26, 27, 28, 29, 30, 31, 32, 33, 34, 35, 36, 37, 38, 39, 40, 41, 42, 43, 44, 45, 46, 47, 48, 49, 50, 51, 52, 53, 54, 55, 56, 57, 58, 59, 60, 61, 62, 63, 64, 65, 66, 67, 68, 69, 70, 71, 72, 73, 74, 75, 76, 77, 78, 79, 80, 81, 82, 83, 84, 85, 86, 87, 88, 89, 90, 91, 92, 93, 94, 95, 96, 97, 98, 99, 100, 101, 102, 103, 104, 105, 106, 107, 108, 109, 110, 111, 112, 113, 114, 115, 116, 117, 118, 119, 120, 121, 122, 123, 124, 125, 126, 127, 128, 129, 130, 131, 132, 133, 134, 135, 136, 137, 138, 139, 140, 141, 142, 143, 144, 145, 146, 147, 148, 149, 150, 151, 152, 153, 154, 155, 156, 157, 158, 159, 160, 161, 162, 163, 164, 165, 166, 167, 168, 169, 170, 171, 172, 173, 174, 175, 176, 177, 178, 179, 180, 181, 182, 183, 184, 185, 186, 187, 188, 189, 190, 191, 192, 193, 194, 195, 196, 197, 198, 199, 200],
      "AcquisitionTime": ["102327.485000", "102329.485000", "102331.485000", "102333.485000", "102335.485000", "102337.485000", "102339.485000", "102341.485000", "102343.485000", "102345.485000", "102347.485000", "102349.485000", "102351.485000", "102353.485000", "102355.485000", "102357.485000", "102359.485000", "102401.485000", "102403.485000", "102405.485000", "102407.485000", "102409.485000", "102411.485000", "102413.485000", "102415.485000", "102417.485000", "102419.485000", "102421.485000", "102423.485000", "102425.485000", "102427.485000", "102429.485000", "102431.485000", "102433.485000", "102435.485000", "102437.485000", "102439.485000", "102441.485000", "102443.485000", "102445.485000", "102447.485000", "102449.485000", "102451.485000", "102453.485000", "102455.485000", "102457.485000", "102459.485000", "102501.485000", "102503.485000", "102505.485000", "102507.485000", "102509.485000", "102511.485000", "102513.485000", "102515.485000", "102517.485000", "102519.485000", "102521.485000", "102523.485000", "102525.485000", "102527.485000", "102529.485000", "102531.485000", "102533.485000", "102535.485000", "102537.485000", "102539.485000", "102541.485000", "102543.485000", "102545.485000", "102547.485000", "102549.485000", "102551.485000", "102553.485000", "102555.485000", "102557.485000", "102559.485000", "102601.485000", "102603.485000", "102605.485000", "102607.485000", "102609.485000", "102611.485000", "102613.485000", "102615.485000", "102617.485000", "102619.485000", "102621.485000", "102623.485000", "102625.485000", "102627.485000", "102629.485000", "102631.485000", "102633.485000", "102635.485000", "102637.485000", "102639.485000", "102641.485000", "102643.485000", "102645.485000", "102647.485000", "102649.485000", "102651.485000", "102653.485000", "102655.485000", "102657.485000", "102659.485000", "102701.485000", "102703.485000", "102705.485000", "102707.485000", "102709.485000", "102711.485000", "102713.485000", "102715.485000", "102717.485000", "102719.485000", "102721.485000", "102723.485000", "102725.485000", "102727.485000", "102729.485000", "102731.485000", "102733.485000", "102735.485000", "102737.485000", "102739.485000", "102741.485000", "102743.485000", "102745.485000", "102747.485000", "102749.485000", "102751.485000", "102753.485000", "102755.485000", "102757.485000", "102759.485000", "102801.485000", "102803.485000", "102805.485000", "102807.485000", "102809.485000", "102811.485000", "102813.485000", "102815.485000", "102817.485000", "102819.485000", "102821.485000", "102823.485000", "102825.485000", "102827.485000", "102829.485000", "102831.485000", "102833.485000", "102835.485000", "102837.485000", "102839.485000", "102841.485000", "102843.485000", "102845.485000", "102847.485000", "102849.485000", "102851.485000", "102853.485000", "102855.485000", "102857.485000", "102859.485000", "102901.485000", "102903.485000", "102905.485000", "102907.485000", "102909.485000", "102911.485000", "102913.485000", "102915.485000", "102917.485000", "102919.485000", "102921.485000", "102923.485000", "102925.485000", "102927.485000", "102929.485000", "102931.485000", "102933.485000", "102935.485000", "102937.485000", "102939.485000", "102941.485000", "102943.485000", "102945.485000", "102947.485000", "102949.485000", "102951.485000", "102953.485000", "102955.485000", "102957.485000", "102959.485000", "103001.485000", "103003.485000", "103005.485000"],
      "ContentTime": ["102418.925000", "102418.929000", "102418.931000", "102418.933000", "102418.936000", "102418.938000", "102418.940000", "102418.943000", "102418.945000", "102418.947000", "102418.956000", "102418.959000", "102418.961000", "102418.963000", "102418.965000", "102418.968000", "102418.970000", "102418.972000", "102418.975000", "102418.977000", "102418.979000", "102418.982000", "102418.984000", "102418.986000", "102418.989000", "102418.991000", "102458.921000", "102458.924000", "102458.926000", "102458.928000", "102458.931000", "102458.933000", "102458.935000", "102458.937000", "102458.940000", "102458.942000", "102458.944000", "102458.947000", "102458.949000", "102458.951000", "102458.953000", "102458.956000", "102458.958000", "102458.960000", "102458.963000", "102458.965000", "102538.920000", "102538.923000", "102538.925000", "102538.927000", "102538.930000", "102538.932000", "102538.934000", "102538.937000", "102538.939000", "102538.941000", "102538.943000", "102538.946000", "102538.948000", "102538.950000", "102538.953000", "102538.955000", "102538.957000", "102538.960000", "102538.962000", "102538.964000", "102618.920000", "102618.923000", "102618.925000", "102618.928000", "102618.930000", "102618.932000", "102618.934000", "102618.937000", "102618.939000", "102618.941000", "102618.944000", "102618.946000", "102618.948000", "102618.951000", "102618.953000", "102618.955000", "102618.957000", "102618.960000", "102618.962000", "102618.964000", "102658.920000", "102658.923000", "102658.925000", "102658.927000", "102658.930000", "102658.932000", "102658.934000", "102658.937000", "102658.939000", "102658.941000", "102658.944000", "102658.946000", "102658.948000", "102658.951000", "102658.953000", "102658.955000", "102658.957000", "102658.960000", "102658.962000", "102658.964000", "102738.920000", "102738.923000", "102738.925000", "102738.927000", "102738.930000", "102738.932000", "102738.934000", "102738.937000", "102738.939000", "102738.941000", "102738.944000", "102738.946000", "102738.948000", "102738.951000", "102738.953000", "102738.955000", "102738.957000", "102738.960000", "102738.962000", "102738.964000", "102818.920000", "102818.923000", "102818.925000", "102818.927000", "102818.930000", "102818.932000", "102818.934000", "102818.936000", "102818.939000", "102818.941000", "102818.944000", "102818.946000", "102818.948000", "102818.951000", "102818.953000", "102818.955000", "102818.958000", "102818.960000", "102818.962000", "102818.965000", "102858.920000", "102858.923000", "102858.925000", "102858.927000", "102858.930000", "102858.932000", "102858.934000", "102858.937000", "102858.939000", "102858.941000", "102858.944000", "102858.946000", "102858.948000", "102858.950000", "102858.953000", "102858.955000", "102858.957000", "102858.960000", "102858.962000", "102858.964000", "102938.921000", "102938.924000", "102938.926000", "102938.928000", "102938.931000", "102938.933000", "102938.935000", "102938.938000", "102938.940000", "102938.942000", "102938.945000", "102938.947000", "102938.949000", "102938.952000", "102938.954000", "102938.956000", "102938.958000", "102938.961000", "102938.963000", "102938.965000", "103006.588000", "103006.591000", "103006.593000", "103006.596000", "103006.598000", "103006.601000", "103006.603000", "103006.606000", "103006.608000", "103006.610000", "103006.613000", "103006.615000", "103006.618000", "103006.627000"],
      "InstanceCreationTime": ["102418.925000", "102418.929000", "102418.931000", "102418.933000", "102418.936000", "102418.938000", "102418.940000", "102418.943000", "102418.945000", "102418.947000", "102418.956000", "102418.959000", "102418.961000", "102418.963000", "102418.965000", "102418.968000", "102418.970000", "102418.972000", "102418.975000", "102418.977000", "102418.979000", "102418.982000", "102418.984000", "102418.986000", "102418.989000", "102418.991000", "102458.921000", "102458.924000", "102458.926000", "102458.928000", "102458.931000", "102458.933000", "102458.935000", "102458.937000", "102458.940000", "102458.942000", "102458.944000", "102458.947000", "102458.949000", "102458.951000", "102458.953000", "102458.956000", "102458.958000", "102458.960000", "102458.963000", "102458.965000", "102538.920000", "102538.923000", "102538.925000", "102538.927000", "102538.930000", "102538.932000", "102538.934000", "102538.937000", "102538.939000", "102538.941000", "102538.943000", "102538.946000", "102538.948000", "102538.950000", "102538.953000", "102538.955000", "102538.957000", "102538.960000", "102538.962000", "102538.964000", "102618.920000", "102618.923000", "102618.925000", "102618.928000", "102618.930000", "102618.932000", "102618.934000", "102618.937000", "102618.939000", "102618.941000", "102618.944000", "102618.946000", "102618.948000", "102618.951000", "102618.953000", "102618.955000", "102618.957000", "102618.960000", "102618.962000", "102618.964000", "102658.920000", "102658.923000", "102658.925000", "102658.927000", "102658.930000", "102658.932000", "102658.934000", "102658.937000", "102658.939000", "102658.941000", "102658.944000", "102658.946000", "102658.948000", "102658.951000", "102658.953000", "102658.955000", "102658.957000", "102658.960000", "102658.962000", "102658.964000", "102738.920000", "102738.923000", "102738.925000", "102738.927000", "102738.930000", "102738.932000", "102738.934000", "102738.937000", "102738.939000", "102738.941000", "102738.944000", "102738.946000", "102738.948000", "102738.951000", "102738.953000", "102738.955000", "102738.957000", "102738.960000", "102738.962000", "102738.964000", "102818.920000", "102818.923000", "102818.925000", "102818.927000", "102818.930000", "102818.932000", "102818.934000", "102818.936000", "102818.939000", "102818.941000", "102818.944000", "102818.946000", "102818.948000", "102818.951000", "102818.953000", "102818.955000", "102818.958000", "102818.960000", "102818.962000", "102818.965000", "102858.920000", "102858.923000", "102858.925000", "102858.927000", "102858.930000", "102858.932000", "102858.934000", "102858.937000", "102858.939000", "102858.941000", "102858.944000", "102858.946000", "102858.948000", "102858.950000", "102858.953000", "102858.955000", "102858.957000", "102858.960000", "102858.962000", "102858.964000", "102938.921000", "102938.924000", "102938.926000", "102938.928000", "102938.931000", "102938.933000", "102938.935000", "102938.938000", "102938.940000", "102938.942000", "102938.945000", "102938.947000", "102938.949000", "102938.952000", "102938.954000", "102938.956000", "102938.958000", "102938.961000", "102938.963000", "102938.965000", "103006.588000", "103006.591000", "103006.593000", "103006.596000", "103006.598000", "103006.601000", "103006.603000", "103006.606000", "103006.608000", "103006.610000", "103006.613000", "103006.615000", "103006.618000", "103006.627000"],
      "InstanceNumber": [1, 2, 3, 4, 5, 6, 7, 8, 9, 10, 11, 12, 13, 14, 15, 16, 17, 18, 19, 20, 21, 22, 23, 24, 25, 26, 27, 28, 29, 30, 31, 32, 33, 34, 35, 36, 37, 38, 39, 40, 41, 42, 43, 44, 45, 46, 47, 48, 49, 50, 51, 52, 53, 54, 55, 56, 57, 58, 59, 60, 61, 62, 63, 64, 65, 66, 67, 68, 69, 70, 71, 72, 73, 74, 75, 76, 77, 78, 79, 80, 81, 82, 83, 84, 85, 86, 87, 88, 89, 90, 91, 92, 93, 94, 95, 96, 97, 98, 99, 100, 101, 102, 103, 104, 105, 106, 107, 108, 109, 110, 111, 112, 113, 114, 115, 116, 117, 118, 119, 120, 121, 122, 123, 124, 125, 126, 127, 128, 129, 130, 131, 132, 133, 134, 135, 136, 137, 138, 139, 140, 141, 142, 143, 144, 145, 146, 147, 148, 149, 150, 151, 152, 153, 154, 155, 156, 157, 158, 159, 160, 161, 162, 163, 164, 165, 166, 167, 168, 169, 170, 171, 172, 173, 174, 175, 176, 177, 178, 179, 180, 181, 182, 183, 184, 185, 186, 187, 188, 189, 190, 191, 192, 193, 194, 195, 196, 197, 198, 199, 200],
      "LargestImagePixelValue": [610, 611, 609, 609, 608, 606, 608, 607, 608, 607, 606, 606, 607, 608, 607, 605, 605, 609, 606, 607, 605, 606, 608, 608, 608, 605, 609, 610, 606, 609, 608, 610, 609, 609, 608, 607, 607, 609, 608, 607, 610, 606, 606, 606, 606, 611, 607, 605, 605, 605, 607, 603, 604, 608, 609, 608, 607, 604, 608, 607, 608, 607, 606, 611, 606, 605, 611, 608, 613, 610, 607, 608, 608, 608, 612, 607, 609, 610, 606, 606, 607, 610, 611, 603, 606, 606, 608, 607, 605, 605, 609, 608, 606, 602, 606, 605, 605, 606, 610, 607, 606, 607, 607, 608, 609, 607, 606, 610, 610, 606, 606, 603, 609, 609, 607, 606, 608, 607, 606, 604, 603, 607, 612, 611, 605, 606, 607, 605, 604, 606, 606, 607, 608, 603, 608, 607, 607, 605, 603, 605, 610, 605, 605, 605, 608, 609, 604, 604, 611, 610, 611, 606, 608, 610, 609, 604, 608, 604, 606, 604, 609, 607, 610, 611, 605, 605, 615, 611, 607, 606, 605, 607, 608, 606, 604, 604, 610, 604, 605, 608, 607, 608, 605, 604, 606, 606, 608, 605, 605, 609, 607, 606, 604, 607, 605, 604, 605, 604, 606, 605],
      "WindowCenter": [437.0, 437.0, 436.0, 436.0, 436.0, 436.0, 436.0, 436.0, 436.0, 436.0, 437.0, 436.0, 436.0, 436.0, 436.0, 435.0, 436.0, 436.0, 436.0, 436.0, 436.0, 436.0, 436.0, 436.0, 436.0, 436.0, 436.0, 437.0, 436.0, 436.0, 436.0, 437.0, 436.0, 436.0, 436.0, 436.0, 436.0, 436.0, 436.0, 436.0, 437.0, 436.0, 436.0, 436.0, 435.0, 437.0, 436.0, 436.0, 436.0, 436.0, 436.0, 436.0, 436.0, 435.0, 436.0, 436.0, 436.0, 435.0, 436.0, 436.0, 436.0, 435.0, 436.0, 436.0, 436.0, 436.0, 436.0, 436.0, 436.0, 436.0, 435.0, 436.0, 436.0, 435.0, 436.0, 435.0, 436.0, 436.0, 435.0, 435.0, 436.0, 436.0, 436.0, 435.0, 435.0, 435.0, 436.0, 436.0, 435.0, 436.0, 436.0, 436.0, 435.0, 435.0, 435.0, 436.0, 435.0, 435.0, 436.0, 436.0, 436.0, 435.0, 436.0, 436.0, 435.0, 435.0, 435.0, 436.0, 436.0, 436.0, 435.0, 435.0, 436.0, 436.0, 435.0, 435.0, 435.0, 436.0, 435.0, 435.0, 435.0, 435.0, 436.0, 436.0, 435.0, 435.0, 435.0, 435.0, 435.0, 435.0, 435.0, 435.0, 435.0, 435.0, 435.0, 435.0, 435.0, 435.0, 435.0, 435.0, 436.0, 435.0, 435.0, 435.0, 435.0, 435.0, 435.0, 435.0, 436.0, 436.0, 436.0, 435.0, 435.0, 436.0, 435.0, 435.0, 435.0, 435.0, 435.0, 435.0, 435.0, 435.0, 436.0, 436.0, 435.0, 435.0, 436.0, 436.0, 435.0, 435.0, 435.0, 435.0, 435.0, 435.0, 435.0, 435.0, 436.0, 435.0, 435.0, 435.0, 435.0, 435.0, 435.0, 435.0, 435.0, 435.0, 435.0, 435.0, 435.0, 435.0, 435.0, 435.0, 435.0, 435.0, 435.0, 435.0, 435.0, 435.0, 435.0, 435.0],
      "WindowWidth": [911.0, 911.0, 909.0, 909.0, 909.0, 909.0, 909.0, 909.0, 909.0, 909.0, 910.0, 909.0, 909.0, 909.0, 909.0, 908.0, 909.0, 909.0, 909.0, 909.0, 909.0, 909.0, 909.0, 909.0, 909.0, 909.0, 909.0, 910.0, 909.0, 909.0, 909.0, 911.0, 909.0, 909.0, 909.0, 909.0, 909.0, 909.0, 909.0, 909.0, 910.0, 909.0, 909.0, 909.0, 908.0, 911.0, 909.0, 909.0, 909.0, 909.0, 909.0, 909.0, 909.0, 908.0, 909.0, 909.0, 909.0, 908.0, 909.0, 909.0, 909.0, 908.0, 909.0, 910.0, 909.0, 909.0, 909.0, 909.0, 910.0, 909.0, 908.0, 909.0, 909.0, 908.0, 909.0, 908.0, 909.0, 910.0, 908.0, 908.0, 909.0, 910.0, 909.0, 908.0, 908.0, 908.0, 909.0, 909.0, 908.0, 909.0, 909.0, 909.0, 908.0, 908.0, 908.0, 909.0, 908.0, 908.0, 909.0, 909.0, 909.0, 908.0, 908.0, 909.0, 908.0, 908.0, 908.0, 909.0, 909.0, 909.0, 908.0, 908.0, 909.0, 909.0, 908.0, 908.0, 908.0, 909.0, 908.0, 908.0, 908.0, 908.0, 909.0, 908.0, 908.0, 908.0, 908.0, 908.0, 908.0, 908.0, 908.0, 908.0, 908.0, 908.0, 908.0, 908.0, 908.0, 908.0, 908.0, 908.0, 909.0, 908.0, 907.0, 908.0, 908.0, 908.0, 907.0, 907.0, 909.0, 909.0, 909.0, 907.0, 908.0, 909.0, 908.0, 908.0, 907.0, 908.0, 908.0, 908.0, 907.0, 907.0, 909.0, 909.0, 907.0, 907.0, 909.0, 909.0, 907.0, 907.0, 907.0, 908.0, 908.0, 907.0, 907.0, 908.0, 909.0, 907.0, 907.0, 907.0, 908.0, 908.0, 907.0, 907.0, 907.0, 908.0, 907.0, 907.0, 907.0, 907.0, 907.0, 907.0, 907.0, 907.0, 907.0, 907.0, 907.0, 907.0, 907.0, 907.0]
    },
    "slices": {}
  }
}