{
  "AcquisitionMatrixPE": 80,
  "AcquisitionNumber": 1,
  "AcquisitionTime": "08:41:18.742500",
  "BandwidthPerPixelPhaseEncode": 48.077,
  "BaseResolution": 80,
  "BodyPartExamined": "BRAIN",
  "CoilCombinationMethod": "Sum of Squares",
  "ConsistencyInfo": "N4_VE11E_LATEST_20181129",
  "ConversionSoftware": "dcm2niix",
  "ConversionSoftwareVersion": "v1.0.20220720",
  "DerivedVendorReportedEchoSpacing": 0.000519999,
  "DeviceSerialNumber": "66112",
  "DwellTime": 2.7e-06,
  "EchoTime": 0.035,
  "EchoTrainLength": 39,
  "EffectiveEchoSpacing": 0.00026,
  "FlipAngle": 90,
  "HeudiconvVersion": "0.13.1",
  "ImageOrientationPatientDICOM": [0.994635, -0.101839, -0.0181493, 0.102961, 0.957717, 0.268658],
  "ImageOrientationText": "Tra>Cor(15.6)>Sag(0.6)",
  "ImageType": [
    "ORIGINAL",
    "PRIMARY",
    "M",
    "ND",
    "NORM",
    "MOSAIC"
],
  "ImagingFrequency": 123.252,
  "InPlanePhaseEncodingDirectionDICOM": "COL",
  "InstitutionAddress": "Maynard 3,Hanover,NH,US,03755",
  "InstitutionName": "Dartmouth College - PBS",
  "InstitutionalDepartmentName": "Department",
  "MRAcquisitionType": "2D",
  "MagneticFieldStrength": 3,
  "Manufacturer": "Siemens",
  "ManufacturersModelName": "Prisma",
  "MatrixCoilMode": "GRAPPA",
  "Modality": "MR",
  "NonlinearGradientCorrection": false,
  "ParallelReductionFactorInPlane": 2,
  "PartialFourier": 1,
  "PatientPosition": "HFS",
  "PercentPhaseFOV": 100,
  "PercentSampling": 100,
  "PhaseEncodingDirection": "j-",
  "PhaseEncodingSteps": 79,
  "PhaseResolution": 1,
  "PixelBandwidth": 2315,
  "ProcedureStepDescription": "dbic^QA",
  "ProtocolName": "func-bold_task-rest_acq-p2",
  "PulseSequenceDetails": "%SiemensSeq%\\ep2d_bold",
  "ReceiveCoilActiveElements": "HC1-7;NC1,2",
  "ReceiveCoilName": "HeadNeck_64",
  "ReconMatrixPE": 80,
  "RefLinesPE": 24,
  "RepetitionTime": 2,
  "SAR": 0.0358775,
  "ScanOptions": "FS",
  "ScanningSequence": "EP",
  "SequenceName": "*epfid2d1_80",
  "SequenceVariant": "SK",
  "SeriesDescription": "func-bold_task-rest_acq-p2",
  "SeriesNumber": 5,
  "ShimSetting": [4140, -7709, -7516, 172, -73, -236, -35, 97],
  "SliceThickness": 3.5,
  "SliceTiming": [0.99, 0, 1.0575, 0.0675, 1.1225, 0.1325, 1.19, 0.2, 1.255, 0.265, 1.32, 0.33, 1.3875, 0.3975, 1.4525, 0.4625, 1.52, 0.53, 1.585, 0.595, 1.65, 0.66, 1.7175, 0.7275, 1.7825, 0.7925, 1.85, 0.86, 1.915, 0.925],
  "SoftwareVersions": "syngo MR E11",
  "SpacingBetweenSlices": 3.99,
  "StationName": "AWP66112",
  "TaskName": "rest",
  "TotalReadoutTime": 0.02054,
  "TxRefAmp": 214.611,
  "dcmmeta_affine": [
    [-2.9839060306549072, 0.30888304114341736, 0.03981165960431099, 109.91844940185547],
    [0.30551624298095703, 2.8731515407562256, 1.0736490488052368, -129.2911376953125],
    [-0.054447878152132034, -0.8059726357460022, 3.8426284790039062, -37.665367126464844],
    [0.0, 0.0, 0.0, 1.0]
],
  "dcmmeta_reorient_transform": [
    [0.0, -1.0, 0.0, 79.0],
    [1.0, 0.0, 0.0, 0.0],
    [0.0, 0.0, 1.0, 0.0],
    [0.0, 0.0, 0.0, 1.0]
],
  "dcmmeta_shape": [80, 80, 30, 200],
  "dcmmeta_slice_dim": 2,
  "dcmmeta_version": 0.6,
  "global": {
    "const": {
      "AccessionNumber": "qa64",
      "AcquisitionMatrix": [80, 0, 0, 80],
      "AngioFlag": "N",
      "BitsAllocated": 16,
      "BitsStored": 12,
      "BodyPartExamined": "BRAIN",
      "Columns": 480,
      "EchoNumbers": 1,
      "EchoTime": 35.0,
      "EchoTrainLength": 39,
      "FlipAngle": 90.0,
      "HighBit": 11,
      "ImageOrientationPatient": [0.99463534613651, -0.1018387519, -0.0181492927509, 0.10296101462783, 0.95771715810749, 0.26865754136694],
      "ImagePositionPatient": [-792.87802495105, -611.21487863591, -251.64215360317],
      "ImageType": [
        "ORIGINAL",
        "PRIMARY",
        "M",
        "ND",
        "NORM",
        "MOSAIC"
],
      "ImagedNucleus": "1H",
      "ImagingFrequency": 123.252366,
      "InPlanePhaseEncodingDirection": "COL",
      "MRAcquisitionType": "2D",
      "MagneticFieldStrength": 3.0,
      "Manufacturer": "SIEMENS",
      "ManufacturerModelName": "Prisma",
      "Modality": "MR",
      "NumberOfAverages": 1.0,
      "NumberOfPhaseEncodingSteps": 79,
      "PercentPhaseFieldOfView": 100.0,
      "PercentSampling": 100.0,
      "PerformedProcedureStepStartTime": "083631.989000",
      "PhotometricInterpretation": "MONOCHROME2",
      "PixelBandwidth": 2315.0,
      "PixelRepresentation": 0,
      "PixelSpacing": [3.0, 3.0],
      "ProtocolName": "func-bold_task-rest_acq-p2",
      "RepetitionTime": 2000.0,
      "Rows": 480,
      "SAR": 0.03587753383795,
      "SamplesPerPixel": 1,
      "ScanOptions": "FS",
      "ScanningSequence": "EP",
      "SequenceName": "*epfid2d1_80",
      "SequenceVariant": "SK",
      "SeriesDescription": "func-bold_task-rest_acq-p2",
      "SeriesNumber": 5,
      "SeriesTime": "084217.816000",
      "SliceLocation": -69.967735324239,
      "SliceThickness": 3.5,
      "SmallestImagePixelValue": 0,
      "SoftwareVersions": "syngo MR E11",
      "SpacingBetweenSlices": 3.9900000866235,
      "SpecificCharacterSet": "ISO_IR 100",
      "StudyID": "7",
      "StudyTime": "083631.893000",
      "TransmitCoilName": "Body",
      "VariableFlipAngleFlag": "N",
      "WindowCenterWidthExplanation": "Algo1"
    },
    "slices": {}
  },
  "time": {
    "samples": {
      "AcquisitionNumber": [1, 2, 3, 4, 5, 6, 7, 8, 9, 10, 11, 12, 13, 14, 15, 16, 17, 18, 19, 20, 21, 22, 23, 24, 25, 26, 27, 28, 29, 30, 31, 32, 33, 34, 35, 36, 37, 38, 39, 40, 41, 42, 43, 44, 45, 46, 47, 48, 49, 50, 51, 52, 53, 54, 55, 56, 57, 58, 59, 60, 61, 62, 63, 64, 65, 66, 67, 68, 69, 70, 71, 72, 73, 74, 75, 76, 77, 78, 79, 80, 81, 82, 83, 84, 85, 86, 87, 88, 89, 90, 91, 92, 93, 94, 95, 96, 97, 98, 99, 100, 101, 102, 103, 104, 105, 106, 107, 108, 109, 110, 111, 112, 113, 114, 115, 116, 117, 118, 119, 120, 121, 122, 123, 124, 125, 126, 127, 128, 129, 130, 131, 132, 133, 134, 135, 136, 137, 138, 139, 140, 141, 142, 143, 144, 145, 146, 147, 148, 149, 150, 151, 152, 153, 154, 155, 156, 157, 158, 159, 160, 161, 162, 163, 164, 165, 166, 167, 168, 169, 170, 171, 172, 173, 174, 175, 176, 177, 178, 179, 180, 181, 182, 183, 184, 185, 186, 187, 188, 189, 190, 191, 192, 193, 194, 195, 196, 197, 198, 199, 200],
      "AcquisitionTime": ["084118.742500", "084120.742500", "084122.742500", "084124.742500", "084126.742500", "084128.742500", "084130.742500", "084132.742500", "084134.742500", "084136.742500", "084138.742500", "084140.742500", "084142.742500", "084144.742500", "084146.742500", "084148.742500", "084150.742500", "084152.742500", "084154.742500", "084156.742500", "084158.742500", "084200.742500", "084202.742500", "084204.742500", "084206.742500", "084208.742500", "084210.742500", "084212.742500", "084214.742500", "084216.742500", "084218.742500", "084220.742500", "084222.742500", "084224.742500", "084226.742500", "084228.742500", "084230.742500", "084232.742500", "084234.742500", "084236.742500", "084238.742500", "084240.742500", "084242.742500", "084244.742500", "084246.742500", "084248.742500", "084250.742500", "084252.742500", "084254.742500", "084256.742500", "084258.742500", "084300.742500", "084302.742500", "084304.742500", "084306.742500", "084308.742500", "084310.742500", "084312.742500", "084314.742500", "084316.742500", "084318.742500", "084320.742500", "084322.742500", "084324.742500", "084326.742500", "084328.742500", "084330.742500", "084332.742500", "084334.742500", "084336.742500", "084338.742500", "084340.742500", "084342.742500", "084344.742500", "084346.742500", "084348.742500", "084350.742500", "084352.742500", "084354.742500", "084356.742500", "084358.742500", "084400.742500", "084402.742500", "084404.742500", "084406.742500", "084408.742500", "084410.742500", "084412.742500", "084414.742500", "084416.742500", "084418.742500", "084420.742500", "084422.742500", "084424.742500", "084426.742500", "084428.742500", "084430.742500", "084432.742500", "084434.742500", "084436.742500", "084438.742500", "084440.742500", "084442.742500", "084444.742500", "084446.742500", "084448.742500", "084450.742500", "084452.742500", "084454.742500", "084456.742500", "084458.742500", "084500.742500", "084502.742500", "084504.742500", "084506.742500", "084508.742500", "084510.742500", "084512.742500", "084514.742500", "084516.742500", "084518.742500", "084520.742500", "084522.742500", "084524.742500", "084526.742500", "084528.742500", "084530.742500", "084532.742500", "084534.742500", "084536.742500", "084538.742500", "084540.742500", "084542.742500", "084544.742500", "084546.742500", "084548.742500", "084550.742500", "084552.742500", "084554.742500", "084556.742500", "084558.742500", "084600.742500", "084602.742500", "084604.742500", "084606.742500", "084608.742500", "084610.742500", "084612.742500", "084614.742500", "084616.742500", "084618.742500", "084620.742500", "084622.742500", "084624.742500", "084626.742500", "084628.742500", "084630.742500", "084632.742500", "084634.742500", "084636.742500", "084638.742500", "084640.742500", "084642.742500", "084644.742500", "084646.742500", "084648.742500", "084650.742500", "084652.742500", "084654.742500", "084656.742500", "084658.742500", "084700.742500", "084702.742500", "084704.742500", "084706.742500", "084708.742500", "084710.742500", "084712.742500", "084714.742500", "084716.742500", "084718.742500", "084720.742500", "084722.742500", "084724.742500", "084726.742500", "084728.742500", "084730.742500", "084732.742500", "084734.742500", "084736.742500", "084738.742500", "084740.742500", "084742.742500", "084744.742500", "084746.742500", "084748.742500", "084750.742500", "084752.742500", "084754.742500", "084756.742500"],
      "ContentTime": ["084217.820000", "084217.823000", "084217.826000", "084217.828000", "084217.831000", "084217.833000", "084217.836000", "084217.838000", "084217.840000", "084217.843000", "084217.845000", "084217.847000", "084217.855000", "084217.858000", "084217.860000", "084217.862000", "084217.865000", "084217.867000", "084217.869000", "084217.872000", "084217.874000", "084217.877000", "084217.879000", "084217.882000", "084217.884000", "084217.886000", "084217.889000", "084217.891000", "084217.893000", "084257.816000", "084257.819000", "084257.821000", "084257.824000", "084257.826000", "084257.829000", "084257.831000", "084257.833000", "084257.836000", "084257.838000", "084257.840000", "084257.843000", "084257.845000", "084257.848000", "084257.850000", "084257.852000", "084257.855000", "084257.857000", "084257.859000", "084257.862000", "084337.815000", "084337.818000", "084337.820000", "084337.823000", "084337.825000", "084337.827000", "084337.830000", "084337.832000", "084337.835000", "084337.837000", "084337.840000", "084337.842000", "084337.844000", "084337.847000", "084337.849000", "084337.851000", "084337.854000", "084337.856000", "084337.859000", "084337.861000", "084417.815000", "084417.818000", "084417.820000", "084417.823000", "084417.825000", "084417.827000", "084417.830000", "084417.832000", "084417.834000", "084417.837000", "084417.839000", "084417.842000", "084417.844000", "084417.846000", "084417.849000", "084417.851000", "084417.854000", "084417.856000", "084417.858000", "084417.861000", "084457.816000", "084457.819000", "084457.822000", "084457.824000", "084457.826000", "084457.829000", "084457.832000", "084457.834000", "084457.836000", "084457.839000", "084457.841000", "084457.844000", "084457.846000", "084457.863000", "084457.865000", "084457.868000", "084457.870000", "084457.873000", "084457.875000", "084457.877000", "084537.815000", "084537.818000", "084537.820000", "084537.823000", "084537.825000", "084537.828000", "084537.830000", "084537.832000", "084537.835000", "084537.837000", "084537.840000", "084537.842000", "084537.844000", "084537.847000", "084537.849000", "084537.852000", "084537.854000", "084537.856000", "084537.859000", "084537.861000", "084617.815000", "084617.818000", "084617.820000", "084617.823000", "084617.825000", "084617.827000", "084617.830000", "084617.832000", "084617.835000", "084617.837000", "084617.839000", "084617.842000", "084617.844000", "084617.847000", "084617.849000", "084617.851000", "084617.854000", "084617.856000", "084617.859000", "084617.861000", "084657.816000", "084657.818000", "084657.821000", "084657.823000", "084657.826000", "084657.828000", "084657.830000", "084657.833000", "084657.835000", "084657.838000", "084657.840000", "084657.842000", "084657.845000", "084657.847000", "084657.849000", "084657.852000", "084657.854000", "084657.861000", "084657.864000", "084657.866000", "084717.816000", "084717.819000", "084717.822000", "084717.824000", "084717.826000", "084717.829000", "084717.831000", "084717.834000", "084717.836000", "084717.838000", "084757.815000", "084757.818000", "084757.821000", "084757.823000", "084757.825000", "084757.828000", "084757.830000", "084757.833000", "084757.835000", "084757.838000", "084757.840000", "084757.842000", "084757.845000", "084757.847000", "084757.850000", "084757.852000", "084757.854000", "084757.857000", "084757.859000", "084757.861000", "084758.111000"],
      "InstanceCreationTime": ["084217.820000", "084217.823000", "084217.826000", "084217.828000", "084217.831000", "084217.833000", "084217.836000", "084217.838000", "084217.840000", "084217.843000", "084217.845000", "084217.847000", "084217.855000", "084217.858000", "084217.860000", "084217.862000", "084217.865000", "084217.867000", "084217.869000", "084217.872000", "084217.874000", "084217.877000", "084217.879000", "084217.882000", "084217.884000", "084217.886000", "084217.889000", "084217.891000", "084217.893000", "084257.816000", "084257.819000", "084257.821000", "084257.824000", "084257.826000", "084257.829000", "084257.831000", "084257.833000", "084257.836000", "084257.838000", "084257.840000", "084257.843000", "084257.845000", "084257.848000", "084257.850000", "084257.852000", "084257.855000", "084257.857000", "084257.859000", "084257.862000", "084337.815000", "084337.818000", "084337.820000", "084337.823000", "084337.825000", "084337.827000", "084337.830000", "084337.832000", "084337.835000", "084337.837000", "084337.840000", "084337.842000", "084337.844000", "084337.847000", "084337.849000", "084337.851000", "084337.854000", "084337.856000", "084337.859000", "084337.861000", "084417.815000", "084417.818000", "084417.820000", "084417.823000", "084417.825000", "084417.827000", "084417.830000", "084417.832000", "084417.834000", "084417.837000", "084417.839000", "084417.842000", "084417.844000", "084417.846000", "084417.849000", "084417.851000", "084417.854000", "084417.856000", "084417.858000", "084417.861000", "084457.816000", "084457.819000", "084457.822000", "084457.824000", "084457.826000", "084457.829000", "084457.832000", "084457.834000", "084457.836000", "084457.839000", "084457.841000", "084457.844000", "084457.846000", "084457.863000", "084457.865000", "084457.868000", "084457.870000", "084457.873000", "084457.875000", "084457.877000", "084537.815000", "084537.818000", "084537.820000", "084537.823000", "084537.825000", "084537.828000", "084537.830000", "084537.832000", "084537.835000", "084537.837000", "084537.840000", "084537.842000", "084537.844000", "084537.847000", "084537.849000", "084537.852000", "084537.854000", "084537.856000", "084537.859000", "084537.861000", "084617.815000", "084617.818000", "084617.820000", "084617.823000", "084617.825000", "084617.827000", "084617.830000", "084617.832000", "084617.835000", "084617.837000", "084617.839000", "084617.842000", "084617.844000", "084617.847000", "084617.849000", "084617.851000", "084617.854000", "084617.856000", "084617.859000", "084617.861000", "084657.816000", "084657.818000", "084657.821000", "084657.823000", "084657.826000", "084657.828000", "084657.830000", "084657.833000", "084657.835000", "084657.838000", "084657.840000", "084657.842000", "084657.845000", "084657.847000", "084657.849000", "084657.852000", "084657.854000", "084657.861000", "084657.864000", "084657.866000", "084717.816000", "084717.819000", "084717.822000", "084717.824000", "084717.826000", "084717.829000", "084717.831000", "084717.834000", "084717.836000", "084717.838000", "084757.815000", "084757.818000", "084757.821000", "084757.823000", "084757.825000", "084757.828000", "084757.830000", "084757.833000", "084757.835000", "084757.838000", "084757.840000", "084757.842000", "084757.845000", "084757.847000", "084757.850000", "084757.852000", "084757.854000", "084757.857000", "084757.859000", "084757.861000", "084758.111000"],
      "InstanceNumber": [1, 2, 3, 4, 5, 6, 7, 8, 9, 10, 11, 12, 13, 14, 15, 16, 17, 18, 19, 20, 21, 22, 23, 24, 25, 26, 27, 28, 29, 30, 31, 32, 33, 34, 35, 36, 37, 38, 39, 40, 41, 42, 43, 44, 45, 46, 47, 48, 49, 50, 51, 52, 53, 54, 55, 56, 57, 58, 59, 60, 61, 62, 63, 64, 65, 66, 67, 68, 69, 70, 71, 72, 73, 74, 75, 76, 77, 78, 79, 80, 81, 82, 83, 84, 85, 86, 87, 88, 89, 90, 91, 92, 93, 94, 95, 96, 97, 98, 99, 100, 101, 102, 103, 104, 105, 106, 107, 108, 109, 110, 111, 112, 113, 114, 115, 116, 117, 118, 119, 120, 121, 122, 123, 124, 125, 126, 127, 128, 129, 130, 131, 132, 133, 134, 135, 136, 137, 138, 139, 140, 141, 142, 143, 144, 145, 146, 147, 148, 149, 150, 151, 152, 153, 154, 155, 156, 157, 158, 159, 160, 161, 162, 163, 164, 165, 166, 167, 168, 169, 170, 171, 172, 173, 174, 175, 176, 177, 178, 179, 180, 181, 182, 183, 184, 185, 186, 187, 188, 189, 190, 191, 192, 193, 194, 195, 196, 197, 198, 199, 200],
      "LargestImagePixelValue": [3590, 3582, 3585, 3591, 3592, 3584, 3596, 3584, 3594, 3594, 3587, 3580, 3605, 3598, 3581, 3593, 3588, 3594, 3596, 3594, 3589, 3583, 3595, 3586, 3587, 3606, 3592, 3598, 3599, 3593, 3583, 3590, 3597, 3605, 3596, 3596, 3586, 3589, 3586, 3594, 3592, 3592, 3597, 3592, 3597, 3592, 3588, 3587, 3582, 3596, 3595, 3576, 3588, 3594, 3591, 3580, 3601, 3592, 3584, 3585, 3595, 3584, 3590, 3590, 3593, 3589, 3591, 3590, 3580, 3593, 3591, 3579, 3590, 3587, 3585, 3594, 3595, 3595, 3593, 3586, 3587, 3586, 3592, 3582, 3584, 3592, 3595, 3579, 3581, 3586, 3580, 3577, 3583, 3581, 3574, 3592, 3580, 3589, 3586, 3580, 3582, 3589, 3581, 3590, 3585, 3584, 3578, 3575, 3579, 3588, 3580, 3591, 3576, 3584, 3588, 3574, 3592, 3578, 3585, 3578, 3583, 3580, 3598, 3577, 3590, 3578, 3575, 3594, 3583, 3583, 3587, 3586, 3589, 3574, 3588, 3589, 3567, 3591, 3587, 3583, 3586, 3575, 3570, 3576, 3587, 3582, 3582, 3594, 3593, 3575, 3589, 3586, 3583, 3582, 3575, 3582, 3589, 3584, 3576, 3583, 3586, 3580, 3588, 3582, 3582, 3584, 3578, 3587, 3588, 3590, 3578, 3582, 3583, 3590, 3587, 3568, 3589, 3581, 3593, 3586, 3579, 3579, 3578, 3599, 3580, 3588, 3574, 3580, 3578, 3590, 3580, 3590, 3580, 3581, 3579, 3585, 3588, 3569, 3581, 3581],
      "WindowCenter": [1384.0, 1383.0, 1382.0, 1383.0, 1383.0, 1382.0, 1382.0, 1382.0, 1382.0, 1382.0, 1382.0, 1382.0, 1382.0, 1381.0, 1381.0, 1381.0, 1381.0, 1380.0, 1381.0, 1381.0, 1381.0, 1382.0, 1381.0, 1381.0, 1380.0, 1380.0, 1381.0, 1381.0, 1380.0, 1380.0, 1380.0, 1380.0, 1380.0, 1380.0, 1380.0, 1380.0, 1380.0, 1380.0, 1380.0, 1380.0, 1380.0, 1380.0, 1381.0, 1380.0, 1380.0, 1380.0, 1380.0, 1379.0, 1380.0, 1379.0, 1380.0, 1380.0, 1380.0, 1379.0, 1380.0, 1380.0, 1380.0, 1380.0, 1380.0, 1380.0, 1380.0, 1380.0, 1379.0, 1380.0, 1379.0, 1379.0, 1379.0, 1380.0, 1380.0, 1380.0, 1379.0, 1379.0, 1379.0, 1379.0, 1380.0, 1380.0, 1380.0, 1379.0, 1379.0, 1379.0, 1379.0, 1378.0, 1379.0, 1379.0, 1379.0, 1379.0, 1379.0, 1379.0, 1379.0, 1379.0, 1379.0, 1379.0, 1379.0, 1379.0, 1379.0, 1378.0, 1379.0, 1379.0, 1378.0, 1379.0, 1379.0, 1379.0, 1379.0, 1378.0, 1379.0, 1379.0, 1379.0, 1379.0, 1379.0, 1378.0, 1379.0, 1379.0, 1379.0, 1379.0, 1379.0, 1379.0, 1378.0, 1379.0, 1379.0, 1379.0, 1378.0, 1379.0, 1379.0, 1379.0, 1379.0, 1379.0, 1379.0, 1379.0, 1378.0, 1379.0, 1379.0, 1379.0, 1379.0, 1379.0, 1379.0, 1379.0, 1378.0, 1379.0, 1379.0, 1378.0, 1379.0, 1379.0, 1379.0, 1378.0, 1379.0, 1378.0, 1379.0, 1379.0, 1378.0, 1379.0, 1379.0, 1379.0, 1378.0, 1379.0, 1379.0, 1378.0, 1378.0, 1378.0, 1379.0, 1378.0, 1378.0, 1378.0, 1378.0, 1379.0, 1378.0, 1379.0, 1378.0, 1378.0, 1379.0, 1379.0, 1378.0, 1378.0, 1378.0, 1378.0, 1378.0, 1378.0, 1378.0, 1378.0, 1379.0, 1379.0, 1378.0, 1378.0, 1378.0, 1378.0, 1378.0, 1378.0, 1379.0, 1378.0, 1378.0, 1378.0, 1378.0, 1378.0, 1378.0, 1378.0, 1378.0, 1379.0, 1378.0, 1378.0, 1378.0, 1378.0],
      "WindowWidth": [3218.0, 3217.0, 3217.0, 3217.0, 3217.0, 3216.0, 3217.0, 3216.0, 3216.0, 3216.0, 3216.0, 3216.0, 3216.0, 3216.0, 3216.0, 3216.0, 3216.0, 3217.0, 3216.0, 3216.0, 3216.0, 3216.0, 3216.0, 3216.0, 3216.0, 3216.0, 3215.0, 3215.0, 3216.0, 3216.0, 3215.0, 3215.0, 3216.0, 3216.0, 3215.0, 3215.0, 3215.0, 3215.0, 3215.0, 3215.0, 3215.0, 3215.0, 3215.0, 3215.0, 3215.0, 3215.0, 3215.0, 3215.0, 3214.0, 3215.0, 3214.0, 3214.0, 3214.0, 3215.0, 3214.0, 3214.0, 3214.0, 3214.0, 3214.0, 3214.0, 3214.0, 3214.0, 3214.0, 3214.0, 3214.0, 3214.0, 3214.0, 3214.0, 3214.0, 3214.0, 3214.0, 3214.0, 3213.0, 3214.0, 3214.0, 3214.0, 3214.0, 3214.0, 3213.0, 3214.0, 3213.0, 3214.0, 3214.0, 3213.0, 3214.0, 3214.0, 3213.0, 3213.0, 3213.0, 3213.0, 3214.0, 3213.0, 3213.0, 3213.0, 3213.0, 3213.0, 3213.0, 3213.0, 3213.0, 3213.0, 3213.0, 3213.0, 3213.0, 3213.0, 3213.0, 3213.0, 3213.0, 3213.0, 3213.0, 3213.0, 3213.0, 3213.0, 3213.0, 3213.0, 3213.0, 3213.0, 3213.0, 3213.0, 3213.0, 3213.0, 3213.0, 3213.0, 3212.0, 3212.0, 3213.0, 3213.0, 3212.0, 3213.0, 3213.0, 3212.0, 3213.0, 3212.0, 3212.0, 3213.0, 3213.0, 3213.0, 3213.0, 3213.0, 3213.0, 3213.0, 3212.0, 3212.0, 3212.0, 3212.0, 3212.0, 3212.0, 3212.0, 3212.0, 3212.0, 3212.0, 3212.0, 3212.0, 3213.0, 3212.0, 3211.0, 3212.0, 3212.0, 3212.0, 3212.0, 3212.0, 3212.0, 3212.0, 3212.0, 3212.0, 3212.0, 3211.0, 3212.0, 3212.0, 3211.0, 3211.0, 3212.0, 3212.0, 3212.0, 3212.0, 3212.0, 3212.0, 3212.0, 3212.0, 3211.0, 3211.0, 3212.0, 3212.0, 3211.0, 3212.0, 3212.0, 3212.0, 3211.0, 3211.0, 3211.0, 3212.0, 3211.0, 3211.0, 3212.0, 3211.0, 3211.0, 3211.0, 3211.0, 3211.0, 3211.0, 3211.0]
    },
    "slices": {}
  }
}