{
  "AcquisitionMatrixPE": 122,
  "AcquisitionNumber": 1,
  "AcquisitionTime": "09:09:27.015000",
  "BandwidthPerPixelPhaseEncode": 28.76,
  "BaseResolution": 122,
  "BodyPartExamined": "BRAIN",
  "CoilCombinationMethod": "Adaptive Combine",
  "ConsistencyInfo": "N4_VE11C_LATEST_20160120",
  "ConversionSoftware": "dcm2niix",
  "ConversionSoftwareVersion": "v1.0.20220720",
  "DerivedVendorReportedEchoSpacing": 0.000570008,
  "DeviceSerialNumber": "66112",
  "DiffusionScheme": "Monopolar",
  "DwellTime": 2e-06,
  "EchoTime": 0.075,
  "EchoTrainLength": 61,
  "EffectiveEchoSpacing": 0.000285004,
  "FlipAngle": 90,
  "HeudiconvVersion": "0.13.1",
  "ImageOrientationPatientDICOM": [0.991102, 0.132873, 0.00784625, -0.129074, 0.945022, 0.300456],
  "ImageOrientationText": "Tra>Cor(17.4)>Sag(-1.9)",
  "ImageType": [
    "ORIGINAL",
    "PRIMARY",
    "DIFFUSION",
    "NONE",
    "ND",
    "NORM"
],
  "ImagingFrequency": 123.252,
  "InPlanePhaseEncodingDirectionDICOM": "COL",
  "InstitutionAddress": "Maynard 3,Hanover,NH,US,03755",
  "InstitutionName": "Dartmouth College - PBS",
  "InstitutionalDepartmentName": "Department",
  "MRAcquisitionType": "2D",
  "MagneticFieldStrength": 3,
  "Manufacturer": "Siemens",
  "ManufacturersModelName": "Prisma",
  "MatrixCoilMode": "GRAPPA",
  "Modality": "MR",
  "NonlinearGradientCorrection": false,
  "ParallelReductionFactorInPlane": 2,
  "PartialFourier": 1,
  "PatientPosition": "HFS",
  "PercentPhaseFOV": 100,
  "PercentSampling": 100,
  "PhaseEncodingDirection": "j-",
  "PhaseEncodingSteps": 122,
  "PhaseResolution": 1,
  "PixelBandwidth": 2050,
  "ProcedureStepDescription": "dbic^QA",
  "ProtocolName": "dwi_acq-DTI-30-p2",
  "PulseSequenceDetails": "%SiemensSeq%\\ep2d_diff",
  "ReceiveCoilActiveElements": "HEA;HEP",
  "ReceiveCoilName": "Head_32",
  "ReconMatrixPE": 122,
  "RefLinesPE": 38,
  "RepetitionTime": 7.7,
  "SAR": 0.102153,
  "ScanOptions": "FS",
  "ScanningSequence": "EP",
  "SequenceName": "*ep_b0",
  "SequenceVariant": "SK\\SP",
  "SeriesDescription": "dwi_acq-DTI-30-p2",
  "SeriesNumber": 12,
  "ShimSetting": [4156, -7709, -7509, 296, -58, -78, 0, 103],
  "SliceThickness": 2,
  "SliceTiming": [3.84375, 0, 3.95312, 0.10938, 4.0625, 0.22656, 4.17188, 0.33594, 4.28125, 0.44531, 4.39062, 0.55469, 4.5, 0.66406, 4.60938, 0.77344, 4.71875, 0.88281, 4.82812, 0.99219, 4.9375, 1.10156, 5.04688, 1.21094, 5.16406, 1.32031, 5.27344, 1.42969, 5.38281, 1.53906, 5.48438, 1.64844, 5.60156, 1.75781, 5.71094, 1.86719, 5.82031, 1.97656, 5.92969, 2.08594, 6.03906, 2.19531, 6.14844, 2.30469, 6.25781, 2.42188, 6.36719, 2.53125, 6.47656, 2.63281, 6.58594, 2.74219, 6.69531, 2.85938, 6.80469, 2.96875, 6.91406, 3.07812, 7.02344, 3.1875, 7.13281, 3.29688, 7.24219, 3.40625, 7.35938, 3.51562, 7.46094, 3.625, 7.57031, 3.73438],
  "SoftwareVersions": "syngo MR E11",
  "SpacingBetweenSlices": 2,
  "SpoilingState": true,
  "StationName": "AWP66112",
  "TotalReadoutTime": 0.0344855,
  "TxRefAmp": 228.872,
  "dcmmeta_affine": [
    [-1.9497090578079224, -0.25391513109207153, -0.06501495838165283, 136.9688720703125],
    [-0.2613888680934906, 1.859059453010559, 0.5975894927978516, -117.69369506835938],
    [0.015435250476002693, -0.5910604596138, 1.90753173828125, -20.056581497192383],
    [0.0, 0.0, 0.0, 1.0]
],
  "dcmmeta_reorient_transform": [
    [0.0, -1.0, 0.0, 121.0],
    [1.0, 0.0, 0.0, 0.0],
    [0.0, 0.0, -1.0, 69.0],
    [0.0, 0.0, 0.0, 1.0]
],
  "dcmmeta_shape": [122, 122, 70, 31],
  "dcmmeta_slice_dim": 2,
  "dcmmeta_version": 0.6,
  "global": {
    "const": {
      "AccessionNumber": "qa",
      "AcquisitionMatrix": [122, 0, 0, 122],
      "AngioFlag": "N",
      "BitsAllocated": 16,
      "BitsStored": 12,
      "BodyPartExamined": "BRAIN",
      "Columns": 122,
      "EchoNumbers": 1,
      "EchoTime": 75.0,
      "EchoTrainLength": 61,
      "FlipAngle": 90.0,
      "HighBit": 11,
      "ImageOrientationPatient": [0.99110205875983, 0.13287266629414, 0.00784625222045, -0.1290735189208, 0.94502189512245, 0.30045572794105],
      "ImageType": [
        "ORIGINAL",
        "PRIMARY",
        "DIFFUSION",
        "NONE",
        "ND",
        "NORM"
],
      "ImagedNucleus": "1H",
      "ImagingFrequency": 123.252334,
      "InPlanePhaseEncodingDirection": "COL",
      "MRAcquisitionType": "2D",
      "MagneticFieldStrength": 3.0,
      "Manufacturer": "SIEMENS",
      "ManufacturerModelName": "Prisma",
      "Modality": "MR",
      "NumberOfAverages": 1.0,
      "NumberOfPhaseEncodingSteps": 122,
      "PercentPhaseFieldOfView": 100.0,
      "PercentSampling": 100.0,
      "PerformedProcedureStepStartTime": "083903.843000",
      "PhotometricInterpretation": "MONOCHROME2",
      "PixelBandwidth": 2050.0,
      "PixelRepresentation": 0,
      "PixelSpacing": [1.9672131538391, 1.9672131538391],
      "ProtocolName": "dwi_acq-DTI-30-p2",
      "RepetitionTime": 7700.0,
      "Rows": 122,
      "SAR": 0.10215330001923,
      "SamplesPerPixel": 1,
      "ScanOptions": "FS",
      "ScanningSequence": "EP",
      "SequenceVariant": [
        "SK",
        "SP"
],
      "SeriesDescription": "dwi_acq-DTI-30-p2",
      "SeriesNumber": 12,
      "SeriesTime": "090942.509000",
      "SliceThickness": 2.0,
      "SmallestImagePixelValue": 0,
      "SoftwareVersions": "syngo MR E11",
      "SpacingBetweenSlices": 2.0,
      "SpecificCharacterSet": "ISO_IR 100",
      "StudyID": "10",
      "StudyTime": "083903.799000",
      "TransmitCoilName": "Body",
      "VariableFlipAngleFlag": "N",
      "WindowCenterWidthExplanation": "Algo1",
      "dBdt": 0.0},
    "slices": {
      "AcquisitionTime": ["090927.015000", "090923.175000", "090927.125000", "090923.285000", "090927.235000", "090923.395000", "090927.345000", "090923.505000", "090927.455000", "090923.615000", "090927.565000", "090923.725000", "090927.675000", "090923.835000", "090927.782500", "090923.942500", "090927.892500", "090924.052500", "090928.002500", "090924.162500", "090928.112500", "090924.272500", "090928.222500", "090924.382500", "090928.332500", "090924.492500", "090928.442500", "090924.602500", "090928.552500", "090924.712500", "090928.660000", "090924.822500", "090928.770000", "090924.930000", "090928.880000", "090925.040000", "090928.990000", "090925.150000", "090929.100000", "090925.260000", "090929.210000", "090925.370000", "090929.320000", "090925.480000", "090929.430000", "090925.590000", "090929.540000", "090925.700000", "090929.647500", "090925.807500", "090929.757500", "090925.917500", "090929.867500", "090926.027500", "090929.977500", "090926.137500", "090930.087500", "090926.247500", "090930.197500", "090926.357500", "090930.307500", "090926.467500", "090930.417500", "090926.577500", "090930.527500", "090926.687500", "090930.635000", "090926.795000", "090930.745000", "090926.905000", "090934.715000", "090930.875000", "090934.825000", "090930.985000", "090934.935000", "090931.095000", "090935.045000", "090931.205000", "090935.155000", "090931.315000", "090935.265000", "090931.425000", "090935.375000", "090931.535000", "090935.482500", "090931.642500", "090935.592500", "090931.752500", "090935.702500", "090931.862500", "090935.812500", "090931.972500", "090935.922500", "090932.082500", "090936.032500", "090932.192500", "090936.142500", "090932.302500", "090936.252500", "090932.412500", "090936.360000", "090932.522500", "090936.470000", "090932.630000", "090936.580000", "090932.740000", "090936.690000", "090932.850000", "090936.800000", "090932.960000", "090936.910000", "090933.070000", "090937.020000", "090933.180000", "090937.130000", "090933.290000", "090937.240000", "090933.400000", "090937.347500", "090933.507500", "090937.457500", "090933.617500", "090937.567500", "090933.727500", "090937.677500", "090933.837500", "090937.787500", "090933.947500", "090937.897500", "090934.057500", "090938.007500", "090934.167500", "090938.117500", "090934.277500", "090938.227500", "090934.387500", "090938.335000", "090934.495000", "090938.445000", "090934.605000", "090942.415000", "090938.575000", "090942.525000", "090938.685000", "090942.635000", "090938.795000", "090942.745000", "090938.905000", "090942.855000", "090939.015000", "090942.965000", "090939.125000", "090943.075000", "090939.235000", "090943.182500", "090939.342500", "090943.292500", "090939.452500", "090943.402500", "090939.562500", "090943.512500", "090939.672500", "090943.622500", "090939.782500", "090943.732500", "090939.892500", "090943.842500", "090940.002500", "090943.952500", "090940.112500", "090944.060000", "090940.222500", "090944.170000", "090940.330000", "090944.280000", "090940.440000", "090944.390000", "090940.550000", "090944.500000", "090940.660000", "090944.610000", "090940.770000", "090944.720000", "090940.880000", "090944.830000", "090940.990000", "090944.940000", "090941.100000", "090945.047500", "090941.207500", "090945.157500", "090941.317500", "090945.267500", "090941.427500", "090945.377500", "090941.537500", "090945.487500", "090941.647500", "090945.597500", "090941.757500", "090945.707500", "090941.867500", "090945.817500", "090941.977500", "090945.927500", "090942.087500", "090946.035000", "090942.195000", "090946.145000", "090942.305000", "090950.115000", "090946.275000", "090950.225000", "090946.385000", "090950.335000", "090946.495000", "090950.445000", "090946.605000", "090950.555000", "090946.715000", "090950.665000", "090946.825000", "090950.775000", "090946.935000", "090950.882500", "090947.042500", "090950.992500", "090947.152500", "090951.102500", "090947.262500", "090951.212500", "090947.372500", "090951.322500", "090947.482500", "090951.432500", "090947.592500", "090951.542500", "090947.702500", "090951.652500", "090947.812500", "090951.760000", "090947.922500", "090951.870000", "090948.030000", "090951.980000", "090948.140000", "090952.090000", "090948.250000", "090952.200000", "090948.360000", "090952.310000", "090948.470000", "090952.420000", "090948.580000", "090952.530000", "090948.690000", "090952.640000", "090948.800000", "090952.747500", "090948.907500", "090952.857500", "090949.017500", "090952.967500", "090949.127500", "090953.077500", "090949.237500", "090953.187500", "090949.347500", "090953.297500", "090949.457500", "090953.407500", "090949.567500", "090953.517500", "090949.677500", "090953.627500", "090949.787500", "090953.735000", "090949.895000", "090953.845000", "090950.005000", "090957.815000", "090953.975000", "090957.925000", "090954.085000", "090958.035000", "090954.195000", "090958.145000", "090954.305000", "090958.255000", "090954.415000", "090958.365000", "090954.525000", "090958.475000", "090954.635000", "090958.582500", "090954.742500", "090958.692500", "090954.852500", "090958.802500", "090954.962500", "090958.912500", "090955.072500", "090959.022500", "090955.182500", "090959.132500", "090955.292500", "090959.242500", "090955.402500", "090959.352500", "090955.512500", "090959.460000", "090955.622500", "090959.570000", "090955.730000", "090959.680000", "090955.840000", "090959.790000", "090955.950000", "090959.900000", "090956.060000", "091000.010000", "090956.170000", "091000.120000", "090956.280000", "091000.230000", "090956.390000", "091000.340000", "090956.500000", "091000.447500", "090956.607500", "091000.557500", "090956.717500", "091000.667500", "090956.827500", "091000.777500", "090956.937500", "091000.887500", "090957.047500", "091000.997500", "090957.157500", "091001.107500", "090957.267500", "091001.217500", "090957.377500", "091001.327500", "090957.487500", "091001.435000", "090957.595000", "091001.545000", "090957.705000", "091005.515000", "091001.675000", "091005.625000", "091001.785000", "091005.735000", "091001.895000", "091005.845000", "091002.005000", "091005.955000", "091002.115000", "091006.065000", "091002.225000", "091006.175000", "091002.335000", "091006.282500", "091002.442500", "091006.392500", "091002.552500", "091006.502500", "091002.662500", "091006.612500", "091002.772500", "091006.722500", "091002.882500", "091006.832500", "091002.992500", "091006.942500", "091003.102500", "091007.052500", "091003.212500", "091007.160000", "091003.322500", "091007.270000", "091003.430000", "091007.380000", "091003.540000", "091007.490000", "091003.650000", "091007.600000", "091003.760000", "091007.710000", "091003.870000", "091007.820000", "091003.980000", "091007.930000", "091004.090000", "091008.040000", "091004.200000", "091008.147500", "091004.307500", "091008.257500", "091004.417500", "091008.367500", "091004.527500", "091008.477500", "091004.637500", "091008.587500", "091004.747500", "091008.697500", "091004.857500", "091008.807500", "091004.967500", "091008.917500", "091005.077500", "091009.027500", "091005.187500", "091009.135000", "091005.295000", "091009.245000", "091005.405000", "091013.215000", "091009.375000", "091013.325000", "091009.485000", "091013.435000", "091009.595000", "091013.545000", "091009.705000", "091013.655000", "091009.815000", "091013.765000", "091009.925000", "091013.875000", "091010.035000", "091013.982500", "091010.142500", "091014.092500", "091010.252500", "091014.202500", "091010.362500", "091014.312500", "091010.472500", "091014.422500", "091010.582500", "091014.532500", "091010.692500", "091014.642500", "091010.802500", "091014.752500", "091010.912500", "091014.860000", "091011.022500", "091014.970000", "091011.130000", "091015.080000", "091011.240000", "091015.190000", "091011.350000", "091015.300000", "091011.460000", "091015.410000", "091011.570000", "091015.520000", "091011.680000", "091015.630000", "091011.790000", "091015.740000", "091011.900000", "091015.847500", "091012.007500", "091015.957500", "091012.117500", "091016.067500", "091012.227500", "091016.177500", "091012.337500", "091016.287500", "091012.447500", "091016.397500", "091012.557500", "091016.507500", "091012.667500", "091016.617500", "091012.777500", "091016.727500", "091012.887500", "091016.835000", "091012.995000", "091016.945000", "091013.105000", "091020.915000", "091017.075000", "091021.025000", "091017.185000", "091021.135000", "091017.295000", "091021.245000", "091017.405000", "091021.355000", "091017.515000", "091021.465000", "091017.625000", "091021.575000", "091017.735000", "091021.682500", "091017.842500", "091021.792500", "091017.952500", "091021.902500", "091018.062500", "091022.012500", "091018.172500", "091022.122500", "091018.282500", "091022.232500", "091018.392500", "091022.342500", "091018.502500", "091022.452500", "091018.612500", "091022.560000", "091018.722500", "091022.670000", "091018.830000", "091022.780000", "091018.940000", "091022.890000", "091019.050000", "091023.000000", "091019.160000", "091023.110000", "091019.270000", "091023.220000", "091019.380000", "091023.330000", "091019.490000", "091023.440000", "091019.600000", "091023.547500", "091019.707500", "091023.657500", "091019.817500", "091023.767500", "091019.927500", "091023.877500", "091020.037500", "091023.987500", "091020.147500", "091024.097500", "091020.257500", "091024.207500", "091020.367500", "091024.317500", "091020.477500", "091024.427500", "091020.587500", "091024.535000", "091020.695000", "091024.645000", "091020.805000", "091028.615000", "091024.775000", "091028.725000", "091024.885000", "091028.835000", "091024.995000", "091028.945000", "091025.105000", "091029.055000", "091025.215000", "091029.165000", "091025.325000", "091029.275000", "091025.435000", "091029.382500", "091025.542500", "091029.492500", "091025.652500", "091029.602500", "091025.762500", "091029.712500", "091025.872500", "091029.822500", "091025.982500", "091029.932500", "091026.092500", "091030.042500", "091026.202500", "091030.152500", "091026.312500", "091030.260000", "091026.422500", "091030.370000", "091026.530000", "091030.480000", "091026.640000", "091030.590000", "091026.750000", "091030.700000", "091026.860000", "091030.810000", "091026.970000", "091030.920000", "091027.080000", "091031.030000", "091027.190000", "091031.140000", "091027.300000", "091031.247500", "091027.407500", "091031.357500", "091027.517500", "091031.467500", "091027.627500", "091031.577500", "091027.737500", "091031.687500", "091027.847500", "091031.797500", "091027.957500", "091031.907500", "091028.067500", "091032.017500", "091028.177500", "091032.127500", "091028.287500", "091032.235000", "091028.395000", "091032.345000", "091028.505000", "091036.315000", "091032.475000", "091036.425000", "091032.585000", "091036.535000", "091032.695000", "091036.645000", "091032.805000", "091036.755000", "091032.915000", "091036.865000", "091033.025000", "091036.975000", "091033.135000", "091037.082500", "091033.242500", "091037.192500", "091033.352500", "091037.302500", "091033.462500", "091037.412500", "091033.572500", "091037.522500", "091033.682500", "091037.632500", "091033.792500", "091037.742500", "091033.902500", "091037.852500", "091034.012500", "091037.960000", "091034.122500", "091038.070000", "091034.230000", "091038.180000", "091034.340000", "091038.290000", "091034.450000", "091038.400000", "091034.560000", "091038.510000", "091034.670000", "091038.620000", "091034.780000", "091038.730000", "091034.890000", "091038.840000", "091035.000000", "091038.947500", "091035.107500", "091039.057500", "091035.217500", "091039.167500", "091035.327500", "091039.277500", "091035.437500", "091039.387500", "091035.547500", "091039.497500", "091035.657500", "091039.607500", "091035.767500", "091039.717500", "091035.877500", "091039.827500", "091035.987500", "091039.935000", "091036.095000", "091040.045000", "091036.205000", "091044.015000", "091040.175000", "091044.125000", "091040.285000", "091044.235000", "091040.395000", "091044.345000", "091040.505000", "091044.455000", "091040.615000", "091044.565000", "091040.725000", "091044.675000", "091040.835000", "091044.782500", "091040.942500", "091044.892500", "091041.052500", "091045.002500", "091041.162500", "091045.112500", "091041.272500", "091045.222500", "091041.382500", "091045.332500", "091041.492500", "091045.442500", "091041.602500", "091045.552500", "091041.712500", "091045.660000", "091041.822500", "091045.770000", "091041.930000", "091045.880000", "091042.040000", "091045.990000", "091042.150000", "091046.100000", "091042.260000", "091046.210000", "091042.370000", "091046.320000", "091042.480000", "091046.430000", "091042.590000", "091046.540000", "091042.700000", "091046.647500", "091042.807500", "091046.757500", "091042.917500", "091046.867500", "091043.027500", "091046.977500", "091043.137500", "091047.087500", "091043.247500", "091047.197500", "091043.357500", "091047.307500", "091043.467500", "091047.417500", "091043.577500", "091047.527500", "091043.687500", "091047.635000", "091043.795000", "091047.745000", "091043.905000", "091051.715000", "091047.875000", "091051.825000", "091047.985000", "091051.935000", "091048.095000", "091052.045000", "091048.205000", "091052.155000", "091048.315000", "091052.265000", "091048.425000", "091052.375000", "091048.535000", "091052.482500", "091048.642500", "091052.592500", "091048.752500", "091052.702500", "091048.862500", "091052.812500", "091048.972500", "091052.922500", "091049.082500", "091053.032500", "091049.192500", "091053.142500", "091049.302500", "091053.252500", "091049.412500", "091053.360000", "091049.522500", "091053.470000", "091049.630000", "091053.580000", "091049.740000", "091053.690000", "091049.850000", "091053.800000", "091049.960000", "091053.910000", "091050.070000", "091054.020000", "091050.180000", "091054.130000", "091050.290000", "091054.240000", "091050.400000", "091054.347500", "091050.507500", "091054.457500", "091050.617500", "091054.567500", "091050.727500", "091054.677500", "091050.837500", "091054.787500", "091050.947500", "091054.897500", "091051.057500", "091055.007500", "091051.167500", "091055.117500", "091051.277500", "091055.227500", "091051.387500", "091055.335000", "091051.495000", "091055.445000", "091051.605000", "091059.415000", "091055.575000", "091059.525000", "091055.685000", "091059.635000", "091055.795000", "091059.745000", "091055.905000", "091059.855000", "091056.015000", "091059.965000", "091056.125000", "091100.075000", "091056.235000", "091100.182500", "091056.342500", "091100.292500", "091056.452500", "091100.402500", "091056.562500", "091100.512500", "091056.672500", "091100.622500", "091056.782500", "091100.732500", "091056.892500", "091100.842500", "091057.002500", "091100.952500", "091057.112500", "091101.060000", "091057.222500", "091101.170000", "091057.330000", "091101.280000", "091057.440000", "091101.390000", "091057.550000", "091101.500000", "091057.660000", "091101.610000", "091057.770000", "091101.720000", "091057.880000", "091101.830000", "091057.990000", "091101.940000", "091058.100000", "091102.047500", "091058.207500", "091102.157500", "091058.317500", "091102.267500", "091058.427500", "091102.377500", "091058.537500", "091102.487500", "091058.647500", "091102.597500", "091058.757500", "091102.707500", "091058.867500", "091102.817500", "091058.977500", "091102.927500", "091059.087500", "091103.035000", "091059.195000", "091103.145000", "091059.305000", "091107.115000", "091103.275000", "091107.225000", "091103.385000", "091107.335000", "091103.495000", "091107.445000", "091103.605000", "091107.555000", "091103.715000", "091107.665000", "091103.825000", "091107.775000", "091103.935000", "091107.882500", "091104.042500", "091107.992500", "091104.152500", "091108.102500", "091104.262500", "091108.212500", "091104.372500", "091108.322500", "091104.482500", "091108.432500", "091104.592500", "091108.542500", "091104.702500", "091108.652500", "091104.812500", "091108.760000", "091104.922500", "091108.870000", "091105.030000", "091108.980000", "091105.140000", "091109.090000", "091105.250000", "091109.200000", "091105.360000", "091109.310000", "091105.470000", "091109.420000", "091105.580000", "091109.530000", "091105.690000", "091109.640000", "091105.800000", "091109.747500", "091105.907500", "091109.857500", "091106.017500", "091109.967500", "091106.127500", "091110.077500", "091106.237500", "091110.187500", "091106.347500", "091110.297500", "091106.457500", "091110.407500", "091106.567500", "091110.517500", "091106.677500", "091110.627500", "091106.787500", "091110.735000", "091106.895000", "091110.845000", "091107.005000", "091114.815000", "091110.975000", "091114.925000", "091111.085000", "091115.035000", "091111.195000", "091115.145000", "091111.305000", "091115.255000", "091111.415000", "091115.365000", "091111.525000", "091115.475000", "091111.635000", "091115.582500", "091111.742500", "091115.692500", "091111.852500", "091115.802500", "091111.962500", "091115.912500", "091112.072500", "091116.022500", "091112.182500", "091116.132500", "091112.292500", "091116.242500", "091112.402500", "091116.352500", "091112.512500", "091116.460000", "091112.622500", "091116.570000", "091112.730000", "091116.680000", "091112.840000", "091116.790000", "091112.950000", "091116.900000", "091113.060000", "091117.010000", "091113.170000", "091117.120000", "091113.280000", "091117.230000", "091113.390000", "091117.340000", "091113.500000", "091117.447500", "091113.607500", "091117.557500", "091113.717500", "091117.667500", "091113.827500", "091117.777500", "091113.937500", "091117.887500", "091114.047500", "091117.997500", "091114.157500", "091118.107500", "091114.267500", "091118.217500", "091114.377500", "091118.327500", "091114.487500", "091118.435000", "091114.595000", "091118.545000", "091114.705000", "091122.515000", "091118.675000", "091122.625000", "091118.785000", "091122.735000", "091118.895000", "091122.845000", "091119.005000", "091122.955000", "091119.115000", "091123.065000", "091119.225000", "091123.175000", "091119.335000", "091123.282500", "091119.442500", "091123.392500", "091119.552500", "091123.502500", "091119.662500", "091123.612500", "091119.772500", "091123.722500", "091119.882500", "091123.832500", "091119.992500", "091123.942500", "091120.102500", "091124.052500", "091120.212500", "091124.160000", "091120.322500", "091124.270000", "091120.430000", "091124.380000", "091120.540000", "091124.490000", "091120.650000", "091124.600000", "091120.760000", "091124.710000", "091120.870000", "091124.820000", "091120.980000", "091124.930000", "091121.090000", "091125.040000", "091121.200000", "091125.147500", "091121.307500", "091125.257500", "091121.417500", "091125.367500", "091121.527500", "091125.477500", "091121.637500", "091125.587500", "091121.747500", "091125.697500", "091121.857500", "091125.807500", "091121.967500", "091125.917500", "091122.077500", "091126.027500", "091122.187500", "091126.135000", "091122.295000", "091126.245000", "091122.405000", "091130.215000", "091126.375000", "091130.325000", "091126.485000", "091130.435000", "091126.595000", "091130.545000", "091126.705000", "091130.655000", "091126.815000", "091130.765000", "091126.925000", "091130.875000", "091127.035000", "091130.982500", "091127.142500", "091131.092500", "091127.252500", "091131.202500", "091127.362500", "091131.312500", "091127.472500", "091131.422500", "091127.582500", "091131.532500", "091127.692500", "091131.642500", "091127.802500", "091131.752500", "091127.912500", "091131.860000", "091128.022500", "091131.970000", "091128.130000", "091132.080000", "091128.240000", "091132.190000", "091128.350000", "091132.300000", "091128.460000", "091132.410000", "091128.570000", "091132.520000", "091128.680000", "091132.630000", "091128.790000", "091132.740000", "091128.900000", "091132.847500", "091129.007500", "091132.957500", "091129.117500", "091133.067500", "091129.227500", "091133.177500", "091129.337500", "091133.287500", "091129.447500", "091133.397500", "091129.557500", "091133.507500", "091129.667500", "091133.617500", "091129.777500", "091133.727500", "091129.887500", "091133.835000", "091129.995000", "091133.945000", "091130.105000", "091137.915000", "091134.075000", "091138.025000", "091134.185000", "091138.135000", "091134.295000", "091138.245000", "091134.405000", "091138.355000", "091134.515000", "091138.465000", "091134.625000", "091138.575000", "091134.735000", "091138.682500", "091134.842500", "091138.792500", "091134.952500", "091138.902500", "091135.062500", "091139.012500", "091135.172500", "091139.122500", "091135.282500", "091139.232500", "091135.392500", "091139.342500", "091135.502500", "091139.452500", "091135.612500", "091139.560000", "091135.722500", "091139.670000", "091135.830000", "091139.780000", "091135.940000", "091139.890000", "091136.050000", "091140.000000", "091136.160000", "091140.110000", "091136.270000", "091140.220000", "091136.380000", "091140.330000", "091136.490000", "091140.440000", "091136.600000", "091140.547500", "091136.707500", "091140.657500", "091136.817500", "091140.767500", "091136.927500", "091140.877500", "091137.037500", "091140.987500", "091137.147500", "091141.097500", "091137.257500", "091141.207500", "091137.367500", "091141.317500", "091137.477500", "091141.427500", "091137.587500", "091141.535000", "091137.695000", "091141.645000", "091137.805000", "091145.615000", "091141.775000", "091145.725000", "091141.885000", "091145.835000", "091141.995000", "091145.945000", "091142.105000", "091146.055000", "091142.215000", "091146.165000", "091142.325000", "091146.275000", "091142.435000", "091146.382500", "091142.542500", "091146.492500", "091142.652500", "091146.602500", "091142.762500", "091146.712500", "091142.872500", "091146.822500", "091142.982500", "091146.932500", "091143.092500", "091147.042500", "091143.202500", "091147.152500", "091143.312500", "091147.260000", "091143.422500", "091147.370000", "091143.530000", "091147.480000", "091143.640000", "091147.590000", "091143.750000", "091147.700000", "091143.860000", "091147.810000", "091143.970000", "091147.920000", "091144.080000", "091148.030000", "091144.190000", "091148.140000", "091144.300000", "091148.247500", "091144.407500", "091148.357500", "091144.517500", "091148.467500", "091144.627500", "091148.577500", "091144.737500", "091148.687500", "091144.847500", "091148.797500", "091144.957500", "091148.907500", "091145.067500", "091149.017500", "091145.177500", "091149.127500", "091145.287500", "091149.235000", "091145.395000", "091149.345000", "091145.505000", "091153.315000", "091149.475000", "091153.425000", "091149.585000", "091153.535000", "091149.695000", "091153.645000", "091149.805000", "091153.755000", "091149.915000", "091153.865000", "091150.025000", "091153.975000", "091150.135000", "091154.082500", "091150.242500", "091154.192500", "091150.352500", "091154.302500", "091150.462500", "091154.412500", "091150.572500", "091154.522500", "091150.682500", "091154.632500", "091150.792500", "091154.742500", "091150.902500", "091154.852500", "091151.012500", "091154.960000", "091151.122500", "091155.070000", "091151.230000", "091155.180000", "091151.340000", "091155.290000", "091151.450000", "091155.400000", "091151.560000", "091155.510000", "091151.670000", "091155.620000", "091151.780000", "091155.730000", "091151.890000", "091155.840000", "091152.000000", "091155.947500", "091152.107500", "091156.057500", "091152.217500", "091156.167500", "091152.327500", "091156.277500", "091152.437500", "091156.387500", "091152.547500", "091156.497500", "091152.657500", "091156.607500", "091152.767500", "091156.717500", "091152.877500", "091156.827500", "091152.987500", "091156.935000", "091153.095000", "091157.045000", "091153.205000", "091201.015000", "091157.175000", "091201.125000", "091157.285000", "091201.235000", "091157.395000", "091201.345000", "091157.505000", "091201.455000", "091157.615000", "091201.565000", "091157.725000", "091201.675000", "091157.835000", "091201.782500", "091157.942500", "091201.892500", "091158.052500", "091202.002500", "091158.162500", "091202.112500", "091158.272500", "091202.222500", "091158.382500", "091202.332500", "091158.492500", "091202.442500", "091158.602500", "091202.552500", "091158.712500", "091202.660000", "091158.822500", "091202.770000", "091158.930000", "091202.8800