{
  "AcquisitionMatrixPE": 80,
  "AcquisitionNumber": 1,
  "AcquisitionTime": "10:17:4.150000",
  "BandwidthPerPixelPhaseEncode": 44.643,
  "BaseResolution": 80,
  "BodyPartExamined": "BRAIN",
  "CoilCombinationMethod": "Sum of Squares",
  "ConsistencyInfo": "N4_VE11C_LATEST_20160120",
  "ConversionSoftware": "dcm2niix",
  "ConversionSoftwareVersion": "v1.0.20220720",
  "DerivedVendorReportedEchoSpacing": 0.000559998,
  "DeviceSerialNumber": "66112",
  "DwellTime": 2.7e-06,
  "EchoTime": 0.035,
  "EchoTrainLength": 39,
  "EffectiveEchoSpacing": 0.000279999,
  "FlipAngle": 90,
  "HeudiconvVersion": "0.13.1",
  "ImageOrientationPatientDICOM": [0.999971, 0.00639516, 0.00421794, -0.00733031, 0.958727, 0.284235],
  "ImageOrientationText": "Tra>Cor(16.5)>Sag(0.1)",
  "ImageType": [
    "ORIGINAL",
    "PRIMARY",
    "M",
    "ND",
    "NORM",
    "MOSAIC"
],
  "ImagingFrequency": 123.252,
  "InPlanePhaseEncodingDirectionDICOM": "COL",
  "InstitutionAddress": "Maynard 3,Hanover,NH,US,03755",
  "InstitutionName": "Dartmouth College - PBS",
  "InstitutionalDepartmentName": "Department",
  "MRAcquisitionType": "2D",
  "MagneticFieldStrength": 3,
  "Manufacturer": "Siemens",
  "ManufacturersModelName": "Prisma",
  "Modality": "MR",
  "MultibandAccelerationFactor": 4,
  "NonlinearGradientCorrection": false,
  "ParallelReductionFactorInPlane": 2,
  "PartialFourier": 1,
  "PatientPosition": "HFS",
  "PercentPhaseFOV": 100,
  "PercentSampling": 100,
  "PhaseEncodingDirection": "j-",
  "PhaseEncodingSteps": 79,
  "PhaseResolution": 1,
  "PixelBandwidth": 2315,
  "ProcedureStepDescription": "dbic^QA",
  "ProtocolName": "func-bold_task-rest_acq-p2-s4-3.5mm",
  "PulseSequenceDetails": "%SiemensSeq%\\ep2d_bold",
  "ReceiveCoilActiveElements": "HEA;HEP",
  "ReceiveCoilName": "Head_32",
  "ReconMatrixPE": 80,
  "RefLinesPE": 24,
  "RepetitionTime": 2,
  "SAR": 0.0178346,
  "ScanOptions": "FS",
  "ScanningSequence": "EP",
  "SequenceName": "*epfid2d1_80",
  "SequenceVariant": "SK",
  "SeriesDescription": "func-bold_task-rest_acq-p2-s4-3.5mm",
  "SeriesNumber": 11,
  "ShimSetting": [4142, -7698, -7518, 292, -86, -150, -53, 62],
  "SliceThickness": 3.5,
  "SliceTiming": [1.485, 0, 0.99, 0.2475, 1.2375, 0.7425, 1.7325, 0.495, 1.485, 0, 0.99, 0.2475, 1.2375, 0.7425, 1.7325, 0.495, 1.485, 0, 0.99, 0.2475, 1.2375, 0.7425, 1.7325, 0.495, 1.485, 0, 0.99, 0.2475, 1.2375, 0.7425, 1.7325, 0.495],
  "SoftwareVersions": "syngo MR E11",
  "SpacingBetweenSlices": 3.99,
  "StationName": "AWP66112",
  "TaskName": "rest",
  "TotalReadoutTime": 0.0221199,
  "TxRefAmp": 224.363,
  "dcmmeta_affine": [
    [-2.9999120235443115, -0.021990936249494553, 0.008882218971848488, 121.20291900634766],
    [-0.019185487180948257, 2.8761801719665527, 1.134186863899231, -126.53926086425781],
    [0.012653807178139687, -0.8527043461799622, 3.82539439201355, -38.53202438354492],
    [0.0, 0.0, 0.0, 1.0]
],
  "dcmmeta_reorient_transform": [
    [0.0, -1.0, 0.0, 79.0],
    [1.0, 0.0, 0.0, 0.0],
    [0.0, 0.0, 1.0, 0.0],
    [0.0, 0.0, 0.0, 1.0]
],
  "dcmmeta_shape": [80, 80, 32, 200],
  "dcmmeta_slice_dim": 2,
  "dcmmeta_version": 0.6,
  "global": {
    "const": {
      "AccessionNumber": "qa",
      "AcquisitionMatrix": [80, 0, 0, 80],
      "AngioFlag": "N",
      "BitsAllocated": 16,
      "BitsStored": 12,
      "BodyPartExamined": "BRAIN",
      "Columns": 480,
      "EchoNumbers": 1,
      "EchoTime": 35.0,
      "EchoTrainLength": 39,
      "FlipAngle": 90.0,
      "HighBit": 11,
      "ImageOrientationPatient": [0.9999706550265, 0.00639516247893, 0.00421793583977, -0.0073303120857, 0.95872668624634, 0.28423477550055],
      "ImagePositionPatient": [-715.04983872524, -679.75207281803, -278.96729371776],
      "ImageType": [
        "ORIGINAL",
        "PRIMARY",
        "M",
        "ND",
        "NORM",
        "MOSAIC"
],
      "ImagedNucleus": "1H",
      "ImagingFrequency": 123.252348,
      "InPlanePhaseEncodingDirection": "COL",
      "MRAcquisitionType": "2D",
      "MagneticFieldStrength": 3.0,
      "Manufacturer": "SIEMENS",
      "ManufacturerModelName": "Prisma",
      "Modality": "MR",
      "NumberOfAverages": 1.0,
      "NumberOfPhaseEncodingSteps": 79,
      "PercentPhaseFieldOfView": 100.0,
      "PercentSampling": 100.0,
      "PerformedProcedureStepStartTime": "100104.609000",
      "PhotometricInterpretation": "MONOCHROME2",
      "PixelBandwidth": 2315.0,
      "PixelRepresentation": 0,
      "PixelSpacing": [3.0, 3.0],
      "ProtocolName": "func-bold_task-rest_acq-p2-s4-3.5mm",
      "RepetitionTime": 2000.0,
      "Rows": 480,
      "SAR": 0.01783461427713,
      "SamplesPerPixel": 1,
      "ScanOptions": "FS",
      "ScanningSequence": "EP",
      "SequenceName": "*epfid2d1_80",
      "SequenceVariant": "SK",
      "SeriesDescription": "func-bold_task-rest_acq-p2-s4-3.5mm",
      "SeriesNumber": 11,
      "SeriesTime": "101747.277000",
      "SliceLocation": -72.64230623544,
      "SliceThickness": 3.5,
      "SmallestImagePixelValue": 0,
      "SoftwareVersions": "syngo MR E11",
      "SpacingBetweenSlices": 3.99000013859,
      "SpecificCharacterSet": "ISO_IR 100",
      "StudyID": "56",
      "StudyTime": "100104.552000",
      "TransmitCoilName": "Body",
      "VariableFlipAngleFlag": "N",
      "WindowCenterWidthExplanation": "Algo1",
      "dBdt": 0.0},
    "slices": {}
  },
  "time": {
    "samples": {
      "AcquisitionNumber": [1, 2, 3, 4, 5, 6, 7, 8, 9, 10, 11, 12, 13, 14, 15, 16, 17, 18, 19, 20, 21, 22, 23, 24, 25, 26, 27, 28, 29, 30, 31, 32, 33, 34, 35, 36, 37, 38, 39, 40, 41, 42, 43, 44, 45, 46, 47, 48, 49, 50, 51, 52, 53, 54, 55, 56, 57, 58, 59, 60, 61, 62, 63, 64, 65, 66, 67, 68, 69, 70, 71, 72, 73, 74, 75, 76, 77, 78, 79, 80, 81, 82, 83, 84, 85, 86, 87, 88, 89, 90, 91, 92, 93, 94, 95, 96, 97, 98, 99, 100, 101, 102, 103, 104, 105, 106, 107, 108, 109, 110, 111, 112, 113, 114, 115, 116, 117, 118, 119, 120, 121, 122, 123, 124, 125, 126, 127, 128, 129, 130, 131, 132, 133, 134, 135, 136, 137, 138, 139, 140, 141, 142, 143, 144, 145, 146, 147, 148, 149, 150, 151, 152, 153, 154, 155, 156, 157, 158, 159, 160, 161, 162, 163, 164, 165, 166, 167, 168, 169, 170, 171, 172, 173, 174, 175, 176, 177, 178, 179, 180, 181, 182, 183, 184, 185, 186, 187, 188, 189, 190, 191, 192, 193, 194, 195, 196, 197, 198, 199, 200],
      "AcquisitionTime": ["101704.150000", "101706.150000", "101708.150000", "101710.150000", "101712.150000", "101714.150000", "101716.150000", "101718.150000", "101720.150000", "101722.150000", "101724.150000", "101726.150000", "101728.150000", "101730.150000", "101732.150000", "101734.150000", "101736.150000", "101738.150000", "101740.150000", "101742.150000", "101744.150000", "101746.150000", "101748.150000", "101750.150000", "101752.150000", "101754.150000", "101756.150000", "101758.150000", "101800.150000", "101802.150000", "101804.150000", "101806.150000", "101808.150000", "101810.150000", "101812.150000", "101814.150000", "101816.150000", "101818.150000", "101820.150000", "101822.150000", "101824.150000", "101826.150000", "101828.150000", "101830.150000", "101832.150000", "101834.150000", "101836.150000", "101838.150000", "101840.150000", "101842.150000", "101844.150000", "101846.150000", "101848.150000", "101850.150000", "101852.150000", "101854.150000", "101856.150000", "101858.150000", "101900.150000", "101902.150000", "101904.150000", "101906.150000", "101908.150000", "101910.150000", "101912.150000", "101914.150000", "101916.150000", "101918.150000", "101920.150000", "101922.150000", "101924.150000", "101926.150000", "101928.150000", "101930.150000", "101932.150000", "101934.150000", "101936.150000", "101938.150000", "101940.150000", "101942.150000", "101944.150000", "101946.150000", "101948.150000", "101950.150000", "101952.150000", "101954.150000", "101956.150000", "101958.150000", "102000.150000", "102002.150000", "102004.150000", "102006.150000", "102008.150000", "102010.150000", "102012.150000", "102014.150000", "102016.150000", "102018.150000", "102020.150000", "102022.150000", "102024.150000", "102026.150000", "102028.150000", "102030.150000", "102032.150000", "102034.150000", "102036.150000", "102038.150000", "102040.150000", "102042.150000", "102044.150000", "102046.150000", "102048.150000", "102050.150000", "102052.150000", "102054.150000", "102056.150000", "102058.150000", "102100.150000", "102102.150000", "102104.150000", "102106.150000", "102108.150000", "102110.150000", "102112.150000", "102114.150000", "102116.150000", "102118.150000", "102120.150000", "102122.150000", "102124.150000", "102126.150000", "102128.150000", "102130.150000", "102132.150000", "102134.150000", "102136.150000", "102138.150000", "102140.150000", "102142.150000", "102144.150000", "102146.150000", "102148.150000", "102150.150000", "102152.150000", "102154.150000", "102156.150000", "102158.150000", "102200.150000", "102202.150000", "102204.150000", "102206.150000", "102208.150000", "102210.150000", "102212.150000", "102214.150000", "102216.150000", "102218.150000", "102220.150000", "102222.150000", "102224.150000", "102226.150000", "102228.150000", "102230.150000", "102232.150000", "102234.150000", "102236.150000", "102238.150000", "102240.150000", "102242.150000", "102244.150000", "102246.150000", "102248.150000", "102250.150000", "102252.150000", "102254.150000", "102256.150000", "102258.150000", "102300.150000", "102302.150000", "102304.150000", "102306.150000", "102308.150000", "102310.150000", "102312.150000", "102314.150000", "102316.150000", "102318.150000", "102320.150000", "102322.150000", "102324.150000", "102326.150000", "102328.150000", "102330.150000", "102332.150000", "102334.150000", "102336.150000", "102338.150000", "102340.150000", "102342.150000"],
      "ContentTime": ["101747.280000", "101747.284000", "101747.286000", "101747.289000", "101747.291000", "101747.294000", "101747.296000", "101747.299000", "101747.302000", "101747.304000", "101747.307000", "101747.313000", "101747.315000", "101747.318000", "101747.320000", "101747.323000", "101747.330000", "101747.333000", "101747.335000", "101747.338000", "101747.340000", "101827.268000", "101827.271000", "101827.274000", "101827.277000", "101827.279000", "101827.281000", "101827.284000", "101827.287000", "101827.289000", "101827.292000", "101827.294000", "101827.297000", "101827.299000", "101827.302000", "101827.304000", "101827.307000", "101827.309000", "101827.312000", "101827.324000", "101827.327000", "101907.268000", "101907.271000", "101907.274000", "101907.276000", "101907.279000", "101907.282000", "101907.284000", "101907.287000", "101907.289000", "101907.292000", "101907.294000", "101907.297000", "101907.299000", "101907.302000", "101907.304000", "101907.307000", "101907.309000", "101907.312000", "101907.314000", "101907.317000", "101947.268000", "101947.271000", "101947.274000", "101947.277000", "101947.279000", "101947.282000", "101947.284000", "101947.287000", "101947.289000", "101947.292000", "101947.294000", "101947.297000", "101947.299000", "101947.302000", "101947.304000", "101947.307000", "101947.309000", "101947.312000", "101947.314000", "101947.317000", "102027.268000", "102027.271000", "102027.274000", "102027.276000", "102027.279000", "102027.282000", "102027.284000", "102027.287000", "102027.289000", "102027.292000", "102027.294000", "102027.297000", "102027.299000", "102027.302000", "102027.305000", "102027.307000", "102027.310000", "102027.312000", "102027.315000", "102027.317000", "102107.268000", "102107.271000", "102107.274000", "102107.276000", "102107.279000", "102107.282000", "102107.284000", "102107.287000", "102107.289000", "102107.292000", "102107.294000", "102107.297000", "102107.299000", "102107.302000", "102107.305000", "102107.307000", "102107.310000", "102107.312000", "102107.315000", "102107.317000", "102147.268000", "102147.271000", "102147.273000", "102147.276000", "102147.278000", "102147.281000", "102147.283000", "102147.286000", "102147.288000", "102147.291000", "102147.293000", "102147.296000", "102147.298000", "102147.301000", "102147.304000", "102147.306000", "102147.309000", "102147.311000", "102147.314000", "102147.316000", "102227.268000", "102227.271000", "102227.274000", "102227.276000", "102227.279000", "102227.282000", "102227.284000", "102227.287000", "102227.289000", "102227.292000", "102227.294000", "102227.297000", "102227.299000", "102227.302000", "102227.305000", "102227.307000", "102227.310000", "102227.312000", "102227.315000", "102227.317000", "102307.268000", "102307.271000", "102307.274000", "102307.276000", "102307.279000", "102307.281000", "102307.284000", "102307.286000", "102307.289000", "102307.292000", "102307.301000", "102307.303000", "102307.306000", "102307.308000", "102307.311000", "102307.314000", "102307.316000", "102307.319000", "102307.321000", "102307.324000", "102343.565000", "102343.568000", "102343.570000", "102343.573000", "102343.576000", "102343.579000", "102343.581000", "102343.584000", "102343.587000", "102343.589000", "102343.592000", "102343.598000", "102343.604000", "102343.607000", "102343.610000", "102343.617000", "102343.620000", "102343.623000", "102343.626000"],
      "InstanceCreationTime": ["101747.280000", "101747.284000", "101747.286000", "101747.289000", "101747.291000", "101747.294000", "101747.296000", "101747.299000", "101747.302000", "101747.304000", "101747.307000", "101747.313000", "101747.315000", "101747.318000", "101747.320000", "101747.323000", "101747.330000", "101747.333000", "101747.335000", "101747.338000", "101747.340000", "101827.268000", "101827.271000", "101827.274000", "101827.277000", "101827.279000", "101827.281000", "101827.284000", "101827.287000", "101827.289000", "101827.292000", "101827.294000", "101827.297000", "101827.299000", "101827.302000", "101827.304000", "101827.307000", "101827.309000", "101827.312000", "101827.324000", "101827.327000", "101907.268000", "101907.271000", "101907.274000", "101907.276000", "101907.279000", "101907.282000", "101907.284000", "101907.287000", "101907.289000", "101907.292000", "101907.294000", "101907.297000", "101907.299000", "101907.302000", "101907.304000", "101907.307000", "101907.309000", "101907.312000", "101907.314000", "101907.317000", "101947.268000", "101947.271000", "101947.274000", "101947.277000", "101947.279000", "101947.282000", "101947.284000", "101947.287000", "101947.289000", "101947.292000", "101947.294000", "101947.297000", "101947.299000", "101947.302000", "101947.304000", "101947.307000", "101947.309000", "101947.312000", "101947.314000", "101947.317000", "102027.268000", "102027.271000", "102027.274000", "102027.276000", "102027.279000", "102027.282000", "102027.284000", "102027.287000", "102027.289000", "102027.292000", "102027.294000", "102027.297000", "102027.299000", "102027.302000", "102027.305000", "102027.307000", "102027.310000", "102027.312000", "102027.315000", "102027.317000", "102107.268000", "102107.271000", "102107.274000", "102107.276000", "102107.279000", "102107.282000", "102107.284000", "102107.287000", "102107.289000", "102107.292000", "102107.294000", "102107.297000", "102107.299000", "102107.302000", "102107.305000", "102107.307000", "102107.310000", "102107.312000", "102107.315000", "102107.317000", "102147.268000", "102147.271000", "102147.273000", "102147.276000", "102147.278000", "102147.281000", "102147.283000", "102147.286000", "102147.288000", "102147.291000", "102147.293000", "102147.296000", "102147.298000", "102147.301000", "102147.304000", "102147.306000", "102147.309000", "102147.311000", "102147.314000", "102147.316000", "102227.268000", "102227.271000", "102227.274000", "102227.276000", "102227.279000", "102227.282000", "102227.284000", "102227.287000", "102227.289000", "102227.292000", "102227.294000", "102227.297000", "102227.299000", "102227.302000", "102227.305000", "102227.307000", "102227.310000", "102227.312000", "102227.315000", "102227.317000", "102307.268000", "102307.271000", "102307.274000", "102307.276000", "102307.279000", "102307.281000", "102307.284000", "102307.286000", "102307.289000", "102307.292000", "102307.301000", "102307.303000", "102307.306000", "102307.308000", "102307.311000", "102307.314000", "102307.316000", "102307.319000", "102307.321000", "102307.324000", "102343.565000", "102343.568000", "102343.570000", "102343.573000", "102343.576000", "102343.579000", "102343.581000", "102343.584000", "102343.587000", "102343.589000", "102343.592000", "102343.598000", "102343.604000", "102343.607000", "102343.610000", "102343.617000", "102343.620000", "102343.623000", "102343.626000"],
      "InstanceNumber": [1, 2, 3, 4, 5, 6, 7, 8, 9, 10, 11, 12, 13, 14, 15, 16, 17, 18, 19, 20, 21, 22, 23, 24, 25, 26, 27, 28, 29, 30, 31, 32, 33, 34, 35, 36, 37, 38, 39, 40, 41, 42, 43, 44, 45, 46, 47, 48, 49, 50, 51, 52, 53, 54, 55, 56, 57, 58, 59, 60, 61, 62, 63, 64, 65, 66, 67, 68, 69, 70, 71, 72, 73, 74, 75, 76, 77, 78, 79, 80, 81, 82, 83, 84, 85, 86, 87, 88, 89, 90, 91, 92, 93, 94, 95, 96, 97, 98, 99, 100, 101, 102, 103, 104, 105, 106, 107, 108, 109, 110, 111, 112, 113, 114, 115, 116, 117, 118, 119, 120, 121, 122, 123, 124, 125, 126, 127, 128, 129, 130, 131, 132, 133, 134, 135, 136, 137, 138, 139, 140, 141, 142, 143, 144, 145, 146, 147, 148, 149, 150, 151, 152, 153, 154, 155, 156, 157, 158, 159, 160, 161, 162, 163, 164, 165, 166, 167, 168, 169, 170, 171, 172, 173, 174, 175, 176, 177, 178, 179, 180, 181, 182, 183, 184, 185, 186, 187, 188, 189, 190, 191, 192, 193, 194, 195, 196, 197, 198, 199, 200],
      "LargestImagePixelValue": [2158, 2161, 2162, 2161, 2162, 2163, 2161, 2159, 2160, 2159, 2160, 2161, 2157, 2157, 2160, 2160, 2161, 2161, 2160, 2164, 2162, 2165, 2163, 2166, 2157, 2160, 2162, 2168, 2159, 2163, 2162, 2160, 2158, 2172, 2159, 2161, 2163, 2165, 2162, 2155, 2164, 2164, 2166, 2162, 2162, 2162, 2163, 2164, 2164, 2165, 2166, 2163, 2161, 2160, 2161, 2169, 2164, 2167, 2170, 2167, 2162, 2167, 2166, 2170, 2167, 2165, 2160, 2167, 2165, 2166, 2167, 2165, 2168, 2165, 2164, 2164, 2167, 2166, 2167, 2169, 2172, 2167, 2168, 2169, 2163, 2166, 2167, 2169, 2165, 2165, 2165, 2169, 2164, 2167, 2168, 2171, 2165, 2166, 2168, 2164, 2165, 2172, 2169, 2163, 2169, 2166, 2167, 2166, 2163, 2166, 2168, 2168, 2169, 2171, 2165, 2160, 2169, 2167, 2169, 2163, 2164, 2167, 2166, 2165, 2166, 2163, 2170, 2165, 2167, 2170, 2168, 2169, 2168, 2166, 2162, 2162, 2168, 2169, 2169, 2164, 2167, 2166, 2166, 2173, 2174, 2168, 2165, 2169, 2168, 2166, 2170, 2169, 2169, 2172, 2170, 2170, 2174, 2165, 2169, 2172, 2170, 2168, 2173, 2172, 2167, 2166, 2172, 2171, 2164, 2170, 2169, 2170, 2174, 2173, 2173, 2169, 2172, 2176, 2172, 2171, 2170, 2172, 2169, 2174, 2172, 2171, 2170, 2170, 2171, 2174, 2172, 2172, 2173, 2170, 2167, 2176, 2170, 2169, 2173, 2168],
      "WindowCenter": [938.0, 938.0, 938.0, 938.0, 938.0, 938.0, 938.0, 938.0, 938.0, 938.0, 938.0, 938.0, 938.0, 938.0, 938.0, 938.0, 938.0, 938.0, 938.0, 938.0, 938.0, 938.0, 938.0, 938.0, 938.0, 938.0, 938.0, 938.0, 938.0, 938.0, 938.0, 938.0, 938.0, 938.0, 938.0, 938.0, 938.0, 938.0, 938.0, 938.0, 938.0, 938.0, 938.0, 938.0, 938.0, 938.0, 938.0, 938.0, 938.0, 938.0, 938.0, 938.0, 938.0, 938.0, 938.0, 938.0, 938.0, 938.0, 938.0, 938.0, 938.0, 938.0, 938.0, 938.0, 938.0, 938.0, 938.0, 938.0, 938.0, 938.0, 938.0, 938.0, 938.0, 938.0, 938.0, 938.0, 938.0, 938.0, 938.0, 938.0, 938.0, 938.0, 938.0, 938.0, 938.0, 938.0, 938.0, 938.0, 938.0, 938.0, 938.0, 938.0, 938.0, 938.0, 938.0, 938.0, 938.0, 938.0, 938.0, 938.0, 938.0, 938.0, 938.0, 938.0, 938.0, 938.0, 939.0, 938.0, 938.0, 938.0, 938.0, 938.0, 938.0, 939.0, 938.0, 939.0, 938.0, 939.0, 938.0, 939.0, 939.0, 939.0, 939.0, 939.0, 938.0, 939.0, 938.0, 939.0, 939.0, 938.0, 938.0, 938.0, 939.0, 938.0, 938.0, 938.0, 938.0, 938.0, 938.0, 938.0, 938.0, 938.0, 938.0, 938.0, 938.0, 938.0, 938.0, 938.0, 938.0, 938.0, 938.0, 938.0, 938.0, 938.0, 938.0, 938.0, 938.0, 938.0, 938.0, 938.0, 938.0, 938.0, 938.0, 938.0, 938.0, 938.0, 938.0, 938.0, 938.0, 938.0, 938.0, 938.0, 938.0, 938.0, 938.0, 938.0, 938.0, 938.0, 938.0, 938.0, 939.0, 938.0, 938.0, 939.0, 938.0, 938.0, 938.0, 938.0, 938.0, 939.0, 938.0, 938.0, 938.0, 938.0, 938.0, 939.0, 938.0, 938.0, 938.0, 938.0],
      "WindowWidth": [2166.0, 2166.0, 2166.0, 2166.0, 2166.0, 2166.0, 2166.0, 2166.0, 2166.0, 2166.0, 2166.0, 2166.0, 2166.0, 2166.0, 2166.0, 2166.0, 2166.0, 2166.0, 2166.0, 2166.0, 2166.0, 2166.0, 2166.0, 2166.0, 2166.0, 2166.0, 2166.0, 2166.0, 2166.0, 2166.0, 2166.0, 2166.0, 2166.0, 2166.0, 2166.0, 2167.0, 2166.0, 2166.0, 2166.0, 2166.0, 2166.0, 2166.0, 2166.0, 2166.0, 2166.0, 2166.0, 2167.0, 2166.0, 2166.0, 2166.0, 2166.0, 2166.0, 2166.0, 2167.0, 2166.0, 2166.0, 2166.0, 2166.0, 2166.0, 2166.0, 2166.0, 2166.0, 2166.0, 2166.0, 2167.0, 2166.0, 2166.0, 2167.0, 2166.0, 2166.0, 2166.0, 2167.0, 2167.0, 2166.0, 2167.0, 2167.0, 2167.0, 2167.0, 2166.0, 2167.0, 2166.0, 2166.0, 2167.0, 2167.0, 2166.0, 2166.0, 2166.0, 2166.0, 2166.0, 2167.0, 2167.0, 2167.0, 2167.0, 2167.0, 2167.0, 2167.0, 2167.0, 2167.0, 2167.0, 2167.0, 2167.0, 2167.0, 2167.0, 2167.0, 2167.0, 2167.0, 2167.0, 2167.0, 2167.0, 2167.0, 2167.0, 2167.0, 2167.0, 2167.0, 2167.0, 2167.0, 2167.0, 2167.0, 2167.0, 2167.0, 2167.0, 2167.0, 2167.0, 2167.0, 2167.0, 2167.0, 2167.0, 2167.0, 2167.0, 2167.0, 2167.0, 2167.0, 2167.0, 2167.0, 2167.0, 2167.0, 2167.0, 2167.0, 2167.0, 2167.0, 2167.0, 2167.0, 2167.0, 2167.0, 2167.0, 2167.0, 2167.0, 2167.0, 2167.0, 2167.0, 2167.0, 2167.0, 2166.0, 2167.0, 2167.0, 2167.0, 2167.0, 2167.0, 2167.0, 2167.0, 2167.0, 2167.0, 2167.0, 2167.0, 2167.0, 2167.0, 2167.0, 2167.0, 2167.0, 2167.0, 2167.0, 2167.0, 2167.0, 2167.0, 2167.0, 2167.0, 2167.0, 2167.0, 2167.0, 2167.0, 2167.0, 2167.0, 2167.0, 2167.0, 2167.0, 2167.0, 2167.0, 2167.0, 2167.0, 2167.0, 2167.0, 2167.0, 2167.0, 2167.0, 2167.0, 2167.0, 2167.0, 2167.0, 2167.0, 2167.0]
    },
    "slices": {}
  }
}