{
  "AcquisitionMatrixPE": 80,
  "AcquisitionNumber": 1,
  "AcquisitionTime": "10:06:9.157500",
  "BandwidthPerPixelPhaseEncode": 44.643,
  "BaseResolution": 80,
  "BodyPartExamined": "BRAIN",
  "CoilCombinationMethod": "Sum of Squares",
  "ConsistencyInfo": "N4_VE11C_LATEST_20160120",
  "ConversionSoftware": "dcm2niix",
  "ConversionSoftwareVersion": "v1.0.20220720",
  "DerivedVendorReportedEchoSpacing": 0.000559998,
  "DeviceSerialNumber": "66112",
  "DwellTime": 2.7e-06,
  "EchoTime": 0.035,
  "EchoTrainLength": 39,
  "EffectiveEchoSpacing": 0.000279999,
  "FlipAngle": 90,
  "HeudiconvVersion": "0.13.1",
  "ImageOrientationPatientDICOM": [0.97648, -0.215582, 0.00325506, 0.204353, 0.93022, 0.304845],
  "ImageOrientationText": "Tra>Cor(17.3)>Sag(3.9)",
  "ImageType": [
    "ORIGINAL",
    "PRIMARY",
    "M",
    "ND",
    "NORM",
    "MOSAIC"
],
  "ImagingFrequency": 123.252,
  "InPlanePhaseEncodingDirectionDICOM": "COL",
  "InstitutionAddress": "Maynard 3,Hanover,NH,US,03755",
  "InstitutionName": "Dartmouth College - PBS",
  "InstitutionalDepartmentName": "Department",
  "MRAcquisitionType": "2D",
  "MagneticFieldStrength": 3,
  "Manufacturer": "Siemens",
  "ManufacturersModelName": "Prisma",
  "Modality": "MR",
  "MultibandAccelerationFactor": 4,
  "NonlinearGradientCorrection": false,
  "ParallelReductionFactorInPlane": 2,
  "PartialFourier": 1,
  "PatientPosition": "HFS",
  "PercentPhaseFOV": 100,
  "PercentSampling": 100,
  "PhaseEncodingDirection": "j-",
  "PhaseEncodingSteps": 79,
  "PhaseResolution": 1,
  "PixelBandwidth": 2315,
  "ProcedureStepDescription": "dbic^QA",
  "ProtocolName": "func-bold_task-rest_acq-p2-s4-3.5mm",
  "PulseSequenceDetails": "%SiemensSeq%\\ep2d_bold",
  "ReceiveCoilActiveElements": "HEA;HEP",
  "ReceiveCoilName": "Head_32",
  "ReconMatrixPE": 80,
  "RefLinesPE": 24,
  "RepetitionTime": 2,
  "SAR": 0.0209366,
  "ScanOptions": "FS",
  "ScanningSequence": "EP",
  "SequenceName": "*epfid2d1_80",
  "SequenceVariant": "SK",
  "SeriesDescription": "func-bold_task-rest_acq-p2-s4-3.5mm",
  "SeriesNumber": 7,
  "ShimSetting": [4144, -7691, -7517, 239, -84, -51, -31, 55],
  "SliceThickness": 3.5,
  "SliceTiming": [1.485, 0, 0.99, 0.2475, 1.2375, 0.7425, 1.7325, 0.495, 1.485, 0, 0.99, 0.2475, 1.2375, 0.7425, 1.7325, 0.495, 1.485, 0, 0.99, 0.2475, 1.2375, 0.7425, 1.7325, 0.495, 1.485, 0, 0.99, 0.2475, 1.2375, 0.7425, 1.7325, 0.495],
  "SoftwareVersions": "syngo MR E11",
  "SpacingBetweenSlices": 3.99,
  "StationName": "AWP66112",
  "TaskName": "rest",
  "TotalReadoutTime": 0.0221199,
  "TxRefAmp": 226.235,
  "dcmmeta_affine": [
    [-2.92944073677063, 0.6130593419075012, 0.27430078387260437, 93.05912017822266],
    [0.6467471122741699, 2.7906603813171387, 1.1850686073303223, -141.51611328125],
    [0.009765176102519035, -0.9145341515541077, 3.8000619411468506, -14.950942993164062],
    [0.0, 0.0, 0.0, 1.0]
],
  "dcmmeta_reorient_transform": [
    [0.0, -1.0, 0.0, 79.0],
    [1.0, 0.0, 0.0, 0.0],
    [0.0, 0.0, 1.0, 0.0],
    [0.0, 0.0, 0.0, 1.0]
],
  "dcmmeta_shape": [80, 80, 32, 200],
  "dcmmeta_slice_dim": 2,
  "dcmmeta_version": 0.6,
  "global": {
    "const": {
      "AccessionNumber": "qa",
      "AcquisitionMatrix": [80, 0, 0, 80],
      "AngioFlag": "N",
      "BitsAllocated": 16,
      "BitsStored": 12,
      "BodyPartExamined": "BRAIN",
      "Columns": 480,
      "EchoNumbers": 1,
      "EchoTime": 35.0,
      "EchoTrainLength": 39,
      "FlipAngle": 90.0,
      "HighBit": 11,
      "ImageOrientationPatient": [0.97648023472492, -0.2155823642697, 0.00325505875034, 0.2043531058417, 0.93022013617933, 0.30484472503124],
      "ImagePositionPatient": [-849.9908120826, -507.72871804136, -272.0590133596],
      "ImageType": [
        "ORIGINAL",
        "PRIMARY",
        "M",
        "ND",
        "NORM",
        "MOSAIC"
],
      "ImagedNucleus": "1H",
      "ImagingFrequency": 123.252379,
      "InPlanePhaseEncodingDirection": "COL",
      "MRAcquisitionType": "2D",
      "MagneticFieldStrength": 3.0,
      "Manufacturer": "SIEMENS",
      "ManufacturerModelName": "Prisma",
      "Modality": "MR",
      "NumberOfAverages": 1.0,
      "NumberOfPhaseEncodingSteps": 79,
      "PercentPhaseFieldOfView": 100.0,
      "PercentSampling": 100.0,
      "PerformedProcedureStepStartTime": "095451.635000",
      "PhotometricInterpretation": "MONOCHROME2",
      "PixelBandwidth": 2315.0,
      "PixelRepresentation": 0,
      "PixelSpacing": [3.0, 3.0],
      "ProtocolName": "func-bold_task-rest_acq-p2-s4-3.5mm",
      "RepetitionTime": 2000.0,
      "Rows": 480,
      "SAR": 0.02093664688755,
      "SamplesPerPixel": 1,
      "ScanOptions": "FS",
      "ScanningSequence": "EP",
      "SequenceName": "*epfid2d1_80",
      "SequenceVariant": "SK",
      "SeriesDescription": "func-bold_task-rest_acq-p2-s4-3.5mm",
      "SeriesNumber": 7,
      "SeriesTime": "100701.150000",
      "SliceLocation": -49.873339267181,
      "SliceThickness": 3.5,
      "SmallestImagePixelValue": 0,
      "SoftwareVersions": "syngo MR E11",
      "SpacingBetweenSlices": 3.9899999655927,
      "SpecificCharacterSet": "ISO_IR 100",
      "StudyID": "27",
      "StudyTime": "095451.590000",
      "TransmitCoilName": "Body",
      "VariableFlipAngleFlag": "N",
      "WindowCenter": 912.0,
      "WindowCenterWidthExplanation": "Algo1",
      "dBdt": 0.0},
    "slices": {}
  },
  "time": {
    "samples": {
      "AcquisitionNumber": [1, 2, 3, 4, 5, 6, 7, 8, 9, 10, 11, 12, 13, 14, 15, 16, 17, 18, 19, 20, 21, 22, 23, 24, 25, 26, 27, 28, 29, 30, 31, 32, 33, 34, 35, 36, 37, 38, 39, 40, 41, 42, 43, 44, 45, 46, 47, 48, 49, 50, 51, 52, 53, 54, 55, 56, 57, 58, 59, 60, 61, 62, 63, 64, 65, 66, 67, 68, 69, 70, 71, 72, 73, 74, 75, 76, 77, 78, 79, 80, 81, 82, 83, 84, 85, 86, 87, 88, 89, 90, 91, 92, 93, 94, 95, 96, 97, 98, 99, 100, 101, 102, 103, 104, 105, 106, 107, 108, 109, 110, 111, 112, 113, 114, 115, 116, 117, 118, 119, 120, 121, 122, 123, 124, 125, 126, 127, 128, 129, 130, 131, 132, 133, 134, 135, 136, 137, 138, 139, 140, 141, 142, 143, 144, 145, 146, 147, 148, 149, 150, 151, 152, 153, 154, 155, 156, 157, 158, 159, 160, 161, 162, 163, 164, 165, 166, 167, 168, 169, 170, 171, 172, 173, 174, 175, 176, 177, 178, 179, 180, 181, 182, 183, 184, 185, 186, 187, 188, 189, 190, 191, 192, 193, 194, 195, 196, 197, 198, 199, 200],
      "AcquisitionTime": ["100609.157500", "100611.157500", "100613.157500", "100615.157500", "100617.157500", "100619.157500", "100621.157500", "100623.157500", "100625.157500", "100627.157500", "100629.157500", "100631.157500", "100633.157500", "100635.157500", "100637.157500", "100639.157500", "100641.157500", "100643.157500", "100645.157500", "100647.157500", "100649.157500", "100651.157500", "100653.157500", "100655.157500", "100657.157500", "100659.157500", "100701.157500", "100703.157500", "100705.157500", "100707.157500", "100709.157500", "100711.157500", "100713.157500", "100715.157500", "100717.157500", "100719.157500", "100721.157500", "100723.157500", "100725.157500", "100727.157500", "100729.157500", "100731.157500", "100733.157500", "100735.157500", "100737.157500", "100739.157500", "100741.157500", "100743.157500", "100745.157500", "100747.157500", "100749.157500", "100751.157500", "100753.157500", "100755.157500", "100757.157500", "100759.157500", "100801.157500", "100803.157500", "100805.157500", "100807.157500", "100809.157500", "100811.157500", "100813.157500", "100815.157500", "100817.157500", "100819.157500", "100821.157500", "100823.157500", "100825.157500", "100827.157500", "100829.157500", "100831.157500", "100833.157500", "100835.157500", "100837.157500", "100839.157500", "100841.157500", "100843.157500", "100845.157500", "100847.157500", "100849.157500", "100851.157500", "100853.157500", "100855.157500", "100857.157500", "100859.157500", "100901.157500", "100903.157500", "100905.157500", "100907.157500", "100909.157500", "100911.157500", "100913.157500", "100915.157500", "100917.157500", "100919.157500", "100921.157500", "100923.157500", "100925.157500", "100927.157500", "100929.157500", "100931.157500", "100933.157500", "100935.157500", "100937.157500", "100939.157500", "100941.157500", "100943.157500", "100945.157500", "100947.157500", "100949.157500", "100951.157500", "100953.157500", "100955.157500", "100957.157500", "100959.157500", "101001.157500", "101003.157500", "101005.157500", "101007.157500", "101009.157500", "101011.157500", "101013.157500", "101015.157500", "101017.157500", "101019.157500", "101021.157500", "101023.157500", "101025.157500", "101027.157500", "101029.157500", "101031.157500", "101033.157500", "101035.157500", "101037.157500", "101039.157500", "101041.157500", "101043.157500", "101045.157500", "101047.157500", "101049.157500", "101051.157500", "101053.157500", "101055.157500", "101057.157500", "101059.157500", "101101.157500", "101103.157500", "101105.157500", "101107.157500", "101109.157500", "101111.157500", "101113.157500", "101115.157500", "101117.157500", "101119.157500", "101121.157500", "101123.157500", "101125.157500", "101127.157500", "101129.157500", "101131.157500", "101133.157500", "101135.157500", "101137.157500", "101139.157500", "101141.157500", "101143.157500", "101145.157500", "101147.157500", "101149.157500", "101151.157500", "101153.157500", "101155.157500", "101157.157500", "101159.157500", "101201.157500", "101203.157500", "101205.157500", "101207.157500", "101209.157500", "101211.157500", "101213.157500", "101215.157500", "101217.157500", "101219.157500", "101221.157500", "101223.157500", "101225.157500", "101227.157500", "101229.157500", "101231.157500", "101233.157500", "101235.157500", "101237.157500", "101239.157500", "101241.157500", "101243.157500", "101245.157500", "101247.157500"],
      "ContentTime": ["100701.153000", "100701.157000", "100701.159000", "100701.162000", "100701.169000", "100701.172000", "100701.174000", "100701.177000", "100701.179000", "100701.182000", "100701.185000", "100701.187000", "100701.190000", "100701.192000", "100701.195000", "100701.198000", "100701.207000", "100701.209000", "100701.212000", "100701.214000", "100701.217000", "100701.220000", "100701.222000", "100701.225000", "100701.228000", "100701.230000", "100741.149000", "100741.151000", "100741.154000", "100741.157000", "100741.159000", "100741.162000", "100741.165000", "100741.167000", "100741.170000", "100741.172000", "100741.181000", "100741.183000", "100741.186000", "100741.188000", "100741.191000", "100741.194000", "100741.196000", "100741.199000", "100741.202000", "100741.204000", "100821.147000", "100821.150000", "100821.153000", "100821.156000", "100821.158000", "100821.161000", "100821.164000", "100821.166000", "100821.169000", "100821.171000", "100821.174000", "100821.177000", "100821.179000", "100821.182000", "100821.184000", "100821.187000", "100821.190000", "100821.192000", "100821.195000", "100821.197000", "100901.149000", "100901.151000", "100901.154000", "100901.157000", "100901.159000", "100901.162000", "100901.165000", "100901.167000", "100901.170000", "100901.172000", "100901.175000", "100901.178000", "100901.180000", "100901.183000", "100901.185000", "100901.188000", "100901.191000", "100901.193000", "100901.196000", "100901.199000", "100941.148000", "100941.151000", "100941.154000", "100941.157000", "100941.159000", "100941.162000", "100941.165000", "100941.167000", "100941.170000", "100941.172000", "100941.175000", "100941.178000", "100941.180000", "100941.183000", "100941.186000", "100941.188000", "100941.191000", "100941.193000", "100941.196000", "100941.198000", "101021.149000", "101021.151000", "101021.154000", "101021.157000", "101021.159000", "101021.162000", "101021.165000", "101021.167000", "101021.170000", "101021.172000", "101021.175000", "101021.178000", "101021.180000", "101021.183000", "101021.186000", "101021.188000", "101021.191000", "101021.193000", "101021.196000", "101021.221000", "101101.149000", "101101.151000", "101101.154000", "101101.157000", "101101.159000", "101101.162000", "101101.165000", "101101.167000", "101101.170000", "101101.173000", "101101.175000", "101101.178000", "101101.181000", "101101.183000", "101101.186000", "101101.189000", "101101.191000", "101101.194000", "101101.196000", "101101.199000", "101141.149000", "101141.151000", "101141.154000", "101141.157000", "101141.159000", "101141.162000", "101141.165000", "101141.167000", "101141.170000", "101141.172000", "101141.175000", "101141.178000", "101141.180000", "101141.183000", "101141.186000", "101141.188000", "101141.191000", "101141.193000", "101141.200000", "101141.203000", "101221.149000", "101221.152000", "101221.154000", "101221.157000", "101221.160000", "101221.162000", "101221.165000", "101221.168000", "101221.170000", "101221.173000", "101221.175000", "101221.178000", "101221.189000", "101221.192000", "101221.194000", "101221.197000", "101221.199000", "101221.202000", "101221.205000", "101221.207000", "101248.123000", "101248.126000", "101248.128000", "101248.131000", "101248.134000", "101248.137000", "101248.140000", "101248.142000", "101248.145000", "101248.147000", "101248.150000", "101248.154000", "101248.159000", "101248.162000"],
      "InstanceCreationTime": ["100701.153000", "100701.157000", "100701.159000", "100701.162000", "100701.169000", "100701.172000", "100701.174000", "100701.177000", "100701.179000", "100701.182000", "100701.185000", "100701.187000", "100701.190000", "100701.192000", "100701.195000", "100701.198000", "100701.207000", "100701.209000", "100701.212000", "100701.214000", "100701.217000", "100701.220000", "100701.222000", "100701.225000", "100701.228000", "100701.230000", "100741.149000", "100741.151000", "100741.154000", "100741.157000", "100741.159000", "100741.162000", "100741.165000", "100741.167000", "100741.170000", "100741.172000", "100741.181000", "100741.183000", "100741.186000", "100741.188000", "100741.191000", "100741.194000", "100741.196000", "100741.199000", "100741.202000", "100741.204000", "100821.147000", "100821.150000", "100821.153000", "100821.156000", "100821.158000", "100821.161000", "100821.164000", "100821.166000", "100821.169000", "100821.171000", "100821.174000", "100821.177000", "100821.179000", "100821.182000", "100821.184000", "100821.187000", "100821.190000", "100821.192000", "100821.195000", "100821.197000", "100901.149000", "100901.151000", "100901.154000", "100901.157000", "100901.159000", "100901.162000", "100901.165000", "100901.167000", "100901.170000", "100901.172000", "100901.175000", "100901.178000", "100901.180000", "100901.183000", "100901.185000", "100901.188000", "100901.191000", "100901.193000", "100901.196000", "100901.199000", "100941.148000", "100941.151000", "100941.154000", "100941.157000", "100941.159000", "100941.162000", "100941.165000", "100941.167000", "100941.170000", "100941.172000", "100941.175000", "100941.178000", "100941.180000", "100941.183000", "100941.186000", "100941.188000", "100941.191000", "100941.193000", "100941.196000", "100941.198000", "101021.149000", "101021.151000", "101021.154000", "101021.157000", "101021.159000", "101021.162000", "101021.165000", "101021.167000", "101021.170000", "101021.172000", "101021.175000", "101021.178000", "101021.180000", "101021.183000", "101021.186000", "101021.188000", "101021.191000", "101021.193000", "101021.196000", "101021.221000", "101101.149000", "101101.151000", "101101.154000", "101101.157000", "101101.159000", "101101.162000", "101101.165000", "101101.167000", "101101.170000", "101101.173000", "101101.175000", "101101.178000", "101101.181000", "101101.183000", "101101.186000", "101101.189000", "101101.191000", "101101.194000", "101101.196000", "101101.199000", "101141.149000", "101141.151000", "101141.154000", "101141.157000", "101141.159000", "101141.162000", "101141.165000", "101141.167000", "101141.170000", "101141.172000", "101141.175000", "101141.178000", "101141.180000", "101141.183000", "101141.186000", "101141.188000", "101141.191000", "101141.193000", "101141.200000", "101141.203000", "101221.149000", "101221.152000", "101221.154000", "101221.157000", "101221.160000", "101221.162000", "101221.165000", "101221.168000", "101221.170000", "101221.173000", "101221.175000", "101221.178000", "101221.189000", "101221.192000", "101221.194000", "101221.197000", "101221.199000", "101221.202000", "101221.205000", "101221.207000", "101248.123000", "101248.126000", "101248.128000", "101248.131000", "101248.134000", "101248.137000", "101248.140000", "101248.142000", "101248.145000", "101248.147000", "101248.150000", "101248.154000", "101248.159000", "101248.162000"],
      "InstanceNumber": [1, 2, 3, 4, 5, 6, 7, 8, 9, 10, 11, 12, 13, 14, 15, 16, 17, 18, 19, 20, 21, 22, 23, 24, 25, 26, 27, 28, 29, 30, 31, 32, 33, 34, 35, 36, 37, 38, 39, 40, 41, 42, 43, 44, 45, 46, 47, 48, 49, 50, 51, 52, 53, 54, 55, 56, 57, 58, 59, 60, 61, 62, 63, 64, 65, 66, 67, 68, 69, 70, 71, 72, 73, 74, 75, 76, 77, 78, 79, 80, 81, 82, 83, 84, 85, 86, 87, 88, 89, 90, 91, 92, 93, 94, 95, 96, 97, 98, 99, 100, 101, 102, 103, 104, 105, 106, 107, 108, 109, 110, 111, 112, 113, 114, 115, 116, 117, 118, 119, 120, 121, 122, 123, 124, 125, 126, 127, 128, 129, 130, 131, 132, 133, 134, 135, 136, 137, 138, 139, 140, 141, 142, 143, 144, 145, 146, 147, 148, 149, 150, 151, 152, 153, 154, 155, 156, 157, 158, 159, 160, 161, 162, 163, 164, 165, 166, 167, 168, 169, 170, 171, 172, 173, 174, 175, 176, 177, 178, 179, 180, 181, 182, 183, 184, 185, 186, 187, 188, 189, 190, 191, 192, 193, 194, 195, 196, 197, 198, 199, 200],
      "LargestImagePixelValue": [1954, 1966, 1959, 1967, 1959, 1959, 1963, 1969, 1957, 1963, 1956, 1960, 1962, 1959, 1962, 1958, 1959, 1962, 1962, 1965, 1959, 1964, 1958, 1963, 1962, 1963, 1962, 1962, 1958, 1964, 1964, 1962, 1955, 1960, 1963, 1963, 1961, 1959, 1959, 1960, 1961, 1963, 1960, 1955, 1962, 1960, 1953, 1964, 1961, 1965, 1960, 1966, 1960, 1962, 1962, 1960, 1958, 1955, 1954, 1961, 1957, 1964, 1956, 1959, 1963, 1961, 1961, 1960, 1961, 1962, 1956, 1959, 1959, 1960, 1958, 1963, 1959, 1964, 1960, 1962, 1961, 1959, 1963, 1965, 1962, 1956, 1964, 1960, 1963, 1961, 1963, 1961, 1958, 1960, 1961, 1959, 1967, 1965, 1960, 1968, 1960, 1962, 1961, 1967, 1958, 1967, 1962, 1960, 1963, 1963, 1962, 1960, 1960, 1966, 1963, 1962, 1967, 1964, 1963, 1962, 1963, 1961, 1960, 1955, 1958, 1965, 1962, 1961, 1962, 1966, 1964, 1963, 1959, 1957, 1958, 1955, 1952, 1959, 1957, 1962, 1955, 1958, 1950, 1953, 1955, 1964, 1958, 1956, 1962, 1962, 1958, 1961, 1956, 1956, 1958, 1959, 1960, 1962, 1959, 1960, 1963, 1961, 1958, 1965, 1962, 1966, 1964, 1966, 1957, 1965, 1962, 1960, 1963, 1958, 1960, 1962, 1960, 1961, 1962, 1963, 1960, 1966, 1957, 1965, 1959, 1962, 1958, 1959, 1958, 1958, 1962, 1961, 1962, 1962, 1961, 1961, 1960, 1966, 1962, 1960],
      "WindowWidth": [2069.0, 2069.0, 2069.0, 2069.0, 2069.0, 2070.0, 2069.0, 2069.0, 2069.0, 2069.0, 2069.0, 2069.0, 2069.0, 2069.0, 2069.0, 2069.0, 2069.0, 2069.0, 2069.0, 2069.0, 2069.0, 2069.0, 2069.0, 2069.0, 2069.0, 2069.0, 2069.0, 2069.0, 2069.0, 2069.0, 2069.0, 2070.0, 2069.0, 2069.0, 2070.0, 2070.0, 2069.0, 2069.0, 2070.0, 2069.0, 2069.0, 2069.0, 2069.0, 2069.0, 2070.0, 2069.0, 2069.0, 2069.0, 2069.0, 2069.0, 2069.0, 2069.0, 2069.0, 2069.0, 2069.0, 2069.0, 2069.0, 2069.0, 2069.0, 2069.0, 2069.0, 2069.0, 2069.0, 2069.0, 2069.0, 2069.0, 2069.0, 2069.0, 2069.0, 2069.0, 2069.0, 2069.0, 2069.0, 2069.0, 2069.0, 2069.0, 2069.0, 2069.0, 2069.0, 2069.0, 2070.0, 2069.0, 2069.0, 2069.0, 2070.0, 2069.0, 2070.0, 2069.0, 2069.0, 2069.0, 2069.0, 2069.0, 2069.0, 2069.0, 2069.0, 2069.0, 2069.0, 2069.0, 2069.0, 2069.0, 2069.0, 2069.0, 2069.0, 2069.0, 2069.0, 2069.0, 2069.0, 2069.0, 2069.0, 2069.0, 2070.0, 2069.0, 2069.0, 2069.0, 2069.0, 2069.0, 2070.0, 2069.0, 2069.0, 2069.0, 2069.0, 2069.0, 2069.0, 2069.0, 2069.0, 2070.0, 2070.0, 2070.0, 2070.0, 2069.0, 2069.0, 2069.0, 2069.0, 2070.0, 2069.0, 2069.0, 2070.0, 2070.0, 2070.0, 2069.0, 2069.0, 2069.0, 2069.0, 2069.0, 2069.0, 2069.0, 2069.0, 2069.0, 2069.0, 2069.0, 2069.0, 2069.0, 2069.0, 2069.0, 2069.0, 2069.0, 2069.0, 2069.0, 2069.0, 2069.0, 2069.0, 2069.0, 2069.0, 2069.0, 2069.0, 2069.0, 2069.0, 2069.0, 2070.0, 2069.0, 2069.0, 2069.0, 2069.0, 2069.0, 2069.0, 2069.0, 2069.0, 2069.0, 2069.0, 2069.0, 2069.0, 2069.0, 2069.0, 2070.0, 2069.0, 2069.0, 2069.0, 2069.0, 2069.0, 2069.0, 2069.0, 2069.0, 2070.0, 2069.0, 2069.0, 2069.0, 2069.0, 2069.0, 2069.0, 2069.0]
    },
    "slices": {}
  }
}