{
  "AcquisitionMatrixPE": 80,
  "AcquisitionNumber": 1,
  "AcquisitionTime": "10:19:45.512500",
  "BandwidthPerPixelPhaseEncode": 25,
  "BaseResolution": 80,
  "BodyPartExamined": "BRAIN",
  "CoilCombinationMethod": "Sum of Squares",
  "ConsistencyInfo": "N4_VE11C_LATEST_20160120",
  "ConversionSoftware": "dcm2niix",
  "ConversionSoftwareVersion": "v1.0.20220720",
  "DerivedVendorReportedEchoSpacing": 0.0005,
  "DeviceSerialNumber": "66112",
  "DwellTime": 2.7e-06,
  "EchoTime": 0.03,
  "EchoTrainLength": 80,
  "EffectiveEchoSpacing": 0.0005,
  "FlipAngle": 10,
  "HeudiconvVersion": "0.13.1",
  "ImageOrientationPatientDICOM": [0.97648, -0.215582, 0.00325506, 0.204353, 0.93022, 0.304845],
  "ImageOrientationText": "Tra>Cor(17.3)>Sag(3.9)",
  "ImageType": [
    "ORIGINAL",
    "PRIMARY",
    "M",
    "ND",
    "NORM",
    "MOSAIC"
],
  "ImagingFrequency": 123.252,
  "InPlanePhaseEncodingDirectionDICOM": "COL",
  "InstitutionAddress": "Maynard 3,Hanover,NH,US,03755",
  "InstitutionName": "Dartmouth College - PBS",
  "InstitutionalDepartmentName": "Department",
  "MRAcquisitionType": "2D",
  "MagneticFieldStrength": 3,
  "Manufacturer": "Siemens",
  "ManufacturersModelName": "Prisma",
  "MatrixCoilMode": "SENSE",
  "Modality": "MR",
  "NonlinearGradientCorrection": false,
  "PartialFourier": 1,
  "PatientPosition": "HFS",
  "PercentPhaseFOV": 100,
  "PercentSampling": 100,
  "PhaseEncodingDirection": "j-",
  "PhaseEncodingSteps": 80,
  "PhaseResolution": 1,
  "PixelBandwidth": 2315,
  "ProcedureStepDescription": "dbic^QA",
  "ProtocolName": "func-bold_fa-10",
  "PulseSequenceDetails": "%SiemensSeq%\\ep2d_bold",
  "ReceiveCoilActiveElements": "HEA;HEP",
  "ReceiveCoilName": "Head_32",
  "ReconMatrixPE": 80,
  "RepetitionTime": 2,
  "SAR": 0.0117372,
  "ScanOptions": "FS",
  "ScanningSequence": "EP",
  "SequenceName": "*epfid2d1_80",
  "SequenceVariant": "SK",
  "SeriesDescription": "func-bold_fa-10",
  "SeriesNumber": 10,
  "ShimSetting": [4143, -7690, -7518, 238, -85, -44, -30, 55],
  "SliceThickness": 3.5,
  "SliceTiming": [0.99, 0, 1.055, 0.065, 1.1225, 0.1325, 1.1875, 0.1975, 1.2525, 0.2625, 1.32, 0.33, 1.385, 0.395, 1.4525, 0.4625, 1.5175, 0.5275, 1.5825, 0.5925, 1.65, 0.66, 1.715, 0.725, 1.7825, 0.7925, 1.8475, 0.8575, 1.9125, 0.9225],
  "SoftwareVersions": "syngo MR E11",
  "SpacingBetweenSlices": 3.99,
  "StationName": "AWP66112",
  "TotalReadoutTime": 0.0395,
  "TxRefAmp": 226.235,
  "dcmmeta_affine": [
    [-2.92944073677063, 0.6130593419075012, 0.27430081367492676, 91.009521484375],
    [0.6467471122741699, 2.7906603813171387, 1.1850686073303223, -139.01934814453125],
    [0.009765176102519035, -0.9145341515541077, 3.8000621795654297, -8.701286315917969],
    [0.0, 0.0, 0.0, 1.0]
],
  "dcmmeta_reorient_transform": [
    [0.0, -1.0, 0.0, 79.0],
    [1.0, 0.0, 0.0, 0.0],
    [0.0, 0.0, 1.0, 0.0],
    [0.0, 0.0, 0.0, 1.0]
],
  "dcmmeta_shape": [80, 80, 30, 200],
  "dcmmeta_slice_dim": 2,
  "dcmmeta_version": 0.6,
  "global": {
    "const": {
      "AccessionNumber": "qa",
      "AcquisitionMatrix": [80, 0, 0, 80],
      "AngioFlag": "N",
      "BitsAllocated": 16,
      "BitsStored": 12,
      "BodyPartExamined": "BRAIN",
      "Columns": 480,
      "EchoNumbers": 1,
      "EchoTime": 30.0,
      "EchoTrainLength": 80,
      "FlipAngle": 10.0,
      "HighBit": 11,
      "ImageOrientationPatient": [0.97648023472492, -0.2155823642697, 0.00325505875034, 0.2043531058417, 0.93022013617933, 0.30484472503124],
      "ImagePositionPatient": [-847.94120851607, -510.22548746961, -265.80935668236],
      "ImageType": [
        "ORIGINAL",
        "PRIMARY",
        "M",
        "ND",
        "NORM",
        "MOSAIC"
],
      "ImagedNucleus": "1H",
      "ImagingFrequency": 123.252381,
      "InPlanePhaseEncodingDirection": "COL",
      "MRAcquisitionType": "2D",
      "MagneticFieldStrength": 3.0,
      "Manufacturer": "SIEMENS",
      "ManufacturerModelName": "Prisma",
      "Modality": "MR",
      "NumberOfAverages": 1.0,
      "NumberOfPhaseEncodingSteps": 80,
      "PercentPhaseFieldOfView": 100.0,
      "PercentSampling": 100.0,
      "PerformedProcedureStepStartTime": "095451.635000",
      "PhotometricInterpretation": "MONOCHROME2",
      "PixelBandwidth": 2315.0,
      "PixelRepresentation": 0,
      "PixelSpacing": [3.0, 3.0],
      "ProtocolName": "func-bold_fa-10",
      "RepetitionTime": 2000.0,
      "Rows": 480,
      "SAR": 0.01173717345041,
      "SamplesPerPixel": 1,
      "ScanOptions": "FS",
      "ScanningSequence": "EP",
      "SequenceName": "*epfid2d1_80",
      "SequenceVariant": "SK",
      "SeriesDescription": "func-bold_fa-10",
      "SeriesNumber": 10,
      "SeriesTime": "102041.291000",
      "SliceLocation": -43.320527683234,
      "SliceThickness": 3.5,
      "SmallestImagePixelValue": 0,
      "SoftwareVersions": "syngo MR E11",
      "SpacingBetweenSlices": 3.9900000633807,
      "SpecificCharacterSet": "ISO_IR 100",
      "StudyID": "27",
      "StudyTime": "095451.590000",
      "TransmitCoilName": "Body",
      "VariableFlipAngleFlag": "N",
      "WindowCenterWidthExplanation": "Algo1",
      "dBdt": 0.0},
    "slices": {}
  },
  "time": {
    "samples": {
      "AcquisitionNumber": [1, 2, 3, 4, 5, 6, 7, 8, 9, 10, 11, 12, 13, 14, 15, 16, 17, 18, 19, 20, 21, 22, 23, 24, 25, 26, 27, 28, 29, 30, 31, 32, 33, 34, 35, 36, 37, 38, 39, 40, 41, 42, 43, 44, 45, 46, 47, 48, 49, 50, 51, 52, 53, 54, 55, 56, 57, 58, 59, 60, 61, 62, 63, 64, 65, 66, 67, 68, 69, 70, 71, 72, 73, 74, 75, 76, 77, 78, 79, 80, 81, 82, 83, 84, 85, 86, 87, 88, 89, 90, 91, 92, 93, 94, 95, 96, 97, 98, 99, 100, 101, 102, 103, 104, 105, 106, 107, 108, 109, 110, 111, 112, 113, 114, 115, 116, 117, 118, 119, 120, 121, 122, 123, 124, 125, 126, 127, 128, 129, 130, 131, 132, 133, 134, 135, 136, 137, 138, 139, 140, 141, 142, 143, 144, 145, 146, 147, 148, 149, 150, 151, 152, 153, 154, 155, 156, 157, 158, 159, 160, 161, 162, 163, 164, 165, 166, 167, 168, 169, 170, 171, 172, 173, 174, 175, 176, 177, 178, 179, 180, 181, 182, 183, 184, 185, 186, 187, 188, 189, 190, 191, 192, 193, 194, 195, 196, 197, 198, 199, 200],
      "AcquisitionTime": ["101945.512500", "101947.512500", "101949.512500", "101951.512500", "101953.512500", "101955.512500", "101957.512500", "101959.512500", "102001.512500", "102003.512500", "102005.512500", "102007.512500", "102009.512500", "102011.512500", "102013.512500", "102015.512500", "102017.512500", "102019.512500", "102021.512500", "102023.512500", "102025.512500", "102027.512500", "102029.512500", "102031.512500", "102033.512500", "102035.512500", "102037.512500", "102039.512500", "102041.512500", "102043.512500", "102045.512500", "102047.512500", "102049.512500", "102051.512500", "102053.512500", "102055.512500", "102057.512500", "102059.512500", "102101.512500", "102103.512500", "102105.512500", "102107.512500", "102109.512500", "102111.512500", "102113.512500", "102115.512500", "102117.512500", "102119.512500", "102121.512500", "102123.512500", "102125.512500", "102127.512500", "102129.512500", "102131.512500", "102133.512500", "102135.512500", "102137.512500", "102139.512500", "102141.512500", "102143.512500", "102145.512500", "102147.512500", "102149.512500", "102151.512500", "102153.512500", "102155.512500", "102157.512500", "102159.512500", "102201.512500", "102203.512500", "102205.512500", "102207.512500", "102209.512500", "102211.512500", "102213.512500", "102215.512500", "102217.512500", "102219.512500", "102221.512500", "102223.512500", "102225.512500", "102227.512500", "102229.512500", "102231.512500", "102233.512500", "102235.512500", "102237.512500", "102239.512500", "102241.512500", "102243.512500", "102245.512500", "102247.512500", "102249.512500", "102251.512500", "102253.512500", "102255.512500", "102257.512500", "102259.512500", "102301.512500", "102303.512500", "102305.512500", "102307.512500", "102309.512500", "102311.512500", "102313.512500", "102315.512500", "102317.512500", "102319.512500", "102321.512500", "102323.512500", "102325.512500", "102327.512500", "102329.512500", "102331.512500", "102333.512500", "102335.512500", "102337.512500", "102339.512500", "102341.512500", "102343.512500", "102345.512500", "102347.512500", "102349.512500", "102351.512500", "102353.512500", "102355.512500", "102357.512500", "102359.512500", "102401.512500", "102403.512500", "102405.512500", "102407.512500", "102409.512500", "102411.512500", "102413.512500", "102415.512500", "102417.512500", "102419.512500", "102421.512500", "102423.512500", "102425.512500", "102427.512500", "102429.512500", "102431.512500", "102433.512500", "102435.512500", "102437.512500", "102439.512500", "102441.512500", "102443.512500", "102445.512500", "102447.512500", "102449.512500", "102451.512500", "102453.512500", "102455.512500", "102457.512500", "102459.512500", "102501.512500", "102503.512500", "102505.512500", "102507.512500", "102509.512500", "102511.512500", "102513.512500", "102515.512500", "102517.512500", "102519.512500", "102521.512500", "102523.512500", "102525.512500", "102527.512500", "102529.512500", "102531.512500", "102533.512500", "102535.512500", "102537.512500", "102539.512500", "102541.512500", "102543.512500", "102545.512500", "102547.512500", "102549.512500", "102551.512500", "102553.512500", "102555.512500", "102557.512500", "102559.512500", "102601.512500", "102603.512500", "102605.512500", "102607.512500", "102609.512500", "102611.512500", "102613.512500", "102615.512500", "102617.512500", "102619.512500", "102621.512500", "102623.512500"],
      "ContentTime": ["102041.294000", "102041.298000", "102041.300000", "102041.303000", "102041.305000", "102041.308000", "102041.311000", "102041.313000", "102041.316000", "102041.318000", "102041.321000", "102041.323000", "102041.326000", "102041.328000", "102041.331000", "102041.333000", "102041.336000", "102041.339000", "102041.341000", "102041.344000", "102041.346000", "102041.349000", "102041.351000", "102041.354000", "102041.367000", "102041.370000", "102041.372000", "102041.374000", "102121.289000", "102121.292000", "102121.295000", "102121.297000", "102121.300000", "102121.302000", "102121.305000", "102121.308000", "102121.310000", "102121.313000", "102121.321000", "102121.323000", "102121.326000", "102121.328000", "102121.331000", "102121.333000", "102121.336000", "102121.338000", "102121.341000", "102121.344000", "102201.289000", "102201.293000", "102201.295000", "102201.298000", "102201.300000", "102201.303000", "102201.305000", "102201.308000", "102201.310000", "102201.313000", "102201.315000", "102201.318000", "102201.321000", "102201.323000", "102201.326000", "102201.328000", "102201.331000", "102201.334000", "102201.336000", "102201.339000", "102241.289000", "102241.292000", "102241.295000", "102241.297000", "102241.305000", "102241.308000", "102241.310000", "102241.313000", "102241.315000", "102241.318000", "102241.320000", "102241.323000", "102241.326000", "102241.328000", "102241.331000", "102241.333000", "102241.336000", "102241.338000", "102241.341000", "102241.344000", "102321.289000", "102321.292000", "102321.295000", "102321.297000", "102321.300000", "102321.302000", "102321.305000", "102321.307000", "102321.310000", "102321.312000", "102321.315000", "102321.317000", "102321.320000", "102321.322000", "102321.325000", "102321.327000", "102321.330000", "102321.332000", "102321.335000", "102321.337000", "102401.289000", "102401.292000", "102401.295000", "102401.298000", "102401.300000", "102401.303000", "102401.305000", "102401.308000", "102401.310000", "102401.313000", "102401.315000", "102401.318000", "102401.320000", "102401.323000", "102401.325000", "102401.328000", "102401.331000", "102401.333000", "102401.336000", "102401.338000", "102441.289000", "102441.292000", "102441.295000", "102441.297000", "102441.300000", "102441.302000", "102441.305000", "102441.307000", "102441.310000", "102441.312000", "102441.315000", "102441.317000", "102441.320000", "102441.322000", "102441.325000", "102441.327000", "102441.330000", "102441.333000", "102441.335000", "102441.338000", "102521.289000", "102521.292000", "102521.295000", "102521.297000", "102521.300000", "102521.302000", "102521.305000", "102521.307000", "102521.310000", "102521.312000", "102521.315000", "102521.317000", "102521.320000", "102521.322000", "102521.325000", "102521.327000", "102521.330000", "102521.332000", "102521.335000", "102521.337000", "102601.290000", "102601.292000", "102601.295000", "102601.298000", "102601.300000", "102601.303000", "102601.305000", "102601.308000", "102601.310000", "102601.313000", "102601.315000", "102601.318000", "102601.320000", "102601.323000", "102601.325000", "102601.328000", "102601.330000", "102601.333000", "102601.335000", "102601.338000", "102624.843000", "102624.845000", "102624.848000", "102624.851000", "102624.853000", "102624.856000", "102624.858000", "102624.861000", "102624.863000", "102624.866000", "102624.868000", "102624.871000"],
      "InstanceCreationTime": ["102041.294000", "102041.298000", "102041.300000", "102041.303000", "102041.305000", "102041.308000", "102041.311000", "102041.313000", "102041.316000", "102041.318000", "102041.321000", "102041.323000", "102041.326000", "102041.328000", "102041.331000", "102041.333000", "102041.336000", "102041.339000", "102041.341000", "102041.344000", "102041.346000", "102041.349000", "102041.351000", "102041.354000", "102041.367000", "102041.370000", "102041.372000", "102041.374000", "102121.289000", "102121.292000", "102121.295000", "102121.297000", "102121.300000", "102121.302000", "102121.305000", "102121.308000", "102121.310000", "102121.313000", "102121.321000", "102121.323000", "102121.326000", "102121.328000", "102121.331000", "102121.333000", "102121.336000", "102121.338000", "102121.341000", "102121.344000", "102201.289000", "102201.293000", "102201.295000", "102201.298000", "102201.300000", "102201.303000", "102201.305000", "102201.308000", "102201.310000", "102201.313000", "102201.315000", "102201.318000", "102201.321000", "102201.323000", "102201.326000", "102201.328000", "102201.331000", "102201.334000", "102201.336000", "102201.339000", "102241.289000", "102241.292000", "102241.295000", "102241.297000", "102241.305000", "102241.308000", "102241.310000", "102241.313000", "102241.315000", "102241.318000", "102241.320000", "102241.323000", "102241.326000", "102241.328000", "102241.331000", "102241.333000", "102241.336000", "102241.338000", "102241.341000", "102241.344000", "102321.289000", "102321.292000", "102321.295000", "102321.297000", "102321.300000", "102321.302000", "102321.305000", "102321.307000", "102321.310000", "102321.312000", "102321.315000", "102321.317000", "102321.320000", "102321.322000", "102321.325000", "102321.327000", "102321.330000", "102321.332000", "102321.335000", "102321.337000", "102401.289000", "102401.292000", "102401.295000", "102401.298000", "102401.300000", "102401.303000", "102401.305000", "102401.308000", "102401.310000", "102401.313000", "102401.315000", "102401.318000", "102401.320000", "102401.323000", "102401.325000", "102401.328000", "102401.331000", "102401.333000", "102401.336000", "102401.338000", "102441.289000", "102441.292000", "102441.295000", "102441.297000", "102441.300000", "102441.302000", "102441.305000", "102441.307000", "102441.310000", "102441.312000", "102441.315000", "102441.317000", "102441.320000", "102441.322000", "102441.325000", "102441.327000", "102441.330000", "102441.333000", "102441.335000", "102441.338000", "102521.289000", "102521.292000", "102521.295000", "102521.297000", "102521.300000", "102521.302000", "102521.305000", "102521.307000", "102521.310000", "102521.312000", "102521.315000", "102521.317000", "102521.320000", "102521.322000", "102521.325000", "102521.327000", "102521.330000", "102521.332000", "102521.335000", "102521.337000", "102601.290000", "102601.292000", "102601.295000", "102601.298000", "102601.300000", "102601.303000", "102601.305000", "102601.308000", "102601.310000", "102601.313000", "102601.315000", "102601.318000", "102601.320000", "102601.323000", "102601.325000", "102601.328000", "102601.330000", "102601.333000", "102601.335000", "102601.338000", "102624.843000", "102624.845000", "102624.848000", "102624.851000", "102624.853000", "102624.856000", "102624.858000", "102624.861000", "102624.863000", "102624.866000", "102624.868000", "102624.871000"],
      "InstanceNumber": [1, 2, 3, 4, 5, 6, 7, 8, 9, 10, 11, 12, 13, 14, 15, 16, 17, 18, 19, 20, 21, 22, 23, 24, 25, 26, 27, 28, 29, 30, 31, 32, 33, 34, 35, 36, 37, 38, 39, 40, 41, 42, 43, 44, 45, 46, 47, 48, 49, 50, 51, 52, 53, 54, 55, 56, 57, 58, 59, 60, 61, 62, 63, 64, 65, 66, 67, 68, 69, 70, 71, 72, 73, 74, 75, 76, 77, 78, 79, 80, 81, 82, 83, 84, 85, 86, 87, 88, 89, 90, 91, 92, 93, 94, 95, 96, 97, 98, 99, 100, 101, 102, 103, 104, 105, 106, 107, 108, 109, 110, 111, 112, 113, 114, 115, 116, 117, 118, 119, 120, 121, 122, 123, 124, 125, 126, 127, 128, 129, 130, 131, 132, 133, 134, 135, 136, 137, 138, 139, 140, 141, 142, 143, 144, 145, 146, 147, 148, 149, 150, 151, 152, 153, 154, 155, 156, 157, 158, 159, 160, 161, 162, 163, 164, 165, 166, 167, 168, 169, 170, 171, 172, 173, 174, 175, 176, 177, 178, 179, 180, 181, 182, 183, 184, 185, 186, 187, 188, 189, 190, 191, 192, 193, 194, 195, 196, 197, 198, 199, 200],
      "LargestImagePixelValue": [336, 334, 334, 331, 331, 333, 332, 332, 334, 330, 330, 330, 333, 332, 332, 336, 330, 332, 331, 333, 331, 333, 330, 332, 330, 330, 331, 332, 332, 330, 332, 333, 333, 329, 332, 333, 332, 332, 331, 329, 333, 332, 334, 333, 334, 330, 332, 336, 332, 329, 332, 331, 333, 333, 333, 330, 330, 332, 334, 332, 334, 334, 332, 332, 332, 333, 330, 332, 330, 333, 337, 331, 332, 330, 333, 332, 331, 332, 328, 333, 332, 333, 332, 330, 332, 331, 333, 330, 331, 331, 333, 333, 333, 330, 332, 332, 330, 332, 334, 332, 332, 330, 332, 330, 330, 330, 331, 330, 331, 331, 331, 331, 332, 332, 330, 332, 330, 329, 332, 334, 332, 331, 331, 333, 330, 331, 333, 330, 329, 331, 332, 332, 334, 334, 333, 330, 333, 330, 331, 336, 328, 332, 331, 331, 330, 335, 331, 334, 332, 333, 332, 329, 331, 329, 331, 334, 332, 331, 333, 331, 334, 333, 333, 333, 330, 331, 330, 333, 332, 329, 334, 330, 332, 330, 331, 330, 336, 331, 334, 331, 333, 331, 331, 332, 331, 330, 333, 331, 331, 331, 332, 328, 332, 331, 332, 330, 334, 335, 333, 331],
      "WindowCenter": [278.0, 278.0, 278.0, 278.0, 278.0, 278.0, 278.0, 278.0, 278.0, 278.0, 278.0, 277.0, 278.0, 278.0, 277.0, 277.0, 277.0, 277.0, 278.0, 277.0, 278.0, 277.0, 277.0, 277.0, 277.0, 278.0, 277.0, 277.0, 277.0, 277.0, 277.0, 277.0, 277.0, 277.0, 277.0, 277.0, 277.0, 277.0, 277.0, 277.0, 278.0, 278.0, 278.0, 278.0, 277.0, 277.0, 277.0, 278.0, 277.0, 277.0, 277.0, 277.0, 277.0, 277.0, 278.0, 277.0, 277.0, 277.0, 277.0, 278.0, 278.0, 278.0, 277.0, 277.0, 278.0, 278.0, 278.0, 278.0, 277.0, 277.0, 278.0, 277.0, 277.0, 277.0, 277.0, 277.0, 278.0, 277.0, 276.0, 277.0, 277.0, 277.0, 278.0, 277.0, 277.0, 277.0, 277.0, 277.0, 277.0, 277.0, 277.0, 277.0, 277.0, 277.0, 277.0, 277.0, 277.0, 277.0, 278.0, 277.0, 277.0, 277.0, 277.0, 277.0, 277.0, 277.0, 277.0, 277.0, 277.0, 277.0, 277.0, 277.0, 277.0, 277.0, 277.0, 277.0, 277.0, 277.0, 277.0, 277.0, 277.0, 277.0, 277.0, 277.0, 277.0, 277.0, 277.0, 277.0, 277.0, 277.0, 277.0, 277.0, 277.0, 277.0, 277.0, 277.0, 277.0, 277.0, 277.0, 277.0, 277.0, 277.0, 277.0, 277.0, 277.0, 277.0, 277.0, 277.0, 277.0, 277.0, 277.0, 277.0, 277.0, 277.0, 277.0, 277.0, 277.0, 277.0, 277.0, 277.0, 277.0, 277.0, 277.0, 277.0, 277.0, 277.0, 277.0, 277.0, 277.0, 277.0, 277.0, 277.0, 277.0, 277.0, 277.0, 277.0, 277.0, 277.0, 277.0, 277.0, 277.0, 277.0, 277.0, 277.0, 277.0, 277.0, 277.0, 277.0, 277.0, 277.0, 277.0, 277.0, 277.0, 277.0, 277.0, 277.0, 277.0, 277.0, 277.0, 277.0],
      "WindowWidth": [608.0, 609.0, 608.0, 608.0, 608.0, 608.0, 608.0, 608.0, 608.0, 608.0, 608.0, 607.0, 608.0, 608.0, 607.0, 607.0, 607.0, 607.0, 608.0, 607.0, 608.0, 607.0, 607.0, 607.0, 607.0, 608.0, 607.0, 607.0, 607.0, 607.0, 607.0, 607.0, 607.0, 606.0, 607.0, 607.0, 607.0, 607.0, 607.0, 607.0, 608.0, 608.0, 608.0, 608.0, 607.0, 607.0, 607.0, 608.0, 607.0, 607.0, 607.0, 607.0, 607.0, 607.0, 608.0, 607.0, 607.0, 607.0, 607.0, 608.0, 608.0, 608.0, 607.0, 607.0, 608.0, 608.0, 608.0, 608.0, 607.0, 607.0, 608.0, 607.0, 607.0, 607.0, 607.0, 607.0, 608.0, 607.0, 606.0, 607.0, 607.0, 607.0, 608.0, 607.0, 607.0, 607.0, 607.0, 607.0, 607.0, 607.0, 607.0, 607.0, 607.0, 607.0, 607.0, 607.0, 607.0, 607.0, 608.0, 607.0, 607.0, 607.0, 607.0, 607.0, 607.0, 607.0, 607.0, 607.0, 607.0, 607.0, 607.0, 607.0, 607.0, 607.0, 607.0, 607.0, 607.0, 606.0, 607.0, 607.0, 607.0, 607.0, 607.0, 607.0, 607.0, 607.0, 607.0, 607.0, 606.0, 607.0, 607.0, 607.0, 607.0, 607.0, 607.0, 607.0, 607.0, 607.0, 607.0, 607.0, 606.0, 607.0, 607.0, 607.0, 607.0, 607.0, 607.0, 607.0, 607.0, 607.0, 607.0, 606.0, 607.0, 606.0, 607.0, 607.0, 607.0, 607.0, 607.0, 607.0, 607.0, 607.0, 607.0, 607.0, 607.0, 607.0, 607.0, 607.0, 607.0, 606.0, 607.0, 607.0, 607.0, 607.0, 607.0, 607.0, 607.0, 607.0, 607.0, 607.0, 607.0, 607.0, 607.0, 607.0, 607.0, 607.0, 607.0, 607.0, 607.0, 607.0, 607.0, 606.0, 607.0, 607.0, 607.0, 607.0, 607.0, 607.0, 607.0, 607.0]
    },
    "slices": {}
  }
}