{
  "AcquisitionMatrixPE": 80,
  "AcquisitionNumber": 1,
  "AcquisitionTime": "09:59:14.965000",
  "BandwidthPerPixelPhaseEncode": 48.077,
  "BaseResolution": 80,
  "BodyPartExamined": "BRAIN",
  "CoilCombinationMethod": "Sum of Squares",
  "ConsistencyInfo": "N4_VE11C_LATEST_20160120",
  "ConversionSoftware": "dcm2niix",
  "ConversionSoftwareVersion": "v1.0.20220720",
  "DerivedVendorReportedEchoSpacing": 0.000519999,
  "DeviceSerialNumber": "66112",
  "DwellTime": 2.7e-06,
  "EchoTime": 0.035,
  "EchoTrainLength": 39,
  "EffectiveEchoSpacing": 0.00026,
  "FlipAngle": 90,
  "HeudiconvVersion": "0.13.1",
  "ImageOrientationPatientDICOM": [0.97648, -0.215582, 0.00325506, 0.204353, 0.93022, 0.304845],
  "ImageOrientationText": "Tra>Cor(17.3)>Sag(3.9)",
  "ImageType": [
    "ORIGINAL",
    "PRIMARY",
    "M",
    "ND",
    "NORM",
    "MOSAIC"
],
  "ImagingFrequency": 123.252,
  "InPlanePhaseEncodingDirectionDICOM": "COL",
  "InstitutionAddress": "Maynard 3,Hanover,NH,US,03755",
  "InstitutionName": "Dartmouth College - PBS",
  "InstitutionalDepartmentName": "Department",
  "MRAcquisitionType": "2D",
  "MagneticFieldStrength": 3,
  "Manufacturer": "Siemens",
  "ManufacturersModelName": "Prisma",
  "MatrixCoilMode": "GRAPPA",
  "Modality": "MR",
  "NonlinearGradientCorrection": false,
  "ParallelReductionFactorInPlane": 2,
  "PartialFourier": 1,
  "PatientPosition": "HFS",
  "PercentPhaseFOV": 100,
  "PercentSampling": 100,
  "PhaseEncodingDirection": "j-",
  "PhaseEncodingSteps": 79,
  "PhaseResolution": 1,
  "PixelBandwidth": 2315,
  "ProcedureStepDescription": "dbic^QA",
  "ProtocolName": "func-bold_task-rest_acq-p2",
  "PulseSequenceDetails": "%SiemensSeq%\\ep2d_bold",
  "ReceiveCoilActiveElements": "HEA;HEP",
  "ReceiveCoilName": "Head_32",
  "ReconMatrixPE": 80,
  "RefLinesPE": 24,
  "RepetitionTime": 2,
  "SAR": 0.0556783,
  "ScanOptions": "FS",
  "ScanningSequence": "EP",
  "SequenceName": "*epfid2d1_80",
  "SequenceVariant": "SK",
  "SeriesDescription": "func-bold_task-rest_acq-p2",
  "SeriesNumber": 5,
  "ShimSetting": [4143, -7690, -7518, 244, -85, -45, -32, 56],
  "SliceThickness": 3.5,
  "SliceTiming": [0.99, 0, 1.055, 0.065, 1.1225, 0.1325, 1.1875, 0.1975, 1.2525, 0.2625, 1.32, 0.33, 1.385, 0.395, 1.4525, 0.4625, 1.5175, 0.5275, 1.5825, 0.5925, 1.65, 0.66, 1.715, 0.725, 1.7825, 0.7925, 1.8475, 0.8575, 1.9125, 0.9225],
  "SoftwareVersions": "syngo MR E11",
  "SpacingBetweenSlices": 3.99,
  "StationName": "AWP66112",
  "TaskName": "rest",
  "TotalReadoutTime": 0.02054,
  "TxRefAmp": 226.235,
  "dcmmeta_affine": [
    [-2.92944073677063, 0.6130593419075012, 0.27430078387260437, 93.33341979980469],
    [0.6467471122741699, 2.7906603813171387, 1.1850686073303223, -140.3310546875],
    [0.009765176102519035, -0.9145341515541077, 3.8000619411468506, -11.15087890625],
    [0.0, 0.0, 0.0, 1.0]
],
  "dcmmeta_reorient_transform": [
    [0.0, -1.0, 0.0, 79.0],
    [1.0, 0.0, 0.0, 0.0],
    [0.0, 0.0, 1.0, 0.0],
    [0.0, 0.0, 0.0, 1.0]
],
  "dcmmeta_shape": [80, 80, 30, 200],
  "dcmmeta_slice_dim": 2,
  "dcmmeta_version": 0.6,
  "global": {
    "const": {
      "AccessionNumber": "qa",
      "AcquisitionMatrix": [80, 0, 0, 80],
      "AngioFlag": "N",
      "BitsAllocated": 16,
      "BitsStored": 12,
      "BodyPartExamined": "BRAIN",
      "Columns": 480,
      "EchoNumbers": 1,
      "EchoTime": 35.0,
      "EchoTrainLength": 39,
      "FlipAngle": 90.0,
      "HighBit": 11,
      "ImageOrientationPatient": [0.97648023472492, -0.2155823642697, 0.00325505875034, 0.2043531058417, 0.93022013617933, 0.30484472503124],
      "ImagePositionPatient": [-850.26511291118, -508.91378664869, -268.25894927269],
      "ImageType": [
        "ORIGINAL",
        "PRIMARY",
        "M",
        "ND",
        "NORM",
        "MOSAIC"
],
      "ImagedNucleus": "1H",
      "ImagingFrequency": 123.252379,
      "InPlanePhaseEncodingDirection": "COL",
      "MRAcquisitionType": "2D",
      "MagneticFieldStrength": 3.0,
      "Manufacturer": "SIEMENS",
      "ManufacturerModelName": "Prisma",
      "Modality": "MR",
      "NumberOfAverages": 1.0,
      "NumberOfPhaseEncodingSteps": 79,
      "PercentPhaseFieldOfView": 100.0,
      "PercentSampling": 100.0,
      "PerformedProcedureStepStartTime": "095451.635000",
      "PhotometricInterpretation": "MONOCHROME2",
      "PixelBandwidth": 2315.0,
      "PixelRepresentation": 0,
      "PixelSpacing": [3.0, 3.0],
      "ProtocolName": "func-bold_task-rest_acq-p2",
      "RepetitionTime": 2000.0,
      "Rows": 480,
      "SAR": 0.05567825542772,
      "SamplesPerPixel": 1,
      "ScanOptions": "FS",
      "ScanningSequence": "EP",
      "SequenceName": "*epfid2d1_80",
      "SequenceVariant": "SK",
      "SeriesDescription": "func-bold_task-rest_acq-p2",
      "SeriesNumber": 5,
      "SeriesTime": "100001.291000",
      "SliceLocation": -45.883337310629,
      "SliceThickness": 3.5,
      "SmallestImagePixelValue": 0,
      "SoftwareVersions": "syngo MR E11",
      "SpacingBetweenSlices": 3.9899999372534,
      "SpecificCharacterSet": "ISO_IR 100",
      "StudyID": "27",
      "StudyTime": "095451.590000",
      "TransmitCoilName": "Body",
      "VariableFlipAngleFlag": "N",
      "WindowCenterWidthExplanation": "Algo1",
      "dBdt": 0.0},
    "slices": {}
  },
  "time": {
    "samples": {
      "AcquisitionNumber": [1, 2, 3, 4, 5, 6, 7, 8, 9, 10, 11, 12, 13, 14, 15, 16, 17, 18, 19, 20, 21, 22, 23, 24, 25, 26, 27, 28, 29, 30, 31, 32, 33, 34, 35, 36, 37, 38, 39, 40, 41, 42, 43, 44, 45, 46, 47, 48, 49, 50, 51, 52, 53, 54, 55, 56, 57, 58, 59, 60, 61, 62, 63, 64, 65, 66, 67, 68, 69, 70, 71, 72, 73, 74, 75, 76, 77, 78, 79, 80, 81, 82, 83, 84, 85, 86, 87, 88, 89, 90, 91, 92, 93, 94, 95, 96, 97, 98, 99, 100, 101, 102, 103, 104, 105, 106, 107, 108, 109, 110, 111, 112, 113, 114, 115, 116, 117, 118, 119, 120, 121, 122, 123, 124, 125, 126, 127, 128, 129, 130, 131, 132, 133, 134, 135, 136, 137, 138, 139, 140, 141, 142, 143, 144, 145, 146, 147, 148, 149, 150, 151, 152, 153, 154, 155, 156, 157, 158, 159, 160, 161, 162, 163, 164, 165, 166, 167, 168, 169, 170, 171, 172, 173, 174, 175, 176, 177, 178, 179, 180, 181, 182, 183, 184, 185, 186, 187, 188, 189, 190, 191, 192, 193, 194, 195, 196, 197, 198, 199, 200],
      "AcquisitionTime": ["095914.965000", "095916.965000", "095918.965000", "095920.965000", "095922.965000", "095924.965000", "095926.965000", "095928.965000", "095930.965000", "095932.965000", "095934.965000", "095936.965000", "095938.965000", "095940.965000", "095942.965000", "095944.965000", "095946.965000", "095948.965000", "095950.965000", "095952.965000", "095954.965000", "095956.965000", "095958.965000", "100000.965000", "100002.965000", "100004.965000", "100006.965000", "100008.965000", "100010.965000", "100012.965000", "100014.965000", "100016.965000", "100018.965000", "100020.965000", "100022.965000", "100024.965000", "100026.965000", "100028.965000", "100030.965000", "100032.965000", "100034.965000", "100036.965000", "100038.965000", "100040.965000", "100042.965000", "100044.965000", "100046.965000", "100048.965000", "100050.965000", "100052.965000", "100054.965000", "100056.965000", "100058.965000", "100100.965000", "100102.965000", "100104.965000", "100106.965000", "100108.965000", "100110.965000", "100112.965000", "100114.965000", "100116.965000", "100118.965000", "100120.965000", "100122.965000", "100124.965000", "100126.965000", "100128.965000", "100130.965000", "100132.965000", "100134.965000", "100136.965000", "100138.965000", "100140.965000", "100142.965000", "100144.965000", "100146.965000", "100148.965000", "100150.965000", "100152.965000", "100154.965000", "100156.965000", "100158.965000", "100200.965000", "100202.965000", "100204.965000", "100206.965000", "100208.965000", "100210.965000", "100212.965000", "100214.965000", "100216.965000", "100218.965000", "100220.965000", "100222.965000", "100224.965000", "100226.965000", "100228.965000", "100230.965000", "100232.965000", "100234.965000", "100236.965000", "100238.965000", "100240.965000", "100242.965000", "100244.965000", "100246.965000", "100248.965000", "100250.965000", "100252.965000", "100254.965000", "100256.965000", "100258.965000", "100300.965000", "100302.965000", "100304.965000", "100306.965000", "100308.965000", "100310.965000", "100312.965000", "100314.965000", "100316.965000", "100318.965000", "100320.965000", "100322.965000", "100324.965000", "100326.965000", "100328.965000", "100330.965000", "100332.965000", "100334.965000", "100336.965000", "100338.965000", "100340.965000", "100342.965000", "100344.965000", "100346.965000", "100348.965000", "100350.965000", "100352.965000", "100354.965000", "100356.965000", "100358.965000", "100400.965000", "100402.965000", "100404.965000", "100406.965000", "100408.965000", "100410.965000", "100412.965000", "100414.965000", "100416.965000", "100418.965000", "100420.965000", "100422.965000", "100424.965000", "100426.965000", "100428.965000", "100430.965000", "100432.965000", "100434.965000", "100436.965000", "100438.965000", "100440.965000", "100442.965000", "100444.965000", "100446.965000", "100448.965000", "100450.965000", "100452.965000", "100454.965000", "100456.965000", "100458.965000", "100500.965000", "100502.965000", "100504.965000", "100506.965000", "100508.965000", "100510.965000", "100512.965000", "100514.965000", "100516.965000", "100518.965000", "100520.965000", "100522.965000", "100524.965000", "100526.965000", "100528.965000", "100530.965000", "100532.965000", "100534.965000", "100536.965000", "100538.965000", "100540.965000", "100542.965000", "100544.965000", "100546.965000", "100548.965000", "100550.965000", "100552.965000"],
      "ContentTime": ["100001.294000", "100001.298000", "100001.300000", "100001.303000", "100001.305000", "100001.320000", "100001.323000", "100001.325000", "100001.328000", "100001.331000", "100001.333000", "100001.336000", "100001.338000", "100001.341000", "100001.343000", "100001.346000", "100001.349000", "100001.351000", "100001.354000", "100001.356000", "100001.359000", "100001.375000", "100001.377000", "100041.290000", "100041.292000", "100041.295000", "100041.297000", "100041.300000", "100041.303000", "100041.305000", "100041.308000", "100041.311000", "100041.313000", "100041.316000", "100041.318000", "100041.321000", "100041.323000", "100041.326000", "100041.328000", "100041.331000", "100041.334000", "100041.336000", "100041.339000", "100121.289000", "100121.292000", "100121.295000", "100121.297000", "100121.300000", "100121.303000", "100121.305000", "100121.308000", "100121.310000", "100121.313000", "100121.315000", "100121.318000", "100121.321000", "100121.323000", "100121.326000", "100121.328000", "100121.331000", "100121.333000", "100121.336000", "100121.338000", "100201.289000", "100201.292000", "100201.295000", "100201.298000", "100201.300000", "100201.303000", "100201.305000", "100201.308000", "100201.311000", "100201.313000", "100201.316000", "100201.318000", "100201.321000", "100201.323000", "100201.326000", "100201.328000", "100201.331000", "100201.334000", "100201.336000", "100201.339000", "100241.289000", "100241.292000", "100241.295000", "100241.303000", "100241.306000", "100241.308000", "100241.311000", "100241.314000", "100241.316000", "100241.319000", "100241.321000", "100241.324000", "100241.326000", "100241.329000", "100241.332000", "100241.334000", "100241.337000", "100241.339000", "100241.342000", "100241.345000", "100321.289000", "100321.292000", "100321.295000", "100321.297000", "100321.300000", "100321.303000", "100321.305000", "100321.308000", "100321.310000", "100321.313000", "100321.315000", "100321.318000", "100321.321000", "100321.323000", "100321.326000", "100321.329000", "100321.331000", "100321.334000", "100321.336000", "100321.339000", "100401.289000", "100401.292000", "100401.295000", "100401.298000", "100401.300000", "100401.303000", "100401.305000", "100401.308000", "100401.311000", "100401.313000", "100401.316000", "100401.318000", "100401.321000", "100401.323000", "100401.326000", "100401.329000", "100401.331000", "100401.334000", "100401.336000", "100401.339000", "100441.289000", "100441.292000", "100441.295000", "100441.298000", "100441.300000", "100441.303000", "100441.305000", "100441.308000", "100441.310000", "100441.313000", "100441.315000", "100441.318000", "100441.321000", "100441.323000", "100441.326000", "100441.329000", "100441.331000", "100441.334000", "100441.336000", "100441.339000", "100521.290000", "100521.293000", "100521.295000", "100521.298000", "100521.301000", "100521.303000", "100521.306000", "100521.309000", "100521.311000", "100521.314000", "100521.316000", "100521.319000", "100521.322000", "100521.324000", "100521.342000", "100521.344000", "100521.347000", "100521.350000", "100521.359000", "100521.363000", "100554.113000", "100554.116000", "100554.119000", "100554.127000", "100554.130000", "100554.132000", "100554.135000", "100554.138000", "100554.141000", "100554.143000", "100554.146000", "100554.148000", "100554.153000", "100554.157000", "100554.162000", "100554.165000", "100554.170000"],
      "InstanceCreationTime": ["100001.294000", "100001.298000", "100001.300000", "100001.303000", "100001.305000", "100001.320000", "100001.323000", "100001.325000", "100001.328000", "100001.331000", "100001.333000", "100001.336000", "100001.338000", "100001.341000", "100001.343000", "100001.346000", "100001.349000", "100001.351000", "100001.354000", "100001.356000", "100001.359000", "100001.375000", "100001.377000", "100041.290000", "100041.292000", "100041.295000", "100041.297000", "100041.300000", "100041.303000", "100041.305000", "100041.308000", "100041.311000", "100041.313000", "100041.316000", "100041.318000", "100041.321000", "100041.323000", "100041.326000", "100041.328000", "100041.331000", "100041.334000", "100041.336000", "100041.339000", "100121.289000", "100121.292000", "100121.295000", "100121.297000", "100121.300000", "100121.303000", "100121.305000", "100121.308000", "100121.310000", "100121.313000", "100121.315000", "100121.318000", "100121.321000", "100121.323000", "100121.326000", "100121.328000", "100121.331000", "100121.333000", "100121.336000", "100121.338000", "100201.289000", "100201.292000", "100201.295000", "100201.298000", "100201.300000", "100201.303000", "100201.305000", "100201.308000", "100201.311000", "100201.313000", "100201.316000", "100201.318000", "100201.321000", "100201.323000", "100201.326000", "100201.328000", "100201.331000", "100201.334000", "100201.336000", "100201.339000", "100241.289000", "100241.292000", "100241.295000", "100241.303000", "100241.306000", "100241.308000", "100241.311000", "100241.314000", "100241.316000", "100241.319000", "100241.321000", "100241.324000", "100241.326000", "100241.329000", "100241.332000", "100241.334000", "100241.337000", "100241.339000", "100241.342000", "100241.345000", "100321.289000", "100321.292000", "100321.295000", "100321.297000", "100321.300000", "100321.303000", "100321.305000", "100321.308000", "100321.310000", "100321.313000", "100321.315000", "100321.318000", "100321.321000", "100321.323000", "100321.326000", "100321.329000", "100321.331000", "100321.334000", "100321.336000", "100321.339000", "100401.289000", "100401.292000", "100401.295000", "100401.298000", "100401.300000", "100401.303000", "100401.305000", "100401.308000", "100401.311000", "100401.313000", "100401.316000", "100401.318000", "100401.321000", "100401.323000", "100401.326000", "100401.329000", "100401.331000", "100401.334000", "100401.336000", "100401.339000", "100441.289000", "100441.292000", "100441.295000", "100441.298000", "100441.300000", "100441.303000", "100441.305000", "100441.308000", "100441.310000", "100441.313000", "100441.315000", "100441.318000", "100441.321000", "100441.323000", "100441.326000", "100441.329000", "100441.331000", "100441.334000", "100441.336000", "100441.339000", "100521.290000", "100521.293000", "100521.295000", "100521.298000", "100521.301000", "100521.303000", "100521.306000", "100521.309000", "100521.311000", "100521.314000", "100521.316000", "100521.319000", "100521.322000", "100521.324000", "100521.342000", "100521.344000", "100521.347000", "100521.350000", "100521.359000", "100521.363000", "100554.113000", "100554.116000", "100554.119000", "100554.127000", "100554.130000", "100554.132000", "100554.135000", "100554.138000", "100554.141000", "100554.143000", "100554.146000", "100554.148000", "100554.153000", "100554.157000", "100554.162000", "100554.165000", "100554.170000"],
      "InstanceNumber": [1, 2, 3, 4, 5, 6, 7, 8, 9, 10, 11, 12, 13, 14, 15, 16, 17, 18, 19, 20, 21, 22, 23, 24, 25, 26, 27, 28, 29, 30, 31, 32, 33, 34, 35, 36, 37, 38, 39, 40, 41, 42, 43, 44, 45, 46, 47, 48, 49, 50, 51, 52, 53, 54, 55, 56, 57, 58, 59, 60, 61, 62, 63, 64, 65, 66, 67, 68, 69, 70, 71, 72, 73, 74, 75, 76, 77, 78, 79, 80, 81, 82, 83, 84, 85, 86, 87, 88, 89, 90, 91, 92, 93, 94, 95, 96, 97, 98, 99, 100, 101, 102, 103, 104, 105, 106, 107, 108, 109, 110, 111, 112, 113, 114, 115, 116, 117, 118, 119, 120, 121, 122, 123, 124, 125, 126, 127, 128, 129, 130, 131, 132, 133, 134, 135, 136, 137, 138, 139, 140, 141, 142, 143, 144, 145, 146, 147, 148, 149, 150, 151, 152, 153, 154, 155, 156, 157, 158, 159, 160, 161, 162, 163, 164, 165, 166, 167, 168, 169, 170, 171, 172, 173, 174, 175, 176, 177, 178, 179, 180, 181, 182, 183, 184, 185, 186, 187, 188, 189, 190, 191, 192, 193, 194, 195, 196, 197, 198, 199, 200],
      "LargestImagePixelValue": [1962, 1968, 1971, 1966, 1965, 1963, 1966, 1970, 1969, 1963, 1970, 1967, 1972, 1962, 1970, 1962, 1960, 1966, 1963, 1966, 1967, 1973, 1960, 1958, 1963, 1963, 1957, 1959, 1968, 1964, 1964, 1965, 1955, 1959, 1956, 1965, 1973, 1965, 1963, 1962, 1964, 1969, 1965, 1962, 1967, 1964, 1966, 1968, 1969, 1970, 1962, 1969, 1966, 1966, 1963, 1964, 1961, 1968, 1962, 1968, 1963, 1968, 1961, 1959, 1961, 1964, 1961, 1959, 1963, 1959, 1958, 1968, 1962, 1957, 1961, 1966, 1955, 1966, 1955, 1960, 1956, 1969, 1960, 1964, 1967, 1961, 1956, 1966, 1969, 1961, 1960, 1963, 1964, 1967, 1963, 1959, 1957, 1964, 1962, 1968, 1964, 1965, 1965, 1962, 1966, 1959, 1963, 1959, 1962, 1977, 1962, 1961, 1975, 1963, 1967, 1971, 1963, 1965, 1960, 1960, 1970, 1963, 1969, 1965, 1963, 1957, 1963, 1963, 1965, 1956, 1965, 1961, 1962, 1955, 1965, 1947, 1958, 1967, 1963, 1966, 1975, 1969, 1957, 1960, 1959, 1953, 1956, 1957, 1962, 1957, 1963, 1960, 1963, 1966, 1966, 1966, 1955, 1964, 1957, 1971, 1957, 1962, 1969, 1960, 1956, 1962, 1963, 1964, 1959, 1956, 1964, 1960, 1961, 1961, 1959, 1960, 1967, 1964, 1960, 1958, 1967, 1966, 1962, 1961, 1966, 1961, 1962, 1961, 1969, 1967, 1954, 1960, 1968, 1959, 1954, 1956, 1957, 1956, 1959, 1965],
      "WindowCenter": [979.0, 979.0, 978.0, 978.0, 979.0, 979.0, 979.0, 979.0, 979.0, 979.0, 979.0, 978.0, 978.0, 979.0, 978.0, 979.0, 979.0, 978.0, 978.0, 979.0, 978.0, 979.0, 979.0, 979.0, 978.0, 979.0, 978.0, 978.0, 979.0, 979.0, 978.0, 979.0, 980.0, 979.0, 979.0, 978.0, 979.0, 979.0, 978.0, 979.0, 979.0, 978.0, 979.0, 978.0, 978.0, 979.0, 979.0, 978.0, 978.0, 979.0, 978.0, 978.0, 978.0, 979.0, 979.0, 978.0, 979.0, 978.0, 978.0, 978.0, 979.0, 979.0, 978.0, 978.0, 978.0, 978.0, 979.0, 979.0, 979.0, 979.0, 978.0, 979.0, 978.0, 979.0, 978.0, 979.0, 978.0, 979.0, 978.0, 979.0, 978.0, 979.0, 979.0, 979.0, 978.0, 979.0, 979.0, 978.0, 979.0, 978.0, 978.0, 978.0, 979.0, 978.0, 979.0, 979.0, 979.0, 978.0, 978.0, 978.0, 978.0, 978.0, 979.0, 978.0, 978.0, 978.0, 978.0, 978.0, 978.0, 978.0, 978.0, 978.0, 978.0, 979.0, 979.0, 978.0, 978.0, 978.0, 978.0, 978.0, 978.0, 978.0, 978.0, 978.0, 977.0, 978.0, 978.0, 977.0, 978.0, 977.0, 978.0, 978.0, 978.0, 978.0, 978.0, 978.0, 978.0, 978.0, 978.0, 978.0, 978.0, 978.0, 978.0, 978.0, 978.0, 978.0, 977.0, 977.0, 978.0, 977.0, 978.0, 978.0, 978.0, 978.0, 977.0, 978.0, 978.0, 978.0, 978.0, 978.0, 977.0, 978.0, 978.0, 978.0, 978.0, 977.0, 977.0, 977.0, 977.0, 977.0, 978.0, 977.0, 977.0, 978.0, 978.0, 978.0, 977.0, 977.0, 978.0, 977.0, 977.0, 977.0, 978.0, 978.0, 978.0, 977.0, 978.0, 978.0, 978.0, 977.0, 978.0, 978.0, 978.0, 977.0, 978.0, 978.0, 978.0, 978.0, 977.0, 977.0],
      "WindowWidth": [2138.0, 2138.0, 2137.0, 2137.0, 2137.0, 2138.0, 2138.0, 2138.0, 2138.0, 2138.0, 2138.0, 2137.0, 2137.0, 2138.0, 2138.0, 2138.0, 2138.0, 2137.0, 2137.0, 2138.0, 2137.0, 2138.0, 2138.0, 2138.0, 2138.0, 2138.0, 2137.0, 2137.0, 2138.0, 2139.0, 2138.0, 2138.0, 2139.0, 2138.0, 2138.0, 2137.0, 2138.0, 2138.0, 2137.0, 2138.0, 2138.0, 2138.0, 2138.0, 2137.0, 2137.0, 2138.0, 2138.0, 2137.0, 2138.0, 2138.0, 2137.0, 2137.0, 2137.0, 2138.0, 2138.0, 2137.0, 2138.0, 2137.0, 2137.0, 2137.0, 2138.0, 2138.0, 2137.0, 2137.0, 2137.0, 2137.0, 2138.0, 2138.0, 2138.0, 2138.0, 2137.0, 2138.0, 2137.0, 2138.0, 2137.0, 2138.0, 2137.0, 2138.0, 2137.0, 2138.0, 2137.0, 2138.0, 2138.0, 2138.0, 2137.0, 2138.0, 2138.0, 2137.0, 2138.0, 2137.0, 2138.0, 2137.0, 2138.0, 2138.0, 2139.0, 2138.0, 2138.0, 2137.0, 2137.0, 2137.0, 2138.0, 2137.0, 2138.0, 2138.0, 2138.0, 2137.0, 2137.0, 2137.0, 2137.0, 2137.0, 2137.0, 2138.0, 2137.0, 2138.0, 2138.0, 2137.0, 2137.0, 2138.0, 2138.0, 2138.0, 2138.0, 2138.0, 2137.0, 2138.0, 2137.0, 2136.0, 2137.0, 2137.0, 2138.0, 2137.0, 2137.0, 2138.0, 2138.0, 2136.0, 2137.0, 2136.0, 2137.0, 2137.0, 2137.0, 2138.0, 2138.0, 2137.0, 2137.0, 2138.0, 2137.0, 2138.0, 2137.0, 2137.0, 2138.0, 2137.0, 2137.0, 2136.0, 2138.0, 2137.0, 2137.0, 2138.0, 2136.0, 2136.0, 2137.0, 2138.0, 2136.0, 2137.0, 2137.0, 2137.0, 2137.0, 2136.0, 2136.0, 2136.0, 2136.0, 2136.0, 2137.0, 2136.0, 2136.0, 2137.0, 2137.0, 2136.0, 2136.0, 2136.0, 2137.0, 2136.0, 2137.0, 2136.0, 2137.0, 2137.0, 2137.0, 2137.0, 2137.0, 2138.0, 2137.0, 2137.0, 2137.0, 2136.0, 2137.0, 2137.0, 2138.0, 2137.0, 2137.0, 2136.0, 2136.0, 2136.0]
    },
    "slices": {}
  }
}