{
  "AcquisitionMatrixPE": 122,
  "AcquisitionNumber": 1,
  "AcquisitionTime": "10:38:19.467500",
  "BandwidthPerPixelPhaseEncode": 27.785,
  "BaseResolution": 122,
  "BodyPartExamined": "BRAIN",
  "CoilCombinationMethod": "Adaptive Combine",
  "ConsistencyInfo": "N4_VE11C_LATEST_20160120",
  "ConversionSoftware": "dcm2niix",
  "ConversionSoftwareVersion": "v1.0.20220720",
  "DerivedVendorReportedEchoSpacing": 0.000590011,
  "DeviceSerialNumber": "66112",
  "DiffusionScheme": "Monopolar",
  "DwellTime": 2e-06,
  "EchoTime": 0.068,
  "EchoTrainLength": 61,
  "EffectiveEchoSpacing": 0.000295005,
  "FlipAngle": 90,
  "HeudiconvVersion": "0.13.1",
  "ImageOrientationPatientDICOM": [0.976761, 0.213796, 0.0151326, -0.207795, 0.927309, 0.311318],
  "ImageOrientationText": "Tra>Cor(17.9)>Sag(-3.0)",
  "ImageType": [
    "ORIGINAL",
    "PRIMARY",
    "DIFFUSION",
    "NONE",
    "ND",
    "NORM"
],
  "ImagingFrequency": 123.252,
  "InPlanePhaseEncodingDirectionDICOM": "COL",
  "InstitutionAddress": "Maynard 3,Hanover,NH,US,03755",
  "InstitutionName": "Dartmouth College - PBS",
  "InstitutionalDepartmentName": "Department",
  "MRAcquisitionType": "2D",
  "MagneticFieldStrength": 3,
  "Manufacturer": "Siemens",
  "ManufacturersModelName": "Prisma",
  "Modality": "MR",
  "MultibandAccelerationFactor": 4,
  "NonlinearGradientCorrection": false,
  "ParallelReductionFactorInPlane": 2,
  "PartialFourier": 1,
  "PatientPosition": "HFS",
  "PercentPhaseFOV": 100,
  "PercentSampling": 100,
  "PhaseEncodingDirection": "j-",
  "PhaseEncodingSteps": 122,
  "PhaseResolution": 1,
  "PixelBandwidth": 2050,
  "ProcedureStepDescription": "dbic^QA",
  "ProtocolName": "dwi_acq-DTI-30-p2-s4",
  "PulseSequenceDetails": "%SiemensSeq%\\ep2d_diff",
  "ReceiveCoilActiveElements": "HEA;HEP",
  "ReceiveCoilName": "Head_32",
  "ReconMatrixPE": 122,
  "RefLinesPE": 38,
  "RepetitionTime": 3.6,
  "SAR": 0.160935,
  "ScanOptions": "FS",
  "ScanningSequence": "EP",
  "SequenceName": "*ep_b0",
  "SequenceVariant": "SK\\SP",
  "SeriesDescription": "dwi_acq-DTI-30-p2-s4",
  "SeriesNumber": 13,
  "ShimSetting": [4143, -7686, -7516, 283, -46, -123, -33, 51],
  "SliceThickness": 2,
  "SliceTiming": [2.58594, 0, 1.78906, 0.20312, 1.99219, 0.39844, 2.1875, 0.59375, 2.39062, 0.99219, 2.78125, 1.19531, 2.98438, 1.39062, 3.17969, 1.59375, 3.38281, 0.79688, 2.58594, 0, 1.78906, 0.20312, 1.99219, 0.39844, 2.1875, 0.59375, 2.39062, 0.99219, 2.78125, 1.19531, 2.98438, 1.39062, 3.17969, 1.59375, 3.38281, 0.79688, 2.58594, 0, 1.78906, 0.20312, 1.99219, 0.39844, 2.1875, 0.59375, 2.39062, 0.99219, 2.78125, 1.19531, 2.98438, 1.39062, 3.17969, 1.59375, 3.38281, 0.79688, 2.58594, 0, 1.78906, 0.20312, 1.99219, 0.39844, 2.1875, 0.59375, 2.39062, 0.99219, 2.78125, 1.19531, 2.98438, 1.39062, 3.17969, 1.59375, 3.38281, 0.79688],
  "SoftwareVersions": "syngo MR E11",
  "SpacingBetweenSlices": 2,
  "SpoilingState": true,
  "StationName": "AWP66112",
  "TotalReadoutTime": 0.0356956,
  "TxRefAmp": 225.517,
  "dcmmeta_affine": [
    [-1.9214972257614136, -0.4087773561477661, -0.10505199432373047, 150.44375610351562],
    [-0.42058265209198, 1.8242148160934448, 0.6144542694091797, -100.45598602294922],
    [0.029769079759716988, -0.6124287843704224, 1.9003715515136719, -39.14621353149414],
    [0.0, 0.0, 0.0, 1.0]
],
  "dcmmeta_reorient_transform": [
    [0.0, -1.0, 0.0, 121.0],
    [1.0, 0.0, 0.0, 0.0],
    [0.0, 0.0, -1.0, 71.0],
    [0.0, 0.0, 0.0, 1.0]
],
  "dcmmeta_shape": [122, 122, 72, 31],
  "dcmmeta_slice_dim": 2,
  "dcmmeta_version": 0.6,
  "global": {
    "const": {
      "AccessionNumber": "qa",
      "AcquisitionMatrix": [122, 0, 0, 122],
      "AngioFlag": "N",
      "BitsAllocated": 16,
      "BitsStored": 12,
      "BodyPartExamined": "BRAIN",
      "Columns": 122,
      "EchoNumbers": 1,
      "EchoTime": 68.0,
      "EchoTrainLength": 61,
      "FlipAngle": 90.0,
      "HighBit": 11,
      "ImageOrientationPatient": [0.97676107543147, 0.213796177403, 0.0151326154327, -0.2077951468423, 0.92730917072793, 0.31131797062277],
      "ImageType": [
        "ORIGINAL",
        "PRIMARY",
        "DIFFUSION",
        "NONE",
        "ND",
        "NORM"
],
      "ImagedNucleus": "1H",
      "ImagingFrequency": 123.252367,
      "InPlanePhaseEncodingDirection": "COL",
      "MRAcquisitionType": "2D",
      "MagneticFieldStrength": 3.0,
      "Manufacturer": "SIEMENS",
      "ManufacturerModelName": "Prisma",
      "Modality": "MR",
      "NumberOfAverages": 1.0,
      "NumberOfPhaseEncodingSteps": 122,
      "PercentPhaseFieldOfView": 100.0,
      "PercentSampling": 100.0,
      "PerformedProcedureStepStartTime": "100346.995000",
      "PhotometricInterpretation": "MONOCHROME2",
      "PixelBandwidth": 2050.0,
      "PixelRepresentation": 0,
      "PixelSpacing": [1.9672131538391, 1.9672131538391],
      "ProtocolName": "dwi_acq-DTI-30-p2-s4",
      "RepetitionTime": 3600.0,
      "Rows": 122,
      "SAR": 0.16093458468798,
      "SamplesPerPixel": 1,
      "ScanOptions": "FS",
      "ScanningSequence": "EP",
      "SequenceVariant": [
        "SK",
        "SP"
],
      "SeriesDescription": "dwi_acq-DTI-30-p2-s4",
      "SeriesNumber": 13,
      "SeriesTime": "103828.111000",
      "SliceThickness": 2.0,
      "SmallestImagePixelValue": 0,
      "SoftwareVersions": "syngo MR E11",
      "SpacingBetweenSlices": 2.0,
      "SpecificCharacterSet": "ISO_IR 100",
      "StudyID": "1",
      "StudyTime": "100346.947000",
      "TransmitCoilName": "Body",
      "VariableFlipAngleFlag": "N",
      "WindowCenterWidthExplanation": "Algo1",
      "dBdt": 0.0},
    "slices": {
      "AcquisitionTime": ["103819.467500", "103816.882500", "103818.672500", "103817.082500", "103818.872500", "103817.280000", "103819.070000", "103817.480000", "103819.270000", "103817.877500", "103819.667500", "103818.077500", "103819.867500", "103818.275000", "103820.065000", "103818.475000", "103820.265000", "103817.677500", "103819.467500", "103816.882500", "103818.672500", "103817.082500", "103818.872500", "103817.280000", "103819.070000", "103817.480000", "103819.270000", "103817.877500", "103819.667500", "103818.077500", "103819.867500", "103818.275000", "103820.065000", "103818.475000", "103820.265000", "103817.677500", "103819.467500", "103816.882500", "103818.672500", "103817.082500", "103818.872500", "103817.280000", "103819.070000", "103817.480000", "103819.270000", "103817.877500", "103819.667500", "103818.077500", "103819.867500", "103818.275000", "103820.065000", "103818.475000", "103820.265000", "103817.677500", "103819.467500", "103816.882500", "103818.672500", "103817.082500", "103818.872500", "103817.280000", "103819.070000", "103817.480000", "103819.270000", "103817.877500", "103819.667500", "103818.077500", "103819.867500", "103818.275000", "103820.065000", "103818.475000", "103820.265000", "103817.677500", "103823.067500", "103820.482500", "103822.272500", "103820.682500", "103822.472500", "103820.880000", "103822.670000", "103821.080000", "103822.870000", "103821.477500", "103823.267500", "103821.677500", "103823.467500", "103821.875000", "103823.665000", "103822.075000", "103823.865000", "103821.277500", "103823.067500", "103820.482500", "103822.272500", "103820.682500", "103822.472500", "103820.880000", "103822.670000", "103821.080000", "103822.870000", "103821.477500", "103823.267500", "103821.677500", "103823.467500", "103821.875000", "103823.665000", "103822.075000", "103823.865000", "103821.277500", "103823.067500", "103820.482500", "103822.272500", "103820.682500", "103822.472500", "103820.880000", "103822.670000", "103821.080000", "103822.870000", "103821.477500", "103823.267500", "103821.677500", "103823.467500", "103821.875000", "103823.665000", "103822.075000", "103823.865000", "103821.277500", "103823.067500", "103820.482500", "103822.272500", "103820.682500", "103822.472500", "103820.880000", "103822.670000", "103821.080000", "103822.870000", "103821.477500", "103823.267500", "103821.677500", "103823.467500", "103821.875000", "103823.665000", "103822.075000", "103823.865000", "103821.277500", "103826.667500", "103824.082500", "103825.872500", "103824.282500", "103826.072500", "103824.480000", "103826.270000", "103824.680000", "103826.470000", "103825.077500", "103826.867500", "103825.277500", "103827.067500", "103825.475000", "103827.265000", "103825.675000", "103827.465000", "103824.877500", "103826.667500", "103824.082500", "103825.872500", "103824.282500", "103826.072500", "103824.480000", "103826.270000", "103824.680000", "103826.470000", "103825.077500", "103826.867500", "103825.277500", "103827.067500", "103825.475000", "103827.265000", "103825.675000", "103827.465000", "103824.877500", "103826.667500", "103824.082500", "103825.872500", "103824.282500", "103826.072500", "103824.480000", "103826.270000", "103824.680000", "103826.470000", "103825.077500", "103826.867500", "103825.277500", "103827.067500", "103825.475000", "103827.265000", "103825.675000", "103827.465000", "103824.877500", "103826.667500", "103824.082500", "103825.872500", "103824.282500", "103826.072500", "103824.480000", "103826.270000", "103824.680000", "103826.470000", "103825.077500", "103826.867500", "103825.277500", "103827.067500", "103825.475000", "103827.265000", "103825.675000", "103827.465000", "103824.877500", "103830.267500", "103827.682500", "103829.472500", "103827.882500", "103829.672500", "103828.080000", "103829.870000", "103828.280000", "103830.070000", "103828.677500", "103830.467500", "103828.877500", "103830.667500", "103829.075000", "103830.865000", "103829.275000", "103831.065000", "103828.477500", "103830.267500", "103827.682500", "103829.472500", "103827.882500", "103829.672500", "103828.080000", "103829.870000", "103828.280000", "103830.070000", "103828.677500", "103830.467500", "103828.877500", "103830.667500", "103829.075000", "103830.865000", "103829.275000", "103831.065000", "103828.477500", "103830.267500", "103827.682500", "103829.472500", "103827.882500", "103829.672500", "103828.080000", "103829.870000", "103828.280000", "103830.070000", "103828.677500", "103830.467500", "103828.877500", "103830.667500", "103829.075000", "103830.865000", "103829.275000", "103831.065000", "103828.477500", "103830.267500", "103827.682500", "103829.472500", "103827.882500", "103829.672500", "103828.080000", "103829.870000", "103828.280000", "103830.070000", "103828.677500", "103830.467500", "103828.877500", "103830.667500", "103829.075000", "103830.865000", "103829.275000", "103831.065000", "103828.477500", "103833.867500", "103831.282500", "103833.072500", "103831.482500", "103833.272500", "103831.680000", "103833.470000", "103831.880000", "103833.670000", "103832.277500", "103834.067500", "103832.477500", "103834.267500", "103832.675000", "103834.465000", "103832.875000", "103834.665000", "103832.077500", "103833.867500", "103831.282500", "103833.072500", "103831.482500", "103833.272500", "103831.680000", "103833.470000", "103831.880000", "103833.670000", "103832.277500", "103834.067500", "103832.477500", "103834.267500", "103832.675000", "103834.465000", "103832.875000", "103834.665000", "103832.077500", "103833.867500", "103831.282500", "103833.072500", "103831.482500", "103833.272500", "103831.680000", "103833.470000", "103831.880000", "103833.670000", "103832.277500", "103834.067500", "103832.477500", "103834.267500", "103832.675000", "103834.465000", "103832.875000", "103834.665000", "103832.077500", "103833.867500", "103831.282500", "103833.072500", "103831.482500", "103833.272500", "103831.680000", "103833.470000", "103831.880000", "103833.670000", "103832.277500", "103834.067500", "103832.477500", "103834.267500", "103832.675000", "103834.465000", "103832.875000", "103834.665000", "103832.077500", "103837.467500", "103834.882500", "103836.672500", "103835.082500", "103836.872500", "103835.280000", "103837.070000", "103835.480000", "103837.270000", "103835.877500", "103837.667500", "103836.077500", "103837.867500", "103836.275000", "103838.065000", "103836.475000", "103838.265000", "103835.677500", "103837.467500", "103834.882500", "103836.672500", "103835.082500", "103836.872500", "103835.280000", "103837.070000", "103835.480000", "103837.270000", "103835.877500", "103837.667500", "103836.077500", "103837.867500", "103836.275000", "103838.065000", "103836.475000", "103838.265000", "103835.677500", "103837.467500", "103834.882500", "103836.672500", "103835.082500", "103836.872500", "103835.280000", "103837.070000", "103835.480000", "103837.270000", "103835.877500", "103837.667500", "103836.077500", "103837.867500", "103836.275000", "103838.065000", "103836.475000", "103838.265000", "103835.677500", "103837.467500", "103834.882500", "103836.672500", "103835.082500", "103836.872500", "103835.280000", "103837.070000", "103835.480000", "103837.270000", "103835.877500", "103837.667500", "103836.077500", "103837.867500", "103836.275000", "103838.065000", "103836.475000", "103838.265000", "103835.677500", "103841.067500", "103838.482500", "103840.272500", "103838.682500", "103840.472500", "103838.880000", "103840.670000", "103839.080000", "103840.870000", "103839.477500", "103841.267500", "103839.677500", "103841.467500", "103839.875000", "103841.665000", "103840.075000", "103841.865000", "103839.277500", "103841.067500", "103838.482500", "103840.272500", "103838.682500", "103840.472500", "103838.880000", "103840.670000", "103839.080000", "103840.870000", "103839.477500", "103841.267500", "103839.677500", "103841.467500", "103839.875000", "103841.665000", "103840.075000", "103841.865000", "103839.277500", "103841.067500", "103838.482500", "103840.272500", "103838.682500", "103840.472500", "103838.880000", "103840.670000", "103839.080000", "103840.870000", "103839.477500", "103841.267500", "103839.677500", "103841.467500", "103839.875000", "103841.665000", "103840.075000", "103841.865000", "103839.277500", "103841.067500", "103838.482500", "103840.272500", "103838.682500", "103840.472500", "103838.880000", "103840.670000", "103839.080000", "103840.870000", "103839.477500", "103841.267500", "103839.677500", "103841.467500", "103839.875000", "103841.665000", "103840.075000", "103841.865000", "103839.277500", "103844.667500", "103842.082500", "103843.872500", "103842.282500", "103844.072500", "103842.480000", "103844.270000", "103842.680000", "103844.470000", "103843.077500", "103844.867500", "103843.277500", "103845.067500", "103843.475000", "103845.265000", "103843.675000", "103845.465000", "103842.877500", "103844.667500", "103842.082500", "103843.872500", "103842.282500", "103844.072500", "103842.480000", "103844.270000", "103842.680000", "103844.470000", "103843.077500", "103844.867500", "103843.277500", "103845.067500", "103843.475000", "103845.265000", "103843.675000", "103845.465000", "103842.877500", "103844.667500", "103842.082500", "103843.872500", "103842.282500", "103844.072500", "103842.480000", "103844.270000", "103842.680000", "103844.470000", "103843.077500", "103844.867500", "103843.277500", "103845.067500", "103843.475000", "103845.265000", "103843.675000", "103845.465000", "103842.877500", "103844.667500", "103842.082500", "103843.872500", "103842.282500", "103844.072500", "103842.480000", "103844.270000", "103842.680000", "103844.470000", "103843.077500", "103844.867500", "103843.277500", "103845.067500", "103843.475000", "103845.265000", "103843.675000", "103845.465000", "103842.877500", "103848.267500", "103845.682500", "103847.472500", "103845.882500", "103847.672500", "103846.080000", "103847.870000", "103846.280000", "103848.070000", "103846.677500", "103848.467500", "103846.877500", "103848.667500", "103847.075000", "103848.865000", "103847.275000", "103849.065000", "103846.477500", "103848.267500", "103845.682500", "103847.472500", "103845.882500", "103847.672500", "103846.080000", "103847.870000", "103846.280000", "103848.070000", "103846.677500", "103848.467500", "103846.877500", "103848.667500", "103847.075000", "103848.865000", "103847.275000", "103849.065000", "103846.477500", "103848.267500", "103845.682500", "103847.472500", "103845.882500", "103847.672500", "103846.080000", "103847.870000", "103846.280000", "103848.070000", "103846.677500", "103848.467500", "103846.877500", "103848.667500", "103847.075000", "103848.865000", "103847.275000", "103849.065000", "103846.477500", "103848.267500", "103845.682500", "103847.472500", "103845.882500", "103847.672500", "103846.080000", "103847.870000", "103846.280000", "103848.070000", "103846.677500", "103848.467500", "103846.877500", "103848.667500", "103847.075000", "103848.865000", "103847.275000", "103849.065000", "103846.477500", "103851.867500", "103849.282500", "103851.072500", "103849.482500", "103851.272500", "103849.680000", "103851.470000", "103849.880000", "103851.670000", "103850.277500", "103852.067500", "103850.477500", "103852.267500", "103850.675000", "103852.465000", "103850.875000", "103852.665000", "103850.077500", "103851.867500", "103849.282500", "103851.072500", "103849.482500", "103851.272500", "103849.680000", "103851.470000", "103849.880000", "103851.670000", "103850.277500", "103852.067500", "103850.477500", "103852.267500", "103850.675000", "103852.465000", "103850.875000", "103852.665000", "103850.077500", "103851.867500", "103849.282500", "103851.072500", "103849.482500", "103851.272500", "103849.680000", "103851.470000", "103849.880000", "103851.670000", "103850.277500", "103852.067500", "103850.477500", "103852.267500", "103850.675000", "103852.465000", "103850.875000", "103852.665000", "103850.077500", "103851.867500", "103849.282500", "103851.072500", "103849.482500", "103851.272500", "103849.680000", "103851.470000", "103849.880000", "103851.670000", "103850.277500", "103852.067500", "103850.477500", "103852.267500", "103850.675000", "103852.465000", "103850.875000", "103852.665000", "103850.077500", "103855.467500", "103852.882500", "103854.672500", "103853.082500", "103854.872500", "103853.280000", "103855.070000", "103853.480000", "103855.270000", "103853.877500", "103855.667500", "103854.077500", "103855.867500", "103854.275000", "103856.065000", "103854.475000", "103856.265000", "103853.677500", "103855.467500", "103852.882500", "103854.672500", "103853.082500", "103854.872500", "103853.280000", "103855.070000", "103853.480000", "103855.270000", "103853.877500", "103855.667500", "103854.077500", "103855.867500", "103854.275000", "103856.065000", "103854.475000", "103856.265000", "103853.677500", "103855.467500", "103852.882500", "103854.672500", "103853.082500", "103854.872500", "103853.280000", "103855.070000", "103853.480000", "103855.270000", "103853.877500", "103855.667500", "103854.077500", "103855.867500", "103854.275000", "103856.065000", "103854.475000", "103856.265000", "103853.677500", "103855.467500", "103852.882500", "103854.672500", "103853.082500", "103854.872500", "103853.280000", "103855.070000", "103853.480000", "103855.270000", "103853.877500", "103855.667500", "103854.077500", "103855.867500", "103854.275000", "103856.065000", "103854.475000", "103856.265000", "103853.677500", "103859.067500", "103856.482500", "103858.272500", "103856.682500", "103858.472500", "103856.880000", "103858.670000", "103857.080000", "103858.870000", "103857.477500", "103859.267500", "103857.677500", "103859.467500", "103857.875000", "103859.665000", "103858.075000", "103859.865000", "103857.277500", "103859.067500", "103856.482500", "103858.272500", "103856.682500", "103858.472500", "103856.880000", "103858.670000", "103857.080000", "103858.870000", "103857.477500", "103859.267500", "103857.677500", "103859.467500", "103857.875000", "103859.665000", "103858.075000", "103859.865000", "103857.277500", "103859.067500", "103856.482500", "103858.272500", "103856.682500", "103858.472500", "103856.880000", "103858.670000", "103857.080000", "103858.870000", "103857.477500", "103859.267500", "103857.677500", "103859.467500", "103857.875000", "103859.665000", "103858.075000", "103859.865000", "103857.277500", "103859.067500", "103856.482500", "103858.272500", "103856.682500", "103858.472500", "103856.880000", "103858.670000", "103857.080000", "103858.870000", "103857.477500", "103859.267500", "103857.677500", "103859.467500", "103857.875000", "103859.665000", "103858.075000", "103859.865000", "103857.277500", "103902.667500", "103900.082500", "103901.872500", "103900.282500", "103902.072500", "103900.480000", "103902.270000", "103900.680000", "103902.470000", "103901.077500", "103902.867500", "103901.277500", "103903.067500", "103901.475000", "103903.265000", "103901.675000", "103903.465000", "103900.877500", "103902.667500", "103900.082500", "103901.872500", "103900.282500", "103902.072500", "103900.480000", "103902.270000", "103900.680000", "103902.470000", "103901.077500", "103902.867500", "103901.277500", "103903.067500", "103901.475000", "103903.265000", "103901.675000", "103903.465000", "103900.877500", "103902.667500", "103900.082500", "103901.872500", "103900.282500", "103902.072500", "103900.480000", "103902.270000", "103900.680000", "103902.470000", "103901.077500", "103902.867500", "103901.277500", "103903.067500", "103901.475000", "103903.265000", "103901.675000", "103903.465000", "103900.877500", "103902.667500", "103900.082500", "103901.872500", "103900.282500", "103902.072500", "103900.480000", "103902.270000", "103900.680000", "103902.470000", "103901.077500", "103902.867500", "103901.277500", "103903.067500", "103901.475000", "103903.265000", "103901.675000", "103903.465000", "103900.877500", "103906.267500", "103903.682500", "103905.472500", "103903.882500", "103905.672500", "103904.080000", "103905.870000", "103904.280000", "103906.070000", "103904.677500", "103906.467500", "103904.877500", "103906.667500", "103905.075000", "103906.865000", "103905.275000", "103907.065000", "103904.477500", "103906.267500", "103903.682500", "103905.472500", "103903.882500", "103905.672500", "103904.080000", "103905.870000", "103904.280000", "103906.070000", "103904.677500", "103906.467500", "103904.877500", "103906.667500", "103905.075000", "103906.865000", "103905.275000", "103907.065000", "103904.477500", "103906.267500", "103903.682500", "103905.472500", "103903.882500", "103905.672500", "103904.080000", "103905.870000", "103904.280000", "103906.070000", "103904.677500", "103906.467500", "103904.877500", "103906.667500", "103905.075000", "103906.865000", "103905.275000", "103907.065000", "103904.477500", "103906.267500", "103903.682500", "103905.472500", "103903.882500", "103905.672500", "103904.080000", "103905.870000", "103904.280000", "103906.070000", "103904.677500", "103906.467500", "103904.877500", "103906.667500", "103905.075000", "103906.865000", "103905.275000", "103907.065000", "103904.477500", "103909.867500", "103907.282500", "103909.072500", "103907.482500", "103909.272500", "103907.680000", "103909.470000", "103907.880000", "103909.670000", "103908.277500", "103910.067500", "103908.477500", "103910.267500", "103908.675000", "103910.465000", "103908.875000", "103910.665000", "103908.077500", "103909.867500", "103907.282500", "103909.072500", "103907.482500", "103909.272500", "103907.680000", "103909.470000", "103907.880000", "103909.670000", "103908.277500", "103910.067500", "103908.477500", "103910.267500", "103908.675000", "103910.465000", "103908.875000", "103910.665000", "103908.077500", "103909.867500", "103907.282500", "103909.072500", "103907.482500", "103909.272500", "103907.680000", "103909.470000", "103907.880000", "103909.670000", "103908.277500", "103910.067500", "103908.477500", "103910.267500", "103908.675000", "103910.465000", "103908.875000", "103910.665000", "103908.077500", "103909.867500", "103907.282500", "103909.072500", "103907.482500", "103909.272500", "103907.680000", "103909.470000", "103907.880000", "103909.670000", "103908.277500", "103910.067500", "103908.477500", "103910.267500", "103908.675000", "103910.465000", "103908.875000", "103910.665000", "103908.077500", "103913.467500", "103910.882500", "103912.672500", "103911.082500", "103912.872500", "103911.280000", "103913.070000", "103911.480000", "103913.270000", "103911.877500", "103913.667500", "103912.077500", "103913.867500", "103912.275000", "103914.065000", "103912.475000", "103914.265000", "103911.677500", "103913.467500", "103910.882500", "103912.672500", "103911.082500", "103912.872500", "103911.280000", "103913.070000", "103911.480000", "103913.270000", "103911.877500", "103913.667500", "103912.077500", "103913.867500", "103912.275000", "103914.065000", "103912.475000", "103914.265000", "103911.677500", "103913.467500", "103910.882500", "103912.672500", "103911.082500", "103912.872500", "103911.280000", "103913.070000", "103911.480000", "103913.270000", "103911.877500", "103913.667500", "103912.077500", "103913.867500", "103912.275000", "103914.065000", "103912.475000", "103914.265000", "103911.677500", "103913.467500", "103910.882500", "103912.672500", "103911.082500", "103912.872500", "103911.280000", "103913.070000", "103911.480000", "103913.270000", "103911.877500", "103913.667500", "103912.077500", "103913.867500", "103912.275000", "103914.065000", "103912.475000", "103914.265000", "103911.677500", "103917.067500", "103914.482500", "103916.272500", "103914.682500", "103916.472500", "103914.880000", "103916.670000", "103915.080000", "103916.870000", "103915.477500", "103917.267500", "103915.677500", "103917.467500", "103915.875000", "103917.665000", "103916.075000", "103917.865000", "103915.277500", "103917.067500", "103914.482500", "103916.272500", "103914.682500", "103916.472500", "103914.880000", "103916.670000", "103915.080000", "103916.870000", "103915.477500", "103917.267500", "103915.677500", "103917.467500", "103915.875000", "103917.665000", "103916.075000", "103917.865000", "103915.277500", "103917.067500", "103914.482500", "103916.272500", "103914.682500", "103916.472500", "103914.880000", "103916.670000", "103915.080000", "103916.870000", "103915.477500", "103917.267500", "103915.677500", "103917.467500", "103915.875000", "103917.665000", "103916.075000", "103917.865000", "103915.277500", "103917.067500", "103914.482500", "103916.272500", "103914.682500", "103916.472500", "103914.880000", "103916.670000", "103915.080000", "103916.870000", "103915.477500", "103917.267500", "103915.677500", "103917.467500", "103915.875000", "103917.665000", "103916.075000", "103917.865000", "103915.277500", "103920.667500", "103918.082500", "103919.872500", "103918.282500", "103920.072500", "103918.480000", "103920.270000", "103918.680000", "103920.470000", "103919.077500", "103920.867500", "103919.277500", "103921.067500", "103919.475000", "103921.265000", "103919.675000", "103921.465000", "103918.877500", "103920.667500", "103918.082500", "103919.872500", "103918.282500", "103920.072500", "103918.480000", "103920.270000", "103918.680000", "103920.470000", "103919.077500", "103920.867500", "103919.277500", "103921.067500", "103919.475000", "103921.265000", "103919.675000", "103921.465000", "103918.877500", "103920.667500", "103918.082500", "103919.872500", "103918.282500", "103920.072500", "103918.480000", "103920.270000", "103918.680000", "103920.470000", "103919.077500", "103920.867500", "103919.277500", "103921.067500", "103919.475000", "103921.265000", "103919.675000", "103921.465000", "103918.877500", "103920.667500", "103918.082500", "103919.872500", "103918.282500", "103920.072500", "103918.480000", "103920.270000", "103918.680000", "103920.470000", "103919.077500", "103920.867500", "103919.277500", "103921.067500", "103919.475000", "103921.265000", "103919.675000", "103921.465000", "103918.877500", "103924.267500", "103921.682500", "103923.472500", "103921.882500", "103923.672500", "103922.080000", "103923.870000", "103922.280000", "103924.070000", "103922.677500", "103924.467500", "103922.877500", "103924.667500", "103923.075000", "103924.865000", "103923.275000", "103925.065000", "103922.477500", "103924.267500", "103921.682500", "103923.472500", "103921.882500", "103923.672500", "103922.080000", "103923.870000", "103922.280000", "103924.070000", "103922.677500", "103924.467500", "103922.877500", "103924.667500", "103923.075000", "103924.865000", "103923.275000", "103925.065000", "103922.477500", "103924.267500", "103921.682500", "103923.472500", "103921.882500", "103923.672500", "103922.080000", "103923.870000", "103922.280000", "103924.070000", "103922.677500", "103924.467500", "103922.877500", "103924.667500", "103923.075000", "103924.865000", "103923.275000", "103925.065000", "103922.477500", "103924.267500", "103921.682500", "103923.472500", "103921.882500", "103923.672500", "103922.080000", "103923.870000", "103922.280000", "103924.070000", "103922.677500", "103924.467500", "103922.877500", "103924.667500", "103923.075000", "103924.865000", "103923.275000", "103925.065000", "103922.477500", "103927.867500", "103925.282500", "103927.072500", "103925.482500", "103927.272500", "103925.680000", "103927.470000", "103925.880000", "103927.670000", "103926.277500", "103928.067500", "103926.477500", "103928.267500", "103926.675000", "103928.465000", "103926.875000", "103928.665000", "103926.077500", "103927.867500", "103925.282500", "103927.072500", "103925.482500", "103927.272500", "103925.680000", "103927.470000", "103925.880000", "103927.670000", "103926.277500", "103928.067500", "103926.477500", "103928.267500", "103926.675000", "103928.465000", "103926.875000", "103928.665000", "103926.077500", "103927.867500", "103925.282500", "103927.072500", "103925.482500", "103927.272500", "103925.680000", "103927.470000", "103925.880000", "103927.670000", "103926.277500", "103928.067500", "103926.477500", "103928.267500", "103926.675000", "103928.465000", "103926.875000", "103928.665000", "103926.077500", "103927.867500", "103925.282500", "103927.072500", "103925.482500", "103927.272500", "103925.680000", "103927.470000", "103925.880000", "103927.670000", "103926.277500", "103928.067500", "1039