{
  "AcquisitionMatrixPE": 122,
  "AcquisitionNumber": 1,
  "AcquisitionTime": "10:34:0.027500",
  "BandwidthPerPixelPhaseEncode": 28.76,
  "BaseResolution": 122,
  "BodyPartExamined": "BRAIN",
  "CoilCombinationMethod": "Adaptive Combine",
  "ConsistencyInfo": "N4_VE11C_LATEST_20160120",
  "ConversionSoftware": "dcm2niix",
  "ConversionSoftwareVersion": "v1.0.20220720",
  "DerivedVendorReportedEchoSpacing": 0.000570008,
  "DeviceSerialNumber": "66112",
  "DiffusionScheme": "Monopolar",
  "DwellTime": 2e-06,
  "EchoTime": 0.075,
  "EchoTrainLength": 61,
  "EffectiveEchoSpacing": 0.000285004,
  "FlipAngle": 90,
  "HeudiconvVersion": "0.13.1",
  "ImageOrientationPatientDICOM": [0.976761, 0.213796, 0.0151326, -0.207795, 0.927309, 0.311318],
  "ImageOrientationText": "Tra>Cor(17.9)>Sag(-3.0)",
  "ImageType": [
    "ORIGINAL",
    "PRIMARY",
    "DIFFUSION",
    "NONE",
    "ND",
    "NORM"
],
  "ImagingFrequency": 123.252,
  "InPlanePhaseEncodingDirectionDICOM": "COL",
  "InstitutionAddress": "Maynard 3,Hanover,NH,US,03755",
  "InstitutionName": "Dartmouth College - PBS",
  "InstitutionalDepartmentName": "Department",
  "MRAcquisitionType": "2D",
  "MagneticFieldStrength": 3,
  "Manufacturer": "Siemens",
  "ManufacturersModelName": "Prisma",
  "MatrixCoilMode": "GRAPPA",
  "Modality": "MR",
  "NonlinearGradientCorrection": false,
  "ParallelReductionFactorInPlane": 2,
  "PartialFourier": 1,
  "PatientPosition": "HFS",
  "PercentPhaseFOV": 100,
  "PercentSampling": 100,
  "PhaseEncodingDirection": "j-",
  "PhaseEncodingSteps": 122,
  "PhaseResolution": 1,
  "PixelBandwidth": 2050,
  "ProcedureStepDescription": "dbic^QA",
  "ProtocolName": "dwi_acq-DTI-30-p2",
  "PulseSequenceDetails": "%SiemensSeq%\\ep2d_diff",
  "ReceiveCoilActiveElements": "HEA;HEP",
  "ReceiveCoilName": "Head_32",
  "ReconMatrixPE": 122,
  "RefLinesPE": 38,
  "RepetitionTime": 7.7,
  "SAR": 0.101925,
  "ScanOptions": "FS",
  "ScanningSequence": "EP",
  "SequenceName": "*ep_b0",
  "SequenceVariant": "SK\\SP",
  "SeriesDescription": "dwi_acq-DTI-30-p2",
  "SeriesNumber": 12,
  "ShimSetting": [4143, -7685, -7516, 283, -46, -126, -33, 51],
  "SliceThickness": 2,
  "SliceTiming": [3.84375, 0, 3.95312, 0.10938, 4.0625, 0.21875, 4.16406, 0.32812, 4.28125, 0.4375, 4.39062, 0.54688, 4.5, 0.65625, 4.60938, 0.76562, 4.71875, 0.875, 4.82812, 0.98438, 4.9375, 1.09375, 5.04688, 1.21094, 5.15625, 1.3125, 5.26562, 1.42188, 5.375, 1.53125, 5.48438, 1.64844, 5.59375, 1.75781, 5.70312, 1.86719, 5.8125, 1.97656, 5.92188, 2.08594, 6.03125, 2.19531, 6.14062, 2.30469, 6.25, 2.41406, 6.35938, 2.52344, 6.46875, 2.63281, 6.58594, 2.74219, 6.69531, 2.85156, 6.80469, 2.96094, 6.91406, 3.07031, 7.02344, 3.17969, 7.13281, 3.28906, 7.24219, 3.39844, 7.35156, 3.50781, 7.46094, 3.61719, 7.57031, 3.72656],
  "SoftwareVersions": "syngo MR E11",
  "SpacingBetweenSlices": 2,
  "SpoilingState": true,
  "StationName": "AWP66112",
  "TotalReadoutTime": 0.0344855,
  "TxRefAmp": 225.517,
  "dcmmeta_affine": [
    [-1.9214972257614136, -0.4087773561477661, -0.10505187511444092, 150.3386993408203],
    [-0.42058265209198, 1.8242148160934448, 0.6144561767578125, -99.84166717529297],
    [0.029769079759716988, -0.6124287843704224, 1.9003715515136719, -37.24584197998047],
    [0.0, 0.0, 0.0, 1.0]
],
  "dcmmeta_reorient_transform": [
    [0.0, -1.0, 0.0, 121.0],
    [1.0, 0.0, 0.0, 0.0],
    [0.0, 0.0, -1.0, 69.0],
    [0.0, 0.0, 0.0, 1.0]
],
  "dcmmeta_shape": [122, 122, 70, 31],
  "dcmmeta_slice_dim": 2,
  "dcmmeta_version": 0.6,
  "global": {
    "const": {
      "AccessionNumber": "qa",
      "AcquisitionMatrix": [122, 0, 0, 122],
      "AngioFlag": "N",
      "BitsAllocated": 16,
      "BitsStored": 12,
      "BodyPartExamined": "BRAIN",
      "Columns": 122,
      "EchoNumbers": 1,
      "EchoTime": 75.0,
      "EchoTrainLength": 61,
      "FlipAngle": 90.0,
      "HighBit": 11,
      "ImageOrientationPatient": [0.97676107543147, 0.213796177403, 0.0151326154327, -0.2077951468423, 0.92730917072793, 0.31131797062277],
      "ImageType": [
        "ORIGINAL",
        "PRIMARY",
        "DIFFUSION",
        "NONE",
        "ND",
        "NORM"
],
      "ImagedNucleus": "1H",
      "ImagingFrequency": 123.252363,
      "InPlanePhaseEncodingDirection": "COL",
      "MRAcquisitionType": "2D",
      "MagneticFieldStrength": 3.0,
      "Manufacturer": "SIEMENS",
      "ManufacturerModelName": "Prisma",
      "Modality": "MR",
      "NumberOfAverages": 1.0,
      "NumberOfPhaseEncodingSteps": 122,
      "PercentPhaseFieldOfView": 100.0,
      "PercentSampling": 100.0,
      "PerformedProcedureStepStartTime": "100346.995000",
      "PhotometricInterpretation": "MONOCHROME2",
      "PixelBandwidth": 2050.0,
      "PixelRepresentation": 0,
      "PixelSpacing": [1.9672131538391, 1.9672131538391],
      "ProtocolName": "dwi_acq-DTI-30-p2",
      "RepetitionTime": 7700.0,
      "Rows": 122,
      "SAR": 0.10192498490089,
      "SamplesPerPixel": 1,
      "ScanOptions": "FS",
      "ScanningSequence": "EP",
      "SequenceVariant": [
        "SK",
        "SP"
],
      "SeriesDescription": "dwi_acq-DTI-30-p2",
      "SeriesNumber": 12,
      "SeriesTime": "103402.773000",
      "SliceThickness": 2.0,
      "SmallestImagePixelValue": 0,
      "SoftwareVersions": "syngo MR E11",
      "SpacingBetweenSlices": 2.0,
      "SpecificCharacterSet": "ISO_IR 100",
      "StudyID": "1",
      "StudyTime": "100346.947000",
      "TransmitCoilName": "Body",
      "VariableFlipAngleFlag": "N",
      "WindowCenterWidthExplanation": "Algo1",
      "dBdt": 0.0},
    "slices": {
      "AcquisitionTime": ["103400.027500", "103356.187500", "103400.137500", "103356.297500", "103400.247500", "103356.407500", "103400.355000", "103356.517500", "103400.465000", "103356.625000", "103400.575000", "103356.735000", "103400.685000", "103356.845000", "103400.795000", "103356.955000", "103400.905000", "103357.065000", "103401.015000", "103357.175000", "103401.125000", "103357.285000", "103401.235000", "103357.395000", "103401.342500", "103357.502500", "103401.452500", "103357.612500", "103401.562500", "103357.722500", "103401.672500", "103357.832500", "103401.782500", "103357.942500", "103401.892500", "103358.052500", "103402.002500", "103358.162500", "103402.112500", "103358.272500", "103402.222500", "103358.382500", "103402.330000", "103358.490000", "103402.440000", "103358.600000", "103402.550000", "103358.710000", "103402.660000", "103358.820000", "103402.770000", "103358.930000", "103402.880000", "103359.040000", "103402.990000", "103359.150000", "103403.100000", "103359.260000", "103403.207500", "103359.370000", "103403.317500", "103359.477500", "103403.427500", "103359.587500", "103403.537500", "103359.697500", "103403.647500", "103359.807500", "103403.757500", "103359.917500", "103407.727500", "103403.887500", "103407.837500", "103403.997500", "103407.947500", "103404.107500", "103408.055000", "103404.217500", "103408.165000", "103404.325000", "103408.275000", "103404.435000", "103408.385000", "103404.545000", "103408.495000", "103404.655000", "103408.605000", "103404.765000", "103408.715000", "103404.875000", "103408.825000", "103404.985000", "103408.935000", "103405.095000", "103409.042500", "103405.202500", "103409.152500", "103405.312500", "103409.262500", "103405.422500", "103409.372500", "103405.532500", "103409.482500", "103405.642500", "103409.592500", "103405.752500", "103409.702500", "103405.862500", "103409.812500", "103405.972500", "103409.922500", "103406.082500", "103410.030000", "103406.190000", "103410.140000", "103406.300000", "103410.250000", "103406.410000", "103410.360000", "103406.520000", "103410.470000", "103406.630000", "103410.580000", "103406.740000", "103410.690000", "103406.850000", "103410.800000", "103406.960000", "103410.907500", "103407.070000", "103411.017500", "103407.177500", "103411.127500", "103407.287500", "103411.237500", "103407.397500", "103411.347500", "103407.507500", "103411.457500", "103407.617500", "103415.427500", "103411.587500", "103415.537500", "103411.697500", "103415.647500", "103411.807500", "103415.755000", "103411.917500", "103415.865000", "103412.025000", "103415.975000", "103412.135000", "103416.085000", "103412.245000", "103416.195000", "103412.355000", "103416.305000", "103412.465000", "103416.415000", "103412.575000", "103416.525000", "103412.685000", "103416.635000", "103412.795000", "103416.742500", "103412.902500", "103416.852500", "103413.012500", "103416.962500", "103413.122500", "103417.072500", "103413.232500", "103417.182500", "103413.342500", "103417.292500", "103413.452500", "103417.402500", "103413.562500", "103417.512500", "103413.672500", "103417.622500", "103413.782500", "103417.730000", "103413.890000", "103417.840000", "103414.000000", "103417.950000", "103414.110000", "103418.060000", "103414.220000", "103418.170000", "103414.330000", "103418.280000", "103414.440000", "103418.390000", "103414.550000", "103418.500000", "103414.660000", "103418.607500", "103414.770000", "103418.717500", "103414.877500", "103418.827500", "103414.987500", "103418.937500", "103415.097500", "103419.047500", "103415.207500", "103419.157500", "103415.317500", "103423.127500", "103419.287500", "103423.237500", "103419.397500", "103423.347500", "103419.507500", "103423.455000", "103419.617500", "103423.565000", "103419.725000", "103423.675000", "103419.835000", "103423.785000", "103419.945000", "103423.895000", "103420.055000", "103424.005000", "103420.165000", "103424.115000", "103420.275000", "103424.225000", "103420.385000", "103424.335000", "103420.495000", "103424.442500", "103420.602500", "103424.552500", "103420.712500", "103424.662500", "103420.822500", "103424.772500", "103420.932500", "103424.882500", "103421.042500", "103424.992500", "103421.152500", "103425.102500", "103421.262500", "103425.212500", "103421.372500", "103425.322500", "103421.482500", "103425.430000", "103421.590000", "103425.540000", "103421.700000", "103425.650000", "103421.810000", "103425.760000", "103421.920000", "103425.870000", "103422.030000", "103425.980000", "103422.140000", "103426.090000", "103422.250000", "103426.200000", "103422.360000", "103426.307500", "103422.470000", "103426.417500", "103422.577500", "103426.527500", "103422.687500", "103426.637500", "103422.797500", "103426.747500", "103422.907500", "103426.857500", "103423.017500", "103430.827500", "103426.987500", "103430.937500", "103427.097500", "103431.047500", "103427.207500", "103431.155000", "103427.317500", "103431.265000", "103427.425000", "103431.375000", "103427.535000", "103431.485000", "103427.645000", "103431.595000", "103427.755000", "103431.705000", "103427.865000", "103431.815000", "103427.975000", "103431.925000", "103428.085000", "103432.035000", "103428.195000", "103432.142500", "103428.302500", "103432.252500", "103428.412500", "103432.362500", "103428.522500", "103432.472500", "103428.632500", "103432.582500", "103428.742500", "103432.692500", "103428.852500", "103432.802500", "103428.962500", "103432.912500", "103429.072500", "103433.022500", "103429.182500", "103433.130000", "103429.290000", "103433.240000", "103429.400000", "103433.350000", "103429.510000", "103433.460000", "103429.620000", "103433.570000", "103429.730000", "103433.680000", "103429.840000", "103433.790000", "103429.950000", "103433.900000", "103430.060000", "103434.007500", "103430.170000", "103434.117500", "103430.277500", "103434.227500", "103430.387500", "103434.337500", "103430.497500", "103434.447500", "103430.607500", "103434.557500", "103430.717500", "103438.527500", "103434.687500", "103438.637500", "103434.797500", "103438.747500", "103434.907500", "103438.855000", "103435.017500", "103438.965000", "103435.125000", "103439.075000", "103435.235000", "103439.185000", "103435.345000", "103439.295000", "103435.455000", "103439.405000", "103435.565000", "103439.515000", "103435.675000", "103439.625000", "103435.785000", "103439.735000", "103435.895000", "103439.842500", "103436.002500", "103439.952500", "103436.112500", "103440.062500", "103436.222500", "103440.172500", "103436.332500", "103440.282500", "103436.442500", "103440.392500", "103436.552500", "103440.502500", "103436.662500", "103440.612500", "103436.772500", "103440.722500", "103436.882500", "103440.830000", "103436.990000", "103440.940000", "103437.100000", "103441.050000", "103437.210000", "103441.160000", "103437.320000", "103441.270000", "103437.430000", "103441.380000", "103437.540000", "103441.490000", "103437.650000", "103441.600000", "103437.760000", "103441.707500", "103437.870000", "103441.817500", "103437.977500", "103441.927500", "103438.087500", "103442.037500", "103438.197500", "103442.147500", "103438.307500", "103442.257500", "103438.417500", "103446.227500", "103442.387500", "103446.337500", "103442.497500", "103446.447500", "103442.607500", "103446.555000", "103442.717500", "103446.665000", "103442.825000", "103446.775000", "103442.935000", "103446.885000", "103443.045000", "103446.995000", "103443.155000", "103447.105000", "103443.265000", "103447.215000", "103443.375000", "103447.325000", "103443.485000", "103447.435000", "103443.595000", "103447.542500", "103443.702500", "103447.652500", "103443.812500", "103447.762500", "103443.922500", "103447.872500", "103444.032500", "103447.982500", "103444.142500", "103448.092500", "103444.252500", "103448.202500", "103444.362500", "103448.312500", "103444.472500", "103448.422500", "103444.582500", "103448.530000", "103444.690000", "103448.640000", "103444.800000", "103448.750000", "103444.910000", "103448.860000", "103445.020000", "103448.970000", "103445.130000", "103449.080000", "103445.240000", "103449.190000", "103445.350000", "103449.300000", "103445.460000", "103449.407500", "103445.570000", "103449.517500", "103445.677500", "103449.627500", "103445.787500", "103449.737500", "103445.897500", "103449.847500", "103446.007500", "103449.957500", "103446.117500", "103453.927500", "103450.087500", "103454.037500", "103450.197500", "103454.147500", "103450.307500", "103454.255000", "103450.417500", "103454.365000", "103450.525000", "103454.475000", "103450.635000", "103454.585000", "103450.745000", "103454.695000", "103450.855000", "103454.805000", "103450.965000", "103454.915000", "103451.075000", "103455.025000", "103451.185000", "103455.135000", "103451.295000", "103455.242500", "103451.402500", "103455.352500", "103451.512500", "103455.462500", "103451.622500", "103455.572500", "103451.732500", "103455.682500", "103451.842500", "103455.792500", "103451.952500", "103455.902500", "103452.062500", "103456.012500", "103452.172500", "103456.122500", "103452.282500", "103456.230000", "103452.390000", "103456.340000", "103452.500000", "103456.450000", "103452.610000", "103456.560000", "103452.720000", "103456.670000", "103452.830000", "103456.780000", "103452.940000", "103456.890000", "103453.050000", "103457.000000", "103453.160000", "103457.107500", "103453.270000", "103457.217500", "103453.377500", "103457.327500", "103453.487500", "103457.437500", "103453.597500", "103457.547500", "103453.707500", "103457.657500", "103453.817500", "103501.627500", "103457.787500", "103501.737500", "103457.897500", "103501.847500", "103458.007500", "103501.955000", "103458.117500", "103502.065000", "103458.225000", "103502.175000", "103458.335000", "103502.285000", "103458.445000", "103502.395000", "103458.555000", "103502.505000", "103458.665000", "103502.615000", "103458.775000", "103502.725000", "103458.885000", "103502.835000", "103458.995000", "103502.942500", "103459.102500", "103503.052500", "103459.212500", "103503.162500", "103459.322500", "103503.272500", "103459.432500", "103503.382500", "103459.542500", "103503.492500", "103459.652500", "103503.602500", "103459.762500", "103503.712500", "103459.872500", "103503.822500", "103459.982500", "103503.930000", "103500.090000", "103504.040000", "103500.200000", "103504.150000", "103500.310000", "103504.260000", "103500.420000", "103504.370000", "103500.530000", "103504.480000", "103500.640000", "103504.590000", "103500.750000", "103504.700000", "103500.860000", "103504.807500", "103500.970000", "103504.917500", "103501.077500", "103505.027500", "103501.187500", "103505.137500", "103501.297500", "103505.247500", "103501.407500", "103505.357500", "103501.517500", "103509.327500", "103505.487500", "103509.437500", "103505.597500", "103509.547500", "103505.707500", "103509.655000", "103505.817500", "103509.765000", "103505.925000", "103509.875000", "103506.035000", "103509.985000", "103506.145000", "103510.095000", "103506.255000", "103510.205000", "103506.365000", "103510.315000", "103506.475000", "103510.425000", "103506.585000", "103510.535000", "103506.695000", "103510.642500", "103506.802500", "103510.752500", "103506.912500", "103510.862500", "103507.022500", "103510.972500", "103507.132500", "103511.082500", "103507.242500", "103511.192500", "103507.352500", "103511.302500", "103507.462500", "103511.412500", "103507.572500", "103511.522500", "103507.682500", "103511.630000", "103507.790000", "103511.740000", "103507.900000", "103511.850000", "103508.010000", "103511.960000", "103508.120000", "103512.070000", "103508.230000", "103512.180000", "103508.340000", "103512.290000", "103508.450000", "103512.400000", "103508.560000", "103512.507500", "103508.670000", "103512.617500", "103508.777500", "103512.727500", "103508.887500", "103512.837500", "103508.997500", "103512.947500", "103509.107500", "103513.057500", "103509.217500", "103517.027500", "103513.187500", "103517.137500", "103513.297500", "103517.247500", "103513.407500", "103517.355000", "103513.517500", "103517.465000", "103513.625000", "103517.575000", "103513.735000", "103517.685000", "103513.845000", "103517.795000", "103513.955000", "103517.905000", "103514.065000", "103518.015000", "103514.175000", "103518.125000", "103514.285000", "103518.235000", "103514.395000", "103518.342500", "103514.502500", "103518.452500", "103514.612500", "103518.562500", "103514.722500", "103518.672500", "103514.832500", "103518.782500", "103514.942500", "103518.892500", "103515.052500", "103519.002500", "103515.162500", "103519.112500", "103515.272500", "103519.222500", "103515.382500", "103519.330000", "103515.490000", "103519.440000", "103515.600000", "103519.550000", "103515.710000", "103519.660000", "103515.820000", "103519.770000", "103515.930000", "103519.880000", "103516.040000", "103519.990000", "103516.150000", "103520.100000", "103516.260000", "103520.207500", "103516.370000", "103520.317500", "103516.477500", "103520.427500", "103516.587500", "103520.537500", "103516.697500", "103520.647500", "103516.807500", "103520.757500", "103516.917500", "103524.727500", "103520.887500", "103524.837500", "103520.997500", "103524.947500", "103521.107500", "103525.055000", "103521.217500", "103525.165000", "103521.325000", "103525.275000", "103521.435000", "103525.385000", "103521.545000", "103525.495000", "103521.655000", "103525.605000", "103521.765000", "103525.715000", "103521.875000", "103525.825000", "103521.985000", "103525.935000", "103522.095000", "103526.042500", "103522.202500", "103526.152500", "103522.312500", "103526.262500", "103522.422500", "103526.372500", "103522.532500", "103526.482500", "103522.642500", "103526.592500", "103522.752500", "103526.702500", "103522.862500", "103526.812500", "103522.972500", "103526.922500", "103523.082500", "103527.030000", "103523.190000", "103527.140000", "103523.300000", "103527.250000", "103523.410000", "103527.360000", "103523.520000", "103527.470000", "103523.630000", "103527.580000", "103523.740000", "103527.690000", "103523.850000", "103527.800000", "103523.960000", "103527.907500", "103524.070000", "103528.017500", "103524.177500", "103528.127500", "103524.287500", "103528.237500", "103524.397500", "103528.347500", "103524.507500", "103528.457500", "103524.617500", "103532.427500", "103528.587500", "103532.537500", "103528.697500", "103532.647500", "103528.807500", "103532.755000", "103528.917500", "103532.865000", "103529.025000", "103532.975000", "103529.135000", "103533.085000", "103529.245000", "103533.195000", "103529.355000", "103533.305000", "103529.465000", "103533.415000", "103529.575000", "103533.525000", "103529.685000", "103533.635000", "103529.795000", "103533.742500", "103529.902500", "103533.852500", "103530.012500", "103533.962500", "103530.122500", "103534.072500", "103530.232500", "103534.182500", "103530.342500", "103534.292500", "103530.452500", "103534.402500", "103530.562500", "103534.512500", "103530.672500", "103534.622500", "103530.782500", "103534.730000", "103530.890000", "103534.840000", "103531.000000", "103534.950000", "103531.110000", "103535.060000", "103531.220000", "103535.170000", "103531.330000", "103535.280000", "103531.440000", "103535.390000", "103531.550000", "103535.500000", "103531.660000", "103535.607500", "103531.770000", "103535.717500", "103531.877500", "103535.827500", "103531.987500", "103535.937500", "103532.097500", "103536.047500", "103532.207500", "103536.157500", "103532.317500", "103540.127500", "103536.287500", "103540.237500", "103536.397500", "103540.347500", "103536.507500", "103540.455000", "103536.617500", "103540.565000", "103536.725000", "103540.675000", "103536.835000", "103540.785000", "103536.945000", "103540.895000", "103537.055000", "103541.005000", "103537.165000", "103541.115000", "103537.275000", "103541.225000", "103537.385000", "103541.335000", "103537.495000", "103541.442500", "103537.602500", "103541.552500", "103537.712500", "103541.662500", "103537.822500", "103541.772500", "103537.932500", "103541.882500", "103538.042500", "103541.992500", "103538.152500", "103542.102500", "103538.262500", "103542.212500", "103538.372500", "103542.322500", "103538.482500", "103542.430000", "103538.590000", "103542.540000", "103538.700000", "103542.650000", "103538.810000", "103542.760000", "103538.920000", "103542.870000", "103539.030000", "103542.980000", "103539.140000", "103543.090000", "103539.250000", "103543.200000", "103539.360000", "103543.307500", "103539.470000", "103543.417500", "103539.577500", "103543.527500", "103539.687500", "103543.637500", "103539.797500", "103543.747500", "103539.907500", "103543.857500", "103540.017500", "103547.827500", "103543.987500", "103547.937500", "103544.097500", "103548.047500", "103544.207500", "103548.155000", "103544.317500", "103548.265000", "103544.425000", "103548.375000", "103544.535000", "103548.485000", "103544.645000", "103548.595000", "103544.755000", "103548.705000", "103544.865000", "103548.815000", "103544.975000", "103548.925000", "103545.085000", "103549.035000", "103545.195000", "103549.142500", "103545.302500", "103549.252500", "103545.412500", "103549.362500", "103545.522500", "103549.472500", "103545.632500", "103549.582500", "103545.742500", "103549.692500", "103545.852500", "103549.802500", "103545.962500", "103549.912500", "103546.072500", "103550.022500", "103546.182500", "103550.130000", "103546.290000", "103550.240000", "103546.400000", "103550.350000", "103546.510000", "103550.460000", "103546.620000", "103550.570000", "103546.730000", "103550.680000", "103546.840000", "103550.790000", "103546.950000", "103550.900000", "103547.060000", "103551.007500", "103547.170000", "103551.117500", "103547.277500", "103551.227500", "103547.387500", "103551.337500", "103547.497500", "103551.447500", "103547.607500", "103551.557500", "103547.717500", "103555.527500", "103551.687500", "103555.637500", "103551.797500", "103555.747500", "103551.907500", "103555.855000", "103552.017500", "103555.965000", "103552.125000", "103556.075000", "103552.235000", "103556.185000", "103552.345000", "103556.295000", "103552.455000", "103556.405000", "103552.565000", "103556.515000", "103552.675000", "103556.625000", "103552.785000", "103556.735000", "103552.895000", "103556.842500", "103553.002500", "103556.952500", "103553.112500", "103557.062500", "103553.222500", "103557.172500", "103553.332500", "103557.282500", "103553.442500", "103557.392500", "103553.552500", "103557.502500", "103553.662500", "103557.612500", "103553.772500", "103557.722500", "103553.882500", "103557.830000", "103553.990000", "103557.940000", "103554.100000", "103558.050000", "103554.210000", "103558.160000", "103554.320000", "103558.270000", "103554.430000", "103558.380000", "103554.540000", "103558.490000", "103554.650000", "103558.600000", "103554.760000", "103558.707500", "103554.870000", "103558.817500", "103554.977500", "103558.927500", "103555.087500", "103559.037500", "103555.197500", "103559.147500", "103555.307500", "103559.257500", "103555.417500", "103603.227500", "103559.387500", "103603.337500", "103559.497500", "103603.447500", "103559.607500", "103603.555000", "103559.717500", "103603.665000", "103559.825000", "103603.775000", "103559.935000", "103603.885000", "103600.045000", "103603.995000", "103600.155000", "103604.105000", "103600.265000", "103604.215000", "103600.375000", "103604.325000", "103600.485000", "103604.435000", "103600.595000", "103604.542500", "103600.702500", "103604.652500", "103600.812500", "103604.762500", "103600.922500", "103604.872500", "103601.032500", "103604.982500", "103601.142500", "103605.092500", "103601.252500", "103605.202500", "103601.362500", "103605.312500", "103601.472500", "103605.422500", "103601.582500", "103605.530000", "103601.690000", "103605.640000", "103601.800000", "103605.750000", "103601.910000", "103605.860000", "103602.020000", "103605.970000", "103602.130000", "103606.080000", "103602.240000", "103606.190000", "103602.350000", "103606.300000", "103602.460000", "103606.407500", "103602.570000", "103606.517500", "103602.677500", "103606.627500", "103602.787500", "103606.737500", "103602.897500", "103606.847500", "103603.007500", "103606.957500", "103603.117500", "103610.927500", "103607.087500", "103611.037500", "103607.197500", "103611.147500", "103607.307500", "103611.255000", "103607.417500", "103611.365000", "103607.525000", "103611.475000", "103607.635000", "103611.585000", "103607.745000", "103611.695000", "103607.855000", "103611.805000", "103607.965000", "103611.915000", "103608.075000", "103612.025000", "103608.185000", "103612.135000", "103608.295000", "103612.242500", "103608.402500", "103612.352500", "103608.512500", "103612.462500", "103608.622500", "103612.572500", "103608.732500", "103612.682500", "103608.842500", "103612.792500", "103608.952500", "103612.902500", "103609.062500", "103613.012500", "103609.172500", "103613.122500", "103609.282500", "103613.230000", "103609.390000", "103613.340000", "103609.500000", "103613.450000", "103609.610000", "103613.560000", "103609.720000", "103613.670000", "103609.830000", "103613.780000", "103609.940000", "103613.890000", "103610.050000", "103614.000000", "103610.160000", "103614.107500", "103610.270000", "103614.217500", "103610.377500", "103614.327500", "103610.487500", "103614.437500", "103610.597500", "103614.547500", "103610.707500", "103614.657500", "103610.817500", "103618.627500", "103614.787500", "103618.737500", "103614.897500", "103618.847500", "103615.007500", "103618.955000", "103615.117500", "103619.065000", "103615.225000", "103619.175000", "103615.335000", "103619.285000", "103615.445000", "103619.395000", "103615.555000", "103619.505000", "103615.665000", "103619.615000", "103615.775000", "103619.725000", "103615.885000", "103619.835000", "103615.995000", "103619.942500", "103616.102500", "103620.052500", "103616.212500", "103620.162500", "103616.322500", "103620.272500", "103616.432500", "103620.382500", "103616.542500", "103620.492500", "103616.652500", "103620.602500", "103616.762500", "103620.712500", "103616.872500", "103620.822500", "103616.982500", "103620.930000", "103617.090000", "103621.040000", "103617.200000", "103621.150000", "103617.310000", "103621.260000", "103617.420000", "103621.370000", "103617.530000", "103621.480000", "103617.640000", "103621.590000", "103617.750000", "103621.700000", "103617.860000", "103621.807500", "103617.970000", "103621.917500", "103618.077500", "103622.027500", "103618.187500", "103622.137500", "103618.297500", "103622.247500", "103618.407500", "103622.357500", "103618.517500", "103626.327500", "103622.487500", "103626.437500", "103622.597500", "103626.547500", "103622.707500", "103626.655000", "103622.817500", "103626.765000", "103622.925000", "103626.875000", "103623.035000", "103626.985000", "103623.145000", "103627.095000", "103623.255000", "103627.205000", "103623.365000", "103627.315000", "103623.475000", "103627.425000", "103623.585000", "103627.535000", "103623.695000", "103627.642500", "103623.802500", "103627.752500", "103623.912500", "103627.862500", "103624.022500", "103627.972500", "103624.132500", "103628.082500", "103624.242500", "103628.192500", "103624.352500", "103628.302500", "103624.462500", "103628.412500", "103624.572500", "103628.522500", "103624.682500", "103628.630000", "103624.790000", "103628.740000", "103624.900000", "103628.850000", "103625.010000", "103628.960000", "103625.120000", "103629.070000", "103625.230000", "103629.180000", "103625.340000", "103629.290000", "103625.450000", "103629.400000", "103625.560000", "103629.507500", "103625.670000", "103629.617500", "103625.777500", "103629.727500", "103625.887500", "103629.837500", "103625.997500", "103629.947500", "103626.107500", "103630.057500", "103626.217500", "103634.027500", "103630.187500", "103634.137500", "103630.297500", "103634.247500", "103630.407500", "103634.355000", "103630.517500", "103634.465000", "103630.625000", "103634.575000", "103630.735000", "103634.685000", "103630.845000", "103634.795000", "103630.955000", "103634.905000", "103631.065000", "103635.015000", "103631.175000", "103635.125000", "103631.285000", "103635.235000", "103631.395000", "103635.342500", "103631.502500", "103635.452500", "103631.612500", "103635.562500", "103631.722500", "103635.672500", "103631.832500", "103635.782500", "103631.942500", "103635.892500", "1036