{
  "AcquisitionMatrixPE": 80,
  "AcquisitionNumber": 1,
  "AcquisitionTime": "09:17:55.525000",
  "BandwidthPerPixelPhaseEncode": 25,
  "BaseResolution": 80,
  "BodyPartExamined": "BRAIN",
  "CoilCombinationMethod": "Sum of Squares",
  "ConsistencyInfo": "N4_VE11C_LATEST_20160120",
  "ConversionSoftware": "dcm2niix",
  "ConversionSoftwareVersion": "v1.0.20220720",
  "DerivedVendorReportedEchoSpacing": 0.0005,
  "DeviceSerialNumber": "66112",
  "DwellTime": 2.7e-06,
  "EchoTime": 0.03,
  "EchoTrainLength": 80,
  "EffectiveEchoSpacing": 0.0005,
  "FlipAngle": 10,
  "HeudiconvVersion": "0.13.1",
  "ImageOrientationPatientDICOM": [0.993658, -0.112344, 0.0047684, 0.106542, 0.954205, 0.279537],
  "ImageOrientationText": "Tra>Cor(16.1)>Sag(2.1)",
  "ImageType": [
    "ORIGINAL",
    "PRIMARY",
    "M",
    "ND",
    "NORM",
    "MOSAIC"
],
  "ImagingFrequency": 123.252,
  "InPlanePhaseEncodingDirectionDICOM": "COL",
  "InstitutionAddress": "Maynard 3,Hanover,NH,US,03755",
  "InstitutionName": "Dartmouth College - PBS",
  "InstitutionalDepartmentName": "Department",
  "MRAcquisitionType": "2D",
  "MagneticFieldStrength": 3,
  "Manufacturer": "Siemens",
  "ManufacturersModelName": "Prisma",
  "MatrixCoilMode": "SENSE",
  "Modality": "MR",
  "NonlinearGradientCorrection": false,
  "PartialFourier": 1,
  "PatientPosition": "HFS",
  "PercentPhaseFOV": 100,
  "PercentSampling": 100,
  "PhaseEncodingDirection": "j-",
  "PhaseEncodingSteps": 80,
  "PhaseResolution": 1,
  "PixelBandwidth": 2315,
  "ProcedureStepDescription": "dbic^QA",
  "ProtocolName": "func-bold_fa-10",
  "PulseSequenceDetails": "%SiemensSeq%\\ep2d_bold",
  "ReceiveCoilActiveElements": "HC1-7;NC1,2",
  "ReceiveCoilName": "HeadNeck_64",
  "ReconMatrixPE": 80,
  "RepetitionTime": 2,
  "SAR": 0.00708382,
  "ScanOptions": "FS",
  "ScanningSequence": "EP",
  "SequenceName": "*epfid2d1_80",
  "SequenceVariant": "SK",
  "SeriesDescription": "func-bold_fa-10",
  "SeriesNumber": 9,
  "ShimSetting": [4139, -7670, -7509, 207, -73, -330, -38, 84],
  "SliceThickness": 3.5,
  "SliceTiming": [0.99, 0, 1.055, 0.0675, 1.1225, 0.1325, 1.1875, 0.1975, 1.255, 0.265, 1.32, 0.33, 1.385, 0.3975, 1.4525, 0.4625, 1.5175, 0.5275, 1.585, 0.595, 1.65, 0.66, 1.715, 0.7275, 1.7825, 0.7925, 1.8475, 0.8575, 1.915, 0.925],
  "SoftwareVersions": "syngo MR E11",
  "SpacingBetweenSlices": 3.99,
  "StationName": "AWP66112",
  "TotalReadoutTime": 0.0395,
  "TxRefAmp": 220.446,
  "dcmmeta_affine": [
    [-2.980973720550537, 0.31962668895721436, 0.14345800876617432, 106.27665710449219],
    [0.3370327055454254, 2.8626160621643066, 1.1062512397766113, -125.58038330078125],
    [0.014305207878351212, -0.8386104702949524, 3.8308913707733154, -49.44132614135742],
    [0.0, 0.0, 0.0, 1.0]
],
  "dcmmeta_reorient_transform": [
    [0.0, -1.0, 0.0, 79.0],
    [1.0, 0.0, 0.0, 0.0],
    [0.0, 0.0, 1.0, 0.0],
    [0.0, 0.0, 0.0, 1.0]
],
  "dcmmeta_shape": [80, 80, 30, 200],
  "dcmmeta_slice_dim": 2,
  "dcmmeta_version": 0.6,
  "global": {
    "const": {
      "AccessionNumber": "qa64",
      "AcquisitionMatrix": [80, 0, 0, 80],
      "AngioFlag": "N",
      "BitsAllocated": 16,
      "BitsStored": 12,
      "BodyPartExamined": "BRAIN",
      "Columns": 480,
      "EchoNumbers": 1,
      "EchoTime": 30.0,
      "EchoTrainLength": 80,
      "FlipAngle": 10.0,
      "HighBit": 11,
      "ImageOrientationPatient": [0.99365790642585, -0.1123442358717, 0.00476840264726, 0.10654223120905, 0.95420538266904, 0.27953683237532],
      "ImagePositionPatient": [-791.64725090134, -605.68298404306, -286.27469749995],
      "ImageType": [
        "ORIGINAL",
        "PRIMARY",
        "M",
        "ND",
        "NORM",
        "MOSAIC"
],
      "ImagedNucleus": "1H",
      "ImagingFrequency": 123.25237,
      "InPlanePhaseEncodingDirection": "COL",
      "MRAcquisitionType": "2D",
      "MagneticFieldStrength": 3.0,
      "Manufacturer": "SIEMENS",
      "ManufacturerModelName": "Prisma",
      "Modality": "MR",
      "NumberOfAverages": 1.0,
      "NumberOfPhaseEncodingSteps": 80,
      "PercentPhaseFieldOfView": 100.0,
      "PercentSampling": 100.0,
      "PerformedProcedureStepStartTime": "085213.678000",
      "PhotometricInterpretation": "MONOCHROME2",
      "PixelBandwidth": 2315.0,
      "PixelRepresentation": 0,
      "PixelSpacing": [3.0, 3.0],
      "ProtocolName": "func-bold_fa-10",
      "RepetitionTime": 2000.0,
      "Rows": 480,
      "SAR": 0.00708382061415,
      "SamplesPerPixel": 1,
      "ScanOptions": "FS",
      "ScanningSequence": "EP",
      "SequenceName": "*epfid2d1_80",
      "SequenceVariant": "SK",
      "SeriesDescription": "func-bold_fa-10",
      "SeriesNumber": 9,
      "SeriesTime": "091842.702000",
      "SliceLocation": -78.466556730854,
      "SliceThickness": 3.5,
      "SmallestImagePixelValue": 0,
      "SoftwareVersions": "syngo MR E11",
      "SpacingBetweenSlices": 3.9900000176577,
      "SpecificCharacterSet": "ISO_IR 100",
      "StudyID": "2",
      "StudyTime": "085213.620000",
      "TransmitCoilName": "Body",
      "VariableFlipAngleFlag": "N",
      "WindowCenterWidthExplanation": "Algo1",
      "dBdt": 0.0},
    "slices": {}
  },
  "time": {
    "samples": {
      "AcquisitionNumber": [1, 2, 3, 4, 5, 6, 7, 8, 9, 10, 11, 12, 13, 14, 15, 16, 17, 18, 19, 20, 21, 22, 23, 24, 25, 26, 27, 28, 29, 30, 31, 32, 33, 34, 35, 36, 37, 38, 39, 40, 41, 42, 43, 44, 45, 46, 47, 48, 49, 50, 51, 52, 53, 54, 55, 56, 57, 58, 59, 60, 61, 62, 63, 64, 65, 66, 67, 68, 69, 70, 71, 72, 73, 74, 75, 76, 77, 78, 79, 80, 81, 82, 83, 84, 85, 86, 87, 88, 89, 90, 91, 92, 93, 94, 95, 96, 97, 98, 99, 100, 101, 102, 103, 104, 105, 106, 107, 108, 109, 110, 111, 112, 113, 114, 115, 116, 117, 118, 119, 120, 121, 122, 123, 124, 125, 126, 127, 128, 129, 130, 131, 132, 133, 134, 135, 136, 137, 138, 139, 140, 141, 142, 143, 144, 145, 146, 147, 148, 149, 150, 151, 152, 153, 154, 155, 156, 157, 158, 159, 160, 161, 162, 163, 164, 165, 166, 167, 168, 169, 170, 171, 172, 173, 174, 175, 176, 177, 178, 179, 180, 181, 182, 183, 184, 185, 186, 187, 188, 189, 190, 191, 192, 193, 194, 195, 196, 197, 198, 199, 200],
      "AcquisitionTime": ["091755.525000", "091757.525000", "091759.525000", "091801.525000", "091803.525000", "091805.525000", "091807.525000", "091809.525000", "091811.525000", "091813.525000", "091815.525000", "091817.525000", "091819.525000", "091821.525000", "091823.525000", "091825.525000", "091827.525000", "091829.525000", "091831.525000", "091833.525000", "091835.525000", "091837.525000", "091839.525000", "091841.525000", "091843.525000", "091845.525000", "091847.525000", "091849.525000", "091851.525000", "091853.525000", "091855.525000", "091857.525000", "091859.525000", "091901.525000", "091903.525000", "091905.525000", "091907.525000", "091909.525000", "091911.525000", "091913.525000", "091915.525000", "091917.525000", "091919.525000", "091921.525000", "091923.525000", "091925.525000", "091927.525000", "091929.525000", "091931.525000", "091933.525000", "091935.525000", "091937.525000", "091939.525000", "091941.525000", "091943.525000", "091945.525000", "091947.525000", "091949.525000", "091951.525000", "091953.525000", "091955.525000", "091957.525000", "091959.525000", "092001.525000", "092003.525000", "092005.525000", "092007.525000", "092009.525000", "092011.525000", "092013.525000", "092015.525000", "092017.525000", "092019.525000", "092021.525000", "092023.525000", "092025.525000", "092027.525000", "092029.525000", "092031.525000", "092033.525000", "092035.525000", "092037.525000", "092039.525000", "092041.525000", "092043.525000", "092045.525000", "092047.525000", "092049.525000", "092051.525000", "092053.525000", "092055.525000", "092057.525000", "092059.525000", "092101.525000", "092103.525000", "092105.525000", "092107.525000", "092109.525000", "092111.525000", "092113.525000", "092115.525000", "092117.525000", "092119.525000", "092121.525000", "092123.525000", "092125.525000", "092127.525000", "092129.525000", "092131.525000", "092133.525000", "092135.525000", "092137.525000", "092139.525000", "092141.525000", "092143.525000", "092145.525000", "092147.525000", "092149.525000", "092151.525000", "092153.525000", "092155.525000", "092157.525000", "092159.525000", "092201.525000", "092203.525000", "092205.525000", "092207.525000", "092209.525000", "092211.525000", "092213.525000", "092215.525000", "092217.525000", "092219.525000", "092221.525000", "092223.525000", "092225.525000", "092227.525000", "092229.525000", "092231.525000", "092233.525000", "092235.525000", "092237.525000", "092239.525000", "092241.525000", "092243.525000", "092245.525000", "092247.525000", "092249.525000", "092251.525000", "092253.525000", "092255.525000", "092257.525000", "092259.525000", "092301.525000", "092303.525000", "092305.525000", "092307.525000", "092309.525000", "092311.525000", "092313.525000", "092315.525000", "092317.525000", "092319.525000", "092321.525000", "092323.525000", "092325.525000", "092327.525000", "092329.525000", "092331.525000", "092333.525000", "092335.525000", "092337.525000", "092339.525000", "092341.525000", "092343.525000", "092345.525000", "092347.525000", "092349.525000", "092351.525000", "092353.525000", "092355.525000", "092357.525000", "092359.525000", "092401.525000", "092403.525000", "092405.525000", "092407.525000", "092409.525000", "092411.525000", "092413.525000", "092415.525000", "092417.525000", "092419.525000", "092421.525000", "092423.525000", "092425.525000", "092427.525000", "092429.525000", "092431.525000", "092433.525000"],
      "ContentTime": ["091842.705000", "091842.718000", "091842.721000", "091842.724000", "091842.726000", "091842.729000", "091842.732000", "091842.734000", "091842.737000", "091842.745000", "091842.748000", "091842.750000", "091842.753000", "091842.756000", "091842.758000", "091842.761000", "091842.764000", "091842.766000", "091842.769000", "091842.771000", "091842.774000", "091842.777000", "091842.779000", "091922.701000", "091922.704000", "091922.706000", "091922.709000", "091922.711000", "091922.714000", "091922.717000", "091922.719000", "091922.722000", "091922.724000", "091922.727000", "091922.730000", "091922.732000", "091922.735000", "091922.738000", "091922.740000", "091922.743000", "091922.745000", "091922.748000", "091922.751000", "091942.700000", "091942.703000", "091942.706000", "091942.709000", "091942.711000", "091942.714000", "091942.717000", "091942.719000", "091942.722000", "091942.724000", "092022.701000", "092022.703000", "092022.706000", "092022.709000", "092022.731000", "092022.734000", "092022.737000", "092022.739000", "092022.742000", "092022.745000", "092022.747000", "092022.750000", "092022.752000", "092022.755000", "092022.758000", "092022.760000", "092022.763000", "092022.766000", "092022.768000", "092022.771000", "092102.701000", "092102.703000", "092102.706000", "092102.709000", "092102.711000", "092102.714000", "092102.717000", "092102.719000", "092102.722000", "092102.725000", "092102.727000", "092102.730000", "092102.732000", "092102.735000", "092102.738000", "092102.740000", "092102.743000", "092102.745000", "092102.748000", "092102.751000", "092142.701000", "092142.703000", "092142.706000", "092142.709000", "092142.711000", "092142.714000", "092142.717000", "092142.719000", "092142.722000", "092142.725000", "092142.727000", "092142.730000", "092142.732000", "092142.735000", "092142.738000", "092142.740000", "092142.743000", "092142.746000", "092142.748000", "092142.751000", "092222.701000", "092222.704000", "092222.706000", "092222.709000", "092222.712000", "092222.714000", "092222.717000", "092222.719000", "092222.722000", "092222.725000", "092222.727000", "092222.730000", "092222.732000", "092222.735000", "092222.738000", "092222.740000", "092222.751000", "092222.753000", "092222.756000", "092222.759000", "092302.701000", "092302.704000", "092302.706000", "092302.709000", "092302.711000", "092302.714000", "092302.717000", "092302.719000", "092302.722000", "092302.724000", "092302.727000", "092302.730000", "092302.732000", "092302.735000", "092302.737000", "092302.740000", "092302.743000", "092302.745000", "092302.748000", "092302.751000", "092342.701000", "092342.703000", "092342.706000", "092342.709000", "092342.711000", "092342.714000", "092342.717000", "092342.719000", "092342.722000", "092342.724000", "092342.727000", "092342.730000", "092342.732000", "092342.735000", "092342.738000", "092342.740000", "092342.743000", "092342.745000", "092342.748000", "092342.751000", "092422.701000", "092422.704000", "092422.706000", "092422.709000", "092422.712000", "092422.714000", "092422.717000", "092422.720000", "092422.722000", "092422.725000", "092422.728000", "092422.730000", "092422.733000", "092422.735000", "092422.738000", "092422.741000", "092422.743000", "092422.746000", "092422.749000", "092422.751000", "092435.053000", "092435.056000", "092435.058000", "092435.061000", "092435.064000", "092435.066000", "092435.069000"],
      "InstanceCreationTime": ["091842.705000", "091842.718000", "091842.721000", "091842.724000", "091842.726000", "091842.729000", "091842.732000", "091842.734000", "091842.737000", "091842.745000", "091842.748000", "091842.750000", "091842.753000", "091842.756000", "091842.758000", "091842.761000", "091842.764000", "091842.766000", "091842.769000", "091842.771000", "091842.774000", "091842.777000", "091842.779000", "091922.701000", "091922.704000", "091922.706000", "091922.709000", "091922.711000", "091922.714000", "091922.717000", "091922.719000", "091922.722000", "091922.724000", "091922.727000", "091922.730000", "091922.732000", "091922.735000", "091922.738000", "091922.740000", "091922.743000", "091922.745000", "091922.748000", "091922.751000", "091942.700000", "091942.703000", "091942.706000", "091942.709000", "091942.711000", "091942.714000", "091942.717000", "091942.719000", "091942.722000", "091942.724000", "092022.701000", "092022.703000", "092022.706000", "092022.709000", "092022.731000", "092022.734000", "092022.737000", "092022.739000", "092022.742000", "092022.745000", "092022.747000", "092022.750000", "092022.752000", "092022.755000", "092022.758000", "092022.760000", "092022.763000", "092022.766000", "092022.768000", "092022.771000", "092102.701000", "092102.703000", "092102.706000", "092102.709000", "092102.711000", "092102.714000", "092102.717000", "092102.719000", "092102.722000", "092102.725000", "092102.727000", "092102.730000", "092102.732000", "092102.735000", "092102.738000", "092102.740000", "092102.743000", "092102.745000", "092102.748000", "092102.751000", "092142.701000", "092142.703000", "092142.706000", "092142.709000", "092142.711000", "092142.714000", "092142.717000", "092142.719000", "092142.722000", "092142.725000", "092142.727000", "092142.730000", "092142.732000", "092142.735000", "092142.738000", "092142.740000", "092142.743000", "092142.746000", "092142.748000", "092142.751000", "092222.701000", "092222.704000", "092222.706000", "092222.709000", "092222.712000", "092222.714000", "092222.717000", "092222.719000", "092222.722000", "092222.725000", "092222.727000", "092222.730000", "092222.732000", "092222.735000", "092222.738000", "092222.740000", "092222.751000", "092222.753000", "092222.756000", "092222.759000", "092302.701000", "092302.704000", "092302.706000", "092302.709000", "092302.711000", "092302.714000", "092302.717000", "092302.719000", "092302.722000", "092302.724000", "092302.727000", "092302.730000", "092302.732000", "092302.735000", "092302.737000", "092302.740000", "092302.743000", "092302.745000", "092302.748000", "092302.751000", "092342.701000", "092342.703000", "092342.706000", "092342.709000", "092342.711000", "092342.714000", "092342.717000", "092342.719000", "092342.722000", "092342.724000", "092342.727000", "092342.730000", "092342.732000", "092342.735000", "092342.738000", "092342.740000", "092342.743000", "092342.745000", "092342.748000", "092342.751000", "092422.701000", "092422.704000", "092422.706000", "092422.709000", "092422.712000", "092422.714000", "092422.717000", "092422.720000", "092422.722000", "092422.725000", "092422.728000", "092422.730000", "092422.733000", "092422.735000", "092422.738000", "092422.741000", "092422.743000", "092422.746000", "092422.749000", "092422.751000", "092435.053000", "092435.056000", "092435.058000", "092435.061000", "092435.064000", "092435.066000", "092435.069000"],
      "InstanceNumber": [1, 2, 3, 4, 5, 6, 7, 8, 9, 10, 11, 12, 13, 14, 15, 16, 17, 18, 19, 20, 21, 22, 23, 24, 25, 26, 27, 28, 29, 30, 31, 32, 33, 34, 35, 36, 37, 38, 39, 40, 41, 42, 43, 44, 45, 46, 47, 48, 49, 50, 51, 52, 53, 54, 55, 56, 57, 58, 59, 60, 61, 62, 63, 64, 65, 66, 67, 68, 69, 70, 71, 72, 73, 74, 75, 76, 77, 78, 79, 80, 81, 82, 83, 84, 85, 86, 87, 88, 89, 90, 91, 92, 93, 94, 95, 96, 97, 98, 99, 100, 101, 102, 103, 104, 105, 106, 107, 108, 109, 110, 111, 112, 113, 114, 115, 116, 117, 118, 119, 120, 121, 122, 123, 124, 125, 126, 127, 128, 129, 130, 131, 132, 133, 134, 135, 136, 137, 138, 139, 140, 141, 142, 143, 144, 145, 146, 147, 148, 149, 150, 151, 152, 153, 154, 155, 156, 157, 158, 159, 160, 161, 162, 163, 164, 165, 166, 167, 168, 169, 170, 171, 172, 173, 174, 175, 176, 177, 178, 179, 180, 181, 182, 183, 184, 185, 186, 187, 188, 189, 190, 191, 192, 193, 194, 195, 196, 197, 198, 199, 200],
      "LargestImagePixelValue": [625, 619, 622, 622, 623, 623, 621, 624, 623, 621, 624, 621, 626, 620, 622, 622, 623, 622, 622, 623, 623, 626, 623, 623, 624, 625, 625, 622, 624, 623, 625, 620, 624, 623, 623, 620, 621, 625, 628, 624, 620, 623, 625, 626, 621, 621, 622, 622, 621, 624, 621, 620, 623, 620, 621, 623, 624, 624, 626, 622, 622, 627, 625, 622, 625, 622, 622, 624, 623, 626, 624, 621, 620, 623, 622, 622, 621, 625, 625, 620, 627, 624, 620, 621, 623, 624, 624, 619, 625, 620, 623, 621, 621, 623, 621, 621, 623, 622, 622, 624, 623, 623, 620, 623, 622, 622, 620, 620, 621, 622, 622, 622, 621, 621, 620, 625, 626, 624, 622, 623, 623, 622, 623, 626, 623, 622, 622, 621, 621, 620, 622, 620, 619, 620, 620, 619, 624, 618, 623, 620, 623, 623, 620, 624, 624, 620, 619, 621, 624, 622, 622, 622, 622, 622, 621, 621, 619, 623, 624, 623, 624, 622, 621, 624, 624, 618, 622, 620, 622, 620, 622, 625, 621, 620, 624, 621, 621, 622, 620, 622, 623, 620, 621, 622, 625, 621, 626, 620, 623, 620, 624, 622, 622, 620, 621, 620, 620, 621, 625, 621],
      "WindowCenter": [453.0, 453.0, 453.0, 453.0, 452.0, 453.0, 453.0, 453.0, 453.0, 453.0, 453.0, 453.0, 453.0, 452.0, 452.0, 453.0, 453.0, 453.0, 453.0, 452.0, 452.0, 452.0, 452.0, 452.0, 453.0, 452.0, 452.0, 452.0, 452.0, 452.0, 452.0, 452.0, 452.0, 452.0, 452.0, 452.0, 452.0, 452.0, 452.0, 452.0, 452.0, 452.0, 452.0, 452.0, 453.0, 452.0, 452.0, 452.0, 452.0, 452.0, 452.0, 452.0, 452.0, 452.0, 452.0, 452.0, 452.0, 452.0, 452.0, 452.0, 452.0, 452.0, 452.0, 452.0, 452.0, 452.0, 452.0, 452.0, 452.0, 452.0, 452.0, 452.0, 452.0, 452.0, 452.0, 452.0, 452.0, 452.0, 452.0, 452.0, 452.0, 452.0, 452.0, 452.0, 452.0, 452.0, 452.0, 452.0, 452.0, 452.0, 452.0, 452.0, 452.0, 452.0, 452.0, 452.0, 452.0, 452.0, 452.0, 452.0, 452.0, 452.0, 452.0, 452.0, 452.0, 452.0, 452.0, 452.0, 452.0, 452.0, 452.0, 452.0, 452.0, 452.0, 452.0, 452.0, 452.0, 452.0, 451.0, 452.0, 452.0, 452.0, 452.0, 452.0, 451.0, 452.0, 452.0, 451.0, 452.0, 451.0, 451.0, 452.0, 451.0, 452.0, 451.0, 451.0, 451.0, 452.0, 451.0, 451.0, 451.0, 451.0, 452.0, 451.0, 451.0, 452.0, 451.0, 451.0, 451.0, 451.0, 451.0, 451.0, 451.0, 451.0, 451.0, 451.0, 452.0, 451.0, 452.0, 451.0, 451.0, 451.0, 451.0, 451.0, 451.0, 451.0, 451.0, 451.0, 451.0, 451.0, 451.0, 451.0, 451.0, 451.0, 451.0, 451.0, 451.0, 451.0, 451.0, 451.0, 451.0, 451.0, 451.0, 451.0, 451.0, 451.0, 451.0, 451.0, 451.0, 451.0, 451.0, 451.0, 451.0, 451.0, 451.0, 451.0, 451.0, 451.0, 451.0, 451.0],
      "WindowWidth": [941.0, 941.0, 941.0, 941.0, 940.0, 941.0, 941.0, 941.0, 941.0, 940.0, 941.0, 941.0, 940.0, 940.0, 940.0, 940.0, 940.0, 940.0, 940.0, 940.0, 940.0, 940.0, 940.0, 940.0, 940.0, 940.0, 940.0, 940.0, 940.0, 940.0, 940.0, 940.0, 940.0, 940.0, 940.0, 940.0, 940.0, 940.0, 940.0, 939.0, 940.0, 940.0, 940.0, 939.0, 940.0, 940.0, 940.0, 939.0, 939.0, 939.0, 939.0, 939.0, 939.0, 939.0, 939.0, 940.0, 939.0, 939.0, 939.0, 939.0, 939.0, 939.0, 939.0, 939.0, 939.0, 939.0, 939.0, 939.0, 939.0, 939.0, 939.0, 939.0, 939.0, 939.0, 939.0, 939.0, 939.0, 939.0, 939.0, 939.0, 939.0, 939.0, 939.0, 939.0, 939.0, 939.0, 939.0, 939.0, 939.0, 939.0, 939.0, 939.0, 939.0, 939.0, 939.0, 939.0, 939.0, 939.0, 939.0, 939.0, 939.0, 939.0, 939.0, 939.0, 939.0, 939.0, 939.0, 939.0, 939.0, 939.0, 939.0, 939.0, 939.0, 939.0, 939.0, 939.0, 939.0, 939.0, 938.0, 939.0, 939.0, 939.0, 939.0, 939.0, 938.0, 939.0, 939.0, 938.0, 939.0, 938.0, 938.0, 939.0, 938.0, 939.0, 938.0, 938.0, 938.0, 939.0, 938.0, 938.0, 938.0, 938.0, 939.0, 938.0, 938.0, 939.0, 938.0, 938.0, 938.0, 938.0, 938.0, 938.0, 938.0, 938.0, 938.0, 938.0, 939.0, 938.0, 939.0, 938.0, 938.0, 938.0, 938.0, 938.0, 938.0, 938.0, 938.0, 938.0, 938.0, 938.0, 938.0, 938.0, 938.0, 938.0, 938.0, 938.0, 938.0, 938.0, 938.0, 938.0, 938.0, 938.0, 938.0, 938.0, 938.0, 938.0, 938.0, 938.0, 938.0, 938.0, 938.0, 938.0, 938.0, 938.0, 938.0, 938.0, 938.0, 938.0, 938.0, 938.0]
    },
    "slices": {}
  }
}