{
  "AcquisitionMatrixPE": 80,
  "AcquisitionNumber": 1,
  "AcquisitionTime": "09:11:8.547500",
  "BandwidthPerPixelPhaseEncode": 25,
  "BaseResolution": 80,
  "BodyPartExamined": "BRAIN",
  "CoilCombinationMethod": "Sum of Squares",
  "ConsistencyInfo": "N4_VE11C_LATEST_20160120",
  "ConversionSoftware": "dcm2niix",
  "ConversionSoftwareVersion": "v1.0.20220720",
  "DerivedVendorReportedEchoSpacing": 0.0005,
  "DeviceSerialNumber": "66112",
  "DwellTime": 2.7e-06,
  "EchoTime": 0.03,
  "EchoTrainLength": 80,
  "EffectiveEchoSpacing": 0.0005,
  "FlipAngle": 77,
  "HeudiconvVersion": "0.13.1",
  "ImageOrientationPatientDICOM": [0.993658, -0.112344, 0.0047684, 0.106542, 0.954205, 0.279537],
  "ImageOrientationText": "Tra>Cor(16.1)>Sag(2.1)",
  "ImageType": [
    "ORIGINAL",
    "PRIMARY",
    "M",
    "ND",
    "NORM",
    "MOSAIC"
],
  "ImagingFrequency": 123.252,
  "InPlanePhaseEncodingDirectionDICOM": "COL",
  "InstitutionAddress": "Maynard 3,Hanover,NH,US,03755",
  "InstitutionName": "Dartmouth College - PBS",
  "InstitutionalDepartmentName": "Department",
  "MRAcquisitionType": "2D",
  "MagneticFieldStrength": 3,
  "Manufacturer": "Siemens",
  "ManufacturersModelName": "Prisma",
  "MatrixCoilMode": "SENSE",
  "Modality": "MR",
  "NonlinearGradientCorrection": false,
  "PartialFourier": 1,
  "PatientPosition": "HFS",
  "PercentPhaseFOV": 100,
  "PercentSampling": 100,
  "PhaseEncodingDirection": "j-",
  "PhaseEncodingSteps": 80,
  "PhaseResolution": 1,
  "PixelBandwidth": 2315,
  "ProcedureStepDescription": "dbic^QA",
  "ProtocolName": "func-bold_fa-77",
  "PulseSequenceDetails": "%SiemensSeq%\\ep2d_bold",
  "ReceiveCoilActiveElements": "HC1-7;NC1,2",
  "ReceiveCoilName": "HeadNeck_64",
  "ReconMatrixPE": 80,
  "RepetitionTime": 2,
  "SAR": 0.0264076,
  "ScanOptions": "FS",
  "ScanningSequence": "EP",
  "SequenceName": "*epfid2d1_80",
  "SequenceVariant": "SK",
  "SeriesDescription": "func-bold_fa-77",
  "SeriesNumber": 7,
  "ShimSetting": [4139, -7670, -7509, 207, -73, -330, -38, 84],
  "SliceThickness": 3.5,
  "SliceTiming": [0.9875, 0, 1.055, 0.065, 1.12, 0.13, 1.1875, 0.1975, 1.2525, 0.2625, 1.3175, 0.33, 1.385, 0.395, 1.45, 0.46, 1.5175, 0.5275, 1.5825, 0.5925, 1.6475, 0.66, 1.715, 0.725, 1.78, 0.79, 1.8475, 0.8575, 1.9125, 0.9225],
  "SoftwareVersions": "syngo MR E11",
  "SpacingBetweenSlices": 3.99,
  "StationName": "AWP66112",
  "TotalReadoutTime": 0.0395,
  "TxRefAmp": 220.446,
  "dcmmeta_affine": [
    [-2.980973720550537, 0.31962668895721436, 0.14345800876617432, 106.27665710449219],
    [0.3370327055454254, 2.8626160621643066, 1.1062512397766113, -125.58038330078125],
    [0.014305207878351212, -0.8386104702949524, 3.8308913707733154, -49.44132614135742],
    [0.0, 0.0, 0.0, 1.0]
],
  "dcmmeta_reorient_transform": [
    [0.0, -1.0, 0.0, 79.0],
    [1.0, 0.0, 0.0, 0.0],
    [0.0, 0.0, 1.0, 0.0],
    [0.0, 0.0, 0.0, 1.0]
],
  "dcmmeta_shape": [80, 80, 30, 200],
  "dcmmeta_slice_dim": 2,
  "dcmmeta_version": 0.6,
  "global": {
    "const": {
      "AccessionNumber": "qa64",
      "AcquisitionMatrix": [80, 0, 0, 80],
      "AngioFlag": "N",
      "BitsAllocated": 16,
      "BitsStored": 12,
      "BodyPartExamined": "BRAIN",
      "Columns": 480,
      "EchoNumbers": 1,
      "EchoTime": 30.0,
      "EchoTrainLength": 80,
      "FlipAngle": 77.0,
      "HighBit": 11,
      "ImageOrientationPatient": [0.99365790642585, -0.1123442358717, 0.00476840264726, 0.10654223120905, 0.95420538266904, 0.27953683237532],
      "ImagePositionPatient": [-791.64725090134, -605.68298404306, -286.27469749995],
      "ImageType": [
        "ORIGINAL",
        "PRIMARY",
        "M",
        "ND",
        "NORM",
        "MOSAIC"
],
      "ImagedNucleus": "1H",
      "ImagingFrequency": 123.252368,
      "InPlanePhaseEncodingDirection": "COL",
      "MRAcquisitionType": "2D",
      "MagneticFieldStrength": 3.0,
      "Manufacturer": "SIEMENS",
      "ManufacturerModelName": "Prisma",
      "Modality": "MR",
      "NumberOfAverages": 1.0,
      "NumberOfPhaseEncodingSteps": 80,
      "PercentPhaseFieldOfView": 100.0,
      "PercentSampling": 100.0,
      "PerformedProcedureStepStartTime": "085213.678000",
      "PhotometricInterpretation": "MONOCHROME2",
      "PixelBandwidth": 2315.0,
      "PixelRepresentation": 0,
      "PixelSpacing": [3.0, 3.0],
      "ProtocolName": "func-bold_fa-77",
      "RepetitionTime": 2000.0,
      "Rows": 480,
      "SAR": 0.02640762278191,
      "SamplesPerPixel": 1,
      "ScanOptions": "FS",
      "ScanningSequence": "EP",
      "SequenceName": "*epfid2d1_80",
      "SequenceVariant": "SK",
      "SeriesDescription": "func-bold_fa-77",
      "SeriesNumber": 7,
      "SeriesTime": "091202.843000",
      "SliceLocation": -78.466556730854,
      "SliceThickness": 3.5,
      "SmallestImagePixelValue": 0,
      "SoftwareVersions": "syngo MR E11",
      "SpacingBetweenSlices": 3.9900000176577,
      "SpecificCharacterSet": "ISO_IR 100",
      "StudyID": "2",
      "StudyTime": "085213.620000",
      "TransmitCoilName": "Body",
      "VariableFlipAngleFlag": "N",
      "WindowCenterWidthExplanation": "Algo1",
      "dBdt": 0.0},
    "slices": {}
  },
  "time": {
    "samples": {
      "AcquisitionNumber": [1, 2, 3, 4, 5, 6, 7, 8, 9, 10, 11, 12, 13, 14, 15, 16, 17, 18, 19, 20, 21, 22, 23, 24, 25, 26, 27, 28, 29, 30, 31, 32, 33, 34, 35, 36, 37, 38, 39, 40, 41, 42, 43, 44, 45, 46, 47, 48, 49, 50, 51, 52, 53, 54, 55, 56, 57, 58, 59, 60, 61, 62, 63, 64, 65, 66, 67, 68, 69, 70, 71, 72, 73, 74, 75, 76, 77, 78, 79, 80, 81, 82, 83, 84, 85, 86, 87, 88, 89, 90, 91, 92, 93, 94, 95, 96, 97, 98, 99, 100, 101, 102, 103, 104, 105, 106, 107, 108, 109, 110, 111, 112, 113, 114, 115, 116, 117, 118, 119, 120, 121, 122, 123, 124, 125, 126, 127, 128, 129, 130, 131, 132, 133, 134, 135, 136, 137, 138, 139, 140, 141, 142, 143, 144, 145, 146, 147, 148, 149, 150, 151, 152, 153, 154, 155, 156, 157, 158, 159, 160, 161, 162, 163, 164, 165, 166, 167, 168, 169, 170, 171, 172, 173, 174, 175, 176, 177, 178, 179, 180, 181, 182, 183, 184, 185, 186, 187, 188, 189, 190, 191, 192, 193, 194, 195, 196, 197, 198, 199, 200],
      "AcquisitionTime": ["091108.547500", "091110.547500", "091112.547500", "091114.547500", "091116.547500", "091118.547500", "091120.547500", "091122.547500", "091124.547500", "091126.547500", "091128.547500", "091130.547500", "091132.547500", "091134.547500", "091136.547500", "091138.547500", "091140.547500", "091142.547500", "091144.547500", "091146.547500", "091148.547500", "091150.547500", "091152.547500", "091154.547500", "091156.547500", "091158.547500", "091200.547500", "091202.547500", "091204.547500", "091206.547500", "091208.547500", "091210.547500", "091212.547500", "091214.547500", "091216.547500", "091218.547500", "091220.547500", "091222.547500", "091224.547500", "091226.547500", "091228.547500", "091230.547500", "091232.547500", "091234.547500", "091236.547500", "091238.547500", "091240.547500", "091242.547500", "091244.547500", "091246.547500", "091248.547500", "091250.547500", "091252.547500", "091254.547500", "091256.547500", "091258.547500", "091300.547500", "091302.547500", "091304.547500", "091306.547500", "091308.547500", "091310.547500", "091312.547500", "091314.547500", "091316.547500", "091318.547500", "091320.547500", "091322.547500", "091324.547500", "091326.547500", "091328.547500", "091330.547500", "091332.547500", "091334.547500", "091336.547500", "091338.547500", "091340.547500", "091342.547500", "091344.547500", "091346.547500", "091348.547500", "091350.547500", "091352.547500", "091354.547500", "091356.547500", "091358.547500", "091400.547500", "091402.547500", "091404.547500", "091406.547500", "091408.547500", "091410.547500", "091412.547500", "091414.547500", "091416.547500", "091418.547500", "091420.547500", "091422.547500", "091424.547500", "091426.547500", "091428.547500", "091430.547500", "091432.547500", "091434.547500", "091436.547500", "091438.547500", "091440.547500", "091442.547500", "091444.547500", "091446.547500", "091448.547500", "091450.547500", "091452.547500", "091454.547500", "091456.547500", "091458.547500", "091500.547500", "091502.547500", "091504.547500", "091506.547500", "091508.547500", "091510.547500", "091512.547500", "091514.547500", "091516.547500", "091518.547500", "091520.547500", "091522.547500", "091524.547500", "091526.547500", "091528.547500", "091530.547500", "091532.547500", "091534.547500", "091536.547500", "091538.547500", "091540.547500", "091542.547500", "091544.547500", "091546.547500", "091548.547500", "091550.547500", "091552.547500", "091554.547500", "091556.547500", "091558.547500", "091600.547500", "091602.547500", "091604.547500", "091606.547500", "091608.547500", "091610.547500", "091612.547500", "091614.547500", "091616.547500", "091618.547500", "091620.547500", "091622.547500", "091624.547500", "091626.547500", "091628.547500", "091630.547500", "091632.547500", "091634.547500", "091636.547500", "091638.547500", "091640.547500", "091642.547500", "091644.547500", "091646.547500", "091648.547500", "091650.547500", "091652.547500", "091654.547500", "091656.547500", "091658.547500", "091700.547500", "091702.547500", "091704.547500", "091706.547500", "091708.547500", "091710.547500", "091712.547500", "091714.547500", "091716.547500", "091718.547500", "091720.547500", "091722.547500", "091724.547500", "091726.547500", "091728.547500", "091730.547500", "091732.547500", "091734.547500", "091736.547500", "091738.547500", "091740.547500", "091742.547500", "091744.547500", "091746.547500"],
      "ContentTime": ["091202.846000", "091202.850000", "091202.853000", "091202.855000", "091202.858000", "091202.861000", "091202.863000", "091202.866000", "091202.869000", "091202.871000", "091202.874000", "091202.876000", "091202.879000", "091202.882000", "091202.884000", "091202.887000", "091202.890000", "091202.892000", "091202.895000", "091202.898000", "091202.900000", "091202.903000", "091202.906000", "091202.908000", "091202.911000", "091202.914000", "091202.916000", "091242.842000", "091242.845000", "091242.847000", "091242.850000", "091242.852000", "091242.855000", "091242.858000", "091242.860000", "091242.863000", "091242.866000", "091242.868000", "091242.871000", "091242.873000", "091242.876000", "091242.879000", "091242.881000", "091242.884000", "091242.887000", "091242.889000", "091242.892000", "091322.843000", "091322.845000", "091322.848000", "091322.851000", "091322.853000", "091322.856000", "091322.859000", "091322.861000", "091322.864000", "091322.866000", "091322.869000", "091322.872000", "091322.874000", "091322.877000", "091322.880000", "091322.882000", "091322.885000", "091322.887000", "091322.890000", "091322.893000", "091402.842000", "091402.845000", "091402.847000", "091402.850000", "091402.852000", "091402.855000", "091402.858000", "091402.860000", "091402.863000", "091402.866000", "091402.868000", "091402.871000", "091402.874000", "091402.876000", "091402.879000", "091402.882000", "091402.884000", "091402.887000", "091402.889000", "091402.892000", "091442.842000", "091442.845000", "091442.847000", "091442.850000", "091442.852000", "091442.855000", "091442.858000", "091442.860000", "091442.863000", "091442.865000", "091442.868000", "091442.871000", "091442.873000", "091442.876000", "091442.879000", "091442.881000", "091442.884000", "091442.886000", "091442.889000", "091442.892000", "091522.841000", "091522.844000", "091522.847000", "091522.850000", "091522.852000", "091522.855000", "091522.858000", "091522.860000", "091522.863000", "091522.865000", "091522.868000", "091522.871000", "091522.873000", "091522.876000", "091522.879000", "091522.881000", "091522.884000", "091522.886000", "091522.889000", "091522.892000", "091602.842000", "091602.845000", "091602.847000", "091602.850000", "091602.853000", "091602.855000", "091602.858000", "091602.860000", "091602.863000", "091602.866000", "091602.868000", "091602.871000", "091602.874000", "091602.876000", "091602.879000", "091602.882000", "091602.884000", "091602.887000", "091602.889000", "091602.892000", "091642.842000", "091642.845000", "091642.847000", "091642.866000", "091642.868000", "091642.871000", "091642.873000", "091642.876000", "091642.879000", "091642.881000", "091642.884000", "091642.887000", "091642.889000", "091642.892000", "091642.894000", "091642.897000", "091642.900000", "091642.902000", "091642.905000", "091642.907000", "091722.842000", "091722.844000", "091722.847000", "091722.850000", "091722.852000", "091722.855000", "091722.858000", "091722.860000", "091722.863000", "091722.866000", "091722.868000", "091722.871000", "091722.874000", "091722.876000", "091722.879000", "091722.881000", "091722.884000", "091722.887000", "091722.889000", "091722.892000", "091748.518000", "091748.521000", "091748.524000", "091748.526000", "091748.529000", "091748.532000", "091748.534000", "091748.537000", "091748.540000", "091748.543000", "091748.545000", "091748.548000", "091748.554000"],
      "InstanceCreationTime": ["091202.846000", "091202.850000", "091202.853000", "091202.855000", "091202.858000", "091202.861000", "091202.863000", "091202.866000", "091202.869000", "091202.871000", "091202.874000", "091202.876000", "091202.879000", "091202.882000", "091202.884000", "091202.887000", "091202.890000", "091202.892000", "091202.895000", "091202.898000", "091202.900000", "091202.903000", "091202.906000", "091202.908000", "091202.911000", "091202.914000", "091202.916000", "091242.842000", "091242.845000", "091242.847000", "091242.850000", "091242.852000", "091242.855000", "091242.858000", "091242.860000", "091242.863000", "091242.866000", "091242.868000", "091242.871000", "091242.873000", "091242.876000", "091242.879000", "091242.881000", "091242.884000", "091242.887000", "091242.889000", "091242.892000", "091322.843000", "091322.845000", "091322.848000", "091322.851000", "091322.853000", "091322.856000", "091322.859000", "091322.861000", "091322.864000", "091322.866000", "091322.869000", "091322.872000", "091322.874000", "091322.877000", "091322.880000", "091322.882000", "091322.885000", "091322.887000", "091322.890000", "091322.893000", "091402.842000", "091402.845000", "091402.847000", "091402.850000", "091402.852000", "091402.855000", "091402.858000", "091402.860000", "091402.863000", "091402.866000", "091402.868000", "091402.871000", "091402.874000", "091402.876000", "091402.879000", "091402.882000", "091402.884000", "091402.887000", "091402.889000", "091402.892000", "091442.842000", "091442.845000", "091442.847000", "091442.850000", "091442.852000", "091442.855000", "091442.858000", "091442.860000", "091442.863000", "091442.865000", "091442.868000", "091442.871000", "091442.873000", "091442.876000", "091442.879000", "091442.881000", "091442.884000", "091442.886000", "091442.889000", "091442.892000", "091522.841000", "091522.844000", "091522.847000", "091522.850000", "091522.852000", "091522.855000", "091522.858000", "091522.860000", "091522.863000", "091522.865000", "091522.868000", "091522.871000", "091522.873000", "091522.876000", "091522.879000", "091522.881000", "091522.884000", "091522.886000", "091522.889000", "091522.892000", "091602.842000", "091602.845000", "091602.847000", "091602.850000", "091602.853000", "091602.855000", "091602.858000", "091602.860000", "091602.863000", "091602.866000", "091602.868000", "091602.871000", "091602.874000", "091602.876000", "091602.879000", "091602.882000", "091602.884000", "091602.887000", "091602.889000", "091602.892000", "091642.842000", "091642.845000", "091642.847000", "091642.866000", "091642.868000", "091642.871000", "091642.873000", "091642.876000", "091642.879000", "091642.881000", "091642.884000", "091642.887000", "091642.889000", "091642.892000", "091642.894000", "091642.897000", "091642.900000", "091642.902000", "091642.905000", "091642.907000", "091722.842000", "091722.844000", "091722.847000", "091722.850000", "091722.852000", "091722.855000", "091722.858000", "091722.860000", "091722.863000", "091722.866000", "091722.868000", "091722.871000", "091722.874000", "091722.876000", "091722.879000", "091722.881000", "091722.884000", "091722.887000", "091722.889000", "091722.892000", "091748.518000", "091748.521000", "091748.524000", "091748.526000", "091748.529000", "091748.532000", "091748.534000", "091748.537000", "091748.540000", "091748.543000", "091748.545000", "091748.548000", "091748.554000"],
      "InstanceNumber": [1, 2, 3, 4, 5, 6, 7, 8, 9, 10, 11, 12, 13, 14, 15, 16, 17, 18, 19, 20, 21, 22, 23, 24, 25, 26, 27, 28, 29, 30, 31, 32, 33, 34, 35, 36, 37, 38, 39, 40, 41, 42, 43, 44, 45, 46, 47, 48, 49, 50, 51, 52, 53, 54, 55, 56, 57, 58, 59, 60, 61, 62, 63, 64, 65, 66, 67, 68, 69, 70, 71, 72, 73, 74, 75, 76, 77, 78, 79, 80, 81, 82, 83, 84, 85, 86, 87, 88, 89, 90, 91, 92, 93, 94, 95, 96, 97, 98, 99, 100, 101, 102, 103, 104, 105, 106, 107, 108, 109, 110, 111, 112, 113, 114, 115, 116, 117, 118, 119, 120, 121, 122, 123, 124, 125, 126, 127, 128, 129, 130, 131, 132, 133, 134, 135, 136, 137, 138, 139, 140, 141, 142, 143, 144, 145, 146, 147, 148, 149, 150, 151, 152, 153, 154, 155, 156, 157, 158, 159, 160, 161, 162, 163, 164, 165, 166, 167, 168, 169, 170, 171, 172, 173, 174, 175, 176, 177, 178, 179, 180, 181, 182, 183, 184, 185, 186, 187, 188, 189, 190, 191, 192, 193, 194, 195, 196, 197, 198, 199, 200],
      "LargestImagePixelValue": [3653, 3653, 3658, 3652, 3655, 3653, 3655, 3656, 3653, 3652, 3656, 3653, 3655, 3656, 3653, 3655, 3652, 3653, 3653, 3655, 3654, 3657, 3653, 3655, 3657, 3656, 3656, 3655, 3653, 3654, 3656, 3656, 3655, 3657, 3653, 3654, 3655, 3653, 3654, 3655, 3650, 3653, 3653, 3655, 3656, 3653, 3653, 3654, 3657, 3655, 3654, 3656, 3658, 3657, 3656, 3651, 3650, 3655, 3654, 3657, 3656, 3653, 3655, 3654, 3649, 3655, 3656, 3654, 3654, 3653, 3654, 3654, 3659, 3653, 3650, 3654, 3656, 3654, 3657, 3654, 3655, 3652, 3653, 3650, 3654, 3655, 3654, 3655, 3656, 3656, 3657, 3659, 3655, 3657, 3653, 3654, 3654, 3655, 3654, 3655, 3656, 3653, 3653, 3655, 3652, 3653, 3654, 3653, 3654, 3654, 3655, 3654, 3653, 3655, 3653, 3652, 3652, 3656, 3657, 3653, 3654, 3649, 3655, 3657, 3660, 3661, 3654, 3650, 3651, 3658, 3655, 3651, 3654, 3654, 3654, 3653, 3653, 3652, 3654, 3656, 3653, 3651, 3654, 3650, 3653, 3655, 3652, 3649, 3652, 3655, 3655, 3652, 3651, 3653, 3652, 3655, 3654, 3651, 3654, 3658, 3650, 3654, 3651, 3651, 3647, 3653, 3655, 3652, 3647, 3652, 3655, 3655, 3652, 3649, 3653, 3654, 3652, 3650, 3649, 3650, 3654, 3655, 3651, 3654, 3653, 3651, 3653, 3646, 3645, 3650, 3655, 3654, 3651, 3651, 3651, 3653, 3647, 3649, 3652, 3650],
      "WindowCenter": [1368.0, 1367.0, 1368.0, 1367.0, 1367.0, 1368.0, 1368.0, 1367.0, 1367.0, 1367.0, 1367.0, 1368.0, 1367.0, 1368.0, 1368.0, 1368.0, 1367.0, 1368.0, 1367.0, 1367.0, 1367.0, 1367.0, 1367.0, 1367.0, 1367.0, 1367.0, 1368.0, 1367.0, 1367.0, 1367.0, 1367.0, 1367.0, 1367.0, 1367.0, 1367.0, 1367.0, 1367.0, 1367.0, 1367.0, 1367.0, 1367.0, 1367.0, 1367.0, 1367.0, 1366.0, 1366.0, 1367.0, 1366.0, 1367.0, 1367.0, 1367.0, 1366.0, 1366.0, 1366.0, 1366.0, 1366.0, 1366.0, 1366.0, 1367.0, 1366.0, 1366.0, 1366.0, 1366.0, 1366.0, 1366.0, 1366.0, 1366.0, 1366.0, 1366.0, 1366.0, 1366.0, 1366.0, 1365.0, 1366.0, 1365.0, 1366.0, 1365.0, 1365.0, 1366.0, 1365.0, 1365.0, 1366.0, 1365.0, 1365.0, 1366.0, 1365.0, 1366.0, 1365.0, 1365.0, 1365.0, 1365.0, 1366.0, 1365.0, 1365.0, 1365.0, 1365.0, 1366.0, 1365.0, 1365.0, 1365.0, 1365.0, 1365.0, 1365.0, 1365.0, 1365.0, 1365.0, 1364.0, 1364.0, 1365.0, 1365.0, 1365.0, 1365.0, 1365.0, 1365.0, 1364.0, 1365.0, 1365.0, 1365.0, 1365.0, 1365.0, 1364.0, 1364.0, 1365.0, 1365.0, 1365.0, 1364.0, 1364.0, 1364.0, 1364.0, 1364.0, 1364.0, 1364.0, 1364.0, 1364.0, 1365.0, 1365.0, 1364.0, 1364.0, 1364.0, 1364.0, 1364.0, 1364.0, 1364.0, 1364.0, 1364.0, 1364.0, 1364.0, 1364.0, 1364.0, 1364.0, 1364.0, 1363.0, 1364.0, 1364.0, 1364.0, 1364.0, 1364.0, 1364.0, 1364.0, 1364.0, 1364.0, 1363.0, 1364.0, 1364.0, 1364.0, 1364.0, 1363.0, 1363.0, 1363.0, 1363.0, 1364.0, 1364.0, 1364.0, 1364.0, 1364.0, 1364.0, 1364.0, 1364.0, 1363.0, 1363.0, 1363.0, 1363.0, 1363.0, 1363.0, 1364.0, 1363.0, 1363.0, 1363.0, 1363.0, 1363.0, 1363.0, 1362.0, 1363.0, 1363.0, 1363.0, 1363.0, 1363.0, 1363.0, 1363.0, 1363.0],
      "WindowWidth": [3265.0, 3265.0, 3264.0, 3265.0, 3265.0, 3265.0, 3265.0, 3265.0, 3265.0, 3265.0, 3265.0, 3265.0, 3265.0, 3265.0, 3264.0, 3264.0, 3265.0, 3264.0, 3264.0, 3264.0, 3264.0, 3264.0, 3264.0, 3264.0, 3264.0, 3264.0, 3264.0, 3264.0, 3264.0, 3264.0, 3264.0, 3264.0, 3264.0, 3264.0, 3264.0, 3264.0, 3264.0, 3264.0, 3264.0, 3264.0, 3264.0, 3264.0, 3264.0, 3264.0, 3264.0, 3264.0, 3264.0, 3264.0, 3263.0, 3263.0, 3263.0, 3263.0, 3263.0, 3263.0, 3263.0, 3263.0, 3263.0, 3263.0, 3263.0, 3263.0, 3263.0, 3263.0, 3263.0, 3263.0, 3263.0, 3263.0, 3263.0, 3263.0, 3263.0, 3263.0, 3263.0, 3263.0, 3263.0, 3263.0, 3263.0, 3263.0, 3263.0, 3263.0, 3263.0, 3263.0, 3263.0, 3263.0, 3263.0, 3263.0, 3263.0, 3263.0, 3263.0, 3263.0, 3263.0, 3263.0, 3263.0, 3262.0, 3262.0, 3262.0, 3262.0, 3262.0, 3262.0, 3262.0, 3262.0, 3262.0, 3262.0, 3262.0, 3262.0, 3262.0, 3262.0, 3262.0, 3262.0, 3262.0, 3262.0, 3262.0, 3262.0, 3262.0, 3262.0, 3262.0, 3262.0, 3262.0, 3261.0, 3261.0, 3261.0, 3261.0, 3262.0, 3261.0, 3261.0, 3261.0, 3261.0, 3261.0, 3261.0, 3261.0, 3261.0, 3261.0, 3261.0, 3261.0, 3261.0, 3261.0, 3261.0, 3261.0, 3261.0, 3261.0, 3261.0, 3261.0, 3261.0, 3261.0, 3261.0, 3261.0, 3261.0, 3261.0, 3261.0, 3261.0, 3261.0, 3261.0, 3261.0, 3261.0, 3261.0, 3261.0, 3261.0, 3261.0, 3260.0, 3260.0, 3261.0, 3260.0, 3261.0, 3261.0, 3261.0, 3261.0, 3260.0, 3261.0, 3260.0, 3260.0, 3260.0, 3260.0, 3260.0, 3261.0, 3261.0, 3261.0, 3260.0, 3261.0, 3261.0, 3260.0, 3260.0, 3260.0, 3260.0, 3260.0, 3260.0, 3260.0, 3260.0, 3260.0, 3260.0, 3260.0, 3260.0, 3260.0, 3260.0, 3260.0, 3260.0, 3260.0, 3260.0, 3260.0, 3260.0, 3260.0, 3260.0, 3260.0]
    },
    "slices": {}
  }
}