{
  "AcquisitionMatrixPE": 80,
  "AcquisitionNumber": 1,
  "AcquisitionTime": "09:10:1.797500",
  "BandwidthPerPixelPhaseEncode": 48.077,
  "BaseResolution": 80,
  "BodyPartExamined": "BRAIN",
  "CoilCombinationMethod": "Sum of Squares",
  "ConsistencyInfo": "N4_VE11C_LATEST_20160120",
  "ConversionSoftware": "dcm2niix",
  "ConversionSoftwareVersion": "v1.0.20220720",
  "DerivedVendorReportedEchoSpacing": 0.000519999,
  "DeviceSerialNumber": "66112",
  "DwellTime": 2.7e-06,
  "EchoTime": 0.035,
  "EchoTrainLength": 39,
  "EffectiveEchoSpacing": 0.00026,
  "FlipAngle": 90,
  "HeudiconvVersion": "0.13.1",
  "ImageOrientationPatientDICOM": [0.990045, -0.140749, 0.00123499, 0.133507, 0.941814, 0.308484],
  "ImageOrientationText": "Tra>Cor(17.8)>Sag(2.6)",
  "ImageType": [
    "ORIGINAL",
    "PRIMARY",
    "M",
    "ND",
    "NORM",
    "MOSAIC"
],
  "ImagingFrequency": 123.252,
  "InPlanePhaseEncodingDirectionDICOM": "COL",
  "InstitutionAddress": "Maynard 3,Hanover,NH,US,03755",
  "InstitutionName": "Dartmouth College - PBS",
  "InstitutionalDepartmentName": "Department",
  "MRAcquisitionType": "2D",
  "MagneticFieldStrength": 3,
  "Manufacturer": "Siemens",
  "ManufacturersModelName": "Prisma",
  "MatrixCoilMode": "GRAPPA",
  "Modality": "MR",
  "NonlinearGradientCorrection": false,
  "ParallelReductionFactorInPlane": 2,
  "PartialFourier": 1,
  "PatientPosition": "HFS",
  "PercentPhaseFOV": 100,
  "PercentSampling": 100,
  "PhaseEncodingDirection": "j-",
  "PhaseEncodingSteps": 79,
  "PhaseResolution": 1,
  "PixelBandwidth": 2315,
  "ProcedureStepDescription": "dbic^QA",
  "ProtocolName": "func-bold_task-rest_acq-p2",
  "PulseSequenceDetails": "%SiemensSeq%\\ep2d_bold",
  "ReceiveCoilActiveElements": "HC1-7;NC1,2",
  "ReceiveCoilName": "HeadNeck_64",
  "ReconMatrixPE": 80,
  "RefLinesPE": 24,
  "RepetitionTime": 2,
  "SAR": 0.0360537,
  "ScanOptions": "FS",
  "ScanningSequence": "EP",
  "SequenceName": "*epfid2d1_80",
  "SequenceVariant": "SK",
  "SeriesDescription": "func-bold_task-rest_acq-p2",
  "SeriesNumber": 5,
  "ShimSetting": [4142, -7689, -7507, 176, -84, -294, -52, 88],
  "SliceThickness": 3.5,
  "SliceTiming": [0.99, 0, 1.055, 0.065, 1.12, 0.1325, 1.1875, 0.1975, 1.2525, 0.2625, 1.32, 0.33, 1.385, 0.395, 1.45, 0.4625, 1.5175, 0.5275, 1.5825, 0.5925, 1.65, 0.66, 1.715, 0.725, 1.78, 0.7925, 1.8475, 0.8575, 1.9125, 0.9225],
  "SoftwareVersions": "syngo MR E11",
  "SpacingBetweenSlices": 3.99,
  "StationName": "AWP66112",
  "TaskName": "rest",
  "TotalReadoutTime": 0.02054,
  "TxRefAmp": 211.54,
  "dcmmeta_affine": [
    [-2.9701337814331055, 0.4005221426486969, 0.1778818517923355, 102.98085021972656],
    [0.4222466051578522, 2.825441598892212, 1.217940092086792, -135.74803161621094],
    [0.0037049618549644947, -0.9254524111747742, 3.7954022884368896, -29.088788986206055],
    [0.0, 0.0, 0.0, 1.0]
],
  "dcmmeta_reorient_transform": [
    [0.0, -1.0, 0.0, 79.0],
    [1.0, 0.0, 0.0, 0.0],
    [0.0, 0.0, 1.0, 0.0],
    [0.0, 0.0, 0.0, 1.0]
],
  "dcmmeta_shape": [80, 80, 30, 200],
  "dcmmeta_slice_dim": 2,
  "dcmmeta_version": 0.6,
  "global": {
    "const": {
      "AccessionNumber": "qa64",
      "AcquisitionMatrix": [80, 0, 0, 80],
      "AngioFlag": "N",
      "BitsAllocated": 16,
      "BitsStored": 12,
      "BodyPartExamined": "BRAIN",
      "Columns": 480,
      "EchoNumbers": 1,
      "EchoTime": 35.0,
      "EchoTrainLength": 39,
      "FlipAngle": 90.0,
      "HighBit": 11,
      "ImageOrientationPatient": [0.99004456060836, -0.1407488643517, 0.0012349872479, 0.13350737989046, 0.94181384582156, 0.30848413141292],
      "ImagePositionPatient": [-808.75326487046, -568.10083492947, -288.03099907837],
      "ImageType": [
        "ORIGINAL",
        "PRIMARY",
        "M",
        "ND",
        "NORM",
        "MOSAIC"
],
      "ImagedNucleus": "1H",
      "ImagingFrequency": 123.252388,
      "InPlanePhaseEncodingDirection": "COL",
      "MRAcquisitionType": "2D",
      "MagneticFieldStrength": 3.0,
      "Manufacturer": "SIEMENS",
      "ManufacturerModelName": "Prisma",
      "Modality": "MR",
      "NumberOfAverages": 1.0,
      "NumberOfPhaseEncodingSteps": 79,
      "PercentPhaseFieldOfView": 100.0,
      "PercentSampling": 100.0,
      "PerformedProcedureStepStartTime": "090555.438000",
      "PhotometricInterpretation": "MONOCHROME2",
      "PixelBandwidth": 2315.0,
      "PixelRepresentation": 0,
      "PixelSpacing": [3.0, 3.0],
      "ProtocolName": "func-bold_task-rest_acq-p2",
      "RepetitionTime": 2000.0,
      "Rows": 480,
      "SAR": 0.03605371877025,
      "SamplesPerPixel": 1,
      "ScanOptions": "FS",
      "ScanningSequence": "EP",
      "SequenceName": "*epfid2d1_80",
      "SequenceVariant": "SK",
      "SeriesDescription": "func-bold_task-rest_acq-p2",
      "SeriesNumber": 5,
      "SeriesTime": "091041.221000",
      "SliceLocation": -64.515843864452,
      "SliceThickness": 3.5,
      "SmallestImagePixelValue": 0,
      "SoftwareVersions": "syngo MR E11",
      "SpacingBetweenSlices": 3.9899999344538,
      "SpecificCharacterSet": "ISO_IR 100",
      "StudyID": "6",
      "StudyTime": "090555.366000",
      "TransmitCoilName": "Body",
      "VariableFlipAngleFlag": "N",
      "WindowCenterWidthExplanation": "Algo1",
      "dBdt": 0.0},
    "slices": {}
  },
  "time": {
    "samples": {
      "AcquisitionNumber": [1, 2, 3, 4, 5, 6, 7, 8, 9, 10, 11, 12, 13, 14, 15, 16, 17, 18, 19, 20, 21, 22, 23, 24, 25, 26, 27, 28, 29, 30, 31, 32, 33, 34, 35, 36, 37, 38, 39, 40, 41, 42, 43, 44, 45, 46, 47, 48, 49, 50, 51, 52, 53, 54, 55, 56, 57, 58, 59, 60, 61, 62, 63, 64, 65, 66, 67, 68, 69, 70, 71, 72, 73, 74, 75, 76, 77, 78, 79, 80, 81, 82, 83, 84, 85, 86, 87, 88, 89, 90, 91, 92, 93, 94, 95, 96, 97, 98, 99, 100, 101, 102, 103, 104, 105, 106, 107, 108, 109, 110, 111, 112, 113, 114, 115, 116, 117, 118, 119, 120, 121, 122, 123, 124, 125, 126, 127, 128, 129, 130, 131, 132, 133, 134, 135, 136, 137, 138, 139, 140, 141, 142, 143, 144, 145, 146, 147, 148, 149, 150, 151, 152, 153, 154, 155, 156, 157, 158, 159, 160, 161, 162, 163, 164, 165, 166, 167, 168, 169, 170, 171, 172, 173, 174, 175, 176, 177, 178, 179, 180, 181, 182, 183, 184, 185, 186, 187, 188, 189, 190, 191, 192, 193, 194, 195, 196, 197, 198, 199, 200],
      "AcquisitionTime": ["091001.797500", "091003.797500", "091005.797500", "091007.797500", "091009.797500", "091011.797500", "091013.797500", "091015.797500", "091017.797500", "091019.797500", "091021.797500", "091023.797500", "091025.797500", "091027.797500", "091029.797500", "091031.797500", "091033.797500", "091035.797500", "091037.797500", "091039.797500", "091041.797500", "091043.797500", "091045.797500", "091047.797500", "091049.797500", "091051.797500", "091053.797500", "091055.797500", "091057.797500", "091059.797500", "091101.797500", "091103.797500", "091105.797500", "091107.797500", "091109.797500", "091111.797500", "091113.797500", "091115.797500", "091117.797500", "091119.797500", "091121.797500", "091123.797500", "091125.797500", "091127.797500", "091129.797500", "091131.797500", "091133.797500", "091135.797500", "091137.797500", "091139.797500", "091141.797500", "091143.797500", "091145.797500", "091147.797500", "091149.797500", "091151.797500", "091153.797500", "091155.797500", "091157.797500", "091159.797500", "091201.797500", "091203.797500", "091205.797500", "091207.797500", "091209.797500", "091211.797500", "091213.797500", "091215.797500", "091217.797500", "091219.797500", "091221.797500", "091223.797500", "091225.797500", "091227.797500", "091229.797500", "091231.797500", "091233.797500", "091235.797500", "091237.797500", "091239.797500", "091241.797500", "091243.797500", "091245.797500", "091247.797500", "091249.797500", "091251.797500", "091253.797500", "091255.797500", "091257.797500", "091259.797500", "091301.797500", "091303.797500", "091305.797500", "091307.797500", "091309.797500", "091311.797500", "091313.797500", "091315.797500", "091317.797500", "091319.797500", "091321.797500", "091323.797500", "091325.797500", "091327.797500", "091329.797500", "091331.797500", "091333.797500", "091335.797500", "091337.797500", "091339.797500", "091341.797500", "091343.797500", "091345.797500", "091347.797500", "091349.797500", "091351.797500", "091353.797500", "091355.797500", "091357.797500", "091359.797500", "091401.797500", "091403.797500", "091405.797500", "091407.797500", "091409.797500", "091411.797500", "091413.797500", "091415.797500", "091417.797500", "091419.797500", "091421.797500", "091423.797500", "091425.797500", "091427.797500", "091429.797500", "091431.797500", "091433.797500", "091435.797500", "091437.797500", "091439.797500", "091441.797500", "091443.797500", "091445.797500", "091447.797500", "091449.797500", "091451.797500", "091453.797500", "091455.797500", "091457.797500", "091459.797500", "091501.797500", "091503.797500", "091505.797500", "091507.797500", "091509.797500", "091511.797500", "091513.797500", "091515.797500", "091517.797500", "091519.797500", "091521.797500", "091523.797500", "091525.797500", "091527.797500", "091529.797500", "091531.797500", "091533.797500", "091535.797500", "091537.797500", "091539.797500", "091541.797500", "091543.797500", "091545.797500", "091547.797500", "091549.797500", "091551.797500", "091553.797500", "091555.797500", "091557.797500", "091559.797500", "091601.797500", "091603.797500", "091605.797500", "091607.797500", "091609.797500", "091611.797500", "091613.797500", "091615.797500", "091617.797500", "091619.797500", "091621.797500", "091623.797500", "091625.797500", "091627.797500", "091629.797500", "091631.797500", "091633.797500", "091635.797500", "091637.797500", "091639.797500"],
      "ContentTime": ["091041.224000", "091041.228000", "091041.231000", "091041.240000", "091041.242000", "091041.245000", "091041.247000", "091041.250000", "091041.252000", "091041.255000", "091041.257000", "091041.260000", "091041.262000", "091041.265000", "091041.267000", "091041.278000", "091041.281000", "091041.283000", "091041.286000", "091041.288000", "091121.219000", "091121.222000", "091121.225000", "091121.228000", "091121.230000", "091121.233000", "091121.236000", "091121.238000", "091121.248000", "091121.251000", "091121.253000", "091121.256000", "091121.258000", "091121.261000", "091121.264000", "091121.266000", "091121.269000", "091121.271000", "091121.274000", "091121.276000", "091201.219000", "091201.223000", "091201.225000", "091201.237000", "091201.243000", "091201.245000", "091201.248000", "091201.251000", "091201.268000", "091201.270000", "091201.273000", "091201.276000", "091201.278000", "091201.281000", "091201.283000", "091201.286000", "091201.289000", "091201.291000", "091201.294000", "091201.296000", "091241.219000", "091241.222000", "091241.225000", "091241.227000", "091241.230000", "091241.233000", "091241.235000", "091241.238000", "091241.241000", "091241.243000", "091241.246000", "091241.249000", "091241.251000", "091241.254000", "091241.256000", "091241.259000", "091241.262000", "091241.264000", "091241.267000", "091241.269000", "091321.219000", "091321.222000", "091321.225000", "091321.227000", "091321.230000", "091321.233000", "091321.235000", "091321.238000", "091321.241000", "091321.243000", "091321.246000", "091321.248000", "091321.251000", "091321.253000", "091321.256000", "091321.259000", "091321.261000", "091321.264000", "091321.266000", "091321.269000", "091401.220000", "091401.222000", "091401.225000", "091401.228000", "091401.230000", "091401.233000", "091401.235000", "091401.238000", "091401.241000", "091401.243000", "091401.246000", "091401.249000", "091401.251000", "091401.254000", "091401.256000", "091401.259000", "091401.262000", "091401.265000", "091401.267000", "091401.270000", "091441.219000", "091441.222000", "091441.231000", "091441.233000", "091441.236000", "091441.239000", "091441.241000", "091441.244000", "091441.247000", "091441.249000", "091441.252000", "091441.255000", "091441.257000", "091441.260000", "091441.278000", "091441.280000", "091441.283000", "091441.286000", "091441.288000", "091441.291000", "091521.219000", "091521.222000", "091521.225000", "091521.227000", "091521.230000", "091521.233000", "091521.235000", "091521.238000", "091521.241000", "091521.244000", "091521.246000", "091521.249000", "091521.252000", "091521.254000", "091521.257000", "091521.259000", "091521.262000", "091521.265000", "091521.267000", "091521.270000", "091541.219000", "091541.222000", "091541.225000", "091541.227000", "091541.230000", "091541.233000", "091541.235000", "091541.238000", "091541.248000", "091541.251000", "091621.220000", "091621.222000", "091621.225000", "091621.228000", "091621.231000", "091621.233000", "091621.236000", "091621.238000", "091621.241000", "091621.244000", "091621.246000", "091621.249000", "091621.252000", "091621.254000", "091621.257000", "091621.259000", "091621.262000", "091621.265000", "091621.267000", "091621.270000", "091641.093000", "091641.096000", "091641.098000", "091641.101000", "091641.104000", "091641.107000", "091641.109000", "091641.112000", "091641.115000", "091641.118000"],
      "InstanceCreationTime": ["091041.224000", "091041.228000", "091041.231000", "091041.240000", "091041.242000", "091041.245000", "091041.247000", "091041.250000", "091041.252000", "091041.255000", "091041.257000", "091041.260000", "091041.262000", "091041.265000", "091041.267000", "091041.278000", "091041.281000", "091041.283000", "091041.286000", "091041.288000", "091121.219000", "091121.222000", "091121.225000", "091121.228000", "091121.230000", "091121.233000", "091121.236000", "091121.238000", "091121.248000", "091121.251000", "091121.253000", "091121.256000", "091121.258000", "091121.261000", "091121.264000", "091121.266000", "091121.269000", "091121.271000", "091121.274000", "091121.276000", "091201.219000", "091201.223000", "091201.225000", "091201.237000", "091201.243000", "091201.245000", "091201.248000", "091201.251000", "091201.268000", "091201.270000", "091201.273000", "091201.276000", "091201.278000", "091201.281000", "091201.283000", "091201.286000", "091201.289000", "091201.291000", "091201.294000", "091201.296000", "091241.219000", "091241.222000", "091241.225000", "091241.227000", "091241.230000", "091241.233000", "091241.235000", "091241.238000", "091241.241000", "091241.243000", "091241.246000", "091241.249000", "091241.251000", "091241.254000", "091241.256000", "091241.259000", "091241.262000", "091241.264000", "091241.267000", "091241.269000", "091321.219000", "091321.222000", "091321.225000", "091321.227000", "091321.230000", "091321.233000", "091321.235000", "091321.238000", "091321.241000", "091321.243000", "091321.246000", "091321.248000", "091321.251000", "091321.253000", "091321.256000", "091321.259000", "091321.261000", "091321.264000", "091321.266000", "091321.269000", "091401.220000", "091401.222000", "091401.225000", "091401.228000", "091401.230000", "091401.233000", "091401.235000", "091401.238000", "091401.241000", "091401.243000", "091401.246000", "091401.249000", "091401.251000", "091401.254000", "091401.256000", "091401.259000", "091401.262000", "091401.265000", "091401.267000", "091401.270000", "091441.219000", "091441.222000", "091441.231000", "091441.233000", "091441.236000", "091441.239000", "091441.241000", "091441.244000", "091441.247000", "091441.249000", "091441.252000", "091441.255000", "091441.257000", "091441.260000", "091441.278000", "091441.280000", "091441.283000", "091441.286000", "091441.288000", "091441.291000", "091521.219000", "091521.222000", "091521.225000", "091521.227000", "091521.230000", "091521.233000", "091521.235000", "091521.238000", "091521.241000", "091521.244000", "091521.246000", "091521.249000", "091521.252000", "091521.254000", "091521.257000", "091521.259000", "091521.262000", "091521.265000", "091521.267000", "091521.270000", "091541.219000", "091541.222000", "091541.225000", "091541.227000", "091541.230000", "091541.233000", "091541.235000", "091541.238000", "091541.248000", "091541.251000", "091621.220000", "091621.222000", "091621.225000", "091621.228000", "091621.231000", "091621.233000", "091621.236000", "091621.238000", "091621.241000", "091621.244000", "091621.246000", "091621.249000", "091621.252000", "091621.254000", "091621.257000", "091621.259000", "091621.262000", "091621.265000", "091621.267000", "091621.270000", "091641.093000", "091641.096000", "091641.098000", "091641.101000", "091641.104000", "091641.107000", "091641.109000", "091641.112000", "091641.115000", "091641.118000"],
      "InstanceNumber": [1, 2, 3, 4, 5, 6, 7, 8, 9, 10, 11, 12, 13, 14, 15, 16, 17, 18, 19, 20, 21, 22, 23, 24, 25, 26, 27, 28, 29, 30, 31, 32, 33, 34, 35, 36, 37, 38, 39, 40, 41, 42, 43, 44, 45, 46, 47, 48, 49, 50, 51, 52, 53, 54, 55, 56, 57, 58, 59, 60, 61, 62, 63, 64, 65, 66, 67, 68, 69, 70, 71, 72, 73, 74, 75, 76, 77, 78, 79, 80, 81, 82, 83, 84, 85, 86, 87, 88, 89, 90, 91, 92, 93, 94, 95, 96, 97, 98, 99, 100, 101, 102, 103, 104, 105, 106, 107, 108, 109, 110, 111, 112, 113, 114, 115, 116, 117, 118, 119, 120, 121, 122, 123, 124, 125, 126, 127, 128, 129, 130, 131, 132, 133, 134, 135, 136, 137, 138, 139, 140, 141, 142, 143, 144, 145, 146, 147, 148, 149, 150, 151, 152, 153, 154, 155, 156, 157, 158, 159, 160, 161, 162, 163, 164, 165, 166, 167, 168, 169, 170, 171, 172, 173, 174, 175, 176, 177, 178, 179, 180, 181, 182, 183, 184, 185, 186, 187, 188, 189, 190, 191, 192, 193, 194, 195, 196, 197, 198, 199, 200],
      "LargestImagePixelValue": [3830, 3816, 3816, 3823, 3824, 3815, 3815, 3827, 3832, 3816, 3837, 3815, 3828, 3829, 3814, 3820, 3826, 3822, 3821, 3820, 3830, 3823, 3827, 3816, 3808, 3812, 3817, 3808, 3811, 3820, 3825, 3836, 3833, 3823, 3810, 3815, 3819, 3818, 3821, 3823, 3831, 3816, 3820, 3806, 3796, 3821, 3819, 3823, 3828, 3816, 3814, 3820, 3815, 3827, 3823, 3823, 3799, 3818, 3809, 3814, 3820, 3820, 3814, 3819, 3805, 3798, 3811, 3832, 3820, 3808, 3816, 3811, 3799, 3805, 3807, 3810, 3825, 3818, 3809, 3824, 3809, 3814, 3822, 3813, 3822, 3803, 3816, 3815, 3809, 3816, 3830, 3826, 3821, 3816, 3816, 3810, 3805, 3807, 3821, 3822, 3809, 3815, 3825, 3809, 3813, 3807, 3808, 3803, 3810, 3805, 3809, 3810, 3806, 3804, 3795, 3810, 3805, 3809, 3820, 3807, 3822, 3820, 3808, 3833, 3806, 3828, 3818, 3829, 3830, 3812, 3815, 3815, 3813, 3829, 3807, 3817, 3813, 3831, 3815, 3824, 3831, 3814, 3821, 3812, 3812, 3796, 3803, 3830, 3803, 3819, 3828, 3809, 3812, 3821, 3826, 3815, 3833, 3818, 3825, 3805, 3817, 3834, 3823, 3826, 3811, 3827, 3826, 3822, 3824, 3824, 3809, 3816, 3817, 3823, 3825, 3817, 3806, 3812, 3825, 3821, 3831, 3833, 3817, 3825, 3807, 3811, 3820, 3819, 3819, 3826, 3828, 3812, 3823, 3834, 3838, 3824, 3831, 3816, 3838, 3844],
      "WindowCenter": [1449.0, 1449.0, 1449.0, 1449.0, 1448.0, 1448.0, 1447.0, 1448.0, 1448.0, 1447.0, 1447.0, 1447.0, 1447.0, 1447.0, 1447.0, 1448.0, 1447.0, 1447.0, 1447.0, 1447.0, 1447.0, 1447.0, 1447.0, 1448.0, 1447.0, 1448.0, 1447.0, 1447.0, 1447.0, 1447.0, 1446.0, 1448.0, 1447.0, 1447.0, 1447.0, 1447.0, 1447.0, 1447.0, 1447.0, 1447.0, 1446.0, 1446.0, 1447.0, 1446.0, 1446.0, 1446.0, 1445.0, 1446.0, 1446.0, 1445.0, 1446.0, 1447.0, 1445.0, 1445.0, 1446.0, 1445.0, 1445.0, 1446.0, 1445.0, 1445.0, 1445.0, 1445.0, 1445.0, 1445.0, 1445.0, 1445.0, 1445.0, 1445.0, 1445.0, 1445.0, 1445.0, 1445.0, 1445.0, 1444.0, 1445.0, 1445.0, 1445.0, 1445.0, 1444.0, 1444.0, 1445.0, 1444.0, 1445.0, 1444.0, 1445.0, 1445.0, 1444.0, 1444.0, 1445.0, 1444.0, 1444.0, 1444.0, 1445.0, 1444.0, 1444.0, 1445.0, 1445.0, 1444.0, 1445.0, 1444.0, 1445.0, 1445.0, 1444.0, 1444.0, 1444.0, 1444.0, 1445.0, 1444.0, 1445.0, 1444.0, 1444.0, 1444.0, 1444.0, 1444.0, 1444.0, 1444.0, 1444.0, 1444.0, 1443.0, 1444.0, 1444.0, 1444.0, 1444.0, 1444.0, 1443.0, 1443.0, 1444.0, 1444.0, 1444.0, 1444.0, 1444.0, 1444.0, 1443.0, 1443.0, 1443.0, 1443.0, 1443.0, 1443.0, 1444.0, 1444.0, 1444.0, 1443.0, 1444.0, 1443.0, 1442.0, 1443.0, 1443.0, 1442.0, 1443.0, 1444.0, 1443.0, 1443.0, 1443.0, 1443.0, 1442.0, 1443.0, 1442.0, 1443.0, 1443.0, 1443.0, 1443.0, 1442.0, 1442.0, 1443.0, 1442.0, 1442.0, 1442.0, 1443.0, 1443.0, 1443.0, 1443.0, 1442.0, 1443.0, 1443.0, 1442.0, 1442.0, 1443.0, 1443.0, 1443.0, 1442.0, 1442.0, 1442.0, 1442.0, 1443.0, 1443.0, 1443.0, 1442.0, 1442.0, 1442.0, 1442.0, 1442.0, 1442.0, 1442.0, 1442.0, 1442.0, 1442.0, 1442.0, 1441.0, 1442.0, 1442.0],
      "WindowWidth": [3313.0, 3312.0, 3311.0, 3311.0, 3311.0, 3311.0, 3311.0, 3311.0, 3311.0, 3311.0, 3312.0, 3312.0, 3312.0, 3311.0, 3311.0, 3311.0, 3311.0, 3311.0, 3311.0, 3311.0, 3311.0, 3311.0, 3311.0, 3311.0, 3311.0, 3311.0, 3311.0, 3311.0, 3311.0, 3311.0, 3312.0, 3311.0, 3311.0, 3311.0, 3311.0, 3311.0, 3311.0, 3311.0, 3311.0, 3311.0, 3311.0, 3311.0, 3311.0, 3310.0, 3311.0, 3311.0, 3311.0, 3311.0, 3311.0, 3311.0, 3311.0, 3311.0, 3311.0, 3311.0, 3310.0, 3311.0, 3311.0, 3310.0, 3311.0, 3310.0, 3311.0, 3311.0, 3311.0, 3310.0, 3310.0, 3311.0, 3310.0, 3310.0, 3310.0, 3310.0, 3310.0, 3310.0, 3310.0, 3310.0, 3310.0, 3310.0, 3310.0, 3310.0, 3310.0, 3310.0, 3310.0, 3310.0, 3310.0, 3310.0, 3310.0, 3310.0, 3310.0, 3310.0, 3310.0, 3310.0, 3310.0, 3310.0, 3310.0, 3310.0, 3310.0, 3309.0, 3309.0, 3310.0, 3310.0, 3310.0, 3309.0, 3309.0, 3310.0, 3310.0, 3310.0, 3310.0, 3310.0, 3310.0, 3309.0, 3310.0, 3310.0, 3310.0, 3310.0, 3310.0, 3310.0, 3310.0, 3309.0, 3310.0, 3310.0, 3309.0, 3309.0, 3310.0, 3310.0, 3309.0, 3309.0, 3309.0, 3309.0, 3309.0, 3310.0, 3310.0, 3309.0, 3309.0, 3309.0, 3309.0, 3309.0, 3309.0, 3310.0, 3309.0, 3309.0, 3309.0, 3309.0, 3309.0, 3309.0, 3309.0, 3309.0, 3309.0, 3309.0, 3309.0, 3309.0, 3308.0, 3309.0, 3309.0, 3309.0, 3309.0, 3309.0, 3309.0, 3309.0, 3309.0, 3309.0, 3308.0, 3308.0, 3309.0, 3309.0, 3309.0, 3309.0, 3309.0, 3309.0, 3309.0, 3309.0, 3309.0, 3309.0, 3309.0, 3309.0, 3309.0, 3309.0, 3308.0, 3309.0, 3309.0, 3309.0, 3308.0, 3308.0, 3308.0, 3308.0, 3309.0, 3309.0, 3308.0, 3308.0, 3308.0, 3308.0, 3308.0, 3308.0, 3308.0, 3308.0, 3308.0, 3308.0, 3308.0, 3308.0, 3308.0, 3308.0, 3308.0]
    },
    "slices": {}
  }
}