{
  "AcquisitionMatrixPE": 80,
  "AcquisitionNumber": 1,
  "AcquisitionTime": "10:46:30.405000",
  "BandwidthPerPixelPhaseEncode": 25,
  "BaseResolution": 80,
  "BodyPartExamined": "BRAIN",
  "CoilCombinationMethod": "Sum of Squares",
  "ConsistencyInfo": "N4_VE11E_LATEST_20181129",
  "ConversionSoftware": "dcm2niix",
  "ConversionSoftwareVersion": "v1.0.20220720",
  "DerivedVendorReportedEchoSpacing": 0.0005,
  "DeviceSerialNumber": "66112",
  "DwellTime": 2.7e-06,
  "EchoTime": 0.03,
  "EchoTrainLength": 80,
  "EffectiveEchoSpacing": 0.0005,
  "FlipAngle": 77,
  "HeudiconvVersion": "0.13.1",
  "ImageOrientationPatientDICOM": [0.999824, 0.00912423, -0.0163886, -0.00401352, 0.957546, 0.288252],
  "ImageOrientationText": "Tra>Cor(16.7)>Sag(-1.0)",
  "ImageType": [
    "ORIGINAL",
    "PRIMARY",
    "M",
    "ND",
    "NORM",
    "MOSAIC"
],
  "ImagingFrequency": 123.259,
  "InPlanePhaseEncodingDirectionDICOM": "COL",
  "InstitutionAddress": "Maynard 3,Hanover,NH,US,03755",
  "InstitutionName": "Dartmouth College - PBS",
  "InstitutionalDepartmentName": "Department",
  "MRAcquisitionType": "2D",
  "MagneticFieldStrength": 3,
  "Manufacturer": "Siemens",
  "ManufacturersModelName": "Prisma",
  "MatrixCoilMode": "SENSE",
  "Modality": "MR",
  "NonlinearGradientCorrection": false,
  "PartialFourier": 1,
  "PatientPosition": "HFS",
  "PercentPhaseFOV": 100,
  "PercentSampling": 100,
  "PhaseEncodingDirection": "j-",
  "PhaseEncodingSteps": 80,
  "PhaseResolution": 1,
  "PixelBandwidth": 2315,
  "ProcedureStepDescription": "dbic^QA",
  "ProtocolName": "func-bold_fa-77",
  "PulseSequenceDetails": "%SiemensSeq%\\ep2d_bold",
  "ReceiveCoilActiveElements": "HEA;HEP",
  "ReceiveCoilName": "Head_32",
  "ReconMatrixPE": 80,
  "RepetitionTime": 2,
  "SAR": 0.056323,
  "ScanOptions": "FS",
  "ScanningSequence": "EP",
  "SequenceName": "*epfid2d1_80",
  "SequenceVariant": "SK",
  "SeriesDescription": "func-bold_fa-77",
  "SeriesNumber": 7,
  "ShimSetting": [4218, -7739, -7487, -27, -148, -7, 0, 57],
  "SliceThickness": 3.5,
  "SliceTiming": [0.99, 0, 1.055, 0.0675, 1.1225, 0.1325, 1.1875, 0.1975, 1.255, 0.265, 1.32, 0.33, 1.385, 0.3975, 1.4525, 0.4625, 1.5175, 0.5275, 1.585, 0.595, 1.65, 0.66, 1.715, 0.7275, 1.7825, 0.7925, 1.8475, 0.8575, 1.915, 0.925],
  "SoftwareVersions": "syngo MR E11",
  "SpacingBetweenSlices": 3.99,
  "StationName": "AWP66112",
  "TotalReadoutTime": 0.0395,
  "TxRefAmp": 225.898,
  "dcmmeta_affine": [
    [-2.999472141265869, -0.01204055454581976, -0.07310855388641357, 121.66580200195312],
    [-0.027372686192393303, 2.872638463973999, 1.1496614217758179, -121.94279479980469],
    [-0.049165885895490646, -0.8647565841674805, 3.820082902908325, -15.974892616271973],
    [0.0, 0.0, 0.0, 1.0]
],
  "dcmmeta_reorient_transform": [
    [0.0, -1.0, 0.0, 79.0],
    [1.0, 0.0, 0.0, 0.0],
    [0.0, 0.0, 1.0, 0.0],
    [0.0, 0.0, 0.0, 1.0]
],
  "dcmmeta_shape": [80, 80, 30, 200],
  "dcmmeta_slice_dim": 2,
  "dcmmeta_version": 0.6,
  "global": {
    "const": {
      "AccessionNumber": "qa",
      "AcquisitionMatrix": [80, 0, 0, 80],
      "AngioFlag": "N",
      "BitsAllocated": 16,
      "BitsStored": 12,
      "BodyPartExamined": "BRAIN",
      "Columns": 480,
      "EchoNumbers": 1,
      "EchoTime": 30.0,
      "EchoTrainLength": 80,
      "FlipAngle": 77.0,
      "HighBit": 11,
      "ImageOrientationPatient": [0.99982406517475, 0.00912422896023, -0.0163886284758, -0.0040135181503, 0.95754611830956, 0.28825218643116],
      "ImagePositionPatient": [-718.20092300208, -684.99784065467, -247.40879587704],
      "ImageType": [
        "ORIGINAL",
        "PRIMARY",
        "M",
        "ND",
        "NORM",
        "MOSAIC"
],
      "ImagedNucleus": "1H",
      "ImagingFrequency": 123.259215,
      "InPlanePhaseEncodingDirection": "COL",
      "MRAcquisitionType": "2D",
      "MagneticFieldStrength": 3.0,
      "Manufacturer": "SIEMENS",
      "ManufacturerModelName": "Prisma",
      "Modality": "MR",
      "NumberOfAverages": 1.0,
      "NumberOfPhaseEncodingSteps": 80,
      "PercentPhaseFieldOfView": 100.0,
      "PercentSampling": 100.0,
      "PerformedProcedureStepStartTime": "101645.969000",
      "PhotometricInterpretation": "MONOCHROME2",
      "PixelBandwidth": 2315.0,
      "PixelRepresentation": 0,
      "PixelSpacing": [3.0, 3.0],
      "ProtocolName": "func-bold_fa-77",
      "RepetitionTime": 2000.0,
      "Rows": 480,
      "SAR": 0.05632302147387,
      "SamplesPerPixel": 1,
      "ScanOptions": "FS",
      "ScanningSequence": "EP",
      "SequenceName": "*epfid2d1_80",
      "SequenceVariant": "SK",
      "SeriesDescription": "func-bold_fa-77",
      "SeriesNumber": 7,
      "SeriesTime": "104717.738000",
      "SliceLocation": -52.659939406,
      "SliceThickness": 3.5,
      "SmallestImagePixelValue": 0,
      "SoftwareVersions": "syngo MR E11",
      "SpacingBetweenSlices": 3.9900000196389,
      "SpecificCharacterSet": "ISO_IR 100",
      "StudyID": "19",
      "StudyTime": "101645.903000",
      "TransmitCoilName": "Body",
      "VariableFlipAngleFlag": "N",
      "WindowCenterWidthExplanation": "Algo1"
    },
    "slices": {}
  },
  "time": {
    "samples": {
      "AcquisitionNumber": [1, 2, 3, 4, 5, 6, 7, 8, 9, 10, 11, 12, 13, 14, 15, 16, 17, 18, 19, 20, 21, 22, 23, 24, 25, 26, 27, 28, 29, 30, 31, 32, 33, 34, 35, 36, 37, 38, 39, 40, 41, 42, 43, 44, 45, 46, 47, 48, 49, 50, 51, 52, 53, 54, 55, 56, 57, 58, 59, 60, 61, 62, 63, 64, 65, 66, 67, 68, 69, 70, 71, 72, 73, 74, 75, 76, 77, 78, 79, 80, 81, 82, 83, 84, 85, 86, 87, 88, 89, 90, 91, 92, 93, 94, 95, 96, 97, 98, 99, 100, 101, 102, 103, 104, 105, 106, 107, 108, 109, 110, 111, 112, 113, 114, 115, 116, 117, 118, 119, 120, 121, 122, 123, 124, 125, 126, 127, 128, 129, 130, 131, 132, 133, 134, 135, 136, 137, 138, 139, 140, 141, 142, 143, 144, 145, 146, 147, 148, 149, 150, 151, 152, 153, 154, 155, 156, 157, 158, 159, 160, 161, 162, 163, 164, 165, 166, 167, 168, 169, 170, 171, 172, 173, 174, 175, 176, 177, 178, 179, 180, 181, 182, 183, 184, 185, 186, 187, 188, 189, 190, 191, 192, 193, 194, 195, 196, 197, 198, 199, 200],
      "AcquisitionTime": ["104630.405000", "104632.405000", "104634.405000", "104636.405000", "104638.405000", "104640.405000", "104642.405000", "104644.405000", "104646.405000", "104648.405000", "104650.405000", "104652.405000", "104654.405000", "104656.405000", "104658.405000", "104700.405000", "104702.405000", "104704.405000", "104706.405000", "104708.405000", "104710.405000", "104712.405000", "104714.405000", "104716.405000", "104718.405000", "104720.405000", "104722.405000", "104724.405000", "104726.405000", "104728.405000", "104730.405000", "104732.405000", "104734.405000", "104736.405000", "104738.405000", "104740.405000", "104742.405000", "104744.405000", "104746.405000", "104748.405000", "104750.405000", "104752.405000", "104754.405000", "104756.405000", "104758.405000", "104800.405000", "104802.405000", "104804.405000", "104806.405000", "104808.405000", "104810.405000", "104812.405000", "104814.405000", "104816.405000", "104818.405000", "104820.405000", "104822.405000", "104824.405000", "104826.405000", "104828.405000", "104830.405000", "104832.405000", "104834.405000", "104836.405000", "104838.405000", "104840.405000", "104842.405000", "104844.405000", "104846.405000", "104848.405000", "104850.405000", "104852.405000", "104854.405000", "104856.405000", "104858.405000", "104900.405000", "104902.405000", "104904.405000", "104906.405000", "104908.405000", "104910.405000", "104912.405000", "104914.405000", "104916.405000", "104918.405000", "104920.405000", "104922.405000", "104924.405000", "104926.405000", "104928.405000", "104930.405000", "104932.405000", "104934.405000", "104936.405000", "104938.405000", "104940.405000", "104942.405000", "104944.405000", "104946.405000", "104948.405000", "104950.405000", "104952.405000", "104954.405000", "104956.405000", "104958.405000", "105000.405000", "105002.405000", "105004.405000", "105006.405000", "105008.405000", "105010.405000", "105012.405000", "105014.405000", "105016.405000", "105018.405000", "105020.405000", "105022.405000", "105024.405000", "105026.405000", "105028.405000", "105030.405000", "105032.405000", "105034.405000", "105036.405000", "105038.405000", "105040.405000", "105042.405000", "105044.405000", "105046.405000", "105048.405000", "105050.405000", "105052.405000", "105054.405000", "105056.405000", "105058.405000", "105100.405000", "105102.405000", "105104.405000", "105106.405000", "105108.405000", "105110.405000", "105112.405000", "105114.405000", "105116.405000", "105118.405000", "105120.405000", "105122.405000", "105124.405000", "105126.405000", "105128.405000", "105130.405000", "105132.405000", "105134.405000", "105136.405000", "105138.405000", "105140.405000", "105142.405000", "105144.405000", "105146.405000", "105148.405000", "105150.405000", "105152.405000", "105154.405000", "105156.405000", "105158.405000", "105200.405000", "105202.405000", "105204.405000", "105206.405000", "105208.405000", "105210.405000", "105212.405000", "105214.405000", "105216.405000", "105218.405000", "105220.405000", "105222.405000", "105224.405000", "105226.405000", "105228.405000", "105230.405000", "105232.405000", "105234.405000", "105236.405000", "105238.405000", "105240.405000", "105242.405000", "105244.405000", "105246.405000", "105248.405000", "105250.405000", "105252.405000", "105254.405000", "105256.405000", "105258.405000", "105300.405000", "105302.405000", "105304.405000", "105306.405000", "105308.405000"],
      "ContentTime": ["104717.741000", "104717.744000", "104717.746000", "104717.749000", "104717.751000", "104717.764000", "104717.766000", "104717.774000", "104717.776000", "104717.779000", "104717.781000", "104717.783000", "104717.786000", "104717.788000", "104717.790000", "104717.793000", "104717.795000", "104717.797000", "104717.799000", "104717.802000", "104717.804000", "104717.807000", "104717.809000", "104757.736000", "104757.739000", "104757.741000", "104757.743000", "104757.746000", "104757.748000", "104757.750000", "104757.752000", "104757.755000", "104757.757000", "104757.759000", "104757.762000", "104757.764000", "104757.766000", "104757.768000", "104757.771000", "104757.773000", "104757.775000", "104757.778000", "104757.780000", "104837.736000", "104837.739000", "104837.741000", "104837.743000", "104837.746000", "104837.748000", "104837.750000", "104837.752000", "104837.755000", "104837.765000", "104837.767000", "104837.770000", "104837.772000", "104837.774000", "104837.776000", "104837.779000", "104837.781000", "104837.783000", "104837.786000", "104837.788000", "104917.736000", "104917.739000", "104917.741000", "104917.743000", "104917.746000", "104917.748000", "104917.750000", "104917.752000", "104917.755000", "104917.757000", "104917.759000", "104917.761000", "104917.764000", "104917.766000", "104917.768000", "104917.770000", "104917.773000", "104917.775000", "104917.777000", "104917.780000", "104937.736000", "104937.739000", "104937.741000", "104937.743000", "104937.746000", "104937.748000", "104937.750000", "104937.752000", "104937.755000", "104937.757000", "105017.736000", "105017.739000", "105017.741000", "105017.743000", "105017.745000", "105017.748000", "105017.750000", "105017.752000", "105017.755000", "105017.757000", "105017.759000", "105017.762000", "105017.764000", "105017.766000", "105017.768000", "105017.771000", "105017.773000", "105017.775000", "105017.778000", "105017.780000", "105057.736000", "105057.739000", "105057.741000", "105057.743000", "105057.745000", "105057.748000", "105057.750000", "105057.752000", "105057.755000", "105057.757000", "105057.759000", "105057.761000", "105057.764000", "105057.766000", "105057.768000", "105057.771000", "105057.780000", "105057.782000", "105057.784000", "105057.786000", "105137.736000", "105137.739000", "105137.741000", "105137.743000", "105137.746000", "105137.748000", "105137.750000", "105137.752000", "105137.755000", "105137.757000", "105137.759000", "105137.761000", "105137.764000", "105137.766000", "105137.768000", "105137.771000", "105137.773000", "105137.775000", "105137.778000", "105137.780000", "105217.736000", "105217.738000", "105217.741000", "105217.743000", "105217.745000", "105217.748000", "105217.750000", "105217.752000", "105217.755000", "105217.757000", "105217.759000", "105217.761000", "105217.764000", "105217.766000", "105217.768000", "105217.771000", "105217.773000", "105217.775000", "105217.778000", "105217.780000", "105257.736000", "105257.739000", "105257.741000", "105257.743000", "105257.746000", "105257.748000", "105257.750000", "105257.752000", "105257.755000", "105257.757000", "105257.759000", "105257.762000", "105257.764000", "105257.766000", "105257.769000", "105257.771000", "105257.773000", "105257.775000", "105257.778000", "105257.780000", "105310.187000", "105310.190000", "105310.192000", "105310.194000", "105310.197000", "105310.199000", "105310.201000"],
      "InstanceCreationTime": ["104717.741000", "104717.744000", "104717.746000", "104717.749000", "104717.751000", "104717.764000", "104717.766000", "104717.774000", "104717.776000", "104717.779000", "104717.781000", "104717.783000", "104717.786000", "104717.788000", "104717.790000", "104717.793000", "104717.795000", "104717.797000", "104717.799000", "104717.802000", "104717.804000", "104717.807000", "104717.809000", "104757.736000", "104757.739000", "104757.741000", "104757.743000", "104757.746000", "104757.748000", "104757.750000", "104757.752000", "104757.755000", "104757.757000", "104757.759000", "104757.762000", "104757.764000", "104757.766000", "104757.768000", "104757.771000", "104757.773000", "104757.775000", "104757.778000", "104757.780000", "104837.736000", "104837.739000", "104837.741000", "104837.743000", "104837.746000", "104837.748000", "104837.750000", "104837.752000", "104837.755000", "104837.765000", "104837.767000", "104837.770000", "104837.772000", "104837.774000", "104837.776000", "104837.779000", "104837.781000", "104837.783000", "104837.786000", "104837.788000", "104917.736000", "104917.739000", "104917.741000", "104917.743000", "104917.746000", "104917.748000", "104917.750000", "104917.752000", "104917.755000", "104917.757000", "104917.759000", "104917.761000", "104917.764000", "104917.766000", "104917.768000", "104917.770000", "104917.773000", "104917.775000", "104917.777000", "104917.780000", "104937.736000", "104937.739000", "104937.741000", "104937.743000", "104937.746000", "104937.748000", "104937.750000", "104937.752000", "104937.755000", "104937.757000", "105017.736000", "105017.739000", "105017.741000", "105017.743000", "105017.745000", "105017.748000", "105017.750000", "105017.752000", "105017.755000", "105017.757000", "105017.759000", "105017.762000", "105017.764000", "105017.766000", "105017.768000", "105017.771000", "105017.773000", "105017.775000", "105017.778000", "105017.780000", "105057.736000", "105057.739000", "105057.741000", "105057.743000", "105057.745000", "105057.748000", "105057.750000", "105057.752000", "105057.755000", "105057.757000", "105057.759000", "105057.761000", "105057.764000", "105057.766000", "105057.768000", "105057.771000", "105057.780000", "105057.782000", "105057.784000", "105057.786000", "105137.736000", "105137.739000", "105137.741000", "105137.743000", "105137.746000", "105137.748000", "105137.750000", "105137.752000", "105137.755000", "105137.757000", "105137.759000", "105137.761000", "105137.764000", "105137.766000", "105137.768000", "105137.771000", "105137.773000", "105137.775000", "105137.778000", "105137.780000", "105217.736000", "105217.738000", "105217.741000", "105217.743000", "105217.745000", "105217.748000", "105217.750000", "105217.752000", "105217.755000", "105217.757000", "105217.759000", "105217.761000", "105217.764000", "105217.766000", "105217.768000", "105217.771000", "105217.773000", "105217.775000", "105217.778000", "105217.780000", "105257.736000", "105257.739000", "105257.741000", "105257.743000", "105257.746000", "105257.748000", "105257.750000", "105257.752000", "105257.755000", "105257.757000", "105257.759000", "105257.762000", "105257.764000", "105257.766000", "105257.769000", "105257.771000", "105257.773000", "105257.775000", "105257.778000", "105257.780000", "105310.187000", "105310.190000", "105310.192000", "105310.194000", "105310.197000", "105310.199000", "105310.201000"],
      "InstanceNumber": [1, 2, 3, 4, 5, 6, 7, 8, 9, 10, 11, 12, 13, 14, 15, 16, 17, 18, 19, 20, 21, 22, 23, 24, 25, 26, 27, 28, 29, 30, 31, 32, 33, 34, 35, 36, 37, 38, 39, 40, 41, 42, 43, 44, 45, 46, 47, 48, 49, 50, 51, 52, 53, 54, 55, 56, 57, 58, 59, 60, 61, 62, 63, 64, 65, 66, 67, 68, 69, 70, 71, 72, 73, 74, 75, 76, 77, 78, 79, 80, 81, 82, 83, 84, 85, 86, 87, 88, 89, 90, 91, 92, 93, 94, 95, 96, 97, 98, 99, 100, 101, 102, 103, 104, 105, 106, 107, 108, 109, 110, 111, 112, 113, 114, 115, 116, 117, 118, 119, 120, 121, 122, 123, 124, 125, 126, 127, 128, 129, 130, 131, 132, 133, 134, 135, 136, 137, 138, 139, 140, 141, 142, 143, 144, 145, 146, 147, 148, 149, 150, 151, 152, 153, 154, 155, 156, 157, 158, 159, 160, 161, 162, 163, 164, 165, 166, 167, 168, 169, 170, 171, 172, 173, 174, 175, 176, 177, 178, 179, 180, 181, 182, 183, 184, 185, 186, 187, 188, 189, 190, 191, 192, 193, 194, 195, 196, 197, 198, 199, 200],
      "LargestImagePixelValue": [2088, 2089, 2091, 2092, 2092, 2091, 2089, 2090, 2090, 2090, 2090, 2089, 2088, 2088, 2088, 2089, 2085, 2087, 2090, 2090, 2091, 2090, 2090, 2091, 2090, 2092, 2090, 2089, 2089, 2088, 2091, 2090, 2088, 2090, 2088, 2091, 2090, 2089, 2090, 2089, 2090, 2090, 2093, 2090, 2091, 2089, 2091, 2091, 2090, 2089, 2091, 2092, 2090, 2090, 2090, 2089, 2090, 2091, 2092, 2093, 2091, 2090, 2089, 2091, 2090, 2092, 2089, 2090, 2090, 2090, 2088, 2089, 2089, 2088, 2089, 2090, 2088, 2090, 2091, 2093, 2090, 2090, 2089, 2090, 2090, 2090, 2092, 2091, 2092, 2093, 2091, 2091, 2093, 2091, 2092, 2093, 2092, 2093, 2092, 2093, 2091, 2090, 2089, 2091, 2092, 2090, 2092, 2089, 2091, 2094, 2093, 2094, 2093, 2091, 2093, 2093, 2094, 2092, 2092, 2093, 2093, 2092, 2092, 2091, 2094, 2093, 2092, 2093, 2093, 2093, 2091, 2094, 2092, 2095, 2095, 2095, 2094, 2095, 2096, 2095, 2093, 2094, 2093, 2095, 2092, 2094, 2091, 2093, 2095, 2092, 2094, 2094, 2094, 2095, 2093, 2091, 2093, 2091, 2092, 2093, 2093, 2093, 2094, 2091, 2094, 2094, 2093, 2093, 2093, 2093, 2092, 2093, 2093, 2092, 2093, 2094, 2090, 2093, 2094, 2092, 2095, 2095, 2091, 2098, 2094, 2094, 2093, 2093, 2092, 2093, 2091, 2091, 2092, 2093, 2094, 2091, 2094, 2093, 2093, 2094],
      "WindowCenter": [1010.0, 1012.0, 1011.0, 1010.0, 1010.0, 1011.0, 1012.0, 1011.0, 1010.0, 1010.0, 1010.0, 1011.0, 1011.0, 1011.0, 1010.0, 1012.0, 1010.0, 1010.0, 1011.0, 1011.0, 1010.0, 1011.0, 1010.0, 1010.0, 1010.0, 1010.0, 1009.0, 1011.0, 1010.0, 1011.0, 1010.0, 1012.0, 1010.0, 1009.0, 1011.0, 1009.0, 1011.0, 1011.0, 1010.0, 1010.0, 1011.0, 1011.0, 1010.0, 1011.0, 1011.0, 1011.0, 1010.0, 1010.0, 1010.0, 1013.0, 1010.0, 1010.0, 1011.0, 1011.0, 1011.0, 1011.0, 1011.0, 1010.0, 1010.0, 1010.0, 1010.0, 1011.0, 1009.0, 1011.0, 1012.0, 1010.0, 1012.0, 1011.0, 1011.0, 1011.0, 1011.0, 1012.0, 1009.0, 1010.0, 1011.0, 1011.0, 1012.0, 1011.0, 1010.0, 1010.0, 1011.0, 1011.0, 1011.0, 1011.0, 1011.0, 1010.0, 1009.0, 1010.0, 1010.0, 1011.0, 1010.0, 1010.0, 1010.0, 1010.0, 1010.0, 1011.0, 1011.0, 1009.0, 1010.0, 1010.0, 1010.0, 1009.0, 1011.0, 1009.0, 1010.0, 1009.0, 1010.0, 1011.0, 1010.0, 1010.0, 1010.0, 1009.0, 1010.0, 1010.0, 1009.0, 1011.0, 1009.0, 1010.0, 1011.0, 1009.0, 1010.0, 1009.0, 1009.0, 1010.0, 1010.0, 1009.0, 1009.0, 1009.0, 1009.0, 1010.0, 1010.0, 1009.0, 1009.0, 1009.0, 1009.0, 1009.0, 1010.0, 1010.0, 1009.0, 1010.0, 1009.0, 1009.0, 1010.0, 1010.0, 1009.0, 1010.0, 1009.0, 1010.0, 1010.0, 1010.0, 1010.0, 1010.0, 1009.0, 1010.0, 1010.0, 1009.0, 1010.0, 1010.0, 1009.0, 1009.0, 1010.0, 1009.0, 1009.0, 1010.0, 1011.0, 1009.0, 1009.0, 1010.0, 1010.0, 1009.0, 1009.0, 1010.0, 1009.0, 1009.0, 1009.0, 1009.0, 1010.0, 1010.0, 1009.0, 1008.0, 1010.0, 1011.0, 1011.0, 1010.0, 1009.0, 1009.0, 1010.0, 1010.0, 1010.0, 1009.0, 1010.0, 1009.0, 1008.0, 1010.0, 1010.0, 1010.0, 1010.0, 1009.0, 1009.0, 1010.0],
      "WindowWidth": [2248.0, 2250.0, 2250.0, 2250.0, 2250.0, 2250.0, 2250.0, 2250.0, 2249.0, 2250.0, 2250.0, 2249.0, 2249.0, 2250.0, 2249.0, 2251.0, 2249.0, 2249.0, 2250.0, 2250.0, 2249.0, 2250.0, 2249.0, 2249.0, 2249.0, 2249.0, 2248.0, 2250.0, 2249.0, 2250.0, 2249.0, 2250.0, 2249.0, 2249.0, 2249.0, 2248.0, 2250.0, 2250.0, 2249.0, 2249.0, 2249.0, 2249.0, 2249.0, 2249.0, 2249.0, 2249.0, 2249.0, 2249.0, 2249.0, 2251.0, 2249.0, 2249.0, 2249.0, 2249.0, 2249.0, 2249.0, 2249.0, 2248.0, 2249.0, 2248.0, 2249.0, 2249.0, 2248.0, 2249.0, 2250.0, 2248.0, 2250.0, 2249.0, 2249.0, 2249.0, 2249.0, 2250.0, 2248.0, 2248.0, 2249.0, 2249.0, 2250.0, 2249.0, 2248.0, 2248.0, 2249.0, 2249.0, 2249.0, 2249.0, 2249.0, 2248.0, 2247.0, 2249.0, 2249.0, 2249.0, 2249.0, 2249.0, 2249.0, 2248.0, 2248.0, 2250.0, 2249.0, 2248.0, 2248.0, 2249.0, 2248.0, 2248.0, 2248.0, 2248.0, 2248.0, 2248.0, 2248.0, 2249.0, 2249.0, 2248.0, 2248.0, 2247.0, 2248.0, 2249.0, 2247.0, 2249.0, 2247.0, 2248.0, 2249.0, 2247.0, 2248.0, 2247.0, 2247.0, 2248.0, 2249.0, 2247.0, 2248.0, 2248.0, 2248.0, 2248.0, 2248.0, 2247.0, 2248.0, 2247.0, 2247.0, 2247.0, 2248.0, 2248.0, 2247.0, 2248.0, 2247.0, 2247.0, 2248.0, 2248.0, 2247.0, 2248.0, 2247.0, 2248.0, 2248.0, 2248.0, 2248.0, 2248.0, 2247.0, 2248.0, 2248.0, 2247.0, 2248.0, 2248.0, 2247.0, 2247.0, 2248.0, 2247.0, 2247.0, 2248.0, 2248.0, 2247.0, 2247.0, 2248.0, 2247.0, 2247.0, 2247.0, 2248.0, 2247.0, 2247.0, 2247.0, 2247.0, 2247.0, 2247.0, 2247.0, 2246.0, 2247.0, 2248.0, 2248.0, 2247.0, 2247.0, 2246.0, 2247.0, 2247.0, 2248.0, 2246.0, 2248.0, 2247.0, 2246.0, 2247.0, 2247.0, 2247.0, 2247.0, 2246.0, 2246.0, 2247.0]
    },
    "slices": {}
  }
}