{
  "AcquisitionMatrixPE": 122,
  "AcquisitionNumber": 1,
  "AcquisitionTime": "09:19:9.475000",
  "BandwidthPerPixelPhaseEncode": 27.785,
  "BaseResolution": 122,
  "BodyPartExamined": "BRAIN",
  "CoilCombinationMethod": "Adaptive Combine",
  "ConsistencyInfo": "N4_VE11C_LATEST_20160120",
  "ConversionSoftware": "dcm2niix",
  "ConversionSoftwareVersion": "v1.0.20220720",
  "DerivedVendorReportedEchoSpacing": 0.000590011,
  "DeviceSerialNumber": "66112",
  "DiffusionScheme": "Monopolar",
  "DwellTime": 2e-06,
  "EchoTime": 0.068,
  "EchoTrainLength": 61,
  "EffectiveEchoSpacing": 0.000295005,
  "FlipAngle": 90,
  "HeudiconvVersion": "0.13.1",
  "ImageOrientationPatientDICOM": [0.98624, 0.165115, 0.00827251, -0.159559, 0.937574, 0.309024],
  "ImageOrientationText": "Tra>Cor(17.8)>Sag(-2.5)",
  "ImageType": [
    "ORIGINAL",
    "PRIMARY",
    "DIFFUSION",
    "NONE",
    "ND",
    "NORM"
],
  "ImagingFrequency": 123.252,
  "InPlanePhaseEncodingDirectionDICOM": "COL",
  "InstitutionAddress": "Maynard 3,Hanover,NH,US,03755",
  "InstitutionName": "Dartmouth College - PBS",
  "InstitutionalDepartmentName": "Department",
  "MRAcquisitionType": "2D",
  "MagneticFieldStrength": 3,
  "Manufacturer": "Siemens",
  "ManufacturersModelName": "Prisma",
  "Modality": "MR",
  "MultibandAccelerationFactor": 4,
  "NonlinearGradientCorrection": false,
  "ParallelReductionFactorInPlane": 2,
  "PartialFourier": 1,
  "PatientPosition": "HFS",
  "PercentPhaseFOV": 100,
  "PercentSampling": 100,
  "PhaseEncodingDirection": "j-",
  "PhaseEncodingSteps": 122,
  "PhaseResolution": 1,
  "PixelBandwidth": 2050,
  "ProcedureStepDescription": "dbic^QA",
  "ProtocolName": "dwi_acq-DTI-30-p2-s4",
  "PulseSequenceDetails": "%SiemensSeq%\\ep2d_diff",
  "ReceiveCoilActiveElements": "HEA;HEP",
  "ReceiveCoilName": "Head_32",
  "ReconMatrixPE": 122,
  "RefLinesPE": 38,
  "RepetitionTime": 3.6,
  "SAR": 0.138413,
  "ScanOptions": "FS",
  "ScanningSequence": "EP",
  "SequenceName": "*ep_b0",
  "SequenceVariant": "SK\\SP",
  "SeriesDescription": "dwi_acq-DTI-30-p2-s4",
  "SeriesNumber": 9,
  "ShimSetting": [4147, -7690, -7517, 308, -42, -239, -41, 57],
  "SliceThickness": 2,
  "SliceTiming": [2.58594, 0, 1.78906, 0.20312, 1.99219, 0.39844, 2.1875, 0.59375, 2.39062, 0.99219, 2.78125, 1.19531, 2.98438, 1.39062, 3.17969, 1.59375, 3.38281, 0.79688, 2.58594, 0, 1.78906, 0.20312, 1.99219, 0.39844, 2.1875, 0.59375, 2.39062, 0.99219, 2.78125, 1.19531, 2.98438, 1.39062, 3.17969, 1.59375, 3.38281, 0.79688, 2.58594, 0, 1.78906, 0.20312, 1.99219, 0.39844, 2.1875, 0.59375, 2.39062, 0.99219, 2.78125, 1.19531, 2.98438, 1.39062, 3.17969, 1.59375, 3.38281, 0.79688, 2.58594, 0, 1.78906, 0.20312, 1.99219, 0.39844, 2.1875, 0.59375, 2.39062, 0.99219, 2.78125, 1.19531, 2.98438, 1.39062, 3.17969, 1.59375, 3.38281, 0.79688],
  "SoftwareVersions": "syngo MR E11",
  "SpacingBetweenSlices": 2,
  "SpoilingState": true,
  "StationName": "AWP66112",
  "TotalReadoutTime": 0.0356956,
  "TxRefAmp": 230.705,
  "dcmmeta_affine": [
    [-1.9401435852050781, -0.31388726830482483, -0.08653677999973297, 143.25706481933594],
    [-0.3248160779476166, 1.8444076776504517, 0.6121845245361328, -104.42266082763672],
    [0.016273800283670425, -0.607916533946991, 1.90203857421875, -44.37667465209961],
    [0.0, 0.0, 0.0, 1.0]
],
  "dcmmeta_reorient_transform": [
    [0.0, -1.0, 0.0, 121.0],
    [1.0, 0.0, 0.0, 0.0],
    [0.0, 0.0, -1.0, 71.0],
    [0.0, 0.0, 0.0, 1.0]
],
  "dcmmeta_shape": [122, 122, 72, 31],
  "dcmmeta_slice_dim": 2,
  "dcmmeta_version": 0.6,
  "global": {
    "const": {
      "AccessionNumber": "qa",
      "AcquisitionMatrix": [122, 0, 0, 122],
      "AngioFlag": "N",
      "BitsAllocated": 16,
      "BitsStored": 12,
      "BodyPartExamined": "BRAIN",
      "Columns": 122,
      "EchoNumbers": 1,
      "EchoTime": 68.0,
      "EchoTrainLength": 61,
      "FlipAngle": 90.0,
      "HighBit": 11,
      "ImageOrientationPatient": [0.98623965468148, 0.16511483590815, 0.00827251453753, -0.1595593609976, 0.93757390550036, 0.30902424183683],
      "ImageType": [
        "ORIGINAL",
        "PRIMARY",
        "DIFFUSION",
        "NONE",
        "ND",
        "NORM"
],
      "ImagedNucleus": "1H",
      "ImagingFrequency": 123.252449,
      "InPlanePhaseEncodingDirection": "COL",
      "MRAcquisitionType": "2D",
      "MagneticFieldStrength": 3.0,
      "Manufacturer": "SIEMENS",
      "ManufacturerModelName": "Prisma",
      "Modality": "MR",
      "NumberOfAverages": 1.0,
      "NumberOfPhaseEncodingSteps": 122,
      "PercentPhaseFieldOfView": 100.0,
      "PercentSampling": 100.0,
      "PerformedProcedureStepStartTime": "085021.727000",
      "PhotometricInterpretation": "MONOCHROME2",
      "PixelBandwidth": 2050.0,
      "PixelRepresentation": 0,
      "PixelSpacing": [1.9672131538391, 1.9672131538391],
      "ProtocolName": "dwi_acq-DTI-30-p2-s4",
      "RepetitionTime": 3600.0,
      "Rows": 122,
      "SAR": 0.13841280217254,
      "SamplesPerPixel": 1,
      "ScanOptions": "FS",
      "ScanningSequence": "EP",
      "SequenceVariant": [
        "SK",
        "SP"
],
      "SeriesDescription": "dwi_acq-DTI-30-p2-s4",
      "SeriesNumber": 9,
      "SeriesTime": "091917.249000",
      "SliceThickness": 2.0,
      "SmallestImagePixelValue": 0,
      "SoftwareVersions": "syngo MR E11",
      "SpacingBetweenSlices": 2.0,
      "SpecificCharacterSet": "ISO_IR 100",
      "StudyID": "30",
      "StudyTime": "085021.641000",
      "TransmitCoilName": "Body",
      "VariableFlipAngleFlag": "N",
      "WindowCenterWidthExplanation": "Algo1",
      "dBdt": 0.0},
    "slices": {
      "AcquisitionTime": ["091909.475000", "091906.890000", "091908.680000", "091907.090000", "091908.880000", "091907.287500", "091909.077500", "091907.487500", "091909.277500", "091907.885000", "091909.675000", "091908.085000", "091909.875000", "091908.282500", "091910.072500", "091908.482500", "091910.272500", "091907.685000", "091909.475000", "091906.890000", "091908.680000", "091907.090000", "091908.880000", "091907.287500", "091909.077500", "091907.487500", "091909.277500", "091907.885000", "091909.675000", "091908.085000", "091909.875000", "091908.282500", "091910.072500", "091908.482500", "091910.272500", "091907.685000", "091909.475000", "091906.890000", "091908.680000", "091907.090000", "091908.880000", "091907.287500", "091909.077500", "091907.487500", "091909.277500", "091907.885000", "091909.675000", "091908.085000", "091909.875000", "091908.282500", "091910.072500", "091908.482500", "091910.272500", "091907.685000", "091909.475000", "091906.890000", "091908.680000", "091907.090000", "091908.880000", "091907.287500", "091909.077500", "091907.487500", "091909.277500", "091907.885000", "091909.675000", "091908.085000", "091909.875000", "091908.282500", "091910.072500", "091908.482500", "091910.272500", "091907.685000", "091913.075000", "091910.490000", "091912.280000", "091910.690000", "091912.480000", "091910.887500", "091912.677500", "091911.087500", "091912.877500", "091911.485000", "091913.275000", "091911.685000", "091913.475000", "091911.882500", "091913.672500", "091912.082500", "091913.872500", "091911.285000", "091913.075000", "091910.490000", "091912.280000", "091910.690000", "091912.480000", "091910.887500", "091912.677500", "091911.087500", "091912.877500", "091911.485000", "091913.275000", "091911.685000", "091913.475000", "091911.882500", "091913.672500", "091912.082500", "091913.872500", "091911.285000", "091913.075000", "091910.490000", "091912.280000", "091910.690000", "091912.480000", "091910.887500", "091912.677500", "091911.087500", "091912.877500", "091911.485000", "091913.275000", "091911.685000", "091913.475000", "091911.882500", "091913.672500", "091912.082500", "091913.872500", "091911.285000", "091913.075000", "091910.490000", "091912.280000", "091910.690000", "091912.480000", "091910.887500", "091912.677500", "091911.087500", "091912.877500", "091911.485000", "091913.275000", "091911.685000", "091913.475000", "091911.882500", "091913.672500", "091912.082500", "091913.872500", "091911.285000", "091916.675000", "091914.090000", "091915.880000", "091914.290000", "091916.080000", "091914.487500", "091916.277500", "091914.687500", "091916.477500", "091915.085000", "091916.875000", "091915.285000", "091917.075000", "091915.482500", "091917.272500", "091915.682500", "091917.472500", "091914.885000", "091916.675000", "091914.090000", "091915.880000", "091914.290000", "091916.080000", "091914.487500", "091916.277500", "091914.687500", "091916.477500", "091915.085000", "091916.875000", "091915.285000", "091917.075000", "091915.482500", "091917.272500", "091915.682500", "091917.472500", "091914.885000", "091916.675000", "091914.090000", "091915.880000", "091914.290000", "091916.080000", "091914.487500", "091916.277500", "091914.687500", "091916.477500", "091915.085000", "091916.875000", "091915.285000", "091917.075000", "091915.482500", "091917.272500", "091915.682500", "091917.472500", "091914.885000", "091916.675000", "091914.090000", "091915.880000", "091914.290000", "091916.080000", "091914.487500", "091916.277500", "091914.687500", "091916.477500", "091915.085000", "091916.875000", "091915.285000", "091917.075000", "091915.482500", "091917.272500", "091915.682500", "091917.472500", "091914.885000", "091920.275000", "091917.690000", "091919.480000", "091917.890000", "091919.680000", "091918.087500", "091919.877500", "091918.287500", "091920.077500", "091918.685000", "091920.475000", "091918.885000", "091920.675000", "091919.082500", "091920.872500", "091919.282500", "091921.072500", "091918.485000", "091920.275000", "091917.690000", "091919.480000", "091917.890000", "091919.680000", "091918.087500", "091919.877500", "091918.287500", "091920.077500", "091918.685000", "091920.475000", "091918.885000", "091920.675000", "091919.082500", "091920.872500", "091919.282500", "091921.072500", "091918.485000", "091920.275000", "091917.690000", "091919.480000", "091917.890000", "091919.680000", "091918.087500", "091919.877500", "091918.287500", "091920.077500", "091918.685000", "091920.475000", "091918.885000", "091920.675000", "091919.082500", "091920.872500", "091919.282500", "091921.072500", "091918.485000", "091920.275000", "091917.690000", "091919.480000", "091917.890000", "091919.680000", "091918.087500", "091919.877500", "091918.287500", "091920.077500", "091918.685000", "091920.475000", "091918.885000", "091920.675000", "091919.082500", "091920.872500", "091919.282500", "091921.072500", "091918.485000", "091923.875000", "091921.290000", "091923.080000", "091921.490000", "091923.280000", "091921.687500", "091923.477500", "091921.887500", "091923.677500", "091922.285000", "091924.075000", "091922.485000", "091924.275000", "091922.682500", "091924.472500", "091922.882500", "091924.672500", "091922.085000", "091923.875000", "091921.290000", "091923.080000", "091921.490000", "091923.280000", "091921.687500", "091923.477500", "091921.887500", "091923.677500", "091922.285000", "091924.075000", "091922.485000", "091924.275000", "091922.682500", "091924.472500", "091922.882500", "091924.672500", "091922.085000", "091923.875000", "091921.290000", "091923.080000", "091921.490000", "091923.280000", "091921.687500", "091923.477500", "091921.887500", "091923.677500", "091922.285000", "091924.075000", "091922.485000", "091924.275000", "091922.682500", "091924.472500", "091922.882500", "091924.672500", "091922.085000", "091923.875000", "091921.290000", "091923.080000", "091921.490000", "091923.280000", "091921.687500", "091923.477500", "091921.887500", "091923.677500", "091922.285000", "091924.075000", "091922.485000", "091924.275000", "091922.682500", "091924.472500", "091922.882500", "091924.672500", "091922.085000", "091927.475000", "091924.890000", "091926.680000", "091925.090000", "091926.880000", "091925.287500", "091927.077500", "091925.487500", "091927.277500", "091925.885000", "091927.675000", "091926.085000", "091927.875000", "091926.282500", "091928.072500", "091926.482500", "091928.272500", "091925.685000", "091927.475000", "091924.890000", "091926.680000", "091925.090000", "091926.880000", "091925.287500", "091927.077500", "091925.487500", "091927.277500", "091925.885000", "091927.675000", "091926.085000", "091927.875000", "091926.282500", "091928.072500", "091926.482500", "091928.272500", "091925.685000", "091927.475000", "091924.890000", "091926.680000", "091925.090000", "091926.880000", "091925.287500", "091927.077500", "091925.487500", "091927.277500", "091925.885000", "091927.675000", "091926.085000", "091927.875000", "091926.282500", "091928.072500", "091926.482500", "091928.272500", "091925.685000", "091927.475000", "091924.890000", "091926.680000", "091925.090000", "091926.880000", "091925.287500", "091927.077500", "091925.487500", "091927.277500", "091925.885000", "091927.675000", "091926.085000", "091927.875000", "091926.282500", "091928.072500", "091926.482500", "091928.272500", "091925.685000", "091931.075000", "091928.490000", "091930.280000", "091928.690000", "091930.480000", "091928.887500", "091930.677500", "091929.087500", "091930.877500", "091929.485000", "091931.275000", "091929.685000", "091931.475000", "091929.882500", "091931.672500", "091930.082500", "091931.872500", "091929.285000", "091931.075000", "091928.490000", "091930.280000", "091928.690000", "091930.480000", "091928.887500", "091930.677500", "091929.087500", "091930.877500", "091929.485000", "091931.275000", "091929.685000", "091931.475000", "091929.882500", "091931.672500", "091930.082500", "091931.872500", "091929.285000", "091931.075000", "091928.490000", "091930.280000", "091928.690000", "091930.480000", "091928.887500", "091930.677500", "091929.087500", "091930.877500", "091929.485000", "091931.275000", "091929.685000", "091931.475000", "091929.882500", "091931.672500", "091930.082500", "091931.872500", "091929.285000", "091931.075000", "091928.490000", "091930.280000", "091928.690000", "091930.480000", "091928.887500", "091930.677500", "091929.087500", "091930.877500", "091929.485000", "091931.275000", "091929.685000", "091931.475000", "091929.882500", "091931.672500", "091930.082500", "091931.872500", "091929.285000", "091934.675000", "091932.090000", "091933.880000", "091932.290000", "091934.080000", "091932.487500", "091934.277500", "091932.687500", "091934.477500", "091933.085000", "091934.875000", "091933.285000", "091935.075000", "091933.482500", "091935.272500", "091933.682500", "091935.472500", "091932.885000", "091934.675000", "091932.090000", "091933.880000", "091932.290000", "091934.080000", "091932.487500", "091934.277500", "091932.687500", "091934.477500", "091933.085000", "091934.875000", "091933.285000", "091935.075000", "091933.482500", "091935.272500", "091933.682500", "091935.472500", "091932.885000", "091934.675000", "091932.090000", "091933.880000", "091932.290000", "091934.080000", "091932.487500", "091934.277500", "091932.687500", "091934.477500", "091933.085000", "091934.875000", "091933.285000", "091935.075000", "091933.482500", "091935.272500", "091933.682500", "091935.472500", "091932.885000", "091934.675000", "091932.090000", "091933.880000", "091932.290000", "091934.080000", "091932.487500", "091934.277500", "091932.687500", "091934.477500", "091933.085000", "091934.875000", "091933.285000", "091935.075000", "091933.482500", "091935.272500", "091933.682500", "091935.472500", "091932.885000", "091938.275000", "091935.690000", "091937.480000", "091935.890000", "091937.680000", "091936.087500", "091937.877500", "091936.287500", "091938.077500", "091936.685000", "091938.475000", "091936.885000", "091938.675000", "091937.082500", "091938.872500", "091937.282500", "091939.072500", "091936.485000", "091938.275000", "091935.690000", "091937.480000", "091935.890000", "091937.680000", "091936.087500", "091937.877500", "091936.287500", "091938.077500", "091936.685000", "091938.475000", "091936.885000", "091938.675000", "091937.082500", "091938.872500", "091937.282500", "091939.072500", "091936.485000", "091938.275000", "091935.690000", "091937.480000", "091935.890000", "091937.680000", "091936.087500", "091937.877500", "091936.287500", "091938.077500", "091936.685000", "091938.475000", "091936.885000", "091938.675000", "091937.082500", "091938.872500", "091937.282500", "091939.072500", "091936.485000", "091938.275000", "091935.690000", "091937.480000", "091935.890000", "091937.680000", "091936.087500", "091937.877500", "091936.287500", "091938.077500", "091936.685000", "091938.475000", "091936.885000", "091938.675000", "091937.082500", "091938.872500", "091937.282500", "091939.072500", "091936.485000", "091941.875000", "091939.290000", "091941.080000", "091939.490000", "091941.280000", "091939.687500", "091941.477500", "091939.887500", "091941.677500", "091940.285000", "091942.075000", "091940.485000", "091942.275000", "091940.682500", "091942.472500", "091940.882500", "091942.672500", "091940.085000", "091941.875000", "091939.290000", "091941.080000", "091939.490000", "091941.280000", "091939.687500", "091941.477500", "091939.887500", "091941.677500", "091940.285000", "091942.075000", "091940.485000", "091942.275000", "091940.682500", "091942.472500", "091940.882500", "091942.672500", "091940.085000", "091941.875000", "091939.290000", "091941.080000", "091939.490000", "091941.280000", "091939.687500", "091941.477500", "091939.887500", "091941.677500", "091940.285000", "091942.075000", "091940.485000", "091942.275000", "091940.682500", "091942.472500", "091940.882500", "091942.672500", "091940.085000", "091941.875000", "091939.290000", "091941.080000", "091939.490000", "091941.280000", "091939.687500", "091941.477500", "091939.887500", "091941.677500", "091940.285000", "091942.075000", "091940.485000", "091942.275000", "091940.682500", "091942.472500", "091940.882500", "091942.672500", "091940.085000", "091945.475000", "091942.890000", "091944.680000", "091943.090000", "091944.880000", "091943.287500", "091945.077500", "091943.487500", "091945.277500", "091943.885000", "091945.675000", "091944.085000", "091945.875000", "091944.282500", "091946.072500", "091944.482500", "091946.272500", "091943.685000", "091945.475000", "091942.890000", "091944.680000", "091943.090000", "091944.880000", "091943.287500", "091945.077500", "091943.487500", "091945.277500", "091943.885000", "091945.675000", "091944.085000", "091945.875000", "091944.282500", "091946.072500", "091944.482500", "091946.272500", "091943.685000", "091945.475000", "091942.890000", "091944.680000", "091943.090000", "091944.880000", "091943.287500", "091945.077500", "091943.487500", "091945.277500", "091943.885000", "091945.675000", "091944.085000", "091945.875000", "091944.282500", "091946.072500", "091944.482500", "091946.272500", "091943.685000", "091945.475000", "091942.890000", "091944.680000", "091943.090000", "091944.880000", "091943.287500", "091945.077500", "091943.487500", "091945.277500", "091943.885000", "091945.675000", "091944.085000", "091945.875000", "091944.282500", "091946.072500", "091944.482500", "091946.272500", "091943.685000", "091949.075000", "091946.490000", "091948.280000", "091946.690000", "091948.480000", "091946.887500", "091948.677500", "091947.087500", "091948.877500", "091947.485000", "091949.275000", "091947.685000", "091949.475000", "091947.882500", "091949.672500", "091948.082500", "091949.872500", "091947.285000", "091949.075000", "091946.490000", "091948.280000", "091946.690000", "091948.480000", "091946.887500", "091948.677500", "091947.087500", "091948.877500", "091947.485000", "091949.275000", "091947.685000", "091949.475000", "091947.882500", "091949.672500", "091948.082500", "091949.872500", "091947.285000", "091949.075000", "091946.490000", "091948.280000", "091946.690000", "091948.480000", "091946.887500", "091948.677500", "091947.087500", "091948.877500", "091947.485000", "091949.275000", "091947.685000", "091949.475000", "091947.882500", "091949.672500", "091948.082500", "091949.872500", "091947.285000", "091949.075000", "091946.490000", "091948.280000", "091946.690000", "091948.480000", "091946.887500", "091948.677500", "091947.087500", "091948.877500", "091947.485000", "091949.275000", "091947.685000", "091949.475000", "091947.882500", "091949.672500", "091948.082500", "091949.872500", "091947.285000", "091952.675000", "091950.090000", "091951.880000", "091950.290000", "091952.080000", "091950.487500", "091952.277500", "091950.687500", "091952.477500", "091951.085000", "091952.875000", "091951.285000", "091953.075000", "091951.482500", "091953.272500", "091951.682500", "091953.472500", "091950.885000", "091952.675000", "091950.090000", "091951.880000", "091950.290000", "091952.080000", "091950.487500", "091952.277500", "091950.687500", "091952.477500", "091951.085000", "091952.875000", "091951.285000", "091953.075000", "091951.482500", "091953.272500", "091951.682500", "091953.472500", "091950.885000", "091952.675000", "091950.090000", "091951.880000", "091950.290000", "091952.080000", "091950.487500", "091952.277500", "091950.687500", "091952.477500", "091951.085000", "091952.875000", "091951.285000", "091953.075000", "091951.482500", "091953.272500", "091951.682500", "091953.472500", "091950.885000", "091952.675000", "091950.090000", "091951.880000", "091950.290000", "091952.080000", "091950.487500", "091952.277500", "091950.687500", "091952.477500", "091951.085000", "091952.875000", "091951.285000", "091953.075000", "091951.482500", "091953.272500", "091951.682500", "091953.472500", "091950.885000", "091956.275000", "091953.690000", "091955.480000", "091953.890000", "091955.680000", "091954.087500", "091955.877500", "091954.287500", "091956.077500", "091954.685000", "091956.475000", "091954.885000", "091956.675000", "091955.082500", "091956.872500", "091955.282500", "091957.072500", "091954.485000", "091956.275000", "091953.690000", "091955.480000", "091953.890000", "091955.680000", "091954.087500", "091955.877500", "091954.287500", "091956.077500", "091954.685000", "091956.475000", "091954.885000", "091956.675000", "091955.082500", "091956.872500", "091955.282500", "091957.072500", "091954.485000", "091956.275000", "091953.690000", "091955.480000", "091953.890000", "091955.680000", "091954.087500", "091955.877500", "091954.287500", "091956.077500", "091954.685000", "091956.475000", "091954.885000", "091956.675000", "091955.082500", "091956.872500", "091955.282500", "091957.072500", "091954.485000", "091956.275000", "091953.690000", "091955.480000", "091953.890000", "091955.680000", "091954.087500", "091955.877500", "091954.287500", "091956.077500", "091954.685000", "091956.475000", "091954.885000", "091956.675000", "091955.082500", "091956.872500", "091955.282500", "091957.072500", "091954.485000", "091959.875000", "091957.290000", "091959.080000", "091957.490000", "091959.280000", "091957.687500", "091959.477500", "091957.887500", "091959.677500", "091958.285000", "092000.075000", "091958.485000", "092000.275000", "091958.682500", "092000.472500", "091958.882500", "092000.672500", "091958.085000", "091959.875000", "091957.290000", "091959.080000", "091957.490000", "091959.280000", "091957.687500", "091959.477500", "091957.887500", "091959.677500", "091958.285000", "092000.075000", "091958.485000", "092000.275000", "091958.682500", "092000.472500", "091958.882500", "092000.672500", "091958.085000", "091959.875000", "091957.290000", "091959.080000", "091957.490000", "091959.280000", "091957.687500", "091959.477500", "091957.887500", "091959.677500", "091958.285000", "092000.075000", "091958.485000", "092000.275000", "091958.682500", "092000.472500", "091958.882500", "092000.672500", "091958.085000", "091959.875000", "091957.290000", "091959.080000", "091957.490000", "091959.280000", "091957.687500", "091959.477500", "091957.887500", "091959.677500", "091958.285000", "092000.075000", "091958.485000", "092000.275000", "091958.682500", "092000.472500", "091958.882500", "092000.672500", "091958.085000", "092003.475000", "092000.890000", "092002.680000", "092001.090000", "092002.880000", "092001.287500", "092003.077500", "092001.487500", "092003.277500", "092001.885000", "092003.675000", "092002.085000", "092003.875000", "092002.282500", "092004.072500", "092002.482500", "092004.272500", "092001.685000", "092003.475000", "092000.890000", "092002.680000", "092001.090000", "092002.880000", "092001.287500", "092003.077500", "092001.487500", "092003.277500", "092001.885000", "092003.675000", "092002.085000", "092003.875000", "092002.282500", "092004.072500", "092002.482500", "092004.272500", "092001.685000", "092003.475000", "092000.890000", "092002.680000", "092001.090000", "092002.880000", "092001.287500", "092003.077500", "092001.487500", "092003.277500", "092001.885000", "092003.675000", "092002.085000", "092003.875000", "092002.282500", "092004.072500", "092002.482500", "092004.272500", "092001.685000", "092003.475000", "092000.890000", "092002.680000", "092001.090000", "092002.880000", "092001.287500", "092003.077500", "092001.487500", "092003.277500", "092001.885000", "092003.675000", "092002.085000", "092003.875000", "092002.282500", "092004.072500", "092002.482500", "092004.272500", "092001.685000", "092007.075000", "092004.490000", "092006.280000", "092004.690000", "092006.480000", "092004.887500", "092006.677500", "092005.087500", "092006.877500", "092005.485000", "092007.275000", "092005.685000", "092007.475000", "092005.882500", "092007.672500", "092006.082500", "092007.872500", "092005.285000", "092007.075000", "092004.490000", "092006.280000", "092004.690000", "092006.480000", "092004.887500", "092006.677500", "092005.087500", "092006.877500", "092005.485000", "092007.275000", "092005.685000", "092007.475000", "092005.882500", "092007.672500", "092006.082500", "092007.872500", "092005.285000", "092007.075000", "092004.490000", "092006.280000", "092004.690000", "092006.480000", "092004.887500", "092006.677500", "092005.087500", "092006.877500", "092005.485000", "092007.275000", "092005.685000", "092007.475000", "092005.882500", "092007.672500", "092006.082500", "092007.872500", "092005.285000", "092007.075000", "092004.490000", "092006.280000", "092004.690000", "092006.480000", "092004.887500", "092006.677500", "092005.087500", "092006.877500", "092005.485000", "092007.275000", "092005.685000", "092007.475000", "092005.882500", "092007.672500", "092006.082500", "092007.872500", "092005.285000", "092010.675000", "092008.090000", "092009.880000", "092008.290000", "092010.080000", "092008.487500", "092010.277500", "092008.687500", "092010.477500", "092009.085000", "092010.875000", "092009.285000", "092011.075000", "092009.482500", "092011.272500", "092009.682500", "092011.472500", "092008.885000", "092010.675000", "092008.090000", "092009.880000", "092008.290000", "092010.080000", "092008.487500", "092010.277500", "092008.687500", "092010.477500", "092009.085000", "092010.875000", "092009.285000", "092011.075000", "092009.482500", "092011.272500", "092009.682500", "092011.472500", "092008.885000", "092010.675000", "092008.090000", "092009.880000", "092008.290000", "092010.080000", "092008.487500", "092010.277500", "092008.687500", "092010.477500", "092009.085000", "092010.875000", "092009.285000", "092011.075000", "092009.482500", "092011.272500", "092009.682500", "092011.472500", "092008.885000", "092010.675000", "092008.090000", "092009.880000", "092008.290000", "092010.080000", "092008.487500", "092010.277500", "092008.687500", "092010.477500", "092009.085000", "092010.875000", "092009.285000", "092011.075000", "092009.482500", "092011.272500", "092009.682500", "092011.472500", "092008.885000", "092014.275000", "092011.690000", "092013.480000", "092011.890000", "092013.680000", "092012.087500", "092013.877500", "092012.287500", "092014.077500", "092012.685000", "092014.475000", "092012.885000", "092014.675000", "092013.082500", "092014.872500", "092013.282500", "092015.072500", "092012.485000", "092014.275000", "092011.690000", "092013.480000", "092011.890000", "092013.680000", "092012.087500", "092013.877500", "092012.287500", "092014.077500", "092012.685000", "092014.475000", "092012.885000", "092014.675000", "092013.082500", "092014.872500", "092013.282500", "092015.072500", "092012.485000", "092014.275000", "092011.690000", "092013.480000", "092011.890000", "092013.680000", "092012.087500", "092013.877500", "092012.287500", "092014.077500", "092012.685000", "092014.475000", "092012.885000", "092014.675000", "092013.082500", "092014.872500", "092013.282500", "092015.072500", "092012.485000", "092014.275000", "092011.690000", "092013.480000", "092011.890000", "092013.680000", "092012.087500", "092013.877500", "092012.287500", "092014.077500", "092012.685000", "092014.475000", "092012.885000", "092014.675000", "092013.082500", "092014.872500", "092013.282500", "092015.072500", "092012.485000", "092017.875000", "092015.290000", "092017.080000", "092015.490000", "092017.280000", "092015.687500", "092017.477500", "092015.887500", "092017.677500", "092016.285000", "092018.075000", "092016.485000", "092018.275000", "092016.682500", "092018.472500", "092016.882500", "092018.672500", "092016.085000", "092017.875000", "092015.290000", "092017.080000", "092015.490000", "092017.280000", "092015.687500", "092017.477500", "092015.887500", "092017.677500", "092016.285000", "092018.075000", "092016.485000", "092018.275000", "092016.682500", "092018.472500", "092016.882500", "092018.672500", "092016.085000", "092017.875000", "092015.290000", "092017.080000", "092015.490000", "092017.280000", "092015.687500", "092017.477500", "092015.887500", "092017.677500", "092016.285000", "092018.075000", "092016.485000", "092018.275000", "092016.682500", "092018.472500", "092016.882500", "092018.672500", "092016.085000", "092017.875000", "092015.290000", "092017.080000", "092015.490000", "092017.280000", "092015.687500", "092017.477500", "092015.887500", "092017.677500", "092016.285000", "092018.075000", "092