{
  "AcquisitionMatrixPE": 80,
  "AcquisitionNumber": 1,
  "AcquisitionTime": "10:41:58.507500",
  "BandwidthPerPixelPhaseEncode": 48.077,
  "BaseResolution": 80,
  "BodyPartExamined": "BRAIN",
  "CoilCombinationMethod": "Sum of Squares",
  "ConsistencyInfo": "N4_VE11C_LATEST_20160120",
  "ConversionSoftware": "dcm2niix",
  "ConversionSoftwareVersion": "v1.0.20220720",
  "DerivedVendorReportedEchoSpacing": 0.000519999,
  "DeviceSerialNumber": "66112",
  "DwellTime": 2.7e-06,
  "EchoTime": 0.035,
  "EchoTrainLength": 39,
  "EffectiveEchoSpacing": 0.00026,
  "FlipAngle": 90,
  "HeudiconvVersion": "0.13.1",
  "ImageOrientationPatientDICOM": [0.989513, 0.144246, 0.00762044, -0.139595, 0.941389, 0.307083],
  "ImageOrientationText": "Tra>Cor(17.8)>Sag(-2.1)",
  "ImageType": [
    "ORIGINAL",
    "PRIMARY",
    "M",
    "ND",
    "NORM",
    "MOSAIC"
],
  "ImagingFrequency": 123.252,
  "InPlanePhaseEncodingDirectionDICOM": "COL",
  "InstitutionAddress": "Maynard 3,Hanover,NH,US,03755",
  "InstitutionName": "Dartmouth College - PBS",
  "InstitutionalDepartmentName": "Department",
  "MRAcquisitionType": "2D",
  "MagneticFieldStrength": 3,
  "Manufacturer": "Siemens",
  "ManufacturersModelName": "Prisma",
  "MatrixCoilMode": "GRAPPA",
  "Modality": "MR",
  "NonlinearGradientCorrection": false,
  "ParallelReductionFactorInPlane": 2,
  "PartialFourier": 1,
  "PatientPosition": "HFS",
  "PercentPhaseFOV": 100,
  "PercentSampling": 100,
  "PhaseEncodingDirection": "j-",
  "PhaseEncodingSteps": 79,
  "PhaseResolution": 1,
  "PixelBandwidth": 2315,
  "ProcedureStepDescription": "dbic^QA",
  "ProtocolName": "func-bold_task-rest_acq-p2",
  "PulseSequenceDetails": "%SiemensSeq%\\ep2d_bold",
  "ReceiveCoilActiveElements": "HEA;HEP",
  "ReceiveCoilName": "Head_32",
  "ReconMatrixPE": 80,
  "RefLinesPE": 24,
  "RepetitionTime": 2,
  "SAR": 0.0474723,
  "ScanOptions": "FS",
  "ScanningSequence": "EP",
  "SequenceName": "*epfid2d1_80",
  "SequenceVariant": "SK",
  "SeriesDescription": "func-bold_task-rest_acq-p2",
  "SeriesNumber": 5,
  "ShimSetting": [4139, -7696, -7523, 251, -53, -146, -15, 50],
  "SliceThickness": 3.5,
  "SliceTiming": [0.99, 0, 1.055, 0.065, 1.1225, 0.1325, 1.1875, 0.1975, 1.2525, 0.265, 1.32, 0.33, 1.385, 0.395, 1.4525, 0.4625, 1.5175, 0.5275, 1.5825, 0.595, 1.65, 0.66, 1.715, 0.725, 1.7825, 0.7925, 1.8475, 0.8575, 1.9125, 0.925],
  "SoftwareVersions": "syngo MR E11",
  "SpacingBetweenSlices": 3.99,
  "StationName": "AWP66112",
  "TaskName": "rest",
  "TotalReadoutTime": 0.02054,
  "TxRefAmp": 219.61,
  "dcmmeta_affine": [
    [-2.9685378074645996, -0.4187859892845154, -0.14811532199382782, 138.51165771484375],
    [-0.432736873626709, 2.8241665363311768, 1.2166571617126465, -111.72032928466797],
    [0.022861318662762642, -0.92125004529953, 3.7970919609069824, -18.548967361450195],
    [0.0, 0.0, 0.0, 1.0]
],
  "dcmmeta_reorient_transform": [
    [0.0, -1.0, 0.0, 79.0],
    [1.0, 0.0, 0.0, 0.0],
    [0.0, 0.0, 1.0, 0.0],
    [0.0, 0.0, 0.0, 1.0]
],
  "dcmmeta_shape": [80, 80, 30, 200],
  "dcmmeta_slice_dim": 2,
  "dcmmeta_version": 0.6,
  "global": {
    "const": {
      "AccessionNumber": "qa",
      "AcquisitionMatrix": [80, 0, 0, 80],
      "AngioFlag": "N",
      "BitsAllocated": 16,
      "BitsStored": 12,
      "BodyPartExamined": "BRAIN",
      "Columns": 480,
      "EchoNumbers": 1,
      "EchoTime": 35.0,
      "EchoTrainLength": 39,
      "FlipAngle": 90.0,
      "HighBit": 11,
      "ImageOrientationPatient": [0.98951257133271, 0.14424562409893, 0.00762043980558, -0.1395953277496, 0.9413888451483, 0.30708335464631],
      "ImagePositionPatient": [-615.37790965777, -762.76950782993, -280.14999875951],
      "ImageType": [
        "ORIGINAL",
        "PRIMARY",
        "M",
        "ND",
        "NORM",
        "MOSAIC"
],
      "ImagedNucleus": "1H",
      "ImagingFrequency": 123.252351,
      "InPlanePhaseEncodingDirection": "COL",
      "MRAcquisitionType": "2D",
      "MagneticFieldStrength": 3.0,
      "Manufacturer": "SIEMENS",
      "ManufacturerModelName": "Prisma",
      "Modality": "MR",
      "NumberOfAverages": 1.0,
      "NumberOfPhaseEncodingSteps": 79,
      "PercentPhaseFieldOfView": 100.0,
      "PercentSampling": 100.0,
      "PerformedProcedureStepStartTime": "104035.125000",
      "PhotometricInterpretation": "MONOCHROME2",
      "PixelBandwidth": 2315.0,
      "PixelRepresentation": 0,
      "PixelSpacing": [3.0, 3.0],
      "ProtocolName": "func-bold_task-rest_acq-p2",
      "RepetitionTime": 2000.0,
      "Rows": 480,
      "SAR": 0.04747233427243,
      "SamplesPerPixel": 1,
      "ScanOptions": "FS",
      "ScanningSequence": "EP",
      "SequenceName": "*epfid2d1_80",
      "SequenceVariant": "SK",
      "SeriesDescription": "func-bold_task-rest_acq-p2",
      "SeriesNumber": 5,
      "SeriesTime": "104245.317000",
      "SliceLocation": -56.860444895026,
      "SliceThickness": 3.5,
      "SmallestImagePixelValue": 0,
      "SoftwareVersions": "syngo MR E11",
      "SpacingBetweenSlices": 3.9899999776541,
      "SpecificCharacterSet": "ISO_IR 100",
      "StudyID": "31",
      "StudyTime": "104035.096000",
      "TransmitCoilName": "Body",
      "VariableFlipAngleFlag": "N",
      "WindowCenterWidthExplanation": "Algo1",
      "dBdt": 0.0},
    "slices": {}
  },
  "time": {
    "samples": {
      "AcquisitionNumber": [1, 2, 3, 4, 5, 6, 7, 8, 9, 10, 11, 12, 13, 14, 15, 16, 17, 18, 19, 20, 21, 22, 23, 24, 25, 26, 27, 28, 29, 30, 31, 32, 33, 34, 35, 36, 37, 38, 39, 40, 41, 42, 43, 44, 45, 46, 47, 48, 49, 50, 51, 52, 53, 54, 55, 56, 57, 58, 59, 60, 61, 62, 63, 64, 65, 66, 67, 68, 69, 70, 71, 72, 73, 74, 75, 76, 77, 78, 79, 80, 81, 82, 83, 84, 85, 86, 87, 88, 89, 90, 91, 92, 93, 94, 95, 96, 97, 98, 99, 100, 101, 102, 103, 104, 105, 106, 107, 108, 109, 110, 111, 112, 113, 114, 115, 116, 117, 118, 119, 120, 121, 122, 123, 124, 125, 126, 127, 128, 129, 130, 131, 132, 133, 134, 135, 136, 137, 138, 139, 140, 141, 142, 143, 144, 145, 146, 147, 148, 149, 150, 151, 152, 153, 154, 155, 156, 157, 158, 159, 160, 161, 162, 163, 164, 165, 166, 167, 168, 169, 170, 171, 172, 173, 174, 175, 176, 177, 178, 179, 180, 181, 182, 183, 184, 185, 186, 187, 188, 189, 190, 191, 192, 193, 194, 195, 196, 197, 198, 199, 200],
      "AcquisitionTime": ["104158.507500", "104200.507500", "104202.507500", "104204.507500", "104206.507500", "104208.507500", "104210.507500", "104212.507500", "104214.507500", "104216.507500", "104218.507500", "104220.507500", "104222.507500", "104224.507500", "104226.507500", "104228.507500", "104230.507500", "104232.507500", "104234.507500", "104236.507500", "104238.507500", "104240.507500", "104242.507500", "104244.507500", "104246.507500", "104248.507500", "104250.507500", "104252.507500", "104254.507500", "104256.507500", "104258.507500", "104300.507500", "104302.507500", "104304.507500", "104306.507500", "104308.507500", "104310.507500", "104312.507500", "104314.507500", "104316.507500", "104318.507500", "104320.507500", "104322.507500", "104324.507500", "104326.507500", "104328.507500", "104330.507500", "104332.507500", "104334.507500", "104336.507500", "104338.507500", "104340.507500", "104342.507500", "104344.507500", "104346.507500", "104348.507500", "104350.507500", "104352.507500", "104354.507500", "104356.507500", "104358.507500", "104400.507500", "104402.507500", "104404.507500", "104406.507500", "104408.507500", "104410.507500", "104412.507500", "104414.507500", "104416.507500", "104418.507500", "104420.507500", "104422.507500", "104424.507500", "104426.507500", "104428.507500", "104430.507500", "104432.507500", "104434.507500", "104436.507500", "104438.507500", "104440.507500", "104442.507500", "104444.507500", "104446.507500", "104448.507500", "104450.507500", "104452.507500", "104454.507500", "104456.507500", "104458.507500", "104500.507500", "104502.507500", "104504.507500", "104506.507500", "104508.507500", "104510.507500", "104512.507500", "104514.507500", "104516.507500", "104518.507500", "104520.507500", "104522.507500", "104524.507500", "104526.507500", "104528.507500", "104530.507500", "104532.507500", "104534.507500", "104536.507500", "104538.507500", "104540.507500", "104542.507500", "104544.507500", "104546.507500", "104548.507500", "104550.507500", "104552.507500", "104554.507500", "104556.507500", "104558.507500", "104600.507500", "104602.507500", "104604.507500", "104606.507500", "104608.507500", "104610.507500", "104612.507500", "104614.507500", "104616.507500", "104618.507500", "104620.507500", "104622.507500", "104624.507500", "104626.507500", "104628.507500", "104630.507500", "104632.507500", "104634.507500", "104636.507500", "104638.507500", "104640.507500", "104642.507500", "104644.507500", "104646.507500", "104648.507500", "104650.507500", "104652.507500", "104654.507500", "104656.507500", "104658.507500", "104700.507500", "104702.507500", "104704.507500", "104706.507500", "104708.507500", "104710.507500", "104712.507500", "104714.507500", "104716.507500", "104718.507500", "104720.507500", "104722.507500", "104724.507500", "104726.507500", "104728.507500", "104730.507500", "104732.507500", "104734.507500", "104736.507500", "104738.507500", "104740.507500", "104742.507500", "104744.507500", "104746.507500", "104748.507500", "104750.507500", "104752.507500", "104754.507500", "104756.507500", "104758.507500", "104800.507500", "104802.507500", "104804.507500", "104806.507500", "104808.507500", "104810.507500", "104812.507500", "104814.507500", "104816.507500", "104818.507500", "104820.507500", "104822.507500", "104824.507500", "104826.507500", "104828.507500", "104830.507500", "104832.507500", "104834.507500", "104836.507500"],
      "ContentTime": ["104245.320000", "104245.324000", "104245.326000", "104245.329000", "104245.331000", "104245.334000", "104245.337000", "104245.339000", "104245.342000", "104245.344000", "104245.347000", "104245.354000", "104245.356000", "104245.359000", "104245.361000", "104245.364000", "104245.367000", "104245.369000", "104245.372000", "104245.374000", "104245.377000", "104245.380000", "104245.391000", "104325.315000", "104325.318000", "104325.321000", "104325.324000", "104325.326000", "104325.329000", "104325.331000", "104325.334000", "104325.336000", "104325.339000", "104325.341000", "104325.344000", "104325.347000", "104325.349000", "104325.352000", "104325.354000", "104325.357000", "104325.360000", "104325.362000", "104325.365000", "104405.317000", "104405.319000", "104405.322000", "104405.325000", "104405.327000", "104405.330000", "104405.332000", "104405.335000", "104405.338000", "104405.340000", "104405.343000", "104405.345000", "104405.348000", "104405.350000", "104405.353000", "104405.356000", "104405.358000", "104405.361000", "104405.363000", "104405.366000", "104445.315000", "104445.318000", "104445.321000", "104445.324000", "104445.326000", "104445.329000", "104445.331000", "104445.334000", "104445.336000", "104445.339000", "104445.342000", "104445.344000", "104445.347000", "104445.349000", "104445.352000", "104445.355000", "104445.357000", "104445.360000", "104445.362000", "104445.365000", "104525.315000", "104525.319000", "104525.321000", "104525.324000", "104525.327000", "104525.329000", "104525.332000", "104525.335000", "104525.337000", "104525.340000", "104525.342000", "104525.345000", "104525.348000", "104525.350000", "104525.353000", "104525.356000", "104525.359000", "104525.361000", "104525.364000", "104525.366000", "104605.316000", "104605.318000", "104605.321000", "104605.324000", "104605.326000", "104605.329000", "104605.348000", "104605.351000", "104605.354000", "104605.356000", "104605.359000", "104605.361000", "104605.364000", "104605.367000", "104605.369000", "104605.372000", "104605.374000", "104605.377000", "104605.380000", "104605.382000", "104645.316000", "104645.318000", "104645.321000", "104645.323000", "104645.326000", "104645.329000", "104645.331000", "104645.334000", "104645.336000", "104645.339000", "104645.342000", "104645.344000", "104645.347000", "104645.349000", "104645.352000", "104645.354000", "104645.357000", "104645.360000", "104645.362000", "104645.365000", "104725.316000", "104725.318000", "104725.321000", "104725.324000", "104725.326000", "104725.329000", "104725.331000", "104725.334000", "104725.337000", "104725.339000", "104725.342000", "104725.344000", "104725.347000", "104725.350000", "104725.352000", "104725.355000", "104725.357000", "104725.360000", "104725.363000", "104725.365000", "104805.315000", "104805.318000", "104805.321000", "104805.324000", "104805.326000", "104805.329000", "104805.331000", "104805.334000", "104805.337000", "104805.339000", "104805.342000", "104805.344000", "104805.347000", "104805.349000", "104805.352000", "104805.355000", "104805.357000", "104805.360000", "104805.362000", "104805.365000", "104838.065000", "104838.068000", "104838.071000", "104838.074000", "104838.077000", "104838.079000", "104838.082000", "104838.084000", "104838.087000", "104838.090000", "104838.093000", "104838.099000", "104838.106000", "104838.113000", "104838.120000", "104838.123000", "104838.126000"],
      "InstanceCreationTime": ["104245.320000", "104245.324000", "104245.326000", "104245.329000", "104245.331000", "104245.334000", "104245.337000", "104245.339000", "104245.342000", "104245.344000", "104245.347000", "104245.354000", "104245.356000", "104245.359000", "104245.361000", "104245.364000", "104245.367000", "104245.369000", "104245.372000", "104245.374000", "104245.377000", "104245.380000", "104245.391000", "104325.315000", "104325.318000", "104325.321000", "104325.324000", "104325.326000", "104325.329000", "104325.331000", "104325.334000", "104325.336000", "104325.339000", "104325.341000", "104325.344000", "104325.347000", "104325.349000", "104325.352000", "104325.354000", "104325.357000", "104325.360000", "104325.362000", "104325.365000", "104405.317000", "104405.319000", "104405.322000", "104405.325000", "104405.327000", "104405.330000", "104405.332000", "104405.335000", "104405.338000", "104405.340000", "104405.343000", "104405.345000", "104405.348000", "104405.350000", "104405.353000", "104405.356000", "104405.358000", "104405.361000", "104405.363000", "104405.366000", "104445.315000", "104445.318000", "104445.321000", "104445.324000", "104445.326000", "104445.329000", "104445.331000", "104445.334000", "104445.336000", "104445.339000", "104445.342000", "104445.344000", "104445.347000", "104445.349000", "104445.352000", "104445.355000", "104445.357000", "104445.360000", "104445.362000", "104445.365000", "104525.315000", "104525.319000", "104525.321000", "104525.324000", "104525.327000", "104525.329000", "104525.332000", "104525.335000", "104525.337000", "104525.340000", "104525.342000", "104525.345000", "104525.348000", "104525.350000", "104525.353000", "104525.356000", "104525.359000", "104525.361000", "104525.364000", "104525.366000", "104605.316000", "104605.318000", "104605.321000", "104605.324000", "104605.326000", "104605.329000", "104605.348000", "104605.351000", "104605.354000", "104605.356000", "104605.359000", "104605.361000", "104605.364000", "104605.367000", "104605.369000", "104605.372000", "104605.374000", "104605.377000", "104605.380000", "104605.382000", "104645.316000", "104645.318000", "104645.321000", "104645.323000", "104645.326000", "104645.329000", "104645.331000", "104645.334000", "104645.336000", "104645.339000", "104645.342000", "104645.344000", "104645.347000", "104645.349000", "104645.352000", "104645.354000", "104645.357000", "104645.360000", "104645.362000", "104645.365000", "104725.316000", "104725.318000", "104725.321000", "104725.324000", "104725.326000", "104725.329000", "104725.331000", "104725.334000", "104725.337000", "104725.339000", "104725.342000", "104725.344000", "104725.347000", "104725.350000", "104725.352000", "104725.355000", "104725.357000", "104725.360000", "104725.363000", "104725.365000", "104805.315000", "104805.318000", "104805.321000", "104805.324000", "104805.326000", "104805.329000", "104805.331000", "104805.334000", "104805.337000", "104805.339000", "104805.342000", "104805.344000", "104805.347000", "104805.349000", "104805.352000", "104805.355000", "104805.357000", "104805.360000", "104805.362000", "104805.365000", "104838.065000", "104838.068000", "104838.071000", "104838.074000", "104838.077000", "104838.079000", "104838.082000", "104838.084000", "104838.087000", "104838.090000", "104838.093000", "104838.099000", "104838.106000", "104838.113000", "104838.120000", "104838.123000", "104838.126000"],
      "InstanceNumber": [1, 2, 3, 4, 5, 6, 7, 8, 9, 10, 11, 12, 13, 14, 15, 16, 17, 18, 19, 20, 21, 22, 23, 24, 25, 26, 27, 28, 29, 30, 31, 32, 33, 34, 35, 36, 37, 38, 39, 40, 41, 42, 43, 44, 45, 46, 47, 48, 49, 50, 51, 52, 53, 54, 55, 56, 57, 58, 59, 60, 61, 62, 63, 64, 65, 66, 67, 68, 69, 70, 71, 72, 73, 74, 75, 76, 77, 78, 79, 80, 81, 82, 83, 84, 85, 86, 87, 88, 89, 90, 91, 92, 93, 94, 95, 96, 97, 98, 99, 100, 101, 102, 103, 104, 105, 106, 107, 108, 109, 110, 111, 112, 113, 114, 115, 116, 117, 118, 119, 120, 121, 122, 123, 124, 125, 126, 127, 128, 129, 130, 131, 132, 133, 134, 135, 136, 137, 138, 139, 140, 141, 142, 143, 144, 145, 146, 147, 148, 149, 150, 151, 152, 153, 154, 155, 156, 157, 158, 159, 160, 161, 162, 163, 164, 165, 166, 167, 168, 169, 170, 171, 172, 173, 174, 175, 176, 177, 178, 179, 180, 181, 182, 183, 184, 185, 186, 187, 188, 189, 190, 191, 192, 193, 194, 195, 196, 197, 198, 199, 200],
      "LargestImagePixelValue": [2285, 2293, 2285, 2292, 2286, 2292, 2290, 2293, 2292, 2289, 2287, 2292, 2287, 2290, 2285, 2286, 2294, 2284, 2284, 2285, 2287, 2288, 2295, 2285, 2293, 2291, 2281, 2297, 2289, 2290, 2290, 2287, 2294, 2285, 2286, 2293, 2293, 2289, 2289, 2287, 2287, 2286, 2289, 2285, 2295, 2287, 2285, 2284, 2288, 2282, 2291, 2290, 2293, 2289, 2286, 2287, 2284, 2294, 2285, 2289, 2287, 2288, 2293, 2290, 2289, 2295, 2280, 2294, 2293, 2297, 2290, 2286, 2297, 2290, 2289, 2285, 2289, 2294, 2285, 2283, 2283, 2285, 2285, 2289, 2287, 2283, 2285, 2287, 2280, 2290, 2287, 2281, 2299, 2294, 2294, 2299, 2273, 2290, 2294, 2285, 2288, 2292, 2289, 2290, 2288, 2286, 2289, 2276, 2289, 2291, 2284, 2278, 2285, 2290, 2287, 2291, 2285, 2286, 2287, 2281, 2288, 2280, 2292, 2280, 2294, 2283, 2285, 2280, 2287, 2284, 2280, 2282, 2283, 2286, 2279, 2283, 2287, 2278, 2287, 2298, 2286, 2281, 2287, 2287, 2289, 2288, 2292, 2293, 2285, 2288, 2287, 2293, 2288, 2286, 2285, 2285, 2284, 2284, 2292, 2280, 2278, 2280, 2286, 2288, 2283, 2281, 2288, 2282, 2281, 2275, 2287, 2282, 2279, 2289, 2284, 2290, 2283, 2284, 2284, 2274, 2293, 2288, 2280, 2287, 2284, 2284, 2288, 2282, 2287, 2285, 2282, 2285, 2288, 2287, 2283, 2288, 2285, 2283, 2286, 2284],
      "WindowCenter": [1049.0, 1049.0, 1049.0, 1049.0, 1049.0, 1049.0, 1049.0, 1049.0, 1049.0, 1049.0, 1048.0, 1048.0, 1048.0, 1048.0, 1048.0, 1048.0, 1048.0, 1048.0, 1048.0, 1049.0, 1048.0, 1048.0, 1048.0, 1048.0, 1048.0, 1048.0, 1048.0, 1048.0, 1048.0, 1048.0, 1048.0, 1048.0, 1048.0, 1048.0, 1048.0, 1048.0, 1048.0, 1048.0, 1048.0, 1048.0, 1048.0, 1048.0, 1048.0, 1048.0, 1048.0, 1048.0, 1048.0, 1048.0, 1048.0, 1048.0, 1048.0, 1048.0, 1048.0, 1048.0, 1048.0, 1048.0, 1048.0, 1048.0, 1048.0, 1048.0, 1048.0, 1048.0, 1048.0, 1048.0, 1048.0, 1048.0, 1048.0, 1048.0, 1048.0, 1048.0, 1048.0, 1048.0, 1048.0, 1048.0, 1048.0, 1048.0, 1048.0, 1048.0, 1048.0, 1048.0, 1048.0, 1048.0, 1048.0, 1048.0, 1048.0, 1048.0, 1048.0, 1048.0, 1048.0, 1048.0, 1048.0, 1048.0, 1048.0, 1048.0, 1048.0, 1048.0, 1048.0, 1048.0, 1048.0, 1048.0, 1048.0, 1048.0, 1048.0, 1048.0, 1048.0, 1048.0, 1048.0, 1048.0, 1048.0, 1048.0, 1048.0, 1048.0, 1048.0, 1048.0, 1048.0, 1048.0, 1048.0, 1048.0, 1048.0, 1048.0, 1048.0, 1048.0, 1048.0, 1048.0, 1048.0, 1048.0, 1048.0, 1048.0, 1048.0, 1048.0, 1048.0, 1048.0, 1048.0, 1048.0, 1048.0, 1047.0, 1048.0, 1048.0, 1048.0, 1047.0, 1048.0, 1048.0, 1048.0, 1048.0, 1047.0, 1048.0, 1047.0, 1047.0, 1048.0, 1048.0, 1048.0, 1048.0, 1047.0, 1048.0, 1048.0, 1048.0, 1048.0, 1048.0, 1047.0, 1048.0, 1047.0, 1048.0, 1047.0, 1047.0, 1047.0, 1047.0, 1047.0, 1047.0, 1047.0, 1047.0, 1047.0, 1048.0, 1047.0, 1047.0, 1047.0, 1047.0, 1047.0, 1047.0, 1047.0, 1047.0, 1047.0, 1047.0, 1047.0, 1047.0, 1047.0, 1047.0, 1047.0, 1047.0, 1047.0, 1047.0, 1047.0, 1047.0, 1047.0, 1047.0, 1047.0, 1047.0, 1047.0, 1047.0, 1047.0, 1047.0],
      "WindowWidth": [2356.0, 2355.0, 2355.0, 2355.0, 2355.0, 2355.0, 2355.0, 2355.0, 2355.0, 2355.0, 2355.0, 2355.0, 2355.0, 2354.0, 2355.0, 2355.0, 2355.0, 2354.0, 2354.0, 2354.0, 2354.0, 2354.0, 2354.0, 2354.0, 2355.0, 2354.0, 2354.0, 2354.0, 2354.0, 2354.0, 2354.0, 2354.0, 2354.0, 2354.0, 2354.0, 2354.0, 2354.0, 2354.0, 2354.0, 2354.0, 2354.0, 2354.0, 2354.0, 2354.0, 2354.0, 2354.0, 2354.0, 2354.0, 2354.0, 2354.0, 2354.0, 2354.0, 2354.0, 2354.0, 2354.0, 2354.0, 2354.0, 2354.0, 2354.0, 2354.0, 2354.0, 2354.0, 2354.0, 2354.0, 2354.0, 2353.0, 2353.0, 2354.0, 2353.0, 2354.0, 2354.0, 2354.0, 2353.0, 2353.0, 2353.0, 2353.0, 2353.0, 2353.0, 2353.0, 2353.0, 2353.0, 2353.0, 2353.0, 2353.0, 2353.0, 2353.0, 2353.0, 2353.0, 2353.0, 2353.0, 2353.0, 2353.0, 2353.0, 2353.0, 2353.0, 2353.0, 2353.0, 2353.0, 2353.0, 2353.0, 2353.0, 2353.0, 2353.0, 2353.0, 2353.0, 2353.0, 2353.0, 2352.0, 2352.0, 2353.0, 2352.0, 2353.0, 2353.0, 2352.0, 2352.0, 2352.0, 2352.0, 2353.0, 2353.0, 2352.0, 2352.0, 2352.0, 2352.0, 2352.0, 2352.0, 2352.0, 2352.0, 2352.0, 2352.0, 2352.0, 2352.0, 2352.0, 2352.0, 2352.0, 2352.0, 2352.0, 2352.0, 2352.0, 2352.0, 2352.0, 2352.0, 2352.0, 2352.0, 2352.0, 2352.0, 2352.0, 2352.0, 2352.0, 2352.0, 2352.0, 2352.0, 2352.0, 2352.0, 2352.0, 2352.0, 2352.0, 2352.0, 2352.0, 2352.0, 2352.0, 2351.0, 2352.0, 2351.0, 2351.0, 2351.0, 2351.0, 2351.0, 2351.0, 2351.0, 2352.0, 2351.0, 2352.0, 2351.0, 2352.0, 2352.0, 2352.0, 2351.0, 2351.0, 2351.0, 2351.0, 2351.0, 2351.0, 2352.0, 2351.0, 2351.0, 2351.0, 2351.0, 2351.0, 2351.0, 2351.0, 2351.0, 2351.0, 2351.0, 2351.0, 2351.0, 2351.0, 2351.0, 2351.0, 2351.0, 2351.0]
    },
    "slices": {}
  }
}