{
  "AcquisitionMatrixPE": 80,
  "AcquisitionNumber": 1,
  "AcquisitionTime": "10:48:53.182500",
  "BandwidthPerPixelPhaseEncode": 44.643,
  "BaseResolution": 80,
  "BodyPartExamined": "BRAIN",
  "CoilCombinationMethod": "Sum of Squares",
  "ConsistencyInfo": "N4_VE11C_LATEST_20160120",
  "ConversionSoftware": "dcm2niix",
  "ConversionSoftwareVersion": "v1.0.20220720",
  "DerivedVendorReportedEchoSpacing": 0.000559998,
  "DeviceSerialNumber": "66112",
  "DwellTime": 2.7e-06,
  "EchoTime": 0.035,
  "EchoTrainLength": 39,
  "EffectiveEchoSpacing": 0.000279999,
  "FlipAngle": 90,
  "HeudiconvVersion": "0.13.1",
  "ImageOrientationPatientDICOM": [0.989513, 0.144246, 0.00762044, -0.139595, 0.941389, 0.307083],
  "ImageOrientationText": "Tra>Cor(17.8)>Sag(-2.1)",
  "ImageType": [
    "ORIGINAL",
    "PRIMARY",
    "M",
    "ND",
    "NORM",
    "MOSAIC"
],
  "ImagingFrequency": 123.252,
  "InPlanePhaseEncodingDirectionDICOM": "COL",
  "InstitutionAddress": "Maynard 3,Hanover,NH,US,03755",
  "InstitutionName": "Dartmouth College - PBS",
  "InstitutionalDepartmentName": "Department",
  "MRAcquisitionType": "2D",
  "MagneticFieldStrength": 3,
  "Manufacturer": "Siemens",
  "ManufacturersModelName": "Prisma",
  "Modality": "MR",
  "MultibandAccelerationFactor": 4,
  "NonlinearGradientCorrection": false,
  "ParallelReductionFactorInPlane": 2,
  "PartialFourier": 1,
  "PatientPosition": "HFS",
  "PercentPhaseFOV": 100,
  "PercentSampling": 100,
  "PhaseEncodingDirection": "j-",
  "PhaseEncodingSteps": 79,
  "PhaseResolution": 1,
  "PixelBandwidth": 2315,
  "ProcedureStepDescription": "dbic^QA",
  "ProtocolName": "func-bold_task-rest_acq-p2-s4-3.5mm",
  "PulseSequenceDetails": "%SiemensSeq%\\ep2d_bold",
  "ReceiveCoilActiveElements": "HEA;HEP",
  "ReceiveCoilName": "Head_32",
  "ReconMatrixPE": 80,
  "RefLinesPE": 24,
  "RepetitionTime": 2,
  "SAR": 0.017851,
  "ScanOptions": "FS",
  "ScanningSequence": "EP",
  "SequenceName": "*epfid2d1_80",
  "SequenceVariant": "SK",
  "SeriesDescription": "func-bold_task-rest_acq-p2-s4-3.5mm",
  "SeriesNumber": 7,
  "ShimSetting": [4139, -7697, -7523, 256, -54, -147, -15, 50],
  "SliceThickness": 3.5,
  "SliceTiming": [1.485, 0, 0.99, 0.2475, 1.2375, 0.7425, 1.7325, 0.495, 1.485, 0, 0.99, 0.2475, 1.2375, 0.7425, 1.7325, 0.495, 1.485, 0, 0.99, 0.2475, 1.2375, 0.7425, 1.7325, 0.495, 1.485, 0, 0.99, 0.2475, 1.2375, 0.7425, 1.7325, 0.495],
  "SoftwareVersions": "syngo MR E11",
  "SpacingBetweenSlices": 3.99,
  "StationName": "AWP66112",
  "TaskName": "rest",
  "TotalReadoutTime": 0.0221199,
  "TxRefAmp": 219.61,
  "dcmmeta_affine": [
    [-2.9685378074645996, -0.4187859892845154, -0.14811532199382782, 138.65977478027344],
    [-0.432736873626709, 2.8241665363311768, 1.2166571617126465, -112.9369888305664],
    [0.022861318662762642, -0.92125004529953, 3.7970919609069824, -22.346059799194336],
    [0.0, 0.0, 0.0, 1.0]
],
  "dcmmeta_reorient_transform": [
    [0.0, -1.0, 0.0, 79.0],
    [1.0, 0.0, 0.0, 0.0],
    [0.0, 0.0, 1.0, 0.0],
    [0.0, 0.0, 0.0, 1.0]
],
  "dcmmeta_shape": [80, 80, 32, 200],
  "dcmmeta_slice_dim": 2,
  "dcmmeta_version": 0.6,
  "global": {
    "const": {
      "AccessionNumber": "qa",
      "AcquisitionMatrix": [80, 0, 0, 80],
      "AngioFlag": "N",
      "BitsAllocated": 16,
      "BitsStored": 12,
      "BodyPartExamined": "BRAIN",
      "Columns": 480,
      "EchoNumbers": 1,
      "EchoTime": 35.0,
      "EchoTrainLength": 39,
      "FlipAngle": 90.0,
      "HighBit": 11,
      "ImageOrientationPatient": [0.98951257133271, 0.14424562409893, 0.00762043980558, -0.1395953277496, 0.9413888451483, 0.30708335464631],
      "ImagePositionPatient": [-615.52602505427, -761.55285209873, -283.94709119726],
      "ImageType": [
        "ORIGINAL",
        "PRIMARY",
        "M",
        "ND",
        "NORM",
        "MOSAIC"
],
      "ImagedNucleus": "1H",
      "ImagingFrequency": 123.252352,
      "InPlanePhaseEncodingDirection": "COL",
      "MRAcquisitionType": "2D",
      "MagneticFieldStrength": 3.0,
      "Manufacturer": "SIEMENS",
      "ManufacturerModelName": "Prisma",
      "Modality": "MR",
      "NumberOfAverages": 1.0,
      "NumberOfPhaseEncodingSteps": 79,
      "PercentPhaseFieldOfView": 100.0,
      "PercentSampling": 100.0,
      "PerformedProcedureStepStartTime": "104035.125000",
      "PhotometricInterpretation": "MONOCHROME2",
      "PixelBandwidth": 2315.0,
      "PixelRepresentation": 0,
      "PixelSpacing": [3.0, 3.0],
      "ProtocolName": "func-bold_task-rest_acq-p2-s4-3.5mm",
      "RepetitionTime": 2000.0,
      "Rows": 480,
      "SAR": 0.01785098169351,
      "SamplesPerPixel": 1,
      "ScanOptions": "FS",
      "ScanningSequence": "EP",
      "SequenceName": "*epfid2d1_80",
      "SequenceVariant": "SK",
      "SeriesDescription": "func-bold_task-rest_acq-p2-s4-3.5mm",
      "SeriesNumber": 7,
      "SeriesTime": "104945.187000",
      "SliceLocation": -60.85044493509,
      "SliceThickness": 3.5,
      "SmallestImagePixelValue": 0,
      "SoftwareVersions": "syngo MR E11",
      "SpacingBetweenSlices": 3.9900000004419,
      "SpecificCharacterSet": "ISO_IR 100",
      "StudyID": "31",
      "StudyTime": "104035.096000",
      "TransmitCoilName": "Body",
      "VariableFlipAngleFlag": "N",
      "WindowCenterWidthExplanation": "Algo1",
      "dBdt": 0.0},
    "slices": {}
  },
  "time": {
    "samples": {
      "AcquisitionNumber": [1, 2, 3, 4, 5, 6, 7, 8, 9, 10, 11, 12, 13, 14, 15, 16, 17, 18, 19, 20, 21, 22, 23, 24, 25, 26, 27, 28, 29, 30, 31, 32, 33, 34, 35, 36, 37, 38, 39, 40, 41, 42, 43, 44, 45, 46, 47, 48, 49, 50, 51, 52, 53, 54, 55, 56, 57, 58, 59, 60, 61, 62, 63, 64, 65, 66, 67, 68, 69, 70, 71, 72, 73, 74, 75, 76, 77, 78, 79, 80, 81, 82, 83, 84, 85, 86, 87, 88, 89, 90, 91, 92, 93, 94, 95, 96, 97, 98, 99, 100, 101, 102, 103, 104, 105, 106, 107, 108, 109, 110, 111, 112, 113, 114, 115, 116, 117, 118, 119, 120, 121, 122, 123, 124, 125, 126, 127, 128, 129, 130, 131, 132, 133, 134, 135, 136, 137, 138, 139, 140, 141, 142, 143, 144, 145, 146, 147, 148, 149, 150, 151, 152, 153, 154, 155, 156, 157, 158, 159, 160, 161, 162, 163, 164, 165, 166, 167, 168, 169, 170, 171, 172, 173, 174, 175, 176, 177, 178, 179, 180, 181, 182, 183, 184, 185, 186, 187, 188, 189, 190, 191, 192, 193, 194, 195, 196, 197, 198, 199, 200],
      "AcquisitionTime": ["104853.182500", "104855.182500", "104857.182500", "104859.182500", "104901.182500", "104903.182500", "104905.182500", "104907.182500", "104909.182500", "104911.182500", "104913.182500", "104915.182500", "104917.182500", "104919.182500", "104921.182500", "104923.182500", "104925.182500", "104927.182500", "104929.182500", "104931.182500", "104933.182500", "104935.182500", "104937.182500", "104939.182500", "104941.182500", "104943.182500", "104945.182500", "104947.182500", "104949.182500", "104951.182500", "104953.182500", "104955.182500", "104957.182500", "104959.182500", "105001.182500", "105003.182500", "105005.182500", "105007.182500", "105009.182500", "105011.182500", "105013.182500", "105015.182500", "105017.182500", "105019.182500", "105021.182500", "105023.182500", "105025.182500", "105027.182500", "105029.182500", "105031.182500", "105033.182500", "105035.182500", "105037.182500", "105039.182500", "105041.182500", "105043.182500", "105045.182500", "105047.182500", "105049.182500", "105051.182500", "105053.182500", "105055.182500", "105057.182500", "105059.182500", "105101.182500", "105103.182500", "105105.182500", "105107.182500", "105109.182500", "105111.182500", "105113.182500", "105115.182500", "105117.182500", "105119.182500", "105121.182500", "105123.182500", "105125.182500", "105127.182500", "105129.182500", "105131.182500", "105133.182500", "105135.182500", "105137.182500", "105139.182500", "105141.182500", "105143.182500", "105145.182500", "105147.182500", "105149.182500", "105151.182500", "105153.182500", "105155.182500", "105157.182500", "105159.182500", "105201.182500", "105203.182500", "105205.182500", "105207.182500", "105209.182500", "105211.182500", "105213.182500", "105215.182500", "105217.182500", "105219.182500", "105221.182500", "105223.182500", "105225.182500", "105227.182500", "105229.182500", "105231.182500", "105233.182500", "105235.182500", "105237.182500", "105239.182500", "105241.182500", "105243.182500", "105245.182500", "105247.182500", "105249.182500", "105251.182500", "105253.182500", "105255.182500", "105257.182500", "105259.182500", "105301.182500", "105303.182500", "105305.182500", "105307.182500", "105309.182500", "105311.182500", "105313.182500", "105315.182500", "105317.182500", "105319.182500", "105321.182500", "105323.182500", "105325.182500", "105327.182500", "105329.182500", "105331.182500", "105333.182500", "105335.182500", "105337.182500", "105339.182500", "105341.182500", "105343.182500", "105345.182500", "105347.182500", "105349.182500", "105351.182500", "105353.182500", "105355.182500", "105357.182500", "105359.182500", "105401.182500", "105403.182500", "105405.182500", "105407.182500", "105409.182500", "105411.182500", "105413.182500", "105415.182500", "105417.182500", "105419.182500", "105421.182500", "105423.182500", "105425.182500", "105427.182500", "105429.182500", "105431.182500", "105433.182500", "105435.182500", "105437.182500", "105439.182500", "105441.182500", "105443.182500", "105445.182500", "105447.182500", "105449.182500", "105451.182500", "105453.182500", "105455.182500", "105457.182500", "105459.182500", "105501.182500", "105503.182500", "105505.182500", "105507.182500", "105509.182500", "105511.182500", "105513.182500", "105515.182500", "105517.182500", "105519.182500", "105521.182500", "105523.182500", "105525.182500", "105527.182500", "105529.182500", "105531.182500"],
      "ContentTime": ["104945.191000", "104945.194000", "104945.197000", "104945.199000", "104945.211000", "104945.214000", "104945.217000", "104945.219000", "104945.222000", "104945.224000", "104945.227000", "104945.230000", "104945.232000", "104945.235000", "104945.237000", "104945.240000", "104945.246000", "104945.248000", "104945.251000", "104945.253000", "104945.256000", "104945.259000", "104945.261000", "104945.264000", "104945.266000", "104945.269000", "105025.175000", "105025.178000", "105025.181000", "105025.184000", "105025.186000", "105025.189000", "105025.191000", "105025.194000", "105025.197000", "105025.199000", "105025.207000", "105025.210000", "105025.213000", "105025.215000", "105025.218000", "105025.220000", "105025.223000", "105025.226000", "105025.228000", "105025.231000", "105105.177000", "105105.180000", "105105.182000", "105105.185000", "105105.187000", "105105.190000", "105105.193000", "105105.195000", "105105.198000", "105105.200000", "105105.203000", "105105.206000", "105105.208000", "105105.211000", "105105.213000", "105105.216000", "105105.218000", "105105.221000", "105105.224000", "105105.226000", "105145.175000", "105145.178000", "105145.181000", "105145.184000", "105145.186000", "105145.189000", "105145.191000", "105145.194000", "105145.196000", "105145.199000", "105145.202000", "105145.204000", "105145.207000", "105145.209000", "105145.212000", "105145.214000", "105145.217000", "105145.220000", "105145.222000", "105145.225000", "105225.175000", "105225.178000", "105225.181000", "105225.183000", "105225.186000", "105225.189000", "105225.191000", "105225.194000", "105225.197000", "105225.199000", "105225.202000", "105225.204000", "105225.207000", "105225.210000", "105225.212000", "105225.215000", "105225.217000", "105225.220000", "105225.223000", "105225.225000", "105305.176000", "105305.179000", "105305.181000", "105305.184000", "105305.186000", "105305.189000", "105305.192000", "105305.194000", "105305.197000", "105305.199000", "105305.202000", "105305.204000", "105305.207000", "105305.210000", "105305.212000", "105305.215000", "105305.217000", "105305.220000", "105305.223000", "105305.225000", "105345.176000", "105345.179000", "105345.181000", "105345.184000", "105345.186000", "105345.189000", "105345.192000", "105345.194000", "105345.197000", "105345.199000", "105345.202000", "105345.205000", "105345.207000", "105345.210000", "105345.212000", "105345.215000", "105345.217000", "105345.220000", "105345.223000", "105345.225000", "105425.175000", "105425.178000", "105425.181000", "105425.184000", "105425.186000", "105425.189000", "105425.191000", "105425.194000", "105425.197000", "105425.199000", "105425.202000", "105425.204000", "105425.207000", "105425.209000", "105425.212000", "105425.215000", "105425.217000", "105425.220000", "105425.223000", "105425.225000", "105505.176000", "105505.179000", "105505.181000", "105505.184000", "105505.186000", "105505.189000", "105505.192000", "105505.194000", "105505.197000", "105505.200000", "105505.202000", "105505.205000", "105505.207000", "105505.210000", "105505.212000", "105505.215000", "105505.218000", "105505.220000", "105505.223000", "105505.225000", "105532.087000", "105532.090000", "105532.093000", "105532.095000", "105532.098000", "105532.101000", "105532.104000", "105532.106000", "105532.109000", "105532.112000", "105532.114000", "105532.122000", "105532.126000", "105532.129000"],
      "InstanceCreationTime": ["104945.191000", "104945.194000", "104945.197000", "104945.199000", "104945.211000", "104945.214000", "104945.217000", "104945.219000", "104945.222000", "104945.224000", "104945.227000", "104945.230000", "104945.232000", "104945.235000", "104945.237000", "104945.240000", "104945.246000", "104945.248000", "104945.251000", "104945.253000", "104945.256000", "104945.259000", "104945.261000", "104945.264000", "104945.266000", "104945.269000", "105025.175000", "105025.178000", "105025.181000", "105025.184000", "105025.186000", "105025.189000", "105025.191000", "105025.194000", "105025.197000", "105025.199000", "105025.207000", "105025.210000", "105025.213000", "105025.215000", "105025.218000", "105025.220000", "105025.223000", "105025.226000", "105025.228000", "105025.231000", "105105.177000", "105105.180000", "105105.182000", "105105.185000", "105105.187000", "105105.190000", "105105.193000", "105105.195000", "105105.198000", "105105.200000", "105105.203000", "105105.206000", "105105.208000", "105105.211000", "105105.213000", "105105.216000", "105105.218000", "105105.221000", "105105.224000", "105105.226000", "105145.175000", "105145.178000", "105145.181000", "105145.184000", "105145.186000", "105145.189000", "105145.191000", "105145.194000", "105145.196000", "105145.199000", "105145.202000", "105145.204000", "105145.207000", "105145.209000", "105145.212000", "105145.214000", "105145.217000", "105145.220000", "105145.222000", "105145.225000", "105225.175000", "105225.178000", "105225.181000", "105225.183000", "105225.186000", "105225.189000", "105225.191000", "105225.194000", "105225.197000", "105225.199000", "105225.202000", "105225.204000", "105225.207000", "105225.210000", "105225.212000", "105225.215000", "105225.217000", "105225.220000", "105225.223000", "105225.225000", "105305.176000", "105305.179000", "105305.181000", "105305.184000", "105305.186000", "105305.189000", "105305.192000", "105305.194000", "105305.197000", "105305.199000", "105305.202000", "105305.204000", "105305.207000", "105305.210000", "105305.212000", "105305.215000", "105305.217000", "105305.220000", "105305.223000", "105305.225000", "105345.176000", "105345.179000", "105345.181000", "105345.184000", "105345.186000", "105345.189000", "105345.192000", "105345.194000", "105345.197000", "105345.199000", "105345.202000", "105345.205000", "105345.207000", "105345.210000", "105345.212000", "105345.215000", "105345.217000", "105345.220000", "105345.223000", "105345.225000", "105425.175000", "105425.178000", "105425.181000", "105425.184000", "105425.186000", "105425.189000", "105425.191000", "105425.194000", "105425.197000", "105425.199000", "105425.202000", "105425.204000", "105425.207000", "105425.209000", "105425.212000", "105425.215000", "105425.217000", "105425.220000", "105425.223000", "105425.225000", "105505.176000", "105505.179000", "105505.181000", "105505.184000", "105505.186000", "105505.189000", "105505.192000", "105505.194000", "105505.197000", "105505.200000", "105505.202000", "105505.205000", "105505.207000", "105505.210000", "105505.212000", "105505.215000", "105505.218000", "105505.220000", "105505.223000", "105505.225000", "105532.087000", "105532.090000", "105532.093000", "105532.095000", "105532.098000", "105532.101000", "105532.104000", "105532.106000", "105532.109000", "105532.112000", "105532.114000", "105532.122000", "105532.126000", "105532.129000"],
      "InstanceNumber": [1, 2, 3, 4, 5, 6, 7, 8, 9, 10, 11, 12, 13, 14, 15, 16, 17, 18, 19, 20, 21, 22, 23, 24, 25, 26, 27, 28, 29, 30, 31, 32, 33, 34, 35, 36, 37, 38, 39, 40, 41, 42, 43, 44, 45, 46, 47, 48, 49, 50, 51, 52, 53, 54, 55, 56, 57, 58, 59, 60, 61, 62, 63, 64, 65, 66, 67, 68, 69, 70, 71, 72, 73, 74, 75, 76, 77, 78, 79, 80, 81, 82, 83, 84, 85, 86, 87, 88, 89, 90, 91, 92, 93, 94, 95, 96, 97, 98, 99, 100, 101, 102, 103, 104, 105, 106, 107, 108, 109, 110, 111, 112, 113, 114, 115, 116, 117, 118, 119, 120, 121, 122, 123, 124, 125, 126, 127, 128, 129, 130, 131, 132, 133, 134, 135, 136, 137, 138, 139, 140, 141, 142, 143, 144, 145, 146, 147, 148, 149, 150, 151, 152, 153, 154, 155, 156, 157, 158, 159, 160, 161, 162, 163, 164, 165, 166, 167, 168, 169, 170, 171, 172, 173, 174, 175, 176, 177, 178, 179, 180, 181, 182, 183, 184, 185, 186, 187, 188, 189, 190, 191, 192, 193, 194, 195, 196, 197, 198, 199, 200],
      "LargestImagePixelValue": [2266, 2267, 2269, 2261, 2268, 2267, 2264, 2266, 2267, 2261, 2266, 2260, 2261, 2266, 2264, 2268, 2267, 2266, 2265, 2266, 2265, 2264, 2262, 2263, 2267, 2262, 2263, 2268, 2260, 2263, 2265, 2270, 2264, 2264, 2258, 2261, 2260, 2259, 2265, 2264, 2260, 2265, 2264, 2266, 2261, 2264, 2269, 2261, 2265, 2261, 2264, 2265, 2263, 2257, 2264, 2258, 2263, 2264, 2262, 2267, 2261, 2255, 2269, 2259, 2264, 2260, 2271, 2266, 2261, 2263, 2261, 2260, 2258, 2266, 2264, 2263, 2266, 2262, 2262, 2262, 2260, 2261, 2259, 2261, 2259, 2261, 2262, 2267, 2259, 2261, 2260, 2261, 2262, 2263, 2265, 2264, 2262, 2263, 2260, 2260, 2261, 2258, 2261, 2261, 2263, 2260, 2260, 2264, 2261, 2263, 2260, 2263, 2258, 2259, 2265, 2263, 2260, 2264, 2264, 2265, 2268, 2268, 2262, 2260, 2253, 2259, 2257, 2260, 2261, 2261, 2264, 2261, 2256, 2263, 2261, 2261, 2262, 2260, 2265, 2265, 2263, 2263, 2263, 2262, 2262, 2263, 2261, 2261, 2268, 2267, 2267, 2262, 2265, 2271, 2266, 2267, 2266, 2261, 2266, 2266, 2268, 2266, 2267, 2263, 2264, 2260, 2264, 2263, 2263, 2257, 2260, 2262, 2264, 2263, 2264, 2266, 2266, 2264, 2264, 2261, 2256, 2259, 2258, 2261, 2262, 2264, 2259, 2258, 2264, 2264, 2262, 2262, 2264, 2261, 2261, 2264, 2259, 2258, 2265, 2263],
      "WindowCenter": [967.0, 967.0, 967.0, 967.0, 968.0, 967.0, 967.0, 968.0, 968.0, 967.0, 968.0, 967.0, 967.0, 967.0, 967.0, 967.0, 967.0, 967.0, 967.0, 967.0, 967.0, 967.0, 967.0, 967.0, 967.0, 967.0, 967.0, 967.0, 967.0, 967.0, 967.0, 967.0, 967.0, 967.0, 967.0, 967.0, 967.0, 967.0, 967.0, 967.0, 967.0, 967.0, 967.0, 967.0, 967.0, 967.0, 967.0, 967.0, 967.0, 967.0, 967.0, 967.0, 967.0, 967.0, 967.0, 967.0, 967.0, 967.0, 967.0, 967.0, 967.0, 967.0, 967.0, 967.0, 967.0, 967.0, 967.0, 967.0, 967.0, 967.0, 967.0, 967.0, 967.0, 967.0, 967.0, 967.0, 968.0, 967.0, 967.0, 967.0, 967.0, 967.0, 967.0, 968.0, 967.0, 968.0, 967.0, 967.0, 967.0, 967.0, 967.0, 967.0, 967.0, 967.0, 967.0, 967.0, 967.0, 967.0, 967.0, 967.0, 967.0, 967.0, 967.0, 967.0, 967.0, 967.0, 967.0, 967.0, 967.0, 967.0, 968.0, 967.0, 967.0, 967.0, 967.0, 967.0, 967.0, 967.0, 967.0, 967.0, 968.0, 967.0, 968.0, 967.0, 967.0, 967.0, 967.0, 967.0, 967.0, 967.0, 967.0, 967.0, 967.0, 968.0, 967.0, 967.0, 967.0, 967.0, 967.0, 967.0, 967.0, 967.0, 967.0, 967.0, 967.0, 967.0, 968.0, 967.0, 967.0, 968.0, 967.0, 967.0, 968.0, 967.0, 967.0, 967.0, 967.0, 967.0, 967.0, 968.0, 967.0, 967.0, 967.0, 967.0, 967.0, 968.0, 967.0, 967.0, 967.0, 967.0, 967.0, 967.0, 967.0, 968.0, 967.0, 967.0, 967.0, 968.0, 967.0, 967.0, 968.0, 967.0, 968.0, 967.0, 968.0, 967.0, 967.0, 967.0, 967.0, 968.0, 967.0, 967.0, 967.0, 967.0, 968.0, 967.0, 967.0, 967.0, 968.0, 967.0],
      "WindowWidth": [2284.0, 2284.0, 2285.0, 2285.0, 2284.0, 2284.0, 2285.0, 2284.0, 2284.0, 2285.0, 2284.0, 2284.0, 2284.0, 2284.0, 2284.0, 2284.0, 2284.0, 2284.0, 2284.0, 2283.0, 2284.0, 2283.0, 2283.0, 2284.0, 2284.0, 2283.0, 2284.0, 2283.0, 2283.0, 2283.0, 2284.0, 2284.0, 2283.0, 2283.0, 2283.0, 2283.0, 2283.0, 2283.0, 2283.0, 2284.0, 2283.0, 2282.0, 2283.0, 2283.0, 2282.0, 2283.0, 2283.0, 2282.0, 2282.0, 2283.0, 2282.0, 2282.0, 2282.0, 2282.0, 2282.0, 2281.0, 2281.0, 2282.0, 2282.0, 2281.0, 2281.0, 2282.0, 2282.0, 2281.0, 2282.0, 2282.0, 2282.0, 2282.0, 2282.0, 2282.0, 2282.0, 2282.0, 2282.0, 2281.0, 2281.0, 2282.0, 2282.0, 2281.0, 2282.0, 2282.0, 2281.0, 2282.0, 2282.0, 2282.0, 2282.0, 2282.0, 2282.0, 2281.0, 2282.0, 2282.0, 2282.0, 2282.0, 2282.0, 2282.0, 2282.0, 2282.0, 2282.0, 2281.0, 2282.0, 2281.0, 2282.0, 2282.0, 2282.0, 2282.0, 2282.0, 2281.0, 2282.0, 2282.0, 2281.0, 2281.0, 2282.0, 2282.0, 2282.0, 2281.0, 2282.0, 2282.0, 2282.0, 2281.0, 2281.0, 2282.0, 2282.0, 2281.0, 2282.0, 2282.0, 2281.0, 2281.0, 2281.0, 2281.0, 2281.0, 2282.0, 2281.0, 2281.0, 2281.0, 2282.0, 2281.0, 2281.0, 2282.0, 2281.0, 2281.0, 2281.0, 2281.0, 2281.0, 2281.0, 2281.0, 2281.0, 2282.0, 2282.0, 2281.0, 2282.0, 2282.0, 2281.0, 2281.0, 2282.0, 2281.0, 2281.0, 2281.0, 2281.0, 2281.0, 2282.0, 2282.0, 2281.0, 2282.0, 2281.0, 2281.0, 2281.0, 2282.0, 2281.0, 2281.0, 2281.0, 2281.0, 2281.0, 2281.0, 2281.0, 2282.0, 2281.0, 2281.0, 2282.0, 2282.0, 2282.0, 2281.0, 2282.0, 2282.0, 2282.0, 2281.0, 2282.0, 2281.0, 2281.0, 2282.0, 2282.0, 2282.0, 2282.0, 2282.0, 2281.0, 2282.0, 2282.0, 2281.0, 2281.0, 2281.0, 2282.0, 2281.0]
    },
    "slices": {}
  }
}