{
  "AcquisitionMatrixPE": 80,
  "AcquisitionNumber": 1,
  "AcquisitionTime": "11:02:29.487500",
  "BandwidthPerPixelPhaseEncode": 25,
  "BaseResolution": 80,
  "BodyPartExamined": "BRAIN",
  "CoilCombinationMethod": "Sum of Squares",
  "ConsistencyInfo": "N4_VE11C_LATEST_20160120",
  "ConversionSoftware": "dcm2niix",
  "ConversionSoftwareVersion": "v1.0.20220720",
  "DerivedVendorReportedEchoSpacing": 0.0005,
  "DeviceSerialNumber": "66112",
  "DwellTime": 2.7e-06,
  "EchoTime": 0.03,
  "EchoTrainLength": 80,
  "EffectiveEchoSpacing": 0.0005,
  "FlipAngle": 10,
  "HeudiconvVersion": "0.13.1",
  "ImageOrientationPatientDICOM": [0.989513, 0.144246, 0.00762044, -0.139595, 0.941389, 0.307083],
  "ImageOrientationText": "Tra>Cor(17.8)>Sag(-2.1)",
  "ImageType": [
    "ORIGINAL",
    "PRIMARY",
    "M",
    "ND",
    "NORM",
    "MOSAIC"
],
  "ImagingFrequency": 123.252,
  "InPlanePhaseEncodingDirectionDICOM": "COL",
  "InstitutionAddress": "Maynard 3,Hanover,NH,US,03755",
  "InstitutionName": "Dartmouth College - PBS",
  "InstitutionalDepartmentName": "Department",
  "MRAcquisitionType": "2D",
  "MagneticFieldStrength": 3,
  "Manufacturer": "Siemens",
  "ManufacturersModelName": "Prisma",
  "MatrixCoilMode": "SENSE",
  "Modality": "MR",
  "NonlinearGradientCorrection": false,
  "PartialFourier": 1,
  "PatientPosition": "HFS",
  "PercentPhaseFOV": 100,
  "PercentSampling": 100,
  "PhaseEncodingDirection": "j-",
  "PhaseEncodingSteps": 80,
  "PhaseResolution": 1,
  "PixelBandwidth": 2315,
  "ProcedureStepDescription": "dbic^QA",
  "ProtocolName": "func-bold_fa-10",
  "PulseSequenceDetails": "%SiemensSeq%\\ep2d_bold",
  "ReceiveCoilActiveElements": "HEA;HEP",
  "ReceiveCoilName": "Head_32",
  "ReconMatrixPE": 80,
  "RepetitionTime": 2,
  "SAR": 0.0100073,
  "ScanOptions": "FS",
  "ScanningSequence": "EP",
  "SequenceName": "*epfid2d1_80",
  "SequenceVariant": "SK",
  "SeriesDescription": "func-bold_fa-10",
  "SeriesNumber": 10,
  "ShimSetting": [4139, -7696, -7523, 252, -54, -145, -15, 50],
  "SliceThickness": 3.5,
  "SliceTiming": [0.99, 0, 1.055, 0.065, 1.12, 0.13, 1.1875, 0.1975, 1.2525, 0.2625, 1.32, 0.33, 1.385, 0.395, 1.45, 0.46, 1.5175, 0.5275, 1.5825, 0.5925, 1.65, 0.66, 1.715, 0.725, 1.78, 0.79, 1.8475, 0.8575, 1.9125, 0.9225],
  "SoftwareVersions": "syngo MR E11",
  "SpacingBetweenSlices": 3.99,
  "StationName": "AWP66112",
  "TotalReadoutTime": 0.0395,
  "TxRefAmp": 219.61,
  "dcmmeta_affine": [
    [-2.9685378074645996, -0.4187859892845154, -0.14811532199382782, 138.2198944091797],
    [-0.432736873626709, 2.8241665363311768, 1.2166571617126465, -109.71781158447266],
    [0.022861318662762642, -0.92125004529953, 3.7970919609069824, -18.528562545776367],
    [0.0, 0.0, 0.0, 1.0]
],
  "dcmmeta_reorient_transform": [
    [0.0, -1.0, 0.0, 79.0],
    [1.0, 0.0, 0.0, 0.0],
    [0.0, 0.0, 1.0, 0.0],
    [0.0, 0.0, 0.0, 1.0]
],
  "dcmmeta_shape": [80, 80, 30, 200],
  "dcmmeta_slice_dim": 2,
  "dcmmeta_version": 0.6,
  "global": {
    "const": {
      "AccessionNumber": "qa",
      "AcquisitionMatrix": [80, 0, 0, 80],
      "AngioFlag": "N",
      "BitsAllocated": 16,
      "BitsStored": 12,
      "BodyPartExamined": "BRAIN",
      "Columns": 480,
      "EchoNumbers": 1,
      "EchoTime": 30.0,
      "EchoTrainLength": 80,
      "FlipAngle": 10.0,
      "HighBit": 11,
      "ImageOrientationPatient": [0.98951257133271, 0.14424562409893, 0.00762043980558, -0.1395953277496, 0.9413888451483, 0.30708335464631],
      "ImagePositionPatient": [-615.0861475442, -764.77202934482, -280.12959394384],
      "ImageType": [
        "ORIGINAL",
        "PRIMARY",
        "M",
        "ND",
        "NORM",
        "MOSAIC"
],
      "ImagedNucleus": "1H",
      "ImagingFrequency": 123.252355,
      "InPlanePhaseEncodingDirection": "COL",
      "MRAcquisitionType": "2D",
      "MagneticFieldStrength": 3.0,
      "Manufacturer": "SIEMENS",
      "ManufacturerModelName": "Prisma",
      "Modality": "MR",
      "NumberOfAverages": 1.0,
      "NumberOfPhaseEncodingSteps": 80,
      "PercentPhaseFieldOfView": 100.0,
      "PercentSampling": 100.0,
      "PerformedProcedureStepStartTime": "104035.125000",
      "PhotometricInterpretation": "MONOCHROME2",
      "PixelBandwidth": 2315.0,
      "PixelRepresentation": 0,
      "PixelSpacing": [3.0, 3.0],
      "ProtocolName": "func-bold_fa-10",
      "RepetitionTime": 2000.0,
      "Rows": 480,
      "SAR": 0.01000733659446,
      "SamplesPerPixel": 1,
      "ScanOptions": "FS",
      "ScanningSequence": "EP",
      "SequenceName": "*epfid2d1_80",
      "SequenceVariant": "SK",
      "SeriesDescription": "func-bold_fa-10",
      "SeriesNumber": 10,
      "SeriesTime": "110325.317000",
      "SliceLocation": -56.219573810628,
      "SliceThickness": 3.5,
      "SmallestImagePixelValue": 0,
      "SoftwareVersions": "syngo MR E11",
      "SpacingBetweenSlices": 3.9899999776541,
      "SpecificCharacterSet": "ISO_IR 100",
      "StudyID": "31",
      "StudyTime": "104035.096000",
      "TransmitCoilName": "Body",
      "VariableFlipAngleFlag": "N",
      "WindowCenterWidthExplanation": "Algo1",
      "dBdt": 0.0},
    "slices": {}
  },
  "time": {
    "samples": {
      "AcquisitionNumber": [1, 2, 3, 4, 5, 6, 7, 8, 9, 10, 11, 12, 13, 14, 15, 16, 17, 18, 19, 20, 21, 22, 23, 24, 25, 26, 27, 28, 29, 30, 31, 32, 33, 34, 35, 36, 37, 38, 39, 40, 41, 42, 43, 44, 45, 46, 47, 48, 49, 50, 51, 52, 53, 54, 55, 56, 57, 58, 59, 60, 61, 62, 63, 64, 65, 66, 67, 68, 69, 70, 71, 72, 73, 74, 75, 76, 77, 78, 79, 80, 81, 82, 83, 84, 85, 86, 87, 88, 89, 90, 91, 92, 93, 94, 95, 96, 97, 98, 99, 100, 101, 102, 103, 104, 105, 106, 107, 108, 109, 110, 111, 112, 113, 114, 115, 116, 117, 118, 119, 120, 121, 122, 123, 124, 125, 126, 127, 128, 129, 130, 131, 132, 133, 134, 135, 136, 137, 138, 139, 140, 141, 142, 143, 144, 145, 146, 147, 148, 149, 150, 151, 152, 153, 154, 155, 156, 157, 158, 159, 160, 161, 162, 163, 164, 165, 166, 167, 168, 169, 170, 171, 172, 173, 174, 175, 176, 177, 178, 179, 180, 181, 182, 183, 184, 185, 186, 187, 188, 189, 190, 191, 192, 193, 194, 195, 196, 197, 198, 199, 200],
      "AcquisitionTime": ["110229.487500", "110231.487500", "110233.487500", "110235.487500", "110237.487500", "110239.487500", "110241.487500", "110243.487500", "110245.487500", "110247.487500", "110249.487500", "110251.487500", "110253.487500", "110255.487500", "110257.487500", "110259.487500", "110301.487500", "110303.487500", "110305.487500", "110307.487500", "110309.487500", "110311.487500", "110313.487500", "110315.487500", "110317.487500", "110319.487500", "110321.487500", "110323.487500", "110325.487500", "110327.487500", "110329.487500", "110331.487500", "110333.487500", "110335.487500", "110337.487500", "110339.487500", "110341.487500", "110343.487500", "110345.487500", "110347.487500", "110349.487500", "110351.487500", "110353.487500", "110355.487500", "110357.487500", "110359.487500", "110401.487500", "110403.487500", "110405.487500", "110407.487500", "110409.487500", "110411.487500", "110413.487500", "110415.487500", "110417.487500", "110419.487500", "110421.487500", "110423.487500", "110425.487500", "110427.487500", "110429.487500", "110431.487500", "110433.487500", "110435.487500", "110437.487500", "110439.487500", "110441.487500", "110443.487500", "110445.487500", "110447.487500", "110449.487500", "110451.487500", "110453.487500", "110455.487500", "110457.487500", "110459.487500", "110501.487500", "110503.487500", "110505.487500", "110507.487500", "110509.487500", "110511.487500", "110513.487500", "110515.487500", "110517.487500", "110519.487500", "110521.487500", "110523.487500", "110525.487500", "110527.487500", "110529.487500", "110531.487500", "110533.487500", "110535.487500", "110537.487500", "110539.487500", "110541.487500", "110543.487500", "110545.487500", "110547.487500", "110549.487500", "110551.487500", "110553.487500", "110555.487500", "110557.487500", "110559.487500", "110601.487500", "110603.487500", "110605.487500", "110607.487500", "110609.487500", "110611.487500", "110613.487500", "110615.487500", "110617.487500", "110619.487500", "110621.487500", "110623.487500", "110625.487500", "110627.487500", "110629.487500", "110631.487500", "110633.487500", "110635.487500", "110637.487500", "110639.487500", "110641.487500", "110643.487500", "110645.487500", "110647.487500", "110649.487500", "110651.487500", "110653.487500", "110655.487500", "110657.487500", "110659.487500", "110701.487500", "110703.487500", "110705.487500", "110707.487500", "110709.487500", "110711.487500", "110713.487500", "110715.487500", "110717.487500", "110719.487500", "110721.487500", "110723.487500", "110725.487500", "110727.487500", "110729.487500", "110731.487500", "110733.487500", "110735.487500", "110737.487500", "110739.487500", "110741.487500", "110743.487500", "110745.487500", "110747.487500", "110749.487500", "110751.487500", "110753.487500", "110755.487500", "110757.487500", "110759.487500", "110801.487500", "110803.487500", "110805.487500", "110807.487500", "110809.487500", "110811.487500", "110813.487500", "110815.487500", "110817.487500", "110819.487500", "110821.487500", "110823.487500", "110825.487500", "110827.487500", "110829.487500", "110831.487500", "110833.487500", "110835.487500", "110837.487500", "110839.487500", "110841.487500", "110843.487500", "110845.487500", "110847.487500", "110849.487500", "110851.487500", "110853.487500", "110855.487500", "110857.487500", "110859.487500", "110901.487500", "110903.487500", "110905.487500", "110907.487500"],
      "ContentTime": ["110325.320000", "110325.324000", "110325.326000", "110325.329000", "110325.331000", "110325.334000", "110325.337000", "110325.339000", "110325.342000", "110325.344000", "110325.347000", "110325.349000", "110325.352000", "110325.355000", "110325.357000", "110325.360000", "110325.362000", "110325.365000", "110325.367000", "110325.370000", "110325.372000", "110325.375000", "110325.377000", "110325.380000", "110325.382000", "110325.385000", "110325.387000", "110325.390000", "110405.315000", "110405.318000", "110405.321000", "110405.323000", "110405.326000", "110405.329000", "110405.331000", "110405.334000", "110405.336000", "110405.339000", "110405.341000", "110405.352000", "110405.354000", "110405.357000", "110405.360000", "110405.362000", "110405.365000", "110405.367000", "110405.370000", "110405.373000", "110445.315000", "110445.318000", "110445.321000", "110445.323000", "110445.326000", "110445.329000", "110445.331000", "110445.334000", "110445.336000", "110445.339000", "110445.341000", "110445.344000", "110445.346000", "110445.349000", "110445.352000", "110445.354000", "110445.357000", "110445.359000", "110445.369000", "110445.372000", "110525.315000", "110525.318000", "110525.321000", "110525.324000", "110525.326000", "110525.329000", "110525.331000", "110525.334000", "110525.336000", "110525.339000", "110525.341000", "110525.344000", "110525.347000", "110525.349000", "110525.352000", "110525.354000", "110525.357000", "110525.359000", "110525.362000", "110525.365000", "110605.316000", "110605.318000", "110605.321000", "110605.324000", "110605.326000", "110605.329000", "110605.331000", "110605.334000", "110605.336000", "110605.339000", "110605.341000", "110605.344000", "110605.346000", "110605.349000", "110605.352000", "110605.354000", "110605.357000", "110605.359000", "110605.362000", "110605.364000", "110645.315000", "110645.318000", "110645.321000", "110645.323000", "110645.326000", "110645.329000", "110645.331000", "110645.334000", "110645.336000", "110645.339000", "110645.341000", "110645.344000", "110645.347000", "110645.349000", "110645.352000", "110645.354000", "110645.357000", "110645.359000", "110645.362000", "110645.364000", "110725.316000", "110725.318000", "110725.321000", "110725.323000", "110725.326000", "110725.329000", "110725.331000", "110725.334000", "110725.336000", "110725.339000", "110725.341000", "110725.344000", "110725.346000", "110725.349000", "110725.352000", "110725.354000", "110725.357000", "110725.359000", "110725.362000", "110725.364000", "110805.315000", "110805.318000", "110805.321000", "110805.323000", "110805.326000", "110805.329000", "110805.331000", "110805.334000", "110805.336000", "110805.339000", "110805.341000", "110805.344000", "110805.346000", "110805.349000", "110805.352000", "110805.354000", "110805.357000", "110805.360000", "110805.362000", "110805.365000", "110845.316000", "110845.318000", "110845.321000", "110845.323000", "110845.326000", "110845.329000", "110845.331000", "110845.334000", "110845.336000", "110845.339000", "110845.341000", "110845.344000", "110845.346000", "110845.349000", "110845.352000", "110845.354000", "110845.357000", "110845.359000", "110845.362000", "110845.365000", "110908.665000", "110908.668000", "110908.671000", "110908.674000", "110908.676000", "110908.679000", "110908.682000", "110908.684000", "110908.687000", "110908.689000", "110908.692000", "110908.694000"],
      "InstanceCreationTime": ["110325.320000", "110325.324000", "110325.326000", "110325.329000", "110325.331000", "110325.334000", "110325.337000", "110325.339000", "110325.342000", "110325.344000", "110325.347000", "110325.349000", "110325.352000", "110325.355000", "110325.357000", "110325.360000", "110325.362000", "110325.365000", "110325.367000", "110325.370000", "110325.372000", "110325.375000", "110325.377000", "110325.380000", "110325.382000", "110325.385000", "110325.387000", "110325.390000", "110405.315000", "110405.318000", "110405.321000", "110405.323000", "110405.326000", "110405.329000", "110405.331000", "110405.334000", "110405.336000", "110405.339000", "110405.341000", "110405.352000", "110405.354000", "110405.357000", "110405.360000", "110405.362000", "110405.365000", "110405.367000", "110405.370000", "110405.373000", "110445.315000", "110445.318000", "110445.321000", "110445.323000", "110445.326000", "110445.329000", "110445.331000", "110445.334000", "110445.336000", "110445.339000", "110445.341000", "110445.344000", "110445.346000", "110445.349000", "110445.352000", "110445.354000", "110445.357000", "110445.359000", "110445.369000", "110445.372000", "110525.315000", "110525.318000", "110525.321000", "110525.324000", "110525.326000", "110525.329000", "110525.331000", "110525.334000", "110525.336000", "110525.339000", "110525.341000", "110525.344000", "110525.347000", "110525.349000", "110525.352000", "110525.354000", "110525.357000", "110525.359000", "110525.362000", "110525.365000", "110605.316000", "110605.318000", "110605.321000", "110605.324000", "110605.326000", "110605.329000", "110605.331000", "110605.334000", "110605.336000", "110605.339000", "110605.341000", "110605.344000", "110605.346000", "110605.349000", "110605.352000", "110605.354000", "110605.357000", "110605.359000", "110605.362000", "110605.364000", "110645.315000", "110645.318000", "110645.321000", "110645.323000", "110645.326000", "110645.329000", "110645.331000", "110645.334000", "110645.336000", "110645.339000", "110645.341000", "110645.344000", "110645.347000", "110645.349000", "110645.352000", "110645.354000", "110645.357000", "110645.359000", "110645.362000", "110645.364000", "110725.316000", "110725.318000", "110725.321000", "110725.323000", "110725.326000", "110725.329000", "110725.331000", "110725.334000", "110725.336000", "110725.339000", "110725.341000", "110725.344000", "110725.346000", "110725.349000", "110725.352000", "110725.354000", "110725.357000", "110725.359000", "110725.362000", "110725.364000", "110805.315000", "110805.318000", "110805.321000", "110805.323000", "110805.326000", "110805.329000", "110805.331000", "110805.334000", "110805.336000", "110805.339000", "110805.341000", "110805.344000", "110805.346000", "110805.349000", "110805.352000", "110805.354000", "110805.357000", "110805.360000", "110805.362000", "110805.365000", "110845.316000", "110845.318000", "110845.321000", "110845.323000", "110845.326000", "110845.329000", "110845.331000", "110845.334000", "110845.336000", "110845.339000", "110845.341000", "110845.344000", "110845.346000", "110845.349000", "110845.352000", "110845.354000", "110845.357000", "110845.359000", "110845.362000", "110845.365000", "110908.665000", "110908.668000", "110908.671000", "110908.674000", "110908.676000", "110908.679000", "110908.682000", "110908.684000", "110908.687000", "110908.689000", "110908.692000", "110908.694000"],
      "InstanceNumber": [1, 2, 3, 4, 5, 6, 7, 8, 9, 10, 11, 12, 13, 14, 15, 16, 17, 18, 19, 20, 21, 22, 23, 24, 25, 26, 27, 28, 29, 30, 31, 32, 33, 34, 35, 36, 37, 38, 39, 40, 41, 42, 43, 44, 45, 46, 47, 48, 49, 50, 51, 52, 53, 54, 55, 56, 57, 58, 59, 60, 61, 62, 63, 64, 65, 66, 67, 68, 69, 70, 71, 72, 73, 74, 75, 76, 77, 78, 79, 80, 81, 82, 83, 84, 85, 86, 87, 88, 89, 90, 91, 92, 93, 94, 95, 96, 97, 98, 99, 100, 101, 102, 103, 104, 105, 106, 107, 108, 109, 110, 111, 112, 113, 114, 115, 116, 117, 118, 119, 120, 121, 122, 123, 124, 125, 126, 127, 128, 129, 130, 131, 132, 133, 134, 135, 136, 137, 138, 139, 140, 141, 142, 143, 144, 145, 146, 147, 148, 149, 150, 151, 152, 153, 154, 155, 156, 157, 158, 159, 160, 161, 162, 163, 164, 165, 166, 167, 168, 169, 170, 171, 172, 173, 174, 175, 176, 177, 178, 179, 180, 181, 182, 183, 184, 185, 186, 187, 188, 189, 190, 191, 192, 193, 194, 195, 196, 197, 198, 199, 200],
      "LargestImagePixelValue": [395, 396, 395, 394, 396, 397, 395, 394, 394, 395, 394, 395, 395, 397, 395, 393, 394, 395, 393, 395, 392, 394, 396, 395, 395, 397, 393, 393, 395, 393, 393, 393, 394, 396, 395, 394, 394, 395, 400, 394, 394, 394, 392, 394, 395, 393, 394, 394, 394, 394, 394, 394, 394, 393, 394, 394, 394, 394, 395, 394, 394, 398, 393, 393, 395, 395, 393, 395, 396, 395, 394, 394, 394, 395, 393, 398, 393, 400, 394, 394, 399, 394, 395, 396, 392, 394, 394, 394, 393, 394, 394, 393, 392, 394, 394, 394, 395, 394, 395, 395, 393, 394, 394, 395, 393, 393, 392, 394, 394, 393, 392, 395, 394, 393, 393, 394, 392, 393, 393, 393, 393, 394, 393, 394, 392, 393, 395, 393, 394, 394, 392, 393, 394, 393, 392, 394, 393, 393, 395, 393, 394, 393, 393, 394, 394, 393, 393, 393, 394, 395, 393, 393, 396, 395, 395, 397, 399, 398, 398, 396, 398, 399, 399, 398, 394, 398, 394, 393, 394, 393, 394, 395, 393, 394, 393, 392, 393, 394, 393, 395, 394, 394, 394, 391, 394, 395, 393, 395, 393, 395, 394, 397, 392, 394, 393, 395, 393, 393, 393, 392],
      "WindowCenter": [307.0, 306.0, 307.0, 306.0, 307.0, 307.0, 306.0, 307.0, 306.0, 306.0, 306.0, 307.0, 306.0, 306.0, 306.0, 306.0, 307.0, 306.0, 306.0, 306.0, 306.0, 306.0, 307.0, 306.0, 306.0, 306.0, 307.0, 306.0, 307.0, 306.0, 307.0, 307.0, 306.0, 306.0, 306.0, 306.0, 306.0, 306.0, 307.0, 306.0, 307.0, 306.0, 306.0, 307.0, 306.0, 306.0, 307.0, 306.0, 307.0, 307.0, 306.0, 306.0, 307.0, 306.0, 306.0, 306.0, 306.0, 306.0, 307.0, 306.0, 306.0, 306.0, 306.0, 306.0, 306.0, 306.0, 306.0, 306.0, 306.0, 306.0, 306.0, 306.0, 306.0, 306.0, 307.0, 307.0, 308.0, 306.0, 306.0, 306.0, 307.0, 306.0, 306.0, 306.0, 306.0, 306.0, 306.0, 306.0, 306.0, 306.0, 306.0, 306.0, 306.0, 306.0, 306.0, 306.0, 306.0, 306.0, 306.0, 306.0, 306.0, 306.0, 306.0, 306.0, 306.0, 306.0, 306.0, 306.0, 306.0, 306.0, 306.0, 306.0, 306.0, 306.0, 306.0, 306.0, 306.0, 306.0, 307.0, 306.0, 306.0, 306.0, 306.0, 305.0, 306.0, 306.0, 306.0, 306.0, 306.0, 306.0, 306.0, 306.0, 306.0, 306.0, 306.0, 306.0, 307.0, 306.0, 306.0, 306.0, 307.0, 306.0, 305.0, 306.0, 306.0, 306.0, 306.0, 306.0, 306.0, 306.0, 306.0, 306.0, 305.0, 305.0, 307.0, 308.0, 308.0, 308.0, 308.0, 308.0, 308.0, 308.0, 308.0, 308.0, 306.0, 306.0, 306.0, 306.0, 305.0, 305.0, 306.0, 306.0, 306.0, 305.0, 305.0, 305.0, 305.0, 305.0, 305.0, 305.0, 306.0, 306.0, 306.0, 306.0, 306.0, 305.0, 305.0, 305.0, 305.0, 306.0, 307.0, 306.0, 306.0, 305.0, 306.0, 306.0, 306.0, 306.0, 306.0, 306.0],
      "WindowWidth": [663.0, 662.0, 663.0, 662.0, 663.0, 663.0, 662.0, 663.0, 662.0, 662.0, 663.0, 663.0, 662.0, 662.0, 662.0, 663.0, 664.0, 662.0, 663.0, 662.0, 662.0, 663.0, 664.0, 662.0, 662.0, 663.0, 663.0, 663.0, 664.0, 663.0, 663.0, 663.0, 663.0, 662.0, 662.0, 662.0, 662.0, 662.0, 663.0, 662.0, 663.0, 662.0, 662.0, 663.0, 662.0, 662.0, 664.0, 662.0, 663.0, 663.0, 662.0, 662.0, 663.0, 662.0, 662.0, 662.0, 662.0, 662.0, 663.0, 662.0, 662.0, 662.0, 662.0, 662.0, 662.0, 662.0, 662.0, 662.0, 662.0, 662.0, 662.0, 662.0, 662.0, 662.0, 664.0, 664.0, 666.0, 663.0, 662.0, 662.0, 664.0, 662.0, 662.0, 662.0, 662.0, 662.0, 662.0, 662.0, 662.0, 662.0, 662.0, 662.0, 662.0, 662.0, 662.0, 662.0, 662.0, 662.0, 662.0, 662.0, 662.0, 662.0, 662.0, 662.0, 662.0, 662.0, 662.0, 662.0, 662.0, 662.0, 662.0, 662.0, 662.0, 662.0, 662.0, 662.0, 661.0, 662.0, 664.0, 662.0, 662.0, 662.0, 661.0, 661.0, 662.0, 661.0, 661.0, 661.0, 661.0, 662.0, 661.0, 662.0, 662.0, 661.0, 661.0, 661.0, 664.0, 662.0, 661.0, 661.0, 664.0, 662.0, 661.0, 661.0, 662.0, 661.0, 662.0, 661.0, 662.0, 661.0, 661.0, 661.0, 661.0, 661.0, 664.0, 666.0, 666.0, 666.0, 666.0, 666.0, 666.0, 666.0, 666.0, 666.0, 661.0, 662.0, 661.0, 661.0, 661.0, 661.0, 661.0, 661.0, 661.0, 661.0, 661.0, 661.0, 661.0, 661.0, 661.0, 661.0, 662.0, 661.0, 661.0, 662.0, 661.0, 661.0, 661.0, 661.0, 661.0, 661.0, 663.0, 662.0, 661.0, 661.0, 661.0, 661.0, 661.0, 661.0, 661.0, 661.0]
    },
    "slices": {}
  }
}