{
  "AcquisitionMatrixPE": 80,
  "AcquisitionNumber": 1,
  "AcquisitionTime": "10:55:42.502500",
  "BandwidthPerPixelPhaseEncode": 25,
  "BaseResolution": 80,
  "BodyPartExamined": "BRAIN",
  "CoilCombinationMethod": "Sum of Squares",
  "ConsistencyInfo": "N4_VE11C_LATEST_20160120",
  "ConversionSoftware": "dcm2niix",
  "ConversionSoftwareVersion": "v1.0.20220720",
  "DerivedVendorReportedEchoSpacing": 0.0005,
  "DeviceSerialNumber": "66112",
  "DwellTime": 2.7e-06,
  "EchoTime": 0.03,
  "EchoTrainLength": 80,
  "EffectiveEchoSpacing": 0.0005,
  "FlipAngle": 77,
  "HeudiconvVersion": "0.13.1",
  "ImageOrientationPatientDICOM": [0.989513, 0.144246, 0.00762044, -0.139595, 0.941389, 0.307083],
  "ImageOrientationText": "Tra>Cor(17.8)>Sag(-2.1)",
  "ImageType": [
    "ORIGINAL",
    "PRIMARY",
    "M",
    "ND",
    "NORM",
    "MOSAIC"
],
  "ImagingFrequency": 123.252,
  "InPlanePhaseEncodingDirectionDICOM": "COL",
  "InstitutionAddress": "Maynard 3,Hanover,NH,US,03755",
  "InstitutionName": "Dartmouth College - PBS",
  "InstitutionalDepartmentName": "Department",
  "MRAcquisitionType": "2D",
  "MagneticFieldStrength": 3,
  "Manufacturer": "Siemens",
  "ManufacturersModelName": "Prisma",
  "MatrixCoilMode": "SENSE",
  "Modality": "MR",
  "NonlinearGradientCorrection": false,
  "PartialFourier": 1,
  "PatientPosition": "HFS",
  "PercentPhaseFOV": 100,
  "PercentSampling": 100,
  "PhaseEncodingDirection": "j-",
  "PhaseEncodingSteps": 80,
  "PhaseResolution": 1,
  "PixelBandwidth": 2315,
  "ProcedureStepDescription": "dbic^QA",
  "ProtocolName": "func-bold_fa-77",
  "PulseSequenceDetails": "%SiemensSeq%\\ep2d_bold",
  "ReceiveCoilActiveElements": "HEA;HEP",
  "ReceiveCoilName": "Head_32",
  "ReconMatrixPE": 80,
  "RepetitionTime": 2,
  "SAR": 0.0373061,
  "ScanOptions": "FS",
  "ScanningSequence": "EP",
  "SequenceName": "*epfid2d1_80",
  "SequenceVariant": "SK",
  "SeriesDescription": "func-bold_fa-77",
  "SeriesNumber": 8,
  "ShimSetting": [4139, -7696, -7523, 252, -54, -145, -15, 50],
  "SliceThickness": 3.5,
  "SliceTiming": [0.99, 0, 1.0575, 0.0675, 1.1225, 0.1325, 1.19, 0.2, 1.255, 0.265, 1.32, 0.33, 1.3875, 0.3975, 1.4525, 0.4625, 1.52, 0.53, 1.585, 0.595, 1.65, 0.66, 1.7175, 0.7275, 1.7825, 0.7925, 1.85, 0.86, 1.915, 0.925],
  "SoftwareVersions": "syngo MR E11",
  "SpacingBetweenSlices": 3.99,
  "StationName": "AWP66112",
  "TotalReadoutTime": 0.0395,
  "TxRefAmp": 219.61,
  "dcmmeta_affine": [
    [-2.9685378074645996, -0.4187859892845154, -0.14811532199382782, 138.2198944091797],
    [-0.432736873626709, 2.8241665363311768, 1.2166571617126465, -109.71781158447266],
    [0.022861318662762642, -0.92125004529953, 3.7970919609069824, -18.528562545776367],
    [0.0, 0.0, 0.0, 1.0]
],
  "dcmmeta_reorient_transform": [
    [0.0, -1.0, 0.0, 79.0],
    [1.0, 0.0, 0.0, 0.0],
    [0.0, 0.0, 1.0, 0.0],
    [0.0, 0.0, 0.0, 1.0]
],
  "dcmmeta_shape": [80, 80, 30, 200],
  "dcmmeta_slice_dim": 2,
  "dcmmeta_version": 0.6,
  "global": {
    "const": {
      "AccessionNumber": "qa",
      "AcquisitionMatrix": [80, 0, 0, 80],
      "AngioFlag": "N",
      "BitsAllocated": 16,
      "BitsStored": 12,
      "BodyPartExamined": "BRAIN",
      "Columns": 480,
      "EchoNumbers": 1,
      "EchoTime": 30.0,
      "EchoTrainLength": 80,
      "FlipAngle": 77.0,
      "HighBit": 11,
      "ImageOrientationPatient": [0.98951257133271, 0.14424562409893, 0.00762043980558, -0.1395953277496, 0.9413888451483, 0.30708335464631],
      "ImagePositionPatient": [-615.0861475442, -764.77202934482, -280.12959394384],
      "ImageType": [
        "ORIGINAL",
        "PRIMARY",
        "M",
        "ND",
        "NORM",
        "MOSAIC"
],
      "ImagedNucleus": "1H",
      "ImagingFrequency": 123.252352,
      "InPlanePhaseEncodingDirection": "COL",
      "MRAcquisitionType": "2D",
      "MagneticFieldStrength": 3.0,
      "Manufacturer": "SIEMENS",
      "ManufacturerModelName": "Prisma",
      "Modality": "MR",
      "NumberOfAverages": 1.0,
      "NumberOfPhaseEncodingSteps": 80,
      "PercentPhaseFieldOfView": 100.0,
      "PercentSampling": 100.0,
      "PerformedProcedureStepStartTime": "104035.125000",
      "PhotometricInterpretation": "MONOCHROME2",
      "PixelBandwidth": 2315.0,
      "PixelRepresentation": 0,
      "PixelSpacing": [3.0, 3.0],
      "ProtocolName": "func-bold_fa-77",
      "RepetitionTime": 2000.0,
      "Rows": 480,
      "SAR": 0.03730612996837,
      "SamplesPerPixel": 1,
      "ScanOptions": "FS",
      "ScanningSequence": "EP",
      "SequenceName": "*epfid2d1_80",
      "SequenceVariant": "SK",
      "SeriesDescription": "func-bold_fa-77",
      "SeriesNumber": 8,
      "SeriesTime": "105625.247000",
      "SliceLocation": -56.219573810628,
      "SliceThickness": 3.5,
      "SmallestImagePixelValue": 0,
      "SoftwareVersions": "syngo MR E11",
      "SpacingBetweenSlices": 3.9899999776541,
      "SpecificCharacterSet": "ISO_IR 100",
      "StudyID": "31",
      "StudyTime": "104035.096000",
      "TransmitCoilName": "Body",
      "VariableFlipAngleFlag": "N",
      "WindowCenterWidthExplanation": "Algo1",
      "dBdt": 0.0},
    "slices": {}
  },
  "time": {
    "samples": {
      "AcquisitionNumber": [1, 2, 3, 4, 5, 6, 7, 8, 9, 10, 11, 12, 13, 14, 15, 16, 17, 18, 19, 20, 21, 22, 23, 24, 25, 26, 27, 28, 29, 30, 31, 32, 33, 34, 35, 36, 37, 38, 39, 40, 41, 42, 43, 44, 45, 46, 47, 48, 49, 50, 51, 52, 53, 54, 55, 56, 57, 58, 59, 60, 61, 62, 63, 64, 65, 66, 67, 68, 69, 70, 71, 72, 73, 74, 75, 76, 77, 78, 79, 80, 81, 82, 83, 84, 85, 86, 87, 88, 89, 90, 91, 92, 93, 94, 95, 96, 97, 98, 99, 100, 101, 102, 103, 104, 105, 106, 107, 108, 109, 110, 111, 112, 113, 114, 115, 116, 117, 118, 119, 120, 121, 122, 123, 124, 125, 126, 127, 128, 129, 130, 131, 132, 133, 134, 135, 136, 137, 138, 139, 140, 141, 142, 143, 144, 145, 146, 147, 148, 149, 150, 151, 152, 153, 154, 155, 156, 157, 158, 159, 160, 161, 162, 163, 164, 165, 166, 167, 168, 169, 170, 171, 172, 173, 174, 175, 176, 177, 178, 179, 180, 181, 182, 183, 184, 185, 186, 187, 188, 189, 190, 191, 192, 193, 194, 195, 196, 197, 198, 199, 200],
      "AcquisitionTime": ["105542.502500", "105544.502500", "105546.502500", "105548.502500", "105550.502500", "105552.502500", "105554.502500", "105556.502500", "105558.502500", "105600.502500", "105602.502500", "105604.502500", "105606.502500", "105608.502500", "105610.502500", "105612.502500", "105614.502500", "105616.502500", "105618.502500", "105620.502500", "105622.502500", "105624.502500", "105626.502500", "105628.502500", "105630.502500", "105632.502500", "105634.502500", "105636.502500", "105638.502500", "105640.502500", "105642.502500", "105644.502500", "105646.502500", "105648.502500", "105650.502500", "105652.502500", "105654.502500", "105656.502500", "105658.502500", "105700.502500", "105702.502500", "105704.502500", "105706.502500", "105708.502500", "105710.502500", "105712.502500", "105714.502500", "105716.502500", "105718.502500", "105720.502500", "105722.502500", "105724.502500", "105726.502500", "105728.502500", "105730.502500", "105732.502500", "105734.502500", "105736.502500", "105738.502500", "105740.502500", "105742.502500", "105744.502500", "105746.502500", "105748.502500", "105750.502500", "105752.502500", "105754.502500", "105756.502500", "105758.502500", "105800.502500", "105802.502500", "105804.502500", "105806.502500", "105808.502500", "105810.502500", "105812.502500", "105814.502500", "105816.502500", "105818.502500", "105820.502500", "105822.502500", "105824.502500", "105826.502500", "105828.502500", "105830.502500", "105832.502500", "105834.502500", "105836.502500", "105838.502500", "105840.502500", "105842.502500", "105844.502500", "105846.502500", "105848.502500", "105850.502500", "105852.502500", "105854.502500", "105856.502500", "105858.502500", "105900.502500", "105902.502500", "105904.502500", "105906.502500", "105908.502500", "105910.502500", "105912.502500", "105914.502500", "105916.502500", "105918.502500", "105920.502500", "105922.502500", "105924.502500", "105926.502500", "105928.502500", "105930.502500", "105932.502500", "105934.502500", "105936.502500", "105938.502500", "105940.502500", "105942.502500", "105944.502500", "105946.502500", "105948.502500", "105950.502500", "105952.502500", "105954.502500", "105956.502500", "105958.502500", "110000.502500", "110002.502500", "110004.502500", "110006.502500", "110008.502500", "110010.502500", "110012.502500", "110014.502500", "110016.502500", "110018.502500", "110020.502500", "110022.502500", "110024.502500", "110026.502500", "110028.502500", "110030.502500", "110032.502500", "110034.502500", "110036.502500", "110038.502500", "110040.502500", "110042.502500", "110044.502500", "110046.502500", "110048.502500", "110050.502500", "110052.502500", "110054.502500", "110056.502500", "110058.502500", "110100.502500", "110102.502500", "110104.502500", "110106.502500", "110108.502500", "110110.502500", "110112.502500", "110114.502500", "110116.502500", "110118.502500", "110120.502500", "110122.502500", "110124.502500", "110126.502500", "110128.502500", "110130.502500", "110132.502500", "110134.502500", "110136.502500", "110138.502500", "110140.502500", "110142.502500", "110144.502500", "110146.502500", "110148.502500", "110150.502500", "110152.502500", "110154.502500", "110156.502500", "110158.502500", "110200.502500", "110202.502500", "110204.502500", "110206.502500", "110208.502500", "110210.502500", "110212.502500", "110214.502500", "110216.502500", "110218.502500", "110220.502500"],
      "ContentTime": ["105625.250000", "105625.254000", "105625.256000", "105625.259000", "105625.261000", "105625.264000", "105625.266000", "105625.269000", "105625.272000", "105625.274000", "105625.277000", "105625.279000", "105625.282000", "105625.284000", "105625.287000", "105625.289000", "105625.292000", "105625.295000", "105625.297000", "105625.300000", "105625.302000", "105705.246000", "105705.248000", "105705.251000", "105705.254000", "105705.256000", "105705.259000", "105705.261000", "105705.264000", "105705.266000", "105705.269000", "105705.271000", "105705.274000", "105705.276000", "105705.279000", "105705.282000", "105705.284000", "105705.287000", "105705.289000", "105705.292000", "105705.294000", "105745.245000", "105745.248000", "105745.251000", "105745.253000", "105745.256000", "105745.259000", "105745.261000", "105745.264000", "105745.266000", "105745.269000", "105745.271000", "105745.274000", "105745.282000", "105745.285000", "105745.287000", "105745.290000", "105745.292000", "105745.295000", "105745.297000", "105745.300000", "105825.245000", "105825.248000", "105825.251000", "105825.253000", "105825.256000", "105825.259000", "105825.261000", "105825.264000", "105825.266000", "105825.269000", "105825.271000", "105825.274000", "105825.276000", "105825.279000", "105825.282000", "105825.284000", "105825.287000", "105825.289000", "105825.292000", "105825.294000", "105905.246000", "105905.248000", "105905.251000", "105905.254000", "105905.256000", "105905.259000", "105905.261000", "105905.264000", "105905.266000", "105905.269000", "105905.272000", "105905.274000", "105905.277000", "105905.279000", "105905.282000", "105905.284000", "105905.287000", "105905.289000", "105905.292000", "105905.295000", "105945.245000", "105945.248000", "105945.251000", "105945.253000", "105945.256000", "105945.259000", "105945.261000", "105945.264000", "105945.266000", "105945.269000", "105945.271000", "105945.274000", "105945.277000", "105945.279000", "105945.282000", "105945.284000", "105945.287000", "105945.289000", "105945.292000", "105945.295000", "110025.246000", "110025.249000", "110025.252000", "110025.254000", "110025.257000", "110025.260000", "110025.262000", "110025.265000", "110025.267000", "110025.270000", "110025.272000", "110025.275000", "110025.278000", "110025.280000", "110025.283000", "110025.285000", "110025.288000", "110025.290000", "110025.293000", "110025.295000", "110045.246000", "110045.248000", "110045.251000", "110045.254000", "110045.256000", "110045.259000", "110045.261000", "110045.264000", "110045.266000", "110045.269000", "110125.246000", "110125.248000", "110125.251000", "110125.254000", "110125.256000", "110125.259000", "110125.261000", "110125.264000", "110125.266000", "110125.269000", "110125.272000", "110125.274000", "110125.277000", "110125.279000", "110125.282000", "110125.285000", "110125.287000", "110125.290000", "110125.292000", "110125.295000", "110205.246000", "110205.248000", "110205.251000", "110205.253000", "110205.256000", "110205.259000", "110205.261000", "110205.264000", "110205.266000", "110205.269000", "110205.271000", "110205.274000", "110205.277000", "110205.279000", "110205.282000", "110205.285000", "110205.287000", "110205.290000", "110205.292000", "110205.295000", "110222.330000", "110222.333000", "110222.336000", "110222.339000", "110222.341000", "110222.344000", "110222.346000", "110222.349000", "110222.351000"],
      "InstanceCreationTime": ["105625.250000", "105625.254000", "105625.256000", "105625.259000", "105625.261000", "105625.264000", "105625.266000", "105625.269000", "105625.272000", "105625.274000", "105625.277000", "105625.279000", "105625.282000", "105625.284000", "105625.287000", "105625.289000", "105625.292000", "105625.295000", "105625.297000", "105625.300000", "105625.302000", "105705.246000", "105705.248000", "105705.251000", "105705.254000", "105705.256000", "105705.259000", "105705.261000", "105705.264000", "105705.266000", "105705.269000", "105705.271000", "105705.274000", "105705.276000", "105705.279000", "105705.282000", "105705.284000", "105705.287000", "105705.289000", "105705.292000", "105705.294000", "105745.245000", "105745.248000", "105745.251000", "105745.253000", "105745.256000", "105745.259000", "105745.261000", "105745.264000", "105745.266000", "105745.269000", "105745.271000", "105745.274000", "105745.282000", "105745.285000", "105745.287000", "105745.290000", "105745.292000", "105745.295000", "105745.297000", "105745.300000", "105825.245000", "105825.248000", "105825.251000", "105825.253000", "105825.256000", "105825.259000", "105825.261000", "105825.264000", "105825.266000", "105825.269000", "105825.271000", "105825.274000", "105825.276000", "105825.279000", "105825.282000", "105825.284000", "105825.287000", "105825.289000", "105825.292000", "105825.294000", "105905.246000", "105905.248000", "105905.251000", "105905.254000", "105905.256000", "105905.259000", "105905.261000", "105905.264000", "105905.266000", "105905.269000", "105905.272000", "105905.274000", "105905.277000", "105905.279000", "105905.282000", "105905.284000", "105905.287000", "105905.289000", "105905.292000", "105905.295000", "105945.245000", "105945.248000", "105945.251000", "105945.253000", "105945.256000", "105945.259000", "105945.261000", "105945.264000", "105945.266000", "105945.269000", "105945.271000", "105945.274000", "105945.277000", "105945.279000", "105945.282000", "105945.284000", "105945.287000", "105945.289000", "105945.292000", "105945.295000", "110025.246000", "110025.249000", "110025.252000", "110025.254000", "110025.257000", "110025.260000", "110025.262000", "110025.265000", "110025.267000", "110025.270000", "110025.272000", "110025.275000", "110025.278000", "110025.280000", "110025.283000", "110025.285000", "110025.288000", "110025.290000", "110025.293000", "110025.295000", "110045.246000", "110045.248000", "110045.251000", "110045.254000", "110045.256000", "110045.259000", "110045.261000", "110045.264000", "110045.266000", "110045.269000", "110125.246000", "110125.248000", "110125.251000", "110125.254000", "110125.256000", "110125.259000", "110125.261000", "110125.264000", "110125.266000", "110125.269000", "110125.272000", "110125.274000", "110125.277000", "110125.279000", "110125.282000", "110125.285000", "110125.287000", "110125.290000", "110125.292000", "110125.295000", "110205.246000", "110205.248000", "110205.251000", "110205.253000", "110205.256000", "110205.259000", "110205.261000", "110205.264000", "110205.266000", "110205.269000", "110205.271000", "110205.274000", "110205.277000", "110205.279000", "110205.282000", "110205.285000", "110205.287000", "110205.290000", "110205.292000", "110205.295000", "110222.330000", "110222.333000", "110222.336000", "110222.339000", "110222.341000", "110222.344000", "110222.346000", "110222.349000", "110222.351000"],
      "InstanceNumber": [1, 2, 3, 4, 5, 6, 7, 8, 9, 10, 11, 12, 13, 14, 15, 16, 17, 18, 19, 20, 21, 22, 23, 24, 25, 26, 27, 28, 29, 30, 31, 32, 33, 34, 35, 36, 37, 38, 39, 40, 41, 42, 43, 44, 45, 46, 47, 48, 49, 50, 51, 52, 53, 54, 55, 56, 57, 58, 59, 60, 61, 62, 63, 64, 65, 66, 67, 68, 69, 70, 71, 72, 73, 74, 75, 76, 77, 78, 79, 80, 81, 82, 83, 84, 85, 86, 87, 88, 89, 90, 91, 92, 93, 94, 95, 96, 97, 98, 99, 100, 101, 102, 103, 104, 105, 106, 107, 108, 109, 110, 111, 112, 113, 114, 115, 116, 117, 118, 119, 120, 121, 122, 123, 124, 125, 126, 127, 128, 129, 130, 131, 132, 133, 134, 135, 136, 137, 138, 139, 140, 141, 142, 143, 144, 145, 146, 147, 148, 149, 150, 151, 152, 153, 154, 155, 156, 157, 158, 159, 160, 161, 162, 163, 164, 165, 166, 167, 168, 169, 170, 171, 172, 173, 174, 175, 176, 177, 178, 179, 180, 181, 182, 183, 184, 185, 186, 187, 188, 189, 190, 191, 192, 193, 194, 195, 196, 197, 198, 199, 200],
      "LargestImagePixelValue": [2359, 2361, 2356, 2359, 2360, 2357, 2359, 2361, 2360, 2362, 2358, 2353, 2360, 2354, 2354, 2355, 2357, 2358, 2356, 2353, 2359, 2354, 2356, 2358, 2359, 2355, 2350, 2356, 2358, 2353, 2352, 2353, 2354, 2356, 2358, 2357, 2355, 2355, 2352, 2354, 2355, 2355, 2357, 2354, 2355, 2356, 2356, 2355, 2354, 2351, 2351, 2356, 2356, 2359, 2354, 2348, 2352, 2352, 2353, 2353, 2349, 2353, 2352, 2352, 2351, 2353, 2349, 2347, 2353, 2352, 2352, 2354, 2352, 2352, 2351, 2354, 2353, 2353, 2353, 2350, 2352, 2352, 2352, 2352, 2350, 2354, 2354, 2353, 2353, 2350, 2356, 2350, 2350, 2351, 2349, 2352, 2352, 2351, 2349, 2350, 2357, 2358, 2349, 2347, 2353, 2350, 2353, 2351, 2353, 2354, 2353, 2354, 2350, 2350, 2355, 2355, 2347, 2350, 2353, 2350, 2348, 2350, 2349, 2350, 2350, 2351, 2350, 2348, 2354, 2349, 2346, 2348, 2350, 2351, 2352, 2351, 2352, 2350, 2350, 2349, 2351, 2349, 2348, 2350, 2353, 2350, 2342, 2349, 2351, 2348, 2352, 2351, 2352, 2354, 2349, 2351, 2350, 2350, 2354, 2352, 2352, 2349, 2351, 2346, 2349, 2350, 2347, 2349, 2351, 2349, 2350, 2351, 2351, 2351, 2351, 2350, 2354, 2350, 2351, 2352, 2351, 2350, 2351, 2352, 2352, 2349, 2351, 2351, 2350, 2349, 2348, 2356, 2350, 2349, 2349, 2347, 2350, 2348, 2346, 2349],
      "WindowCenter": [1032.0, 1032.0, 1033.0, 1031.0, 1032.0, 1031.0, 1031.0, 1031.0, 1032.0, 1030.0, 1031.0, 1031.0, 1030.0, 1031.0, 1030.0, 1031.0, 1031.0, 1031.0, 1031.0, 1031.0, 1031.0, 1031.0, 1030.0, 1031.0, 1031.0, 1032.0, 1031.0, 1032.0, 1030.0, 1030.0, 1031.0, 1031.0, 1031.0, 1032.0, 1031.0, 1030.0, 1030.0, 1030.0, 1032.0, 1031.0, 1032.0, 1031.0, 1031.0, 1031.0, 1031.0, 1032.0, 1031.0, 1031.0, 1032.0, 1030.0, 1030.0, 1030.0, 1030.0, 1030.0, 1030.0, 1030.0, 1030.0, 1029.0, 1030.0, 1029.0, 1030.0, 1030.0, 1030.0, 1030.0, 1030.0, 1029.0, 1031.0, 1030.0, 1030.0, 1031.0, 1031.0, 1030.0, 1031.0, 1031.0, 1031.0, 1030.0, 1030.0, 1030.0, 1031.0, 1030.0, 1030.0, 1029.0, 1030.0, 1031.0, 1031.0, 1029.0, 1030.0, 1031.0, 1030.0, 1030.0, 1029.0, 1030.0, 1030.0, 1029.0, 1030.0, 1031.0, 1031.0, 1030.0, 1030.0, 1029.0, 1030.0, 1030.0, 1029.0, 1030.0, 1029.0, 1030.0, 1030.0, 1029.0, 1030.0, 1030.0, 1030.0, 1030.0, 1030.0, 1030.0, 1030.0, 1031.0, 1031.0, 1029.0, 1029.0, 1030.0, 1030.0, 1030.0, 1030.0, 1030.0, 1030.0, 1030.0, 1030.0, 1030.0, 1029.0, 1030.0, 1030.0, 1030.0, 1029.0, 1030.0, 1030.0, 1029.0, 1029.0, 1030.0, 1030.0, 1031.0, 1030.0, 1030.0, 1030.0, 1030.0, 1029.0, 1030.0, 1030.0, 1030.0, 1030.0, 1030.0, 1030.0, 1031.0, 1030.0, 1029.0, 1031.0, 1029.0, 1030.0, 1029.0, 1030.0, 1030.0, 1030.0, 1030.0, 1030.0, 1029.0, 1030.0, 1030.0, 1030.0, 1030.0, 1030.0, 1030.0, 1030.0, 1030.0, 1030.0, 1029.0, 1031.0, 1031.0, 1030.0, 1030.0, 1029.0, 1031.0, 1030.0, 1030.0, 1030.0, 1029.0, 1030.0, 1031.0, 1031.0, 1030.0, 1029.0, 1029.0, 1030.0, 1030.0, 1031.0, 1030.0, 1030.0, 1030.0, 1030.0, 1029.0, 1029.0, 1030.0],
      "WindowWidth": [2326.0, 2325.0, 2326.0, 2325.0, 2325.0, 2325.0, 2326.0, 2325.0, 2325.0, 2324.0, 2324.0, 2324.0, 2323.0, 2324.0, 2323.0, 2324.0, 2325.0, 2325.0, 2325.0, 2325.0, 2325.0, 2325.0, 2324.0, 2325.0, 2324.0, 2325.0, 2324.0, 2325.0, 2324.0, 2324.0, 2324.0, 2324.0, 2324.0, 2325.0, 2324.0, 2323.0, 2324.0, 2324.0, 2325.0, 2325.0, 2325.0, 2324.0, 2324.0, 2324.0, 2324.0, 2325.0, 2324.0, 2324.0, 2325.0, 2323.0, 2323.0, 2323.0, 2323.0, 2323.0, 2322.0, 2323.0, 2323.0, 2322.0, 2323.0, 2322.0, 2323.0, 2323.0, 2323.0, 2323.0, 2323.0, 2322.0, 2323.0, 2323.0, 2323.0, 2324.0, 2324.0, 2323.0, 2324.0, 2324.0, 2324.0, 2323.0, 2323.0, 2323.0, 2325.0, 2323.0, 2323.0, 2323.0, 2323.0, 2324.0, 2324.0, 2323.0, 2323.0, 2324.0, 2323.0, 2323.0, 2323.0, 2323.0, 2323.0, 2323.0, 2323.0, 2324.0, 2324.0, 2323.0, 2323.0, 2322.0, 2323.0, 2323.0, 2322.0, 2322.0, 2323.0, 2323.0, 2323.0, 2322.0, 2323.0, 2323.0, 2323.0, 2323.0, 2323.0, 2323.0, 2323.0, 2324.0, 2324.0, 2323.0, 2322.0, 2322.0, 2323.0, 2323.0, 2323.0, 2322.0, 2322.0, 2323.0, 2322.0, 2322.0, 2322.0, 2323.0, 2323.0, 2323.0, 2322.0, 2323.0, 2323.0, 2322.0, 2322.0, 2322.0, 2322.0, 2322.0, 2322.0, 2322.0, 2322.0, 2322.0, 2321.0, 2322.0, 2322.0, 2322.0, 2322.0, 2322.0, 2323.0, 2323.0, 2323.0, 2322.0, 2323.0, 2322.0, 2322.0, 2322.0, 2322.0, 2322.0, 2322.0, 2322.0, 2322.0, 2322.0, 2322.0, 2322.0, 2322.0, 2322.0, 2322.0, 2322.0, 2323.0, 2322.0, 2322.0, 2322.0, 2323.0, 2323.0, 2322.0, 2322.0, 2322.0, 2323.0, 2322.0, 2322.0, 2322.0, 2321.0, 2322.0, 2323.0, 2323.0, 2322.0, 2321.0, 2321.0, 2322.0, 2322.0, 2323.0, 2322.0, 2322.0, 2322.0, 2322.0, 2321.0, 2321.0, 2322.0]
    },
    "slices": {}
  }
}