{
  "AcquisitionMatrixPE": 80,
  "AcquisitionNumber": 1,
  "AcquisitionTime": "09:54:16.062500",
  "BandwidthPerPixelPhaseEncode": 46.296,
  "BaseResolution": 80,
  "BodyPartExamined": "BRAIN",
  "CoilCombinationMethod": "Sum of Squares",
  "ConsistencyInfo": "N4_VE11E_LATEST_20181129",
  "ConversionSoftware": "dcm2niix",
  "ConversionSoftwareVersion": "v1.0.20220720",
  "DerivedVendorReportedEchoSpacing": 0.000540003,
  "DeviceSerialNumber": "66112",
  "DwellTime": 2.7e-06,
  "EchoTime": 0.035,
  "EchoTrainLength": 39,
  "EffectiveEchoSpacing": 0.000270002,
  "FlipAngle": 90,
  "HeudiconvVersion": "0.13.1",
  "ImageOrientationPatientDICOM": [0.988167, 0.153227, 0.00693706, -0.148212, 0.94222, 0.300423],
  "ImageOrientationText": "Tra>Cor(17.3)>Sag(-2.3)",
  "ImageType": [
    "ORIGINAL",
    "PRIMARY",
    "M",
    "ND",
    "NORM",
    "MOSAIC"
],
  "ImagingFrequency": 123.259,
  "InPlanePhaseEncodingDirectionDICOM": "COL",
  "InstitutionAddress": "Maynard 3,Hanover,NH,US,03755",
  "InstitutionName": "Dartmouth College - PBS",
  "InstitutionalDepartmentName": "Department",
  "MRAcquisitionType": "2D",
  "MagneticFieldStrength": 3,
  "Manufacturer": "Siemens",
  "ManufacturersModelName": "Prisma",
  "Modality": "MR",
  "MultibandAccelerationFactor": 4,
  "NonlinearGradientCorrection": false,
  "ParallelReductionFactorInPlane": 2,
  "PartialFourier": 1,
  "PatientPosition": "HFS",
  "PercentPhaseFOV": 100,
  "PercentSampling": 100,
  "PhaseEncodingDirection": "j-",
  "PhaseEncodingSteps": 79,
  "PhaseResolution": 1,
  "PixelBandwidth": 2315,
  "ProcedureStepDescription": "dbic^QA",
  "ProtocolName": "func-bold_task-rest_acq-p2-s4-3.5mm",
  "PulseSequenceDetails": "%SiemensSeq%\\ep2d_bold",
  "ReceiveCoilActiveElements": "HEA;HEP",
  "ReceiveCoilName": "Head_32",
  "ReconMatrixPE": 80,
  "RefLinesPE": 24,
  "RepetitionTime": 2,
  "SAR": 0.0306956,
  "ScanOptions": "FS",
  "ScanningSequence": "EP",
  "SequenceName": "*epfid2d1_80",
  "SequenceVariant": "SK",
  "SeriesDescription": "func-bold_task-rest_acq-p2-s4-3.5mm",
  "SeriesNumber": 6,
  "ShimSetting": [4226, -7737, -7493, -41, -129, 23, -52, 89],
  "SliceThickness": 3.5,
  "SliceTiming": [1.485, 0, 0.99, 0.2475, 1.2375, 0.7425, 1.7325, 0.495, 1.485, 0, 0.99, 0.2475, 1.2375, 0.7425, 1.7325, 0.495, 1.485, 0, 0.99, 0.2475, 1.2375, 0.7425, 1.7325, 0.495, 1.485, 0, 0.99, 0.2475, 1.2375, 0.7425, 1.7325, 0.495],
  "SoftwareVersions": "syngo MR E11",
  "SpacingBetweenSlices": 3.99,
  "StationName": "AWP66112",
  "TaskName": "rest",
  "TotalReadoutTime": 0.0213301,
  "TxRefAmp": 229.225,
  "dcmmeta_affine": [
    [-2.9644999504089355, -0.44463467597961426, -0.15759195387363434, 139.40261840820312],
    [-0.4596812129020691, 2.8266611099243164, 1.1886065006256104, -109.79702758789062],
    [0.020811188966035843, -0.9012696743011475, 3.8055853843688965, -16.212928771972656],
    [0.0, 0.0, 0.0, 1.0]
],
  "dcmmeta_reorient_transform": [
    [0.0, -1.0, 0.0, 79.0],
    [1.0, 0.0, 0.0, 0.0],
    [0.0, 0.0, 1.0, 0.0],
    [0.0, 0.0, 0.0, 1.0]
],
  "dcmmeta_shape": [80, 80, 32, 200],
  "dcmmeta_slice_dim": 2,
  "dcmmeta_version": 0.6,
  "global": {
    "const": {
      "AccessionNumber": "qa",
      "AcquisitionMatrix": [80, 0, 0, 80],
      "AngioFlag": "N",
      "BitsAllocated": 16,
      "BitsStored": 12,
      "BodyPartExamined": "BRAIN",
      "Columns": 480,
      "EchoNumbers": 1,
      "EchoTime": 35.0,
      "EchoTrainLength": 39,
      "FlipAngle": 90.0,
      "HighBit": 11,
      "ImageOrientationPatient": [0.9881666566394, 0.15322707287265, 0.00693706313884, -0.1482115618174, 0.94222036557994, 0.30042322751419],
      "ImagePositionPatient": [-608.24953844621, -770.77766525313, -271.82940804947],
      "ImageType": [
        "ORIGINAL",
        "PRIMARY",
        "M",
        "ND",
        "NORM",
        "MOSAIC"
],
      "ImagedNucleus": "1H",
      "ImagingFrequency": 123.259182,
      "InPlanePhaseEncodingDirection": "COL",
      "MRAcquisitionType": "2D",
      "MagneticFieldStrength": 3.0,
      "Manufacturer": "SIEMENS",
      "ManufacturerModelName": "Prisma",
      "Modality": "MR",
      "NumberOfAverages": 1.0,
      "NumberOfPhaseEncodingSteps": 79,
      "PercentPhaseFieldOfView": 100.0,
      "PercentSampling": 100.0,
      "PerformedProcedureStepStartTime": "093907.374000",
      "PhotometricInterpretation": "MONOCHROME2",
      "PixelBandwidth": 2315.0,
      "PixelRepresentation": 0,
      "PixelSpacing": [3.0, 3.0],
      "ProtocolName": "func-bold_task-rest_acq-p2-s4-3.5mm",
      "RepetitionTime": 2000.0,
      "Rows": 480,
      "SAR": 0.03069558185339,
      "SamplesPerPixel": 1,
      "ScanOptions": "FS",
      "ScanningSequence": "EP",
      "SequenceName": "*epfid2d1_80",
      "SequenceVariant": "SK",
      "SeriesDescription": "func-bold_task-rest_acq-p2-s4-3.5mm",
      "SeriesNumber": 6,
      "SeriesTime": "095508.520000",
      "SliceLocation": -53.677662290959,
      "SliceThickness": 3.5,
      "SmallestImagePixelValue": 0,
      "SoftwareVersions": "syngo MR E11",
      "SpacingBetweenSlices": 3.9900000412855,
      "SpecificCharacterSet": "ISO_IR 100",
      "StudyID": "34",
      "StudyTime": "093907.335000",
      "TransmitCoilName": "Body",
      "VariableFlipAngleFlag": "N",
      "WindowCenterWidthExplanation": "Algo1"
    },
    "slices": {}
  },
  "time": {
    "samples": {
      "AcquisitionNumber": [1, 2, 3, 4, 5, 6, 7, 8, 9, 10, 11, 12, 13, 14, 15, 16, 17, 18, 19, 20, 21, 22, 23, 24, 25, 26, 27, 28, 29, 30, 31, 32, 33, 34, 35, 36, 37, 38, 39, 40, 41, 42, 43, 44, 45, 46, 47, 48, 49, 50, 51, 52, 53, 54, 55, 56, 57, 58, 59, 60, 61, 62, 63, 64, 65, 66, 67, 68, 69, 70, 71, 72, 73, 74, 75, 76, 77, 78, 79, 80, 81, 82, 83, 84, 85, 86, 87, 88, 89, 90, 91, 92, 93, 94, 95, 96, 97, 98, 99, 100, 101, 102, 103, 104, 105, 106, 107, 108, 109, 110, 111, 112, 113, 114, 115, 116, 117, 118, 119, 120, 121, 122, 123, 124, 125, 126, 127, 128, 129, 130, 131, 132, 133, 134, 135, 136, 137, 138, 139, 140, 141, 142, 143, 144, 145, 146, 147, 148, 149, 150, 151, 152, 153, 154, 155, 156, 157, 158, 159, 160, 161, 162, 163, 164, 165, 166, 167, 168, 169, 170, 171, 172, 173, 174, 175, 176, 177, 178, 179, 180, 181, 182, 183, 184, 185, 186, 187, 188, 189, 190, 191, 192, 193, 194, 195, 196, 197, 198, 199, 200],
      "AcquisitionTime": ["095416.062500", "095418.062500", "095420.062500", "095422.062500", "095424.062500", "095426.062500", "095428.062500", "095430.062500", "095432.062500", "095434.062500", "095436.062500", "095438.062500", "095440.062500", "095442.062500", "095444.062500", "095446.062500", "095448.062500", "095450.062500", "095452.062500", "095454.062500", "095456.062500", "095458.062500", "095500.062500", "095502.062500", "095504.062500", "095506.062500", "095508.062500", "095510.062500", "095512.062500", "095514.062500", "095516.062500", "095518.062500", "095520.062500", "095522.062500", "095524.062500", "095526.062500", "095528.062500", "095530.062500", "095532.062500", "095534.062500", "095536.062500", "095538.062500", "095540.062500", "095542.062500", "095544.062500", "095546.062500", "095548.062500", "095550.062500", "095552.062500", "095554.062500", "095556.062500", "095558.062500", "095600.062500", "095602.062500", "095604.062500", "095606.062500", "095608.062500", "095610.062500", "095612.062500", "095614.062500", "095616.062500", "095618.062500", "095620.062500", "095622.062500", "095624.062500", "095626.062500", "095628.062500", "095630.062500", "095632.062500", "095634.062500", "095636.062500", "095638.062500", "095640.062500", "095642.062500", "095644.062500", "095646.062500", "095648.062500", "095650.062500", "095652.062500", "095654.062500", "095656.062500", "095658.062500", "095700.062500", "095702.062500", "095704.062500", "095706.062500", "095708.062500", "095710.062500", "095712.062500", "095714.062500", "095716.062500", "095718.062500", "095720.062500", "095722.062500", "095724.062500", "095726.062500", "095728.062500", "095730.062500", "095732.062500", "095734.062500", "095736.062500", "095738.062500", "095740.062500", "095742.062500", "095744.062500", "095746.062500", "095748.062500", "095750.062500", "095752.062500", "095754.062500", "095756.062500", "095758.062500", "095800.062500", "095802.062500", "095804.062500", "095806.062500", "095808.062500", "095810.062500", "095812.062500", "095814.062500", "095816.062500", "095818.062500", "095820.062500", "095822.062500", "095824.062500", "095826.062500", "095828.062500", "095830.062500", "095832.062500", "095834.062500", "095836.062500", "095838.062500", "095840.062500", "095842.062500", "095844.062500", "095846.062500", "095848.062500", "095850.062500", "095852.062500", "095854.062500", "095856.062500", "095858.062500", "095900.062500", "095902.062500", "095904.062500", "095906.062500", "095908.062500", "095910.062500", "095912.062500", "095914.062500", "095916.062500", "095918.062500", "095920.062500", "095922.062500", "095924.062500", "095926.062500", "095928.062500", "095930.062500", "095932.062500", "095934.062500", "095936.062500", "095938.062500", "095940.062500", "095942.062500", "095944.062500", "095946.062500", "095948.062500", "095950.062500", "095952.062500", "095954.062500", "095956.062500", "095958.062500", "100000.062500", "100002.062500", "100004.062500", "100006.062500", "100008.062500", "100010.062500", "100012.062500", "100014.062500", "100016.062500", "100018.062500", "100020.062500", "100022.062500", "100024.062500", "100026.062500", "100028.062500", "100030.062500", "100032.062500", "100034.062500", "100036.062500", "100038.062500", "100040.062500", "100042.062500", "100044.062500", "100046.062500", "100048.062500", "100050.062500", "100052.062500", "100054.062500"],
      "ContentTime": ["095508.523000", "095508.526000", "095508.528000", "095508.531000", "095508.543000", "095508.545000", "095508.551000", "095508.554000", "095508.556000", "095508.558000", "095508.560000", "095508.563000", "095508.565000", "095508.567000", "095508.570000", "095508.579000", "095508.581000", "095508.583000", "095508.586000", "095508.588000", "095508.591000", "095508.594000", "095508.597000", "095508.599000", "095508.602000", "095508.604000", "095548.517000", "095548.520000", "095548.522000", "095548.524000", "095548.527000", "095548.529000", "095548.531000", "095548.533000", "095548.536000", "095548.538000", "095548.540000", "095548.543000", "095548.545000", "095548.547000", "095548.550000", "095548.552000", "095548.554000", "095548.556000", "095548.564000", "095548.567000", "095628.517000", "095628.520000", "095628.522000", "095628.524000", "095628.527000", "095628.529000", "095628.531000", "095628.533000", "095628.536000", "095628.543000", "095628.546000", "095628.548000", "095628.550000", "095628.553000", "095628.555000", "095628.557000", "095628.559000", "095628.562000", "095628.564000", "095628.566000", "095708.518000", "095708.521000", "095708.523000", "095708.525000", "095708.528000", "095708.530000", "095708.532000", "095708.535000", "095708.537000", "095708.539000", "095708.542000", "095708.550000", "095708.552000", "095708.554000", "095708.557000", "095708.559000", "095708.561000", "095708.563000", "095708.566000", "095708.568000", "095748.518000", "095748.521000", "095748.523000", "095748.525000", "095748.528000", "095748.530000", "095748.532000", "095748.534000", "095748.537000", "095748.539000", "095748.542000", "095748.544000", "095748.546000", "095748.548000", "095748.551000", "095748.553000", "095748.555000", "095748.558000", "095748.560000", "095748.562000", "095828.518000", "095828.520000", "095828.523000", "095828.525000", "095828.527000", "095828.529000", "095828.532000", "095828.534000", "095828.536000", "095828.539000", "095828.541000", "095828.543000", "095828.546000", "095828.548000", "095828.550000", "095828.552000", "095828.555000", "095828.557000", "095828.559000", "095828.562000", "095908.518000", "095908.521000", "095908.523000", "095908.525000", "095908.528000", "095908.530000", "095908.532000", "095908.534000", "095908.537000", "095908.539000", "095908.541000", "095908.544000", "095908.546000", "095908.548000", "095908.551000", "095908.553000", "095908.555000", "095908.557000", "095908.560000", "095908.562000", "095948.518000", "095948.521000", "095948.523000", "095948.525000", "095948.528000", "095948.530000", "095948.532000", "095948.535000", "095948.537000", "095948.539000", "095948.541000", "095948.544000", "095948.546000", "095948.548000", "095948.551000", "095948.553000", "095948.555000", "095948.557000", "095948.560000", "095948.562000", "100028.517000", "100028.520000", "100028.522000", "100028.525000", "100028.527000", "100028.530000", "100028.532000", "100028.534000", "100028.536000", "100028.539000", "100028.541000", "100028.543000", "100028.546000", "100028.548000", "100028.550000", "100028.553000", "100028.555000", "100028.557000", "100028.559000", "100028.562000", "100055.694000", "100055.697000", "100055.699000", "100055.702000", "100055.704000", "100055.706000", "100055.709000", "100055.712000", "100055.715000", "100055.717000", "100055.720000", "100055.722000", "100055.724000", "100055.727000"],
      "InstanceCreationTime": ["095508.523000", "095508.526000", "095508.528000", "095508.531000", "095508.543000", "095508.545000", "095508.551000", "095508.554000", "095508.556000", "095508.558000", "095508.560000", "095508.563000", "095508.565000", "095508.567000", "095508.570000", "095508.579000", "095508.581000", "095508.583000", "095508.586000", "095508.588000", "095508.591000", "095508.594000", "095508.597000", "095508.599000", "095508.602000", "095508.604000", "095548.517000", "095548.520000", "095548.522000", "095548.524000", "095548.527000", "095548.529000", "095548.531000", "095548.533000", "095548.536000", "095548.538000", "095548.540000", "095548.543000", "095548.545000", "095548.547000", "095548.550000", "095548.552000", "095548.554000", "095548.556000", "095548.564000", "095548.567000", "095628.517000", "095628.520000", "095628.522000", "095628.524000", "095628.527000", "095628.529000", "095628.531000", "095628.533000", "095628.536000", "095628.543000", "095628.546000", "095628.548000", "095628.550000", "095628.553000", "095628.555000", "095628.557000", "095628.559000", "095628.562000", "095628.564000", "095628.566000", "095708.518000", "095708.521000", "095708.523000", "095708.525000", "095708.528000", "095708.530000", "095708.532000", "095708.535000", "095708.537000", "095708.539000", "095708.542000", "095708.550000", "095708.552000", "095708.554000", "095708.557000", "095708.559000", "095708.561000", "095708.563000", "095708.566000", "095708.568000", "095748.518000", "095748.521000", "095748.523000", "095748.525000", "095748.528000", "095748.530000", "095748.532000", "095748.534000", "095748.537000", "095748.539000", "095748.542000", "095748.544000", "095748.546000", "095748.548000", "095748.551000", "095748.553000", "095748.555000", "095748.558000", "095748.560000", "095748.562000", "095828.518000", "095828.520000", "095828.523000", "095828.525000", "095828.527000", "095828.529000", "095828.532000", "095828.534000", "095828.536000", "095828.539000", "095828.541000", "095828.543000", "095828.546000", "095828.548000", "095828.550000", "095828.552000", "095828.555000", "095828.557000", "095828.559000", "095828.562000", "095908.518000", "095908.521000", "095908.523000", "095908.525000", "095908.528000", "095908.530000", "095908.532000", "095908.534000", "095908.537000", "095908.539000", "095908.541000", "095908.544000", "095908.546000", "095908.548000", "095908.551000", "095908.553000", "095908.555000", "095908.557000", "095908.560000", "095908.562000", "095948.518000", "095948.521000", "095948.523000", "095948.525000", "095948.528000", "095948.530000", "095948.532000", "095948.535000", "095948.537000", "095948.539000", "095948.541000", "095948.544000", "095948.546000", "095948.548000", "095948.551000", "095948.553000", "095948.555000", "095948.557000", "095948.560000", "095948.562000", "100028.517000", "100028.520000", "100028.522000", "100028.525000", "100028.527000", "100028.530000", "100028.532000", "100028.534000", "100028.536000", "100028.539000", "100028.541000", "100028.543000", "100028.546000", "100028.548000", "100028.550000", "100028.553000", "100028.555000", "100028.557000", "100028.559000", "100028.562000", "100055.694000", "100055.697000", "100055.699000", "100055.702000", "100055.704000", "100055.706000", "100055.709000", "100055.712000", "100055.715000", "100055.717000", "100055.720000", "100055.722000", "100055.724000", "100055.727000"],
      "InstanceNumber": [1, 2, 3, 4, 5, 6, 7, 8, 9, 10, 11, 12, 13, 14, 15, 16, 17, 18, 19, 20, 21, 22, 23, 24, 25, 26, 27, 28, 29, 30, 31, 32, 33, 34, 35, 36, 37, 38, 39, 40, 41, 42, 43, 44, 45, 46, 47, 48, 49, 50, 51, 52, 53, 54, 55, 56, 57, 58, 59, 60, 61, 62, 63, 64, 65, 66, 67, 68, 69, 70, 71, 72, 73, 74, 75, 76, 77, 78, 79, 80, 81, 82, 83, 84, 85, 86, 87, 88, 89, 90, 91, 92, 93, 94, 95, 96, 97, 98, 99, 100, 101, 102, 103, 104, 105, 106, 107, 108, 109, 110, 111, 112, 113, 114, 115, 116, 117, 118, 119, 120, 121, 122, 123, 124, 125, 126, 127, 128, 129, 130, 131, 132, 133, 134, 135, 136, 137, 138, 139, 140, 141, 142, 143, 144, 145, 146, 147, 148, 149, 150, 151, 152, 153, 154, 155, 156, 157, 158, 159, 160, 161, 162, 163, 164, 165, 166, 167, 168, 169, 170, 171, 172, 173, 174, 175, 176, 177, 178, 179, 180, 181, 182, 183, 184, 185, 186, 187, 188, 189, 190, 191, 192, 193, 194, 195, 196, 197, 198, 199, 200],
      "LargestImagePixelValue": [2232, 2238, 2231, 2234, 2230, 2235, 2234, 2226, 2232, 2229, 2228, 2233, 2228, 2232, 2229, 2229, 2228, 2230, 2230, 2232, 2229, 2228, 2232, 2235, 2226, 2233, 2229, 2232, 2229, 2230, 2233, 2226, 2233, 2229, 2230, 2234, 2229, 2230, 2230, 2227, 2231, 2233, 2232, 2223, 2233, 2228, 2230, 2231, 2228, 2232, 2228, 2229, 2228, 2231, 2230, 2228, 2232, 2234, 2229, 2234, 2230, 2233, 2230, 2229, 2234, 2228, 2230, 2229, 2233, 2232, 2226, 2232, 2223, 2234, 2233, 2229, 2228, 2230, 2231, 2227, 2230, 2230, 2228, 2235, 2230, 2232, 2234, 2227, 2229, 2227, 2230, 2233, 2228, 2235, 2225, 2232, 2233, 2232, 2237, 2231, 2233, 2237, 2232, 2233, 2233, 2232, 2231, 2234, 2228, 2234, 2233, 2231, 2231, 2229, 2231, 2230, 2232, 2229, 2230, 2229, 2227, 2229, 2231, 2229, 2237, 2234, 2229, 2230, 2231, 2230, 2228, 2233, 2232, 2228, 2231, 2231, 2230, 2228, 2234, 2233, 2235, 2235, 2230, 2233, 2236, 2234, 2238, 2232, 2235, 2232, 2229, 2230, 2229, 2233, 2230, 2234, 2228, 2228, 2232, 2227, 2231, 2227, 2228, 2233, 2232, 2233, 2230, 2229, 2231, 2229, 2232, 2228, 2233, 2234, 2232, 2230, 2228, 2228, 2229, 2231, 2230, 2229, 2228, 2225, 2230, 2227, 2231, 2231, 2229, 2232, 2234, 2236, 2236, 2229, 2234, 2228, 2233, 2235, 2228, 2234],
      "WindowCenter": [970.0, 969.0, 969.0, 970.0, 970.0, 969.0, 970.0, 970.0, 970.0, 970.0, 969.0, 970.0, 969.0, 969.0, 969.0, 970.0, 970.0, 969.0, 970.0, 969.0, 970.0, 969.0, 969.0, 970.0, 969.0, 970.0, 969.0, 969.0, 969.0, 969.0, 969.0, 969.0, 969.0, 970.0, 969.0, 970.0, 969.0, 968.0, 969.0, 969.0, 969.0, 969.0, 969.0, 968.0, 969.0, 970.0, 969.0, 970.0, 970.0, 970.0, 970.0, 970.0, 970.0, 969.0, 969.0, 969.0, 968.0, 970.0, 969.0, 969.0, 969.0, 969.0, 969.0, 969.0, 968.0, 969.0, 969.0, 969.0, 969.0, 969.0, 969.0, 969.0, 969.0, 969.0, 969.0, 970.0, 969.0, 969.0, 969.0, 969.0, 969.0, 969.0, 969.0, 969.0, 969.0, 969.0, 969.0, 969.0, 969.0, 970.0, 969.0, 969.0, 969.0, 969.0, 969.0, 970.0, 969.0, 969.0, 969.0, 969.0, 969.0, 969.0, 969.0, 969.0, 969.0, 969.0, 969.0, 969.0, 969.0, 969.0, 969.0, 969.0, 969.0, 969.0, 969.0, 969.0, 969.0, 969.0, 969.0, 969.0, 969.0, 970.0, 969.0, 969.0, 970.0, 969.0, 969.0, 969.0, 969.0, 969.0, 970.0, 970.0, 969.0, 968.0, 969.0, 969.0, 969.0, 969.0, 969.0, 969.0, 969.0, 970.0, 969.0, 969.0, 969.0, 969.0, 970.0, 969.0, 969.0, 969.0, 969.0, 969.0, 968.0, 969.0, 969.0, 969.0, 969.0, 969.0, 969.0, 969.0, 969.0, 969.0, 969.0, 969.0, 970.0, 969.0, 969.0, 969.0, 969.0, 969.0, 969.0, 968.0, 968.0, 968.0, 969.0, 969.0, 969.0, 969.0, 969.0, 968.0, 968.0, 969.0, 969.0, 969.0, 969.0, 969.0, 969.0, 969.0, 969.0, 969.0, 970.0, 969.0, 969.0, 968.0, 969.0, 968.0, 969.0, 969.0, 968.0, 968.0],
      "WindowWidth": [2287.0, 2287.0, 2286.0, 2287.0, 2287.0, 2286.0, 2287.0, 2286.0, 2287.0, 2287.0, 2286.0, 2288.0, 2285.0, 2286.0, 2286.0, 2286.0, 2286.0, 2286.0, 2286.0, 2285.0, 2286.0, 2286.0, 2285.0, 2287.0, 2285.0, 2286.0, 2286.0, 2285.0, 2286.0, 2284.0, 2286.0, 2285.0, 2285.0, 2285.0, 2285.0, 2285.0, 2285.0, 2285.0, 2285.0, 2285.0, 2284.0, 2285.0, 2286.0, 2284.0, 2285.0, 2285.0, 2285.0, 2285.0, 2284.0, 2285.0, 2285.0, 2286.0, 2285.0, 2285.0, 2285.0, 2285.0, 2284.0, 2285.0, 2285.0, 2286.0, 2285.0, 2285.0, 2286.0, 2285.0, 2285.0, 2285.0, 2286.0, 2285.0, 2285.0, 2286.0, 2285.0, 2284.0, 2285.0, 2284.0, 2286.0, 2284.0, 2286.0, 2284.0, 2285.0, 2285.0, 2284.0, 2285.0, 2284.0, 2284.0, 2285.0, 2284.0, 2285.0, 2285.0, 2284.0, 2285.0, 2285.0, 2285.0, 2285.0, 2286.0, 2285.0, 2285.0, 2285.0, 2285.0, 2285.0, 2284.0, 2285.0, 2285.0, 2284.0, 2285.0, 2284.0, 2285.0, 2284.0, 2285.0, 2285.0, 2285.0, 2285.0, 2284.0, 2285.0, 2285.0, 2284.0, 2284.0, 2284.0, 2285.0, 2284.0, 2285.0, 2285.0, 2285.0, 2284.0, 2284.0, 2286.0, 2285.0, 2284.0, 2285.0, 2283.0, 2285.0, 2285.0, 2284.0, 2285.0, 2283.0, 2285.0, 2283.0, 2285.0, 2285.0, 2283.0, 2284.0, 2284.0, 2284.0, 2284.0, 2284.0, 2284.0, 2284.0, 2285.0, 2283.0, 2285.0, 2284.0, 2284.0, 2285.0, 2283.0, 2284.0, 2285.0, 2284.0, 2285.0, 2284.0, 2285.0, 2284.0, 2284.0, 2284.0, 2284.0, 2285.0, 2285.0, 2284.0, 2284.0, 2284.0, 2284.0, 2284.0, 2284.0, 2283.0, 2283.0, 2283.0, 2283.0, 2284.0, 2284.0, 2284.0, 2284.0, 2283.0, 2284.0, 2283.0, 2284.0, 2284.0, 2284.0, 2284.0, 2284.0, 2284.0, 2284.0, 2284.0, 2286.0, 2284.0, 2284.0, 2283.0, 2284.0, 2283.0, 2284.0, 2284.0, 2283.0, 2283.0]
    },
    "slices": {}
  }
}