{
  "AcquisitionMatrixPE": 80,
  "AcquisitionNumber": 1,
  "AcquisitionTime": "10:19:0.472500",
  "BandwidthPerPixelPhaseEncode": 25,
  "BaseResolution": 80,
  "BodyPartExamined": "BRAIN",
  "CoilCombinationMethod": "Sum of Squares",
  "ConsistencyInfo": "N4_VE11E_LATEST_20181129",
  "ConversionSoftware": "dcm2niix",
  "ConversionSoftwareVersion": "v1.0.20220720",
  "DerivedVendorReportedEchoSpacing": 0.0005,
  "DeviceSerialNumber": "66112",
  "DwellTime": 2.7e-06,
  "EchoTime": 0.03,
  "EchoTrainLength": 80,
  "EffectiveEchoSpacing": 0.0005,
  "FlipAngle": 10,
  "HeudiconvVersion": "0.13.1",
  "ImageOrientationPatientDICOM": [0.988318, 0.15214, 0.00900922, -0.147882, 0.943002, 0.298125],
  "ImageOrientationText": "Tra>Cor(17.2)>Sag(-2.1)",
  "ImageType": [
    "ORIGINAL",
    "PRIMARY",
    "M",
    "ND",
    "NORM",
    "MOSAIC"
],
  "ImagingFrequency": 123.259,
  "InPlanePhaseEncodingDirectionDICOM": "COL",
  "InstitutionAddress": "Maynard 3,Hanover,NH,US,03755",
  "InstitutionName": "Dartmouth College - PBS",
  "InstitutionalDepartmentName": "Department",
  "MRAcquisitionType": "2D",
  "MagneticFieldStrength": 3,
  "Manufacturer": "Siemens",
  "ManufacturersModelName": "Prisma",
  "MatrixCoilMode": "SENSE",
  "Modality": "MR",
  "NonlinearGradientCorrection": false,
  "PartialFourier": 1,
  "PatientPosition": "HFS",
  "PercentPhaseFOV": 100,
  "PercentSampling": 100,
  "PhaseEncodingDirection": "j-",
  "PhaseEncodingSteps": 80,
  "PhaseResolution": 1,
  "PixelBandwidth": 2315,
  "ProcedureStepDescription": "dbic^QA",
  "ProtocolName": "func-bold_fa-10",
  "PulseSequenceDetails": "%SiemensSeq%\\ep2d_bold",
  "ReceiveCoilActiveElements": "HEA;HEP",
  "ReceiveCoilName": "Head_32",
  "ReconMatrixPE": 80,
  "RepetitionTime": 2,
  "SAR": 0.00993069,
  "ScanOptions": "FS",
  "ScanningSequence": "EP",
  "SequenceName": "*epfid2d1_80",
  "SequenceVariant": "SK",
  "SeriesDescription": "func-bold_fa-10",
  "SeriesNumber": 10,
  "ShimSetting": [4221, -7729, -7489, -22, -140, -42, 15, 87],
  "SliceThickness": 3.5,
  "SliceTiming": [0.99, 0, 1.0575, 0.0675, 1.1225, 0.1325, 1.19, 0.2, 1.255, 0.265, 1.32, 0.33, 1.3875, 0.3975, 1.4525, 0.4625, 1.52, 0.53, 1.585, 0.595, 1.65, 0.66, 1.7175, 0.7275, 1.7825, 0.7925, 1.85, 0.86, 1.915, 0.925],
  "SoftwareVersions": "syngo MR E11",
  "SpacingBetweenSlices": 3.99,
  "StationName": "AWP66112",
  "TotalReadoutTime": 0.0395,
  "TxRefAmp": 229.871,
  "dcmmeta_affine": [
    [-2.964953899383545, -0.4436444938182831, -0.14707544445991516, 141.91259765625],
    [-0.45641928911209106, 2.829005241394043, 1.18094003200531, -108.7286376953125],
    [0.027027644217014313, -0.8943760991096497, 3.80839204788208, -21.83240509033203],
    [0.0, 0.0, 0.0, 1.0]
],
  "dcmmeta_reorient_transform": [
    [0.0, -1.0, 0.0, 79.0],
    [1.0, 0.0, 0.0, 0.0],
    [0.0, 0.0, 1.0, 0.0],
    [0.0, 0.0, 0.0, 1.0]
],
  "dcmmeta_shape": [80, 80, 30, 200],
  "dcmmeta_slice_dim": 2,
  "dcmmeta_version": 0.6,
  "global": {
    "const": {
      "AccessionNumber": "qa",
      "AcquisitionMatrix": [80, 0, 0, 80],
      "AngioFlag": "N",
      "BitsAllocated": 16,
      "BitsStored": 12,
      "BodyPartExamined": "BRAIN",
      "Columns": 480,
      "EchoNumbers": 1,
      "EchoTime": 30.0,
      "EchoTrainLength": 80,
      "FlipAngle": 10.0,
      "HighBit": 11,
      "ImageOrientationPatient": [0.98831792817476, 0.15213976107153, 0.00900921469674, -0.1478815011893, 0.94300176694546, 0.2981253581025],
      "ImagePositionPatient": [-611.12653173555, -771.84769484997, -276.76885805266],
      "ImageType": [
        "ORIGINAL",
        "PRIMARY",
        "M",
        "ND",
        "NORM",
        "MOSAIC"
],
      "ImagedNucleus": "1H",
      "ImagingFrequency": 123.259272,
      "InPlanePhaseEncodingDirection": "COL",
      "MRAcquisitionType": "2D",
      "MagneticFieldStrength": 3.0,
      "Manufacturer": "SIEMENS",
      "ManufacturerModelName": "Prisma",
      "Modality": "MR",
      "NumberOfAverages": 1.0,
      "NumberOfPhaseEncodingSteps": 80,
      "PercentPhaseFieldOfView": 100.0,
      "PercentSampling": 100.0,
      "PerformedProcedureStepStartTime": "095435.242000",
      "PhotometricInterpretation": "MONOCHROME2",
      "PixelBandwidth": 2315.0,
      "PixelRepresentation": 0,
      "PixelSpacing": [3.0, 3.0],
      "ProtocolName": "func-bold_fa-10",
      "RepetitionTime": 2000.0,
      "Rows": 480,
      "SAR": 0.00993069038575,
      "SamplesPerPixel": 1,
      "ScanOptions": "FS",
      "ScanningSequence": "EP",
      "SequenceName": "*epfid2d1_80",
      "SequenceVariant": "SK",
      "SeriesDescription": "func-bold_fa-10",
      "SeriesNumber": 10,
      "SeriesTime": "101948.775000",
      "SliceLocation": -58.250679643637,
      "SliceThickness": 3.5,
      "SmallestImagePixelValue": 0,
      "SoftwareVersions": "syngo MR E11",
      "SpacingBetweenSlices": 3.989999988351,
      "SpecificCharacterSet": "ISO_IR 100",
      "StudyID": "25",
      "StudyTime": "095435.152000",
      "TransmitCoilName": "Body",
      "VariableFlipAngleFlag": "N",
      "WindowCenterWidthExplanation": "Algo1"
    },
    "slices": {}
  },
  "time": {
    "samples": {
      "AcquisitionNumber": [1, 2, 3, 4, 5, 6, 7, 8, 9, 10, 11, 12, 13, 14, 15, 16, 17, 18, 19, 20, 21, 22, 23, 24, 25, 26, 27, 28, 29, 30, 31, 32, 33, 34, 35, 36, 37, 38, 39, 40, 41, 42, 43, 44, 45, 46, 47, 48, 49, 50, 51, 52, 53, 54, 55, 56, 57, 58, 59, 60, 61, 62, 63, 64, 65, 66, 67, 68, 69, 70, 71, 72, 73, 74, 75, 76, 77, 78, 79, 80, 81, 82, 83, 84, 85, 86, 87, 88, 89, 90, 91, 92, 93, 94, 95, 96, 97, 98, 99, 100, 101, 102, 103, 104, 105, 106, 107, 108, 109, 110, 111, 112, 113, 114, 115, 116, 117, 118, 119, 120, 121, 122, 123, 124, 125, 126, 127, 128, 129, 130, 131, 132, 133, 134, 135, 136, 137, 138, 139, 140, 141, 142, 143, 144, 145, 146, 147, 148, 149, 150, 151, 152, 153, 154, 155, 156, 157, 158, 159, 160, 161, 162, 163, 164, 165, 166, 167, 168, 169, 170, 171, 172, 173, 174, 175, 176, 177, 178, 179, 180, 181, 182, 183, 184, 185, 186, 187, 188, 189, 190, 191, 192, 193, 194, 195, 196, 197, 198, 199, 200],
      "AcquisitionTime": ["101900.472500", "101902.472500", "101904.472500", "101906.472500", "101908.472500", "101910.472500", "101912.472500", "101914.472500", "101916.472500", "101918.472500", "101920.472500", "101922.472500", "101924.472500", "101926.472500", "101928.472500", "101930.472500", "101932.472500", "101934.472500", "101936.472500", "101938.472500", "101940.472500", "101942.472500", "101944.472500", "101946.472500", "101948.472500", "101950.472500", "101952.472500", "101954.472500", "101956.472500", "101958.472500", "102000.472500", "102002.472500", "102004.472500", "102006.472500", "102008.472500", "102010.472500", "102012.472500", "102014.472500", "102016.472500", "102018.472500", "102020.472500", "102022.472500", "102024.472500", "102026.472500", "102028.472500", "102030.472500", "102032.472500", "102034.472500", "102036.472500", "102038.472500", "102040.472500", "102042.472500", "102044.472500", "102046.472500", "102048.472500", "102050.472500", "102052.472500", "102054.472500", "102056.472500", "102058.472500", "102100.472500", "102102.472500", "102104.472500", "102106.472500", "102108.472500", "102110.472500", "102112.472500", "102114.472500", "102116.472500", "102118.472500", "102120.472500", "102122.472500", "102124.472500", "102126.472500", "102128.472500", "102130.472500", "102132.472500", "102134.472500", "102136.472500", "102138.472500", "102140.472500", "102142.472500", "102144.472500", "102146.472500", "102148.472500", "102150.472500", "102152.472500", "102154.472500", "102156.472500", "102158.472500", "102200.472500", "102202.472500", "102204.472500", "102206.472500", "102208.472500", "102210.472500", "102212.472500", "102214.472500", "102216.472500", "102218.472500", "102220.472500", "102222.472500", "102224.472500", "102226.472500", "102228.472500", "102230.472500", "102232.472500", "102234.472500", "102236.472500", "102238.472500", "102240.472500", "102242.472500", "102244.472500", "102246.472500", "102248.472500", "102250.472500", "102252.472500", "102254.472500", "102256.472500", "102258.472500", "102300.472500", "102302.472500", "102304.472500", "102306.472500", "102308.472500", "102310.472500", "102312.472500", "102314.472500", "102316.472500", "102318.472500", "102320.472500", "102322.472500", "102324.472500", "102326.472500", "102328.472500", "102330.472500", "102332.472500", "102334.472500", "102336.472500", "102338.472500", "102340.472500", "102342.472500", "102344.472500", "102346.472500", "102348.472500", "102350.472500", "102352.472500", "102354.472500", "102356.472500", "102358.472500", "102400.472500", "102402.472500", "102404.472500", "102406.472500", "102408.472500", "102410.472500", "102412.472500", "102414.472500", "102416.472500", "102418.472500", "102420.472500", "102422.472500", "102424.472500", "102426.472500", "102428.472500", "102430.472500", "102432.472500", "102434.472500", "102436.472500", "102438.472500", "102440.472500", "102442.472500", "102444.472500", "102446.472500", "102448.472500", "102450.472500", "102452.472500", "102454.472500", "102456.472500", "102458.472500", "102500.472500", "102502.472500", "102504.472500", "102506.472500", "102508.472500", "102510.472500", "102512.472500", "102514.472500", "102516.472500", "102518.472500", "102520.472500", "102522.472500", "102524.472500", "102526.472500", "102528.472500", "102530.472500", "102532.472500", "102534.472500", "102536.472500", "102538.472500"],
      "ContentTime": ["101948.778000", "101948.781000", "101948.783000", "101948.786000", "101948.788000", "101948.790000", "101948.792000", "101948.795000", "101948.797000", "101948.799000", "101948.801000", "101948.804000", "101948.806000", "101948.808000", "101948.811000", "101948.813000", "101948.815000", "101948.817000", "101948.820000", "101948.822000", "101948.833000", "101948.835000", "101948.838000", "101948.840000", "102028.774000", "102028.777000", "102028.779000", "102028.781000", "102028.783000", "102028.786000", "102028.788000", "102028.790000", "102028.792000", "102028.795000", "102028.797000", "102028.799000", "102028.802000", "102028.804000", "102028.806000", "102028.808000", "102028.811000", "102028.813000", "102028.815000", "102028.817000", "102108.774000", "102108.777000", "102108.779000", "102108.781000", "102108.784000", "102108.786000", "102108.788000", "102108.790000", "102108.793000", "102108.795000", "102108.797000", "102108.800000", "102108.802000", "102108.804000", "102108.806000", "102108.809000", "102108.811000", "102108.813000", "102108.815000", "102108.818000", "102148.774000", "102148.777000", "102148.779000", "102148.781000", "102148.784000", "102148.786000", "102148.788000", "102148.790000", "102148.793000", "102148.795000", "102148.797000", "102148.800000", "102148.802000", "102148.804000", "102148.806000", "102148.809000", "102148.811000", "102148.813000", "102148.815000", "102148.818000", "102228.773000", "102228.776000", "102228.778000", "102228.780000", "102228.782000", "102228.785000", "102228.787000", "102228.789000", "102228.791000", "102228.794000", "102228.796000", "102228.798000", "102228.822000", "102228.824000", "102228.826000", "102228.829000", "102228.831000", "102228.833000", "102228.835000", "102228.838000", "102308.774000", "102308.777000", "102308.779000", "102308.781000", "102308.783000", "102308.786000", "102308.788000", "102308.790000", "102308.793000", "102308.795000", "102308.797000", "102308.799000", "102308.802000", "102308.804000", "102308.806000", "102308.809000", "102308.811000", "102308.813000", "102308.815000", "102308.818000", "102348.774000", "102348.777000", "102348.779000", "102348.781000", "102348.784000", "102348.786000", "102348.788000", "102348.790000", "102348.793000", "102348.795000", "102348.797000", "102348.800000", "102348.802000", "102348.804000", "102348.807000", "102348.809000", "102348.811000", "102348.813000", "102348.816000", "102348.818000", "102428.773000", "102428.776000", "102428.778000", "102428.780000", "102428.783000", "102428.785000", "102428.787000", "102428.789000", "102428.792000", "102428.794000", "102428.796000", "102428.798000", "102428.825000", "102428.827000", "102428.830000", "102428.832000", "102428.834000", "102428.837000", "102428.839000", "102428.841000", "102508.774000", "102508.777000", "102508.779000", "102508.781000", "102508.784000", "102508.786000", "102508.788000", "102508.790000", "102508.793000", "102508.795000", "102508.797000", "102508.815000", "102508.818000", "102508.820000", "102508.822000", "102508.824000", "102508.827000", "102508.829000", "102508.831000", "102508.833000", "102539.929000", "102539.931000", "102539.934000", "102539.936000", "102539.938000", "102539.941000", "102539.943000", "102539.945000", "102539.948000", "102539.950000", "102539.952000", "102539.955000", "102539.957000", "102539.960000", "102539.963000", "102539.967000"],
      "InstanceCreationTime": ["101948.778000", "101948.781000", "101948.783000", "101948.786000", "101948.788000", "101948.790000", "101948.792000", "101948.795000", "101948.797000", "101948.799000", "101948.801000", "101948.804000", "101948.806000", "101948.808000", "101948.811000", "101948.813000", "101948.815000", "101948.817000", "101948.820000", "101948.822000", "101948.833000", "101948.835000", "101948.838000", "101948.840000", "102028.774000", "102028.777000", "102028.779000", "102028.781000", "102028.783000", "102028.786000", "102028.788000", "102028.790000", "102028.792000", "102028.795000", "102028.797000", "102028.799000", "102028.802000", "102028.804000", "102028.806000", "102028.808000", "102028.811000", "102028.813000", "102028.815000", "102028.817000", "102108.774000", "102108.777000", "102108.779000", "102108.781000", "102108.784000", "102108.786000", "102108.788000", "102108.790000", "102108.793000", "102108.795000", "102108.797000", "102108.800000", "102108.802000", "102108.804000", "102108.806000", "102108.809000", "102108.811000", "102108.813000", "102108.815000", "102108.818000", "102148.774000", "102148.777000", "102148.779000", "102148.781000", "102148.784000", "102148.786000", "102148.788000", "102148.790000", "102148.793000", "102148.795000", "102148.797000", "102148.800000", "102148.802000", "102148.804000", "102148.806000", "102148.809000", "102148.811000", "102148.813000", "102148.815000", "102148.818000", "102228.773000", "102228.776000", "102228.778000", "102228.780000", "102228.782000", "102228.785000", "102228.787000", "102228.789000", "102228.791000", "102228.794000", "102228.796000", "102228.798000", "102228.822000", "102228.824000", "102228.826000", "102228.829000", "102228.831000", "102228.833000", "102228.835000", "102228.838000", "102308.774000", "102308.777000", "102308.779000", "102308.781000", "102308.783000", "102308.786000", "102308.788000", "102308.790000", "102308.793000", "102308.795000", "102308.797000", "102308.799000", "102308.802000", "102308.804000", "102308.806000", "102308.809000", "102308.811000", "102308.813000", "102308.815000", "102308.818000", "102348.774000", "102348.777000", "102348.779000", "102348.781000", "102348.784000", "102348.786000", "102348.788000", "102348.790000", "102348.793000", "102348.795000", "102348.797000", "102348.800000", "102348.802000", "102348.804000", "102348.807000", "102348.809000", "102348.811000", "102348.813000", "102348.816000", "102348.818000", "102428.773000", "102428.776000", "102428.778000", "102428.780000", "102428.783000", "102428.785000", "102428.787000", "102428.789000", "102428.792000", "102428.794000", "102428.796000", "102428.798000", "102428.825000", "102428.827000", "102428.830000", "102428.832000", "102428.834000", "102428.837000", "102428.839000", "102428.841000", "102508.774000", "102508.777000", "102508.779000", "102508.781000", "102508.784000", "102508.786000", "102508.788000", "102508.790000", "102508.793000", "102508.795000", "102508.797000", "102508.815000", "102508.818000", "102508.820000", "102508.822000", "102508.824000", "102508.827000", "102508.829000", "102508.831000", "102508.833000", "102539.929000", "102539.931000", "102539.934000", "102539.936000", "102539.938000", "102539.941000", "102539.943000", "102539.945000", "102539.948000", "102539.950000", "102539.952000", "102539.955000", "102539.957000", "102539.960000", "102539.963000", "102539.967000"],
      "InstanceNumber": [1, 2, 3, 4, 5, 6, 7, 8, 9, 10, 11, 12, 13, 14, 15, 16, 17, 18, 19, 20, 21, 22, 23, 24, 25, 26, 27, 28, 29, 30, 31, 32, 33, 34, 35, 36, 37, 38, 39, 40, 41, 42, 43, 44, 45, 46, 47, 48, 49, 50, 51, 52, 53, 54, 55, 56, 57, 58, 59, 60, 61, 62, 63, 64, 65, 66, 67, 68, 69, 70, 71, 72, 73, 74, 75, 76, 77, 78, 79, 80, 81, 82, 83, 84, 85, 86, 87, 88, 89, 90, 91, 92, 93, 94, 95, 96, 97, 98, 99, 100, 101, 102, 103, 104, 105, 106, 107, 108, 109, 110, 111, 112, 113, 114, 115, 116, 117, 118, 119, 120, 121, 122, 123, 124, 125, 126, 127, 128, 129, 130, 131, 132, 133, 134, 135, 136, 137, 138, 139, 140, 141, 142, 143, 144, 145, 146, 147, 148, 149, 150, 151, 152, 153, 154, 155, 156, 157, 158, 159, 160, 161, 162, 163, 164, 165, 166, 167, 168, 169, 170, 171, 172, 173, 174, 175, 176, 177, 178, 179, 180, 181, 182, 183, 184, 185, 186, 187, 188, 189, 190, 191, 192, 193, 194, 195, 196, 197, 198, 199, 200],
      "LargestImagePixelValue": [412, 412, 411, 412, 414, 410, 412, 410, 411, 414, 410, 412, 412, 411, 412, 411, 413, 412, 411, 412, 412, 411, 414, 412, 412, 413, 411, 413, 412, 412, 414, 411, 411, 412, 410, 412, 411, 412, 412, 410, 413, 414, 411, 413, 411, 411, 411, 410, 412, 411, 412, 413, 412, 412, 412, 412, 412, 409, 412, 412, 412, 412, 412, 411, 411, 412, 413, 411, 411, 411, 410, 411, 411, 411, 412, 412, 411, 412, 411, 412, 411, 411, 413, 410, 410, 413, 411, 411, 412, 411, 411, 411, 411, 413, 410, 411, 411, 409, 411, 411, 412, 413, 410, 412, 410, 412, 412, 410, 412, 411, 411, 412, 409, 410, 412, 411, 411, 411, 413, 411, 410, 412, 413, 410, 410, 411, 411, 412, 412, 412, 410, 410, 412, 410, 410, 411, 410, 411, 412, 412, 412, 411, 412, 409, 409, 412, 409, 410, 413, 410, 412, 412, 413, 412, 412, 412, 412, 412, 412, 410, 411, 411, 410, 412, 410, 411, 412, 411, 411, 412, 409, 410, 412, 410, 412, 410, 411, 411, 409, 412, 410, 411, 412, 409, 411, 410, 411, 413, 408, 411, 411, 409, 411, 412, 411, 410, 410, 411, 410, 410],
      "WindowCenter": [313.0, 313.0, 313.0, 313.0, 313.0, 312.0, 313.0, 313.0, 313.0, 313.0, 313.0, 313.0, 313.0, 313.0, 313.0, 313.0, 313.0, 312.0, 313.0, 313.0, 313.0, 313.0, 313.0, 313.0, 313.0, 313.0, 312.0, 313.0, 313.0, 313.0, 312.0, 313.0, 313.0, 313.0, 313.0, 313.0, 313.0, 313.0, 313.0, 313.0, 312.0, 313.0, 313.0, 312.0, 313.0, 313.0, 312.0, 313.0, 312.0, 313.0, 313.0, 312.0, 313.0, 313.0, 312.0, 313.0, 312.0, 312.0, 313.0, 313.0, 313.0, 312.0, 312.0, 313.0, 312.0, 312.0, 313.0, 313.0, 313.0, 312.0, 312.0, 312.0, 313.0, 313.0, 312.0, 313.0, 312.0, 312.0, 312.0, 312.0, 312.0, 312.0, 312.0, 312.0, 312.0, 312.0, 312.0, 312.0, 312.0, 312.0, 312.0, 312.0, 312.0, 312.0, 312.0, 312.0, 312.0, 311.0, 312.0, 312.0, 312.0, 312.0, 312.0, 312.0, 312.0, 312.0, 312.0, 312.0, 312.0, 312.0, 312.0, 312.0, 311.0, 312.0, 312.0, 312.0, 312.0, 312.0, 312.0, 312.0, 312.0, 312.0, 312.0, 312.0, 312.0, 312.0, 312.0, 312.0, 312.0, 312.0, 312.0, 312.0, 312.0, 312.0, 312.0, 312.0, 312.0, 312.0, 312.0, 312.0, 311.0, 312.0, 312.0, 311.0, 311.0, 312.0, 311.0, 312.0, 312.0, 312.0, 312.0, 312.0, 312.0, 312.0, 312.0, 312.0, 312.0, 312.0, 312.0, 312.0, 312.0, 312.0, 312.0, 312.0, 312.0, 312.0, 312.0, 312.0, 312.0, 312.0, 311.0, 312.0, 312.0, 312.0, 312.0, 312.0, 312.0, 312.0, 311.0, 312.0, 312.0, 312.0, 312.0, 311.0, 312.0, 312.0, 312.0, 312.0, 311.0, 312.0, 312.0, 311.0, 312.0, 312.0, 312.0, 312.0, 312.0, 312.0, 312.0, 312.0],
      "WindowWidth": [674.0, 674.0, 674.0, 674.0, 673.0, 673.0, 674.0, 674.0, 674.0, 674.0, 674.0, 674.0, 674.0, 674.0, 674.0, 674.0, 674.0, 673.0, 674.0, 674.0, 674.0, 674.0, 674.0, 674.0, 674.0, 674.0, 673.0, 674.0, 674.0, 674.0, 673.0, 674.0, 674.0, 674.0, 674.0, 673.0, 674.0, 674.0, 674.0, 674.0, 673.0, 674.0, 674.0, 673.0, 674.0, 674.0, 673.0, 674.0, 673.0, 673.0, 674.0, 673.0, 674.0, 674.0, 673.0, 674.0, 673.0, 673.0, 673.0, 674.0, 674.0, 673.0, 673.0, 674.0, 673.0, 673.0, 674.0, 674.0, 673.0, 672.0, 673.0, 673.0, 674.0, 674.0, 673.0, 674.0, 673.0, 673.0, 672.0, 672.0, 673.0, 673.0, 673.0, 673.0, 673.0, 672.0, 673.0, 673.0, 673.0, 673.0, 672.0, 673.0, 672.0, 673.0, 672.0, 673.0, 672.0, 672.0, 673.0, 673.0, 672.0, 672.0, 673.0, 673.0, 673.0, 672.0, 672.0, 673.0, 672.0, 673.0, 673.0, 672.0, 671.0, 673.0, 672.0, 673.0, 672.0, 672.0, 672.0, 672.0, 672.0, 672.0, 672.0, 673.0, 673.0, 672.0, 673.0, 673.0, 672.0, 673.0, 672.0, 672.0, 673.0, 672.0, 672.0, 672.0, 673.0, 672.0, 673.0, 672.0, 672.0, 672.0, 672.0, 671.0, 672.0, 672.0, 672.0, 672.0, 672.0, 673.0, 672.0, 672.0, 672.0, 672.0, 672.0, 673.0, 672.0, 672.0, 672.0, 672.0, 672.0, 672.0, 672.0, 672.0, 672.0, 672.0, 672.0, 672.0, 672.0, 672.0, 672.0, 672.0, 672.0, 672.0, 672.0, 673.0, 672.0, 672.0, 671.0, 672.0, 672.0, 672.0, 672.0, 671.0, 672.0, 672.0, 672.0, 672.0, 671.0, 672.0, 672.0, 671.0, 672.0, 672.0, 672.0, 672.0, 672.0, 672.0, 672.0, 672.0]
    },
    "slices": {}
  }
}