{
  "AcquisitionMatrixPE": 80,
  "AcquisitionNumber": 1,
  "AcquisitionTime": "10:05:24.110000",
  "BandwidthPerPixelPhaseEncode": 46.296,
  "BaseResolution": 80,
  "BodyPartExamined": "BRAIN",
  "CoilCombinationMethod": "Sum of Squares",
  "ConsistencyInfo": "N4_VE11E_LATEST_20181129",
  "ConversionSoftware": "dcm2niix",
  "ConversionSoftwareVersion": "v1.0.20220720",
  "DerivedVendorReportedEchoSpacing": 0.000540003,
  "DeviceSerialNumber": "66112",
  "DwellTime": 2.7e-06,
  "EchoTime": 0.035,
  "EchoTrainLength": 39,
  "EffectiveEchoSpacing": 0.000270002,
  "FlipAngle": 90,
  "HeudiconvVersion": "0.13.1",
  "ImageOrientationPatientDICOM": [0.988292, 0.152304, 0.00906125, -0.148054, 0.942975, 0.298124],
  "ImageOrientationText": "Tra>Cor(17.2)>Sag(-2.1)",
  "ImageType": [
    "ORIGINAL",
    "PRIMARY",
    "M",
    "ND",
    "NORM",
    "MOSAIC"
],
  "ImagingFrequency": 123.259,
  "InPlanePhaseEncodingDirectionDICOM": "COL",
  "InstitutionAddress": "Maynard 3,Hanover,NH,US,03755",
  "InstitutionName": "Dartmouth College - PBS",
  "InstitutionalDepartmentName": "Department",
  "MRAcquisitionType": "2D",
  "MagneticFieldStrength": 3,
  "Manufacturer": "Siemens",
  "ManufacturersModelName": "Prisma",
  "Modality": "MR",
  "MultibandAccelerationFactor": 4,
  "NonlinearGradientCorrection": false,
  "ParallelReductionFactorInPlane": 2,
  "PartialFourier": 1,
  "PatientPosition": "HFS",
  "PercentPhaseFOV": 100,
  "PercentSampling": 100,
  "PhaseEncodingDirection": "j-",
  "PhaseEncodingSteps": 79,
  "PhaseResolution": 1,
  "PixelBandwidth": 2315,
  "ProcedureStepDescription": "dbic^QA",
  "ProtocolName": "func-bold_task-rest_acq-p2-s4-3.5mm",
  "PulseSequenceDetails": "%SiemensSeq%\\ep2d_bold",
  "ReceiveCoilActiveElements": "HEA;HEP",
  "ReceiveCoilName": "Head_32",
  "ReconMatrixPE": 80,
  "RefLinesPE": 24,
  "RepetitionTime": 2,
  "SAR": 0.0177154,
  "ScanOptions": "FS",
  "ScanningSequence": "EP",
  "SequenceName": "*epfid2d1_80",
  "SequenceVariant": "SK",
  "SeriesDescription": "func-bold_task-rest_acq-p2-s4-3.5mm",
  "SeriesNumber": 7,
  "ShimSetting": [4221, -7730, -7489, -19, -135, -42, 16, 86],
  "SliceThickness": 3.5,
  "SliceTiming": [1.485, 0, 0.99, 0.2475, 1.2375, 0.7425, 1.7325, 0.495, 1.485, 0, 0.99, 0.2475, 1.2375, 0.7425, 1.7325, 0.495, 1.485, 0, 0.99, 0.2475, 1.2375, 0.7425, 1.7325, 0.495, 1.485, 0, 0.99, 0.2475, 1.2375, 0.7425, 1.7325, 0.495],
  "SoftwareVersions": "syngo MR E11",
  "SpacingBetweenSlices": 3.99,
  "StationName": "AWP66112",
  "TaskName": "rest",
  "TotalReadoutTime": 0.0213301,
  "TxRefAmp": 229.871,
  "dcmmeta_affine": [
    [-2.964876413345337, -0.4441618025302887, -0.14707538485527039, 142.88192749023438],
    [-0.4569128453731537, 2.828925609588623, 1.18094003200531, -114.93946838378906],
    [0.027183743193745613, -0.8943713307380676, 3.80839204788208, -22.70846176147461],
    [0.0, 0.0, 0.0, 1.0]
],
  "dcmmeta_reorient_transform": [
    [0.0, -1.0, 0.0, 79.0],
    [1.0, 0.0, 0.0, 0.0],
    [0.0, 0.0, 1.0, 0.0],
    [0.0, 0.0, 0.0, 1.0]
],
  "dcmmeta_shape": [80, 80, 32, 200],
  "dcmmeta_slice_dim": 2,
  "dcmmeta_version": 0.6,
  "global": {
    "const": {
      "AccessionNumber": "qa",
      "AcquisitionMatrix": [80, 0, 0, 80],
      "AngioFlag": "N",
      "BitsAllocated": 16,
      "BitsStored": 12,
      "BodyPartExamined": "BRAIN",
      "Columns": 480,
      "EchoNumbers": 1,
      "EchoTime": 35.0,
      "EchoTrainLength": 39,
      "FlipAngle": 90.0,
      "HighBit": 11,
      "ImageOrientationPatient": [0.98829211239332, 0.15230428219282, 0.00906124753416, -0.1480539342313, 0.94297520671407, 0.29812378650688],
      "ImagePositionPatient": [-611.93605116958, -765.71335168764, -277.67481905301],
      "ImageType": [
        "ORIGINAL",
        "PRIMARY",
        "M",
        "ND",
        "NORM",
        "MOSAIC"
],
      "ImagedNucleus": "1H",
      "ImagingFrequency": 123.259273,
      "InPlanePhaseEncodingDirection": "COL",
      "MRAcquisitionType": "2D",
      "MagneticFieldStrength": 3.0,
      "Manufacturer": "SIEMENS",
      "ManufacturerModelName": "Prisma",
      "Modality": "MR",
      "NumberOfAverages": 1.0,
      "NumberOfPhaseEncodingSteps": 79,
      "PercentPhaseFieldOfView": 100.0,
      "PercentSampling": 100.0,
      "PerformedProcedureStepStartTime": "095435.242000",
      "PhotometricInterpretation": "MONOCHROME2",
      "PixelBandwidth": 2315.0,
      "PixelRepresentation": 0,
      "PixelSpacing": [3.0, 3.0],
      "ProtocolName": "func-bold_task-rest_acq-p2-s4-3.5mm",
      "RepetitionTime": 2000.0,
      "Rows": 480,
      "SAR": 0.01771540235239,
      "SamplesPerPixel": 1,
      "ScanOptions": "FS",
      "ScanningSequence": "EP",
      "SequenceName": "*epfid2d1_80",
      "SequenceVariant": "SK",
      "SeriesDescription": "func-bold_task-rest_acq-p2-s4-3.5mm",
      "SeriesNumber": 7,
      "SeriesTime": "100608.861000",
      "SliceLocation": -60.960839414159,
      "SliceThickness": 3.5,
      "SmallestImagePixelValue": 0,
      "SoftwareVersions": "syngo MR E11",
      "SpacingBetweenSlices": 3.9899999658522,
      "SpecificCharacterSet": "ISO_IR 100",
      "StudyID": "25",
      "StudyTime": "095435.152000",
      "TransmitCoilName": "Body",
      "VariableFlipAngleFlag": "N",
      "WindowCenterWidthExplanation": "Algo1"
    },
    "slices": {}
  },
  "time": {
    "samples": {
      "AcquisitionNumber": [1, 2, 3, 4, 5, 6, 7, 8, 9, 10, 11, 12, 13, 14, 15, 16, 17, 18, 19, 20, 21, 22, 23, 24, 25, 26, 27, 28, 29, 30, 31, 32, 33, 34, 35, 36, 37, 38, 39, 40, 41, 42, 43, 44, 45, 46, 47, 48, 49, 50, 51, 52, 53, 54, 55, 56, 57, 58, 59, 60, 61, 62, 63, 64, 65, 66, 67, 68, 69, 70, 71, 72, 73, 74, 75, 76, 77, 78, 79, 80, 81, 82, 83, 84, 85, 86, 87, 88, 89, 90, 91, 92, 93, 94, 95, 96, 97, 98, 99, 100, 101, 102, 103, 104, 105, 106, 107, 108, 109, 110, 111, 112, 113, 114, 115, 116, 117, 118, 119, 120, 121, 122, 123, 124, 125, 126, 127, 128, 129, 130, 131, 132, 133, 134, 135, 136, 137, 138, 139, 140, 141, 142, 143, 144, 145, 146, 147, 148, 149, 150, 151, 152, 153, 154, 155, 156, 157, 158, 159, 160, 161, 162, 163, 164, 165, 166, 167, 168, 169, 170, 171, 172, 173, 174, 175, 176, 177, 178, 179, 180, 181, 182, 183, 184, 185, 186, 187, 188, 189, 190, 191, 192, 193, 194, 195, 196, 197, 198, 199, 200],
      "AcquisitionTime": ["100524.110000", "100526.110000", "100528.110000", "100530.110000", "100532.110000", "100534.110000", "100536.110000", "100538.110000", "100540.110000", "100542.110000", "100544.110000", "100546.110000", "100548.110000", "100550.110000", "100552.110000", "100554.110000", "100556.110000", "100558.110000", "100600.110000", "100602.110000", "100604.110000", "100606.110000", "100608.110000", "100610.110000", "100612.110000", "100614.110000", "100616.110000", "100618.110000", "100620.110000", "100622.110000", "100624.110000", "100626.110000", "100628.110000", "100630.110000", "100632.110000", "100634.110000", "100636.110000", "100638.110000", "100640.110000", "100642.110000", "100644.110000", "100646.110000", "100648.110000", "100650.110000", "100652.110000", "100654.110000", "100656.110000", "100658.110000", "100700.110000", "100702.110000", "100704.110000", "100706.110000", "100708.110000", "100710.110000", "100712.110000", "100714.110000", "100716.110000", "100718.110000", "100720.110000", "100722.110000", "100724.110000", "100726.110000", "100728.110000", "100730.110000", "100732.110000", "100734.110000", "100736.110000", "100738.110000", "100740.110000", "100742.110000", "100744.110000", "100746.110000", "100748.110000", "100750.110000", "100752.110000", "100754.110000", "100756.110000", "100758.110000", "100800.110000", "100802.110000", "100804.110000", "100806.110000", "100808.110000", "100810.110000", "100812.110000", "100814.110000", "100816.110000", "100818.110000", "100820.110000", "100822.110000", "100824.110000", "100826.110000", "100828.110000", "100830.110000", "100832.110000", "100834.110000", "100836.110000", "100838.110000", "100840.110000", "100842.110000", "100844.110000", "100846.110000", "100848.110000", "100850.110000", "100852.110000", "100854.110000", "100856.110000", "100858.110000", "100900.110000", "100902.110000", "100904.110000", "100906.110000", "100908.110000", "100910.110000", "100912.110000", "100914.110000", "100916.110000", "100918.110000", "100920.110000", "100922.110000", "100924.110000", "100926.110000", "100928.110000", "100930.110000", "100932.110000", "100934.110000", "100936.110000", "100938.110000", "100940.110000", "100942.110000", "100944.110000", "100946.110000", "100948.110000", "100950.110000", "100952.110000", "100954.110000", "100956.110000", "100958.110000", "101000.110000", "101002.110000", "101004.110000", "101006.110000", "101008.110000", "101010.110000", "101012.110000", "101014.110000", "101016.110000", "101018.110000", "101020.110000", "101022.110000", "101024.110000", "101026.110000", "101028.110000", "101030.110000", "101032.110000", "101034.110000", "101036.110000", "101038.110000", "101040.110000", "101042.110000", "101044.110000", "101046.110000", "101048.110000", "101050.110000", "101052.110000", "101054.110000", "101056.110000", "101058.110000", "101100.110000", "101102.110000", "101104.110000", "101106.110000", "101108.110000", "101110.110000", "101112.110000", "101114.110000", "101116.110000", "101118.110000", "101120.110000", "101122.110000", "101124.110000", "101126.110000", "101128.110000", "101130.110000", "101132.110000", "101134.110000", "101136.110000", "101138.110000", "101140.110000", "101142.110000", "101144.110000", "101146.110000", "101148.110000", "101150.110000", "101152.110000", "101154.110000", "101156.110000", "101158.110000", "101200.110000", "101202.110000"],
      "ContentTime": ["100608.864000", "100608.867000", "100608.870000", "100608.872000", "100608.874000", "100608.877000", "100608.879000", "100608.881000", "100608.884000", "100608.886000", "100608.888000", "100608.890000", "100608.902000", "100608.907000", "100608.909000", "100608.911000", "100608.920000", "100608.922000", "100608.925000", "100608.927000", "100608.929000", "100608.932000", "100648.860000", "100648.863000", "100648.865000", "100648.868000", "100648.870000", "100648.872000", "100648.874000", "100648.877000", "100648.879000", "100648.881000", "100648.884000", "100648.886000", "100648.888000", "100648.890000", "100648.893000", "100648.895000", "100648.897000", "100648.899000", "100648.902000", "100648.915000", "100728.860000", "100728.863000", "100728.865000", "100728.867000", "100728.870000", "100728.872000", "100728.874000", "100728.877000", "100728.879000", "100728.881000", "100728.884000", "100728.886000", "100728.888000", "100728.891000", "100728.893000", "100728.895000", "100728.898000", "100728.900000", "100728.902000", "100728.904000", "100808.859000", "100808.862000", "100808.864000", "100808.866000", "100808.869000", "100808.871000", "100808.873000", "100808.876000", "100808.878000", "100808.880000", "100808.882000", "100808.885000", "100808.887000", "100808.889000", "100808.892000", "100808.894000", "100808.896000", "100808.898000", "100808.901000", "100808.903000", "100848.860000", "100848.863000", "100848.865000", "100848.868000", "100848.870000", "100848.872000", "100848.875000", "100848.877000", "100848.879000", "100848.882000", "100848.884000", "100848.886000", "100848.888000", "100848.891000", "100848.893000", "100848.895000", "100848.897000", "100848.900000", "100848.902000", "100848.904000", "100928.860000", "100928.863000", "100928.865000", "100928.867000", "100928.870000", "100928.872000", "100928.874000", "100928.877000", "100928.879000", "100928.881000", "100928.883000", "100928.886000", "100928.888000", "100928.890000", "100928.893000", "100928.895000", "100928.897000", "100928.899000", "100928.902000", "100928.904000", "101008.860000", "101008.863000", "101008.865000", "101008.868000", "101008.870000", "101008.884000", "101008.886000", "101008.889000", "101008.891000", "101008.893000", "101008.896000", "101008.898000", "101008.900000", "101008.903000", "101008.905000", "101008.907000", "101008.909000", "101008.912000", "101008.914000", "101008.916000", "101048.859000", "101048.862000", "101048.864000", "101048.866000", "101048.869000", "101048.871000", "101048.873000", "101048.876000", "101048.878000", "101048.880000", "101048.882000", "101048.885000", "101048.887000", "101048.889000", "101048.892000", "101048.894000", "101048.896000", "101048.899000", "101048.901000", "101048.903000", "101128.860000", "101128.863000", "101128.873000", "101128.875000", "101128.878000", "101128.880000", "101128.882000", "101128.885000", "101128.887000", "101128.889000", "101128.892000", "101128.894000", "101128.896000", "101128.899000", "101128.901000", "101128.903000", "101128.905000", "101128.908000", "101128.910000", "101128.912000", "101203.661000", "101203.663000", "101203.666000", "101203.669000", "101203.671000", "101203.673000", "101203.676000", "101203.678000", "101203.680000", "101203.683000", "101203.685000", "101203.687000", "101203.690000", "101203.692000", "101203.694000", "101203.697000", "101203.699000", "101203.701000"],
      "InstanceCreationTime": ["100608.864000", "100608.867000", "100608.870000", "100608.872000", "100608.874000", "100608.877000", "100608.879000", "100608.881000", "100608.884000", "100608.886000", "100608.888000", "100608.890000", "100608.902000", "100608.907000", "100608.909000", "100608.911000", "100608.920000", "100608.922000", "100608.925000", "100608.927000", "100608.929000", "100608.932000", "100648.860000", "100648.863000", "100648.865000", "100648.868000", "100648.870000", "100648.872000", "100648.874000", "100648.877000", "100648.879000", "100648.881000", "100648.884000", "100648.886000", "100648.888000", "100648.890000", "100648.893000", "100648.895000", "100648.897000", "100648.899000", "100648.902000", "100648.915000", "100728.860000", "100728.863000", "100728.865000", "100728.867000", "100728.870000", "100728.872000", "100728.874000", "100728.877000", "100728.879000", "100728.881000", "100728.884000", "100728.886000", "100728.888000", "100728.891000", "100728.893000", "100728.895000", "100728.898000", "100728.900000", "100728.902000", "100728.904000", "100808.859000", "100808.862000", "100808.864000", "100808.866000", "100808.869000", "100808.871000", "100808.873000", "100808.876000", "100808.878000", "100808.880000", "100808.882000", "100808.885000", "100808.887000", "100808.889000", "100808.892000", "100808.894000", "100808.896000", "100808.898000", "100808.901000", "100808.903000", "100848.860000", "100848.863000", "100848.865000", "100848.868000", "100848.870000", "100848.872000", "100848.875000", "100848.877000", "100848.879000", "100848.882000", "100848.884000", "100848.886000", "100848.888000", "100848.891000", "100848.893000", "100848.895000", "100848.897000", "100848.900000", "100848.902000", "100848.904000", "100928.860000", "100928.863000", "100928.865000", "100928.867000", "100928.870000", "100928.872000", "100928.874000", "100928.877000", "100928.879000", "100928.881000", "100928.883000", "100928.886000", "100928.888000", "100928.890000", "100928.893000", "100928.895000", "100928.897000", "100928.899000", "100928.902000", "100928.904000", "101008.860000", "101008.863000", "101008.865000", "101008.868000", "101008.870000", "101008.884000", "101008.886000", "101008.889000", "101008.891000", "101008.893000", "101008.896000", "101008.898000", "101008.900000", "101008.903000", "101008.905000", "101008.907000", "101008.909000", "101008.912000", "101008.914000", "101008.916000", "101048.859000", "101048.862000", "101048.864000", "101048.866000", "101048.869000", "101048.871000", "101048.873000", "101048.876000", "101048.878000", "101048.880000", "101048.882000", "101048.885000", "101048.887000", "101048.889000", "101048.892000", "101048.894000", "101048.896000", "101048.899000", "101048.901000", "101048.903000", "101128.860000", "101128.863000", "101128.873000", "101128.875000", "101128.878000", "101128.880000", "101128.882000", "101128.885000", "101128.887000", "101128.889000", "101128.892000", "101128.894000", "101128.896000", "101128.899000", "101128.901000", "101128.903000", "101128.905000", "101128.908000", "101128.910000", "101128.912000", "101203.661000", "101203.663000", "101203.666000", "101203.669000", "101203.671000", "101203.673000", "101203.676000", "101203.678000", "101203.680000", "101203.683000", "101203.685000", "101203.687000", "101203.690000", "101203.692000", "101203.694000", "101203.697000", "101203.699000", "101203.701000"],
      "InstanceNumber": [1, 2, 3, 4, 5, 6, 7, 8, 9, 10, 11, 12, 13, 14, 15, 16, 17, 18, 19, 20, 21, 22, 23, 24, 25, 26, 27, 28, 29, 30, 31, 32, 33, 34, 35, 36, 37, 38, 39, 40, 41, 42, 43, 44, 45, 46, 47, 48, 49, 50, 51, 52, 53, 54, 55, 56, 57, 58, 59, 60, 61, 62, 63, 64, 65, 66, 67, 68, 69, 70, 71, 72, 73, 74, 75, 76, 77, 78, 79, 80, 81, 82, 83, 84, 85, 86, 87, 88, 89, 90, 91, 92, 93, 94, 95, 96, 97, 98, 99, 100, 101, 102, 103, 104, 105, 106, 107, 108, 109, 110, 111, 112, 113, 114, 115, 116, 117, 118, 119, 120, 121, 122, 123, 124, 125, 126, 127, 128, 129, 130, 131, 132, 133, 134, 135, 136, 137, 138, 139, 140, 141, 142, 143, 144, 145, 146, 147, 148, 149, 150, 151, 152, 153, 154, 155, 156, 157, 158, 159, 160, 161, 162, 163, 164, 165, 166, 167, 168, 169, 170, 171, 172, 173, 174, 175, 176, 177, 178, 179, 180, 181, 182, 183, 184, 185, 186, 187, 188, 189, 190, 191, 192, 193, 194, 195, 196, 197, 198, 199, 200],
      "LargestImagePixelValue": [2499, 2500, 2494, 2497, 2499, 2497, 2497, 2497, 2498, 2500, 2503, 2500, 2497, 2496, 2502, 2501, 2502, 2502, 2503, 2498, 2499, 2500, 2499, 2505, 2498, 2498, 2500, 2501, 2500, 2503, 2500, 2494, 2501, 2498, 2500, 2503, 2502, 2498, 2502, 2499, 2501, 2503, 2501, 2503, 2499, 2501, 2500, 2500, 2499, 2501, 2501, 2499, 2498, 2503, 2497, 2499, 2506, 2502, 2505, 2499, 2500, 2505, 2507, 2501, 2502, 2500, 2497, 2504, 2504, 2504, 2500, 2498, 2495, 2505, 2501, 2506, 2504, 2501, 2499, 2500, 2500, 2498, 2504, 2504, 2501, 2499, 2502, 2505, 2506, 2501, 2499, 2494, 2497, 2504, 2501, 2501, 2501, 2499, 2496, 2501, 2502, 2504, 2499, 2502, 2498, 2501, 2502, 2504, 2501, 2501, 2498, 2499, 2503, 2502, 2504, 2503, 2498, 2498, 2504, 2497, 2505, 2505, 2505, 2498, 2499, 2502, 2501, 2500, 2501, 2496, 2502, 2498, 2499, 2501, 2501, 2498, 2500, 2498, 2500, 2504, 2504, 2500, 2504, 2500, 2497, 2502, 2502, 2500, 2502, 2503, 2499, 2501, 2500, 2500, 2503, 2502, 2498, 2499, 2501, 2502, 2504, 2501, 2507, 2499, 2498, 2503, 2499, 2507, 2502, 2499, 2502, 2501, 2501, 2502, 2504, 2500, 2500, 2497, 2501, 2503, 2502, 2500, 2502, 2500, 2501, 2503, 2502, 2501, 2500, 2503, 2500, 2496, 2505, 2500, 2500, 2503, 2498, 2500, 2499, 2501],
      "WindowCenter": [983.0, 985.0, 984.0, 985.0, 984.0, 983.0, 983.0, 985.0, 985.0, 986.0, 987.0, 985.0, 986.0, 985.0, 983.0, 984.0, 986.0, 983.0, 984.0, 985.0, 984.0, 984.0, 983.0, 984.0, 986.0, 984.0, 985.0, 984.0, 986.0, 984.0, 984.0, 986.0, 984.0, 984.0, 985.0, 984.0, 984.0, 984.0, 984.0, 984.0, 986.0, 984.0, 985.0, 985.0, 984.0, 984.0, 986.0, 984.0, 986.0, 984.0, 984.0, 983.0, 984.0, 984.0, 985.0, 984.0, 986.0, 984.0, 984.0, 986.0, 983.0, 985.0, 984.0, 984.0, 985.0, 983.0, 984.0, 984.0, 985.0, 984.0, 983.0, 984.0, 986.0, 986.0, 986.0, 984.0, 984.0, 984.0, 984.0, 984.0, 984.0, 985.0, 984.0, 984.0, 986.0, 985.0, 986.0, 984.0, 986.0, 986.0, 985.0, 985.0, 986.0, 986.0, 984.0, 985.0, 984.0, 986.0, 986.0, 984.0, 984.0, 984.0, 984.0, 986.0, 984.0, 984.0, 983.0, 984.0, 984.0, 986.0, 984.0, 985.0, 986.0, 984.0, 985.0, 984.0, 985.0, 984.0, 984.0, 984.0, 985.0, 984.0, 984.0, 986.0, 985.0, 984.0, 984.0, 984.0, 984.0, 984.0, 984.0, 984.0, 984.0, 984.0, 985.0, 986.0, 984.0, 984.0, 984.0, 984.0, 984.0, 984.0, 986.0, 984.0, 985.0, 984.0, 984.0, 986.0, 984.0, 984.0, 984.0, 984.0, 985.0, 984.0, 984.0, 985.0, 984.0, 984.0, 985.0, 984.0, 984.0, 986.0, 984.0, 986.0, 985.0, 985.0, 983.0, 984.0, 985.0, 984.0, 984.0, 986.0, 984.0, 984.0, 983.0, 984.0, 984.0, 984.0, 984.0, 983.0, 983.0, 984.0, 984.0, 984.0, 984.0, 983.0, 984.0, 984.0, 983.0, 984.0, 984.0, 984.0, 985.0, 985.0, 984.0, 985.0, 985.0, 984.0, 984.0, 984.0],
      "WindowWidth": [2352.0, 2353.0, 2353.0, 2354.0, 2353.0, 2352.0, 2352.0, 2354.0, 2354.0, 2354.0, 2355.0, 2353.0, 2354.0, 2353.0, 2352.0, 2353.0, 2354.0, 2352.0, 2353.0, 2353.0, 2353.0, 2353.0, 2352.0, 2353.0, 2354.0, 2352.0, 2355.0, 2353.0, 2354.0, 2353.0, 2353.0, 2355.0, 2353.0, 2353.0, 2354.0, 2353.0, 2353.0, 2353.0, 2353.0, 2352.0, 2354.0, 2353.0, 2353.0, 2354.0, 2353.0, 2353.0, 2354.0, 2353.0, 2354.0, 2352.0, 2353.0, 2352.0, 2352.0, 2353.0, 2354.0, 2353.0, 2354.0, 2353.0, 2352.0, 2354.0, 2352.0, 2353.0, 2352.0, 2353.0, 2353.0, 2352.0, 2353.0, 2353.0, 2354.0, 2353.0, 2352.0, 2352.0, 2354.0, 2354.0, 2354.0, 2353.0, 2353.0, 2353.0, 2353.0, 2352.0, 2352.0, 2354.0, 2353.0, 2353.0, 2354.0, 2353.0, 2354.0, 2353.0, 2354.0, 2354.0, 2353.0, 2353.0, 2354.0, 2354.0, 2352.0, 2354.0, 2352.0, 2354.0, 2354.0, 2352.0, 2352.0, 2352.0, 2352.0, 2354.0, 2352.0, 2352.0, 2352.0, 2352.0, 2353.0, 2354.0, 2352.0, 2353.0, 2354.0, 2352.0, 2354.0, 2352.0, 2354.0, 2352.0, 2352.0, 2352.0, 2353.0, 2352.0, 2352.0, 2353.0, 2353.0, 2352.0, 2352.0, 2352.0, 2353.0, 2353.0, 2352.0, 2352.0, 2352.0, 2352.0, 2354.0, 2354.0, 2353.0, 2352.0, 2352.0, 2352.0, 2353.0, 2352.0, 2354.0, 2352.0, 2353.0, 2353.0, 2352.0, 2353.0, 2352.0, 2353.0, 2353.0, 2352.0, 2354.0, 2352.0, 2353.0, 2354.0, 2352.0, 2352.0, 2354.0, 2352.0, 2353.0, 2354.0, 2352.0, 2355.0, 2353.0, 2353.0, 2352.0, 2352.0, 2353.0, 2353.0, 2352.0, 2353.0, 2352.0, 2353.0, 2351.0, 2352.0, 2352.0, 2352.0, 2352.0, 2352.0, 2352.0, 2352.0, 2352.0, 2352.0, 2353.0, 2352.0, 2353.0, 2352.0, 2351.0, 2352.0, 2352.0, 2353.0, 2353.0, 2352.0, 2352.0, 2354.0, 2352.0, 2352.0, 2352.0, 2352.0]
    },
    "slices": {}
  }
}