{
  "AcquisitionMatrixPE": 80,
  "AcquisitionNumber": 1,
  "AcquisitionTime": "10:20:41.210000",
  "BandwidthPerPixelPhaseEncode": 48.077,
  "BaseResolution": 80,
  "BodyPartExamined": "BRAIN",
  "CoilCombinationMethod": "Sum of Squares",
  "ConsistencyInfo": "N4_VE11C_LATEST_20160120",
  "ConversionSoftware": "dcm2niix",
  "ConversionSoftwareVersion": "v1.0.20220720",
  "DerivedVendorReportedEchoSpacing": 0.000519999,
  "DeviceSerialNumber": "66112",
  "DwellTime": 2.7e-06,
  "EchoTime": 0.035,
  "EchoTrainLength": 39,
  "EffectiveEchoSpacing": 0.00026,
  "FlipAngle": 90,
  "HeudiconvVersion": "0.13.1",
  "ImageOrientationPatientDICOM": [0.997172, 0.0747154, -0.00807545, -0.0744527, 0.996802, 0.0290117],
  "ImageOrientationText": "Tra>Cor(1.6)>Sag(-0.6)",
  "ImageType": [
    "ORIGINAL",
    "PRIMARY",
    "M",
    "ND",
    "NORM",
    "MOSAIC"
],
  "ImagingFrequency": 123.252,
  "InPlanePhaseEncodingDirectionDICOM": "COL",
  "InstitutionAddress": "Maynard 3,Hanover,NH,US,03755",
  "InstitutionName": "Dartmouth College - PBS",
  "InstitutionalDepartmentName": "Department",
  "MRAcquisitionType": "2D",
  "MagneticFieldStrength": 3,
  "Manufacturer": "Siemens",
  "ManufacturersModelName": "Prisma",
  "MatrixCoilMode": "GRAPPA",
  "Modality": "MR",
  "NonlinearGradientCorrection": false,
  "ParallelReductionFactorInPlane": 2,
  "PartialFourier": 1,
  "PatientPosition": "HFS",
  "PercentPhaseFOV": 100,
  "PercentSampling": 100,
  "PhaseEncodingDirection": "j-",
  "PhaseEncodingSteps": 79,
  "PhaseResolution": 1,
  "PixelBandwidth": 2315,
  "ProcedureStepDescription": "dbic^QA",
  "ProtocolName": "func-bold_task-rest_acq-p2",
  "PulseSequenceDetails": "%SiemensSeq%\\ep2d_bold",
  "ReceiveCoilActiveElements": "HEA;HEP",
  "ReceiveCoilName": "Head_32",
  "ReconMatrixPE": 80,
  "RefLinesPE": 24,
  "RepetitionTime": 2,
  "SAR": 0.175949,
  "ScanOptions": "FS",
  "ScanningSequence": "EP",
  "SequenceName": "*epfid2d1_80",
  "SequenceVariant": "SK",
  "SeriesDescription": "func-bold_task-rest_acq-p2",
  "SeriesNumber": 5,
  "ShimSetting": [4141, -7710, -7267, -766, -75, 18, -106, 58],
  "SliceThickness": 3.5,
  "SliceTiming": [0.99, 0, 1.0575, 0.0675, 1.1225, 0.1325, 1.1875, 0.1975, 1.255, 0.265, 1.32, 0.33, 1.3875, 0.3975, 1.4525, 0.4625, 1.5175, 0.5275, 1.585, 0.595, 1.65, 0.66, 1.715, 0.7275, 1.7825, 0.7925, 1.8475, 0.8575, 1.915, 0.925],
  "SoftwareVersions": "syngo MR E11",
  "SpacingBetweenSlices": 3.99,
  "StationName": "AWP66112",
  "TaskName": "rest",
  "TotalReadoutTime": 0.02054,
  "TxRefAmp": 185.683,
  "dcmmeta_affine": [
    [-2.991516590118408, -0.2233581393957138, -0.040766846388578415, 130.2147674560547],
    [-0.22414609789848328, 2.9904072284698486, 0.11303053796291351, -93.16545867919922],
    [-0.024226360023021698, -0.08703520148992538, 3.9881904125213623, -75.43448638916016],
    [0.0, 0.0, 0.0, 1.0]
],
  "dcmmeta_reorient_transform": [
    [0.0, -1.0, 0.0, 79.0],
    [1.0, 0.0, 0.0, 0.0],
    [0.0, 0.0, 1.0, 0.0],
    [0.0, 0.0, 0.0, 1.0]
],
  "dcmmeta_shape": [80, 80, 30, 200],
  "dcmmeta_slice_dim": 2,
  "dcmmeta_version": 0.6,
  "global": {
    "const": {
      "AccessionNumber": "qa-emmet",
      "AcquisitionMatrix": [80, 0, 0, 80],
      "AngioFlag": "N",
      "BitsAllocated": 16,
      "BitsStored": 12,
      "BodyPartExamined": "BRAIN",
      "Columns": 480,
      "EchoNumbers": 1,
      "EchoTime": 35.0,
      "EchoTrainLength": 39,
      "FlipAngle": 90.0,
      "HighBit": 11,
      "ImageOrientationPatient": [0.99717220248549, 0.07471536415292, -0.0080754535313, -0.0744527118985, 0.99680244430819, 0.02901173404298],
      "ImagePositionPatient": [-666.2011684603, -785.98740331453, -94.872034566087],
      "ImageType": [
        "ORIGINAL",
        "PRIMARY",
        "M",
        "ND",
        "NORM",
        "MOSAIC"
],
      "ImagedNucleus": "1H",
      "ImagingFrequency": 123.252323,
      "InPlanePhaseEncodingDirection": "COL",
      "MRAcquisitionType": "2D",
      "MagneticFieldStrength": 3.0,
      "Manufacturer": "SIEMENS",
      "ManufacturerModelName": "Prisma",
      "Modality": "MR",
      "NumberOfAverages": 1.0,
      "NumberOfPhaseEncodingSteps": 79,
      "PercentPhaseFieldOfView": 100.0,
      "PercentSampling": 100.0,
      "PerformedProcedureStepStartTime": "101752.076000",
      "PhotometricInterpretation": "MONOCHROME2",
      "PixelBandwidth": 2315.0,
      "PixelRepresentation": 0,
      "PixelSpacing": [3.0, 3.0],
      "ProtocolName": "func-bold_task-rest_acq-p2",
      "RepetitionTime": 2000.0,
      "Rows": 480,
      "SAR": 0.17594927546352,
      "SamplesPerPixel": 1,
      "ScanOptions": "FS",
      "ScanningSequence": "EP",
      "SequenceName": "*epfid2d1_80",
      "SequenceVariant": "SK",
      "SeriesDescription": "func-bold_task-rest_acq-p2",
      "SeriesNumber": 5,
      "SeriesTime": "102139.317000",
      "SliceLocation": -79.369942964094,
      "SliceThickness": 3.5,
      "SmallestImagePixelValue": 0,
      "SoftwareVersions": "syngo MR E11",
      "SpacingBetweenSlices": 3.9900001495581,
      "SpecificCharacterSet": "ISO_IR 100",
      "StudyID": "1",
      "StudyTime": "101751.958000",
      "TransmitCoilName": "Body",
      "VariableFlipAngleFlag": "N",
      "WindowCenterWidthExplanation": "Algo1",
      "dBdt": 0.0},
    "slices": {}
  },
  "time": {
    "samples": {
      "AcquisitionNumber": [1, 2, 3, 4, 5, 6, 7, 8, 9, 10, 11, 12, 13, 14, 15, 16, 17, 18, 19, 20, 21, 22, 23, 24, 25, 26, 27, 28, 29, 30, 31, 32, 33, 34, 35, 36, 37, 38, 39, 40, 41, 42, 43, 44, 45, 46, 47, 48, 49, 50, 51, 52, 53, 54, 55, 56, 57, 58, 59, 60, 61, 62, 63, 64, 65, 66, 67, 68, 69, 70, 71, 72, 73, 74, 75, 76, 77, 78, 79, 80, 81, 82, 83, 84, 85, 86, 87, 88, 89, 90, 91, 92, 93, 94, 95, 96, 97, 98, 99, 100, 101, 102, 103, 104, 105, 106, 107, 108, 109, 110, 111, 112, 113, 114, 115, 116, 117, 118, 119, 120, 121, 122, 123, 124, 125, 126, 127, 128, 129, 130, 131, 132, 133, 134, 135, 136, 137, 138, 139, 140, 141, 142, 143, 144, 145, 146, 147, 148, 149, 150, 151, 152, 153, 154, 155, 156, 157, 158, 159, 160, 161, 162, 163, 164, 165, 166, 167, 168, 169, 170, 171, 172, 173, 174, 175, 176, 177, 178, 179, 180, 181, 182, 183, 184, 185, 186, 187, 188, 189, 190, 191, 192, 193, 194, 195, 196, 197, 198, 199, 200],
      "AcquisitionTime": ["102041.210000", "102043.210000", "102045.210000", "102047.210000", "102049.210000", "102051.210000", "102053.210000", "102055.210000", "102057.210000", "102059.210000", "102101.210000", "102103.210000", "102105.210000", "102107.210000", "102109.210000", "102111.210000", "102113.210000", "102115.210000", "102117.210000", "102119.210000", "102121.210000", "102123.210000", "102125.210000", "102127.210000", "102129.210000", "102131.210000", "102133.210000", "102135.210000", "102137.210000", "102139.210000", "102141.210000", "102143.210000", "102145.210000", "102147.210000", "102149.210000", "102151.210000", "102153.210000", "102155.210000", "102157.210000", "102159.210000", "102201.210000", "102203.210000", "102205.210000", "102207.210000", "102209.210000", "102211.210000", "102213.210000", "102215.210000", "102217.210000", "102219.210000", "102221.210000", "102223.210000", "102225.210000", "102227.210000", "102229.210000", "102231.210000", "102233.210000", "102235.210000", "102237.210000", "102239.210000", "102241.210000", "102243.210000", "102245.210000", "102247.210000", "102249.210000", "102251.210000", "102253.210000", "102255.210000", "102257.210000", "102259.210000", "102301.210000", "102303.210000", "102305.210000", "102307.210000", "102309.210000", "102311.210000", "102313.210000", "102315.210000", "102317.210000", "102319.210000", "102321.210000", "102323.210000", "102325.210000", "102327.210000", "102329.210000", "102331.210000", "102333.210000", "102335.210000", "102337.210000", "102339.210000", "102341.210000", "102343.210000", "102345.210000", "102347.210000", "102349.210000", "102351.210000", "102353.210000", "102355.210000", "102357.210000", "102359.210000", "102401.210000", "102403.210000", "102405.210000", "102407.210000", "102409.210000", "102411.210000", "102413.210000", "102415.210000", "102417.210000", "102419.210000", "102421.210000", "102423.210000", "102425.210000", "102427.210000", "102429.210000", "102431.210000", "102433.210000", "102435.210000", "102437.210000", "102439.210000", "102441.210000", "102443.210000", "102445.210000", "102447.210000", "102449.210000", "102451.210000", "102453.210000", "102455.210000", "102457.210000", "102459.210000", "102501.210000", "102503.210000", "102505.210000", "102507.210000", "102509.210000", "102511.210000", "102513.210000", "102515.210000", "102517.210000", "102519.210000", "102521.210000", "102523.210000", "102525.210000", "102527.210000", "102529.210000", "102531.210000", "102533.210000", "102535.210000", "102537.210000", "102539.210000", "102541.210000", "102543.210000", "102545.210000", "102547.210000", "102549.210000", "102551.210000", "102553.210000", "102555.210000", "102557.210000", "102559.210000", "102601.210000", "102603.210000", "102605.210000", "102607.210000", "102609.210000", "102611.210000", "102613.210000", "102615.210000", "102617.210000", "102619.210000", "102621.210000", "102623.210000", "102625.210000", "102627.210000", "102629.210000", "102631.210000", "102633.210000", "102635.210000", "102637.210000", "102639.210000", "102641.210000", "102643.210000", "102645.210000", "102647.210000", "102649.210000", "102651.210000", "102653.210000", "102655.210000", "102657.210000", "102659.210000", "102701.210000", "102703.210000", "102705.210000", "102707.210000", "102709.210000", "102711.210000", "102713.210000", "102715.210000", "102717.210000", "102719.210000"],
      "ContentTime": ["102139.322000", "102139.326000", "102139.328000", "102139.331000", "102139.333000", "102139.336000", "102139.339000", "102139.341000", "102139.344000", "102139.347000", "102139.349000", "102139.352000", "102139.354000", "102139.357000", "102139.360000", "102139.362000", "102139.365000", "102139.367000", "102139.370000", "102139.373000", "102139.375000", "102139.389000", "102139.396000", "102139.399000", "102139.402000", "102139.404000", "102139.407000", "102139.409000", "102139.412000", "102219.314000", "102219.317000", "102219.320000", "102219.322000", "102219.325000", "102219.327000", "102219.330000", "102219.333000", "102219.335000", "102219.338000", "102219.340000", "102219.343000", "102219.355000", "102219.357000", "102219.360000", "102219.362000", "102219.365000", "102219.367000", "102219.370000", "102219.373000", "102259.315000", "102259.318000", "102259.321000", "102259.323000", "102259.326000", "102259.328000", "102259.331000", "102259.333000", "102259.336000", "102259.338000", "102259.341000", "102259.349000", "102259.351000", "102259.354000", "102259.357000", "102259.359000", "102259.362000", "102259.364000", "102259.367000", "102259.370000", "102339.315000", "102339.318000", "102339.321000", "102339.323000", "102339.336000", "102339.339000", "102339.342000", "102339.344000", "102339.347000", "102339.350000", "102339.353000", "102339.355000", "102339.358000", "102339.361000", "102339.363000", "102339.366000", "102339.368000", "102339.371000", "102339.373000", "102339.376000", "102419.314000", "102419.317000", "102419.320000", "102419.322000", "102419.325000", "102419.327000", "102419.330000", "102419.333000", "102419.335000", "102419.338000", "102419.340000", "102419.343000", "102419.345000", "102419.348000", "102419.351000", "102419.353000", "102419.356000", "102419.358000", "102419.361000", "102419.363000", "102459.315000", "102459.318000", "102459.321000", "102459.323000", "102459.326000", "102459.329000", "102459.331000", "102459.334000", "102459.336000", "102459.339000", "102459.341000", "102459.344000", "102459.346000", "102459.349000", "102459.351000", "102459.354000", "102459.357000", "102459.359000", "102459.362000", "102459.364000", "102539.315000", "102539.318000", "102539.321000", "102539.323000", "102539.326000", "102539.328000", "102539.331000", "102539.333000", "102539.336000", "102539.338000", "102539.341000", "102539.344000", "102539.346000", "102539.349000", "102539.351000", "102539.354000", "102539.356000", "102539.359000", "102539.362000", "102539.364000", "102619.315000", "102619.318000", "102619.321000", "102619.323000", "102619.326000", "102619.329000", "102619.331000", "102619.334000", "102619.336000", "102619.339000", "102619.342000", "102619.344000", "102619.347000", "102619.349000", "102619.352000", "102619.354000", "102619.357000", "102619.360000", "102619.362000", "102619.365000", "102659.314000", "102659.317000", "102659.332000", "102659.334000", "102659.337000", "102659.339000", "102659.342000", "102659.344000", "102659.347000", "102659.350000", "102659.352000", "102659.355000", "102659.357000", "102659.360000", "102659.362000", "102659.365000", "102659.368000", "102659.370000", "102659.373000", "102659.375000", "102720.519000", "102720.522000", "102720.525000", "102720.528000", "102720.531000", "102720.533000", "102720.536000", "102720.538000", "102720.541000", "102720.544000", "102720.546000"],
      "InstanceCreationTime": ["102139.322000", "102139.326000", "102139.328000", "102139.331000", "102139.333000", "102139.336000", "102139.339000", "102139.341000", "102139.344000", "102139.347000", "102139.349000", "102139.352000", "102139.354000", "102139.357000", "102139.360000", "102139.362000", "102139.365000", "102139.367000", "102139.370000", "102139.373000", "102139.375000", "102139.389000", "102139.396000", "102139.399000", "102139.402000", "102139.404000", "102139.407000", "102139.409000", "102139.412000", "102219.314000", "102219.317000", "102219.320000", "102219.322000", "102219.325000", "102219.327000", "102219.330000", "102219.333000", "102219.335000", "102219.338000", "102219.340000", "102219.343000", "102219.355000", "102219.357000", "102219.360000", "102219.362000", "102219.365000", "102219.367000", "102219.370000", "102219.373000", "102259.315000", "102259.318000", "102259.321000", "102259.323000", "102259.326000", "102259.328000", "102259.331000", "102259.333000", "102259.336000", "102259.338000", "102259.341000", "102259.349000", "102259.351000", "102259.354000", "102259.357000", "102259.359000", "102259.362000", "102259.364000", "102259.367000", "102259.370000", "102339.315000", "102339.318000", "102339.321000", "102339.323000", "102339.336000", "102339.339000", "102339.342000", "102339.344000", "102339.347000", "102339.350000", "102339.353000", "102339.355000", "102339.358000", "102339.361000", "102339.363000", "102339.366000", "102339.368000", "102339.371000", "102339.373000", "102339.376000", "102419.314000", "102419.317000", "102419.320000", "102419.322000", "102419.325000", "102419.327000", "102419.330000", "102419.333000", "102419.335000", "102419.338000", "102419.340000", "102419.343000", "102419.345000", "102419.348000", "102419.351000", "102419.353000", "102419.356000", "102419.358000", "102419.361000", "102419.363000", "102459.315000", "102459.318000", "102459.321000", "102459.323000", "102459.326000", "102459.329000", "102459.331000", "102459.334000", "102459.336000", "102459.339000", "102459.341000", "102459.344000", "102459.346000", "102459.349000", "102459.351000", "102459.354000", "102459.357000", "102459.359000", "102459.362000", "102459.364000", "102539.315000", "102539.318000", "102539.321000", "102539.323000", "102539.326000", "102539.328000", "102539.331000", "102539.333000", "102539.336000", "102539.338000", "102539.341000", "102539.344000", "102539.346000", "102539.349000", "102539.351000", "102539.354000", "102539.356000", "102539.359000", "102539.362000", "102539.364000", "102619.315000", "102619.318000", "102619.321000", "102619.323000", "102619.326000", "102619.329000", "102619.331000", "102619.334000", "102619.336000", "102619.339000", "102619.342000", "102619.344000", "102619.347000", "102619.349000", "102619.352000", "102619.354000", "102619.357000", "102619.360000", "102619.362000", "102619.365000", "102659.314000", "102659.317000", "102659.332000", "102659.334000", "102659.337000", "102659.339000", "102659.342000", "102659.344000", "102659.347000", "102659.350000", "102659.352000", "102659.355000", "102659.357000", "102659.360000", "102659.362000", "102659.365000", "102659.368000", "102659.370000", "102659.373000", "102659.375000", "102720.519000", "102720.522000", "102720.525000", "102720.528000", "102720.531000", "102720.533000", "102720.536000", "102720.538000", "102720.541000", "102720.544000", "102720.546000"],
      "InstanceNumber": [1, 2, 3, 4, 5, 6, 7, 8, 9, 10, 11, 12, 13, 14, 15, 16, 17, 18, 19, 20, 21, 22, 23, 24, 25, 26, 27, 28, 29, 30, 31, 32, 33, 34, 35, 36, 37, 38, 39, 40, 41, 42, 43, 44, 45, 46, 47, 48, 49, 50, 51, 52, 53, 54, 55, 56, 57, 58, 59, 60, 61, 62, 63, 64, 65, 66, 67, 68, 69, 70, 71, 72, 73, 74, 75, 76, 77, 78, 79, 80, 81, 82, 83, 84, 85, 86, 87, 88, 89, 90, 91, 92, 93, 94, 95, 96, 97, 98, 99, 100, 101, 102, 103, 104, 105, 106, 107, 108, 109, 110, 111, 112, 113, 114, 115, 116, 117, 118, 119, 120, 121, 122, 123, 124, 125, 126, 127, 128, 129, 130, 131, 132, 133, 134, 135, 136, 137, 138, 139, 140, 141, 142, 143, 144, 145, 146, 147, 148, 149, 150, 151, 152, 153, 154, 155, 156, 157, 158, 159, 160, 161, 162, 163, 164, 165, 166, 167, 168, 169, 170, 171, 172, 173, 174, 175, 176, 177, 178, 179, 180, 181, 182, 183, 184, 185, 186, 187, 188, 189, 190, 191, 192, 193, 194, 195, 196, 197, 198, 199, 200],
      "LargestImagePixelValue": [1338, 1346, 1322, 1331, 1346, 1349, 1352, 1339, 1340, 1338, 1349, 1333, 1339, 1347, 1343, 1358, 1333, 1338, 1348, 1338, 1347, 1339, 1340, 1351, 1343, 1347, 1344, 1350, 1336, 1334, 1349, 1332, 1340, 1341, 1337, 1340, 1338, 1337, 1326, 1330, 1343, 1335, 1349, 1343, 1344, 1332, 1328, 1341, 1344, 1338, 1339, 1347, 1349, 1337, 1344, 1332, 1352, 1340, 1342, 1328, 1334, 1346, 1348, 1352, 1343, 1339, 1346, 1347, 1351, 1348, 1351, 1346, 1338, 1332, 1343, 1353, 1337, 1350, 1343, 1338, 1340, 1343, 1334, 1337, 1342, 1345, 1351, 1329, 1351, 1333, 1339, 1339, 1348, 1357, 1350, 1331, 1324, 1337, 1337, 1353, 1356, 1337, 1339, 1352, 1337, 1354, 1342, 1338, 1337, 1329, 1340, 1343, 1334, 1351, 1343, 1353, 1360, 1344, 1345, 1340, 1343, 1336, 1346, 1329, 1353, 1340, 1335, 1330, 1344, 1349, 1327, 1341, 1354, 1338, 1334, 1355, 1339, 1340, 1349, 1348, 1348, 1356, 1337, 1330, 1345, 1348, 1348, 1340, 1349, 1337, 1341, 1332, 1344, 1335, 1340, 1345, 1339, 1350, 1335, 1348, 1330, 1334, 1341, 1347, 1341, 1333, 1352, 1341, 1327, 1339, 1342, 1336, 1346, 1335, 1341, 1355, 1326, 1354, 1344, 1329, 1351, 1329, 1347, 1346, 1333, 1335, 1343, 1335, 1339, 1342, 1351, 1346, 1339, 1342, 1345, 1343, 1340, 1346, 1347, 1341],
      "WindowCenter": [738.0, 738.0, 738.0, 739.0, 738.0, 738.0, 738.0, 738.0, 738.0, 738.0, 738.0, 738.0, 739.0, 738.0, 738.0, 738.0, 738.0, 738.0, 738.0, 739.0, 739.0, 739.0, 739.0, 739.0, 739.0, 738.0, 739.0, 738.0, 739.0, 738.0, 739.0, 739.0, 739.0, 739.0, 739.0, 739.0, 739.0, 738.0, 739.0, 739.0, 739.0, 739.0, 739.0, 739.0, 739.0, 739.0, 738.0, 739.0, 739.0, 739.0, 739.0, 739.0, 739.0, 739.0, 739.0, 738.0, 739.0, 739.0, 739.0, 739.0, 739.0, 738.0, 739.0, 739.0, 739.0, 739.0, 739.0, 738.0, 739.0, 739.0, 739.0, 739.0, 739.0, 739.0, 739.0, 739.0, 739.0, 739.0, 739.0, 739.0, 739.0, 739.0, 739.0, 739.0, 739.0, 739.0, 739.0, 739.0, 739.0, 739.0, 739.0, 739.0, 739.0, 739.0, 739.0, 739.0, 739.0, 739.0, 739.0, 739.0, 739.0, 739.0, 739.0, 739.0, 739.0, 739.0, 739.0, 739.0, 739.0, 739.0, 739.0, 739.0, 739.0, 739.0, 739.0, 739.0, 739.0, 739.0, 739.0, 739.0, 739.0, 739.0, 739.0, 739.0, 739.0, 739.0, 739.0, 739.0, 739.0, 739.0, 739.0, 739.0, 739.0, 739.0, 739.0, 739.0, 739.0, 739.0, 739.0, 739.0, 739.0, 739.0, 739.0, 739.0, 739.0, 739.0, 739.0, 739.0, 739.0, 739.0, 739.0, 739.0, 739.0, 739.0, 739.0, 739.0, 739.0, 739.0, 739.0, 739.0, 739.0, 739.0, 739.0, 739.0, 739.0, 739.0, 739.0, 739.0, 739.0, 739.0, 739.0, 739.0, 739.0, 739.0, 739.0, 739.0, 739.0, 739.0, 739.0, 739.0, 739.0, 739.0, 739.0, 739.0, 739.0, 739.0, 739.0, 739.0, 739.0, 739.0, 739.0, 739.0, 739.0, 739.0, 739.0, 739.0, 739.0, 739.0, 739.0, 739.0],
      "WindowWidth": [1564.0, 1564.0, 1564.0, 1564.0, 1564.0, 1564.0, 1564.0, 1564.0, 1564.0, 1564.0, 1564.0, 1564.0, 1564.0, 1564.0, 1564.0, 1564.0, 1564.0, 1564.0, 1564.0, 1564.0, 1564.0, 1564.0, 1564.0, 1564.0, 1564.0, 1564.0, 1564.0, 1564.0, 1564.0, 1564.0, 1564.0, 1564.0, 1564.0, 1564.0, 1564.0, 1564.0, 1564.0, 1564.0, 1564.0, 1564.0, 1564.0, 1564.0, 1564.0, 1564.0, 1564.0, 1565.0, 1564.0, 1564.0, 1564.0, 1564.0, 1565.0, 1565.0, 1565.0, 1565.0, 1565.0, 1564.0, 1564.0, 1564.0, 1564.0, 1565.0, 1564.0, 1564.0, 1564.0, 1565.0, 1565.0, 1565.0, 1565.0, 1564.0, 1564.0, 1565.0, 1565.0, 1565.0, 1565.0, 1565.0, 1565.0, 1565.0, 1565.0, 1565.0, 1565.0, 1565.0, 1565.0, 1565.0, 1565.0, 1565.0, 1565.0, 1565.0, 1565.0, 1565.0, 1565.0, 1565.0, 1565.0, 1565.0, 1565.0, 1565.0, 1565.0, 1565.0, 1565.0, 1565.0, 1565.0, 1565.0, 1565.0, 1565.0, 1565.0, 1565.0, 1565.0, 1565.0, 1565.0, 1565.0, 1565.0, 1565.0, 1565.0, 1565.0, 1565.0, 1565.0, 1565.0, 1565.0, 1565.0, 1565.0, 1565.0, 1565.0, 1565.0, 1565.0, 1565.0, 1565.0, 1565.0, 1565.0, 1565.0, 1565.0, 1565.0, 1565.0, 1565.0, 1565.0, 1565.0, 1565.0, 1565.0, 1565.0, 1565.0, 1565.0, 1565.0, 1565.0, 1565.0, 1565.0, 1565.0, 1565.0, 1565.0, 1565.0, 1565.0, 1565.0, 1565.0, 1565.0, 1565.0, 1565.0, 1565.0, 1565.0, 1565.0, 1565.0, 1565.0, 1566.0, 1566.0, 1565.0, 1566.0, 1565.0, 1565.0, 1566.0, 1565.0, 1566.0, 1565.0, 1565.0, 1565.0, 1565.0, 1565.0, 1565.0, 1566.0, 1566.0, 1565.0, 1566.0, 1565.0, 1566.0, 1566.0, 1565.0, 1566.0, 1565.0, 1566.0, 1566.0, 1565.0, 1565.0, 1566.0, 1565.0, 1566.0, 1565.0, 1566.0, 1565.0, 1566.0, 1565.0, 1565.0, 1565.0, 1566.0, 1565.0, 1565.0, 1565.0]
    },
    "slices": {}
  }
}