{
  "AcquisitionMatrixPE": 80,
  "AcquisitionNumber": 1,
  "AcquisitionTime": "11:51:54.537500",
  "BandwidthPerPixelPhaseEncode": 48.077,
  "BaseResolution": 80,
  "BodyPartExamined": "BRAIN",
  "CoilCombinationMethod": "Sum of Squares",
  "ConsistencyInfo": "N4_VE11C_LATEST_20160120",
  "ConversionSoftware": "dcm2niix",
  "ConversionSoftwareVersion": "v1.0.20220720",
  "DerivedVendorReportedEchoSpacing": 0.000519999,
  "DeviceSerialNumber": "66112",
  "DwellTime": 2.7e-06,
  "EchoTime": 0.035,
  "EchoTrainLength": 39,
  "EffectiveEchoSpacing": 0.00026,
  "FlipAngle": 90,
  "HeudiconvVersion": "0.13.1",
  "ImageOrientationPatientDICOM": [0.986175, 0.165422, 0.00967037, -0.160079, 0.935991, 0.31352],
  "ImageOrientationText": "Tra>Cor(18.1)>Sag(-2.5)",
  "ImageType": [
    "ORIGINAL",
    "PRIMARY",
    "M",
    "ND",
    "NORM",
    "MOSAIC"
],
  "ImagingFrequency": 123.252,
  "InPlanePhaseEncodingDirectionDICOM": "COL",
  "InstitutionAddress": "Maynard 3,Hanover,NH,US,03755",
  "InstitutionName": "Dartmouth College - PBS",
  "InstitutionalDepartmentName": "Department",
  "MRAcquisitionType": "2D",
  "MagneticFieldStrength": 3,
  "Manufacturer": "Siemens",
  "ManufacturersModelName": "Prisma",
  "MatrixCoilMode": "GRAPPA",
  "Modality": "MR",
  "NonlinearGradientCorrection": false,
  "ParallelReductionFactorInPlane": 2,
  "PartialFourier": 1,
  "PatientPosition": "HFS",
  "PercentPhaseFOV": 100,
  "PercentSampling": 100,
  "PhaseEncodingDirection": "j-",
  "PhaseEncodingSteps": 79,
  "PhaseResolution": 1,
  "PixelBandwidth": 2315,
  "ProcedureStepDescription": "dbic^QA",
  "ProtocolName": "func-bold_task-rest_acq-p2",
  "PulseSequenceDetails": "%SiemensSeq%\\ep2d_bold",
  "ReceiveCoilActiveElements": "HEA;HEP",
  "ReceiveCoilName": "Head_32",
  "ReconMatrixPE": 80,
  "RefLinesPE": 24,
  "RepetitionTime": 2,
  "SAR": 0.0473409,
  "ScanOptions": "FS",
  "ScanningSequence": "EP",
  "SequenceName": "*epfid2d1_80",
  "SequenceVariant": "SK",
  "SeriesDescription": "func-bold_task-rest_acq-p2",
  "SeriesNumber": 5,
  "ShimSetting": [4144, -7696, -7529, 231, -71, -106, -23, 64],
  "SliceThickness": 3.5,
  "SliceTiming": [0.99, 0, 1.055, 0.065, 1.1225, 0.1325, 1.1875, 0.1975, 1.255, 0.265, 1.32, 0.33, 1.385, 0.395, 1.4525, 0.4625, 1.5175, 0.5275, 1.585, 0.595, 1.65, 0.66, 1.715, 0.725, 1.7825, 0.7925, 1.8475, 0.8575, 1.915, 0.925],
  "SoftwareVersions": "syngo MR E11",
  "SpacingBetweenSlices": 3.99,
  "StationName": "AWP66112",
  "TaskName": "rest",
  "TotalReadoutTime": 0.02054,
  "TxRefAmp": 218.173,
  "dcmmeta_affine": [
    [-2.958526134490967, -0.48023656010627747, -0.1708192378282547, 142.2866668701172],
    [-0.49626725912094116, 2.807974338531494, 1.239827275276184, -108.44068145751953],
    [0.029011104255914688, -0.9405597448348999, 3.7886343002319336, -19.81757926940918],
    [0.0, 0.0, 0.0, 1.0]
],
  "dcmmeta_reorient_transform": [
    [0.0, -1.0, 0.0, 79.0],
    [1.0, 0.0, 0.0, 0.0],
    [0.0, 0.0, 1.0, 0.0],
    [0.0, 0.0, 0.0, 1.0]
],
  "dcmmeta_shape": [80, 80, 30, 200],
  "dcmmeta_slice_dim": 2,
  "dcmmeta_version": 0.6,
  "global": {
    "const": {
      "AccessionNumber": "qa",
      "AcquisitionMatrix": [80, 0, 0, 80],
      "AngioFlag": "N",
      "BitsAllocated": 16,
      "BitsStored": 12,
      "BodyPartExamined": "BRAIN",
      "Columns": 480,
      "EchoNumbers": 1,
      "EchoTime": 35.0,
      "EchoTrainLength": 39,
      "FlipAngle": 90.0,
      "HighBit": 11,
      "ImageOrientationPatient": [0.98617539430648, 0.16542241580457, 0.00967036782301, -0.1600788491863, 0.9359914647723, 0.31351991948936],
      "ImagePositionPatient": [-600.00590738783, -774.23762711776, -288.03597323453],
      "ImageType": [
        "ORIGINAL",
        "PRIMARY",
        "M",
        "ND",
        "NORM",
        "MOSAIC"
],
      "ImagedNucleus": "1H",
      "ImagingFrequency": 123.252359,
      "InPlanePhaseEncodingDirection": "COL",
      "MRAcquisitionType": "2D",
      "MagneticFieldStrength": 3.0,
      "Manufacturer": "SIEMENS",
      "ManufacturerModelName": "Prisma",
      "Modality": "MR",
      "NumberOfAverages": 1.0,
      "NumberOfPhaseEncodingSteps": 79,
      "PercentPhaseFieldOfView": 100.0,
      "PercentSampling": 100.0,
      "PerformedProcedureStepStartTime": "114011.358000",
      "PhotometricInterpretation": "MONOCHROME2",
      "PixelBandwidth": 2315.0,
      "PixelRepresentation": 0,
      "PixelSpacing": [3.0, 3.0],
      "ProtocolName": "func-bold_task-rest_acq-p2",
      "RepetitionTime": 2000.0,
      "Rows": 480,
      "SAR": 0.04734087593869,
      "SamplesPerPixel": 1,
      "ScanOptions": "FS",
      "ScanningSequence": "EP",
      "SequenceName": "*epfid2d1_80",
      "SequenceVariant": "SK",
      "SeriesDescription": "func-bold_task-rest_acq-p2",
      "SeriesNumber": 5,
      "SeriesTime": "115248.155000",
      "SliceLocation": -58.605155994613,
      "SliceThickness": 3.5,
      "SmallestImagePixelValue": 0,
      "SoftwareVersions": "syngo MR E11",
      "SpacingBetweenSlices": 3.9900000129272,
      "SpecificCharacterSet": "ISO_IR 100",
      "StudyID": "40",
      "StudyTime": "114011.313000",
      "TransmitCoilName": "Body",
      "VariableFlipAngleFlag": "N",
      "WindowCenterWidthExplanation": "Algo1",
      "dBdt": 0.0},
    "slices": {}
  },
  "time": {
    "samples": {
      "AcquisitionNumber": [1, 2, 3, 4, 5, 6, 7, 8, 9, 10, 11, 12, 13, 14, 15, 16, 17, 18, 19, 20, 21, 22, 23, 24, 25, 26, 27, 28, 29, 30, 31, 32, 33, 34, 35, 36, 37, 38, 39, 40, 41, 42, 43, 44, 45, 46, 47, 48, 49, 50, 51, 52, 53, 54, 55, 56, 57, 58, 59, 60, 61, 62, 63, 64, 65, 66, 67, 68, 69, 70, 71, 72, 73, 74, 75, 76, 77, 78, 79, 80, 81, 82, 83, 84, 85, 86, 87, 88, 89, 90, 91, 92, 93, 94, 95, 96, 97, 98, 99, 100, 101, 102, 103, 104, 105, 106, 107, 108, 109, 110, 111, 112, 113, 114, 115, 116, 117, 118, 119, 120, 121, 122, 123, 124, 125, 126, 127, 128, 129, 130, 131, 132, 133, 134, 135, 136, 137, 138, 139, 140, 141, 142, 143, 144, 145, 146, 147, 148, 149, 150, 151, 152, 153, 154, 155, 156, 157, 158, 159, 160, 161, 162, 163, 164, 165, 166, 167, 168, 169, 170, 171, 172, 173, 174, 175, 176, 177, 178, 179, 180, 181, 182, 183, 184, 185, 186, 187, 188, 189, 190, 191, 192, 193, 194, 195, 196, 197, 198, 199, 200],
      "AcquisitionTime": ["115154.537500", "115156.537500", "115158.537500", "115200.537500", "115202.537500", "115204.537500", "115206.537500", "115208.537500", "115210.537500", "115212.537500", "115214.537500", "115216.537500", "115218.537500", "115220.537500", "115222.537500", "115224.537500", "115226.537500", "115228.537500", "115230.537500", "115232.537500", "115234.537500", "115236.537500", "115238.537500", "115240.537500", "115242.537500", "115244.537500", "115246.537500", "115248.537500", "115250.537500", "115252.537500", "115254.537500", "115256.537500", "115258.537500", "115300.537500", "115302.537500", "115304.537500", "115306.537500", "115308.537500", "115310.537500", "115312.537500", "115314.537500", "115316.537500", "115318.537500", "115320.537500", "115322.537500", "115324.537500", "115326.537500", "115328.537500", "115330.537500", "115332.537500", "115334.537500", "115336.537500", "115338.537500", "115340.537500", "115342.537500", "115344.537500", "115346.537500", "115348.537500", "115350.537500", "115352.537500", "115354.537500", "115356.537500", "115358.537500", "115400.537500", "115402.537500", "115404.537500", "115406.537500", "115408.537500", "115410.537500", "115412.537500", "115414.537500", "115416.537500", "115418.537500", "115420.537500", "115422.537500", "115424.537500", "115426.537500", "115428.537500", "115430.537500", "115432.537500", "115434.537500", "115436.537500", "115438.537500", "115440.537500", "115442.537500", "115444.537500", "115446.537500", "115448.537500", "115450.537500", "115452.537500", "115454.537500", "115456.537500", "115458.537500", "115500.537500", "115502.537500", "115504.537500", "115506.537500", "115508.537500", "115510.537500", "115512.537500", "115514.537500", "115516.537500", "115518.537500", "115520.537500", "115522.537500", "115524.537500", "115526.537500", "115528.537500", "115530.537500", "115532.537500", "115534.537500", "115536.537500", "115538.537500", "115540.537500", "115542.537500", "115544.537500", "115546.537500", "115548.537500", "115550.537500", "115552.537500", "115554.537500", "115556.537500", "115558.537500", "115600.537500", "115602.537500", "115604.537500", "115606.537500", "115608.537500", "115610.537500", "115612.537500", "115614.537500", "115616.537500", "115618.537500", "115620.537500", "115622.537500", "115624.537500", "115626.537500", "115628.537500", "115630.537500", "115632.537500", "115634.537500", "115636.537500", "115638.537500", "115640.537500", "115642.537500", "115644.537500", "115646.537500", "115648.537500", "115650.537500", "115652.537500", "115654.537500", "115656.537500", "115658.537500", "115700.537500", "115702.537500", "115704.537500", "115706.537500", "115708.537500", "115710.537500", "115712.537500", "115714.537500", "115716.537500", "115718.537500", "115720.537500", "115722.537500", "115724.537500", "115726.537500", "115728.537500", "115730.537500", "115732.537500", "115734.537500", "115736.537500", "115738.537500", "115740.537500", "115742.537500", "115744.537500", "115746.537500", "115748.537500", "115750.537500", "115752.537500", "115754.537500", "115756.537500", "115758.537500", "115800.537500", "115802.537500", "115804.537500", "115806.537500", "115808.537500", "115810.537500", "115812.537500", "115814.537500", "115816.537500", "115818.537500", "115820.537500", "115822.537500", "115824.537500", "115826.537500", "115828.537500", "115830.537500", "115832.537500"],
      "ContentTime": ["115248.159000", "115248.163000", "115248.166000", "115248.168000", "115248.171000", "115248.173000", "115248.176000", "115248.178000", "115248.181000", "115248.184000", "115248.186000", "115248.189000", "115248.191000", "115248.194000", "115248.196000", "115248.199000", "115248.202000", "115248.204000", "115248.207000", "115248.209000", "115248.212000", "115248.214000", "115248.217000", "115248.220000", "115248.222000", "115248.225000", "115248.227000", "115328.129000", "115328.131000", "115328.134000", "115328.137000", "115328.139000", "115328.142000", "115328.145000", "115328.147000", "115328.150000", "115328.152000", "115328.155000", "115328.158000", "115328.160000", "115328.163000", "115328.166000", "115328.168000", "115328.171000", "115328.173000", "115328.176000", "115328.178000", "115408.128000", "115408.131000", "115408.133000", "115408.136000", "115408.139000", "115408.141000", "115408.144000", "115408.146000", "115408.149000", "115408.152000", "115408.154000", "115408.157000", "115408.160000", "115408.162000", "115408.165000", "115408.167000", "115408.170000", "115408.173000", "115408.175000", "115408.178000", "115448.128000", "115448.131000", "115448.134000", "115448.137000", "115448.139000", "115448.142000", "115448.144000", "115448.147000", "115448.150000", "115448.152000", "115448.155000", "115448.157000", "115448.160000", "115448.163000", "115448.177000", "115448.179000", "115448.182000", "115448.184000", "115448.187000", "115448.190000", "115528.129000", "115528.131000", "115528.134000", "115528.137000", "115528.139000", "115528.142000", "115528.145000", "115528.147000", "115528.150000", "115528.152000", "115528.155000", "115528.158000", "115528.160000", "115528.163000", "115528.165000", "115528.168000", "115528.171000", "115528.173000", "115528.176000", "115528.179000", "115608.129000", "115608.132000", "115608.134000", "115608.137000", "115608.139000", "115608.142000", "115608.145000", "115608.147000", "115608.150000", "115608.153000", "115608.155000", "115608.158000", "115608.160000", "115608.163000", "115608.166000", "115608.168000", "115608.171000", "115608.174000", "115608.176000", "115608.179000", "115648.129000", "115648.131000", "115648.134000", "115648.137000", "115648.145000", "115648.148000", "115648.150000", "115648.153000", "115648.156000", "115648.158000", "115648.161000", "115648.164000", "115648.166000", "115648.169000", "115648.171000", "115648.174000", "115648.177000", "115648.179000", "115648.182000", "115648.185000", "115728.129000", "115728.131000", "115728.134000", "115728.137000", "115728.140000", "115728.142000", "115728.145000", "115728.147000", "115728.150000", "115728.153000", "115728.156000", "115728.158000", "115728.161000", "115728.164000", "115728.166000", "115728.169000", "115728.172000", "115728.174000", "115728.177000", "115728.180000", "115808.129000", "115808.132000", "115808.134000", "115808.137000", "115808.140000", "115808.142000", "115808.145000", "115808.147000", "115808.150000", "115808.153000", "115808.155000", "115808.158000", "115808.161000", "115808.163000", "115808.166000", "115808.168000", "115808.171000", "115808.174000", "115808.176000", "115808.179000", "115833.901000", "115833.903000", "115833.906000", "115833.909000", "115833.912000", "115833.914000", "115833.917000", "115833.920000", "115833.922000", "115833.925000", "115833.928000", "115833.937000", "115833.940000"],
      "InstanceCreationTime": ["115248.159000", "115248.163000", "115248.166000", "115248.168000", "115248.171000", "115248.173000", "115248.176000", "115248.178000", "115248.181000", "115248.184000", "115248.186000", "115248.189000", "115248.191000", "115248.194000", "115248.196000", "115248.199000", "115248.202000", "115248.204000", "115248.207000", "115248.209000", "115248.212000", "115248.214000", "115248.217000", "115248.220000", "115248.222000", "115248.225000", "115248.227000", "115328.129000", "115328.131000", "115328.134000", "115328.137000", "115328.139000", "115328.142000", "115328.145000", "115328.147000", "115328.150000", "115328.152000", "115328.155000", "115328.158000", "115328.160000", "115328.163000", "115328.166000", "115328.168000", "115328.171000", "115328.173000", "115328.176000", "115328.178000", "115408.128000", "115408.131000", "115408.133000", "115408.136000", "115408.139000", "115408.141000", "115408.144000", "115408.146000", "115408.149000", "115408.152000", "115408.154000", "115408.157000", "115408.160000", "115408.162000", "115408.165000", "115408.167000", "115408.170000", "115408.173000", "115408.175000", "115408.178000", "115448.128000", "115448.131000", "115448.134000", "115448.137000", "115448.139000", "115448.142000", "115448.144000", "115448.147000", "115448.150000", "115448.152000", "115448.155000", "115448.157000", "115448.160000", "115448.163000", "115448.177000", "115448.179000", "115448.182000", "115448.184000", "115448.187000", "115448.190000", "115528.129000", "115528.131000", "115528.134000", "115528.137000", "115528.139000", "115528.142000", "115528.145000", "115528.147000", "115528.150000", "115528.152000", "115528.155000", "115528.158000", "115528.160000", "115528.163000", "115528.165000", "115528.168000", "115528.171000", "115528.173000", "115528.176000", "115528.179000", "115608.129000", "115608.132000", "115608.134000", "115608.137000", "115608.139000", "115608.142000", "115608.145000", "115608.147000", "115608.150000", "115608.153000", "115608.155000", "115608.158000", "115608.160000", "115608.163000", "115608.166000", "115608.168000", "115608.171000", "115608.174000", "115608.176000", "115608.179000", "115648.129000", "115648.131000", "115648.134000", "115648.137000", "115648.145000", "115648.148000", "115648.150000", "115648.153000", "115648.156000", "115648.158000", "115648.161000", "115648.164000", "115648.166000", "115648.169000", "115648.171000", "115648.174000", "115648.177000", "115648.179000", "115648.182000", "115648.185000", "115728.129000", "115728.131000", "115728.134000", "115728.137000", "115728.140000", "115728.142000", "115728.145000", "115728.147000", "115728.150000", "115728.153000", "115728.156000", "115728.158000", "115728.161000", "115728.164000", "115728.166000", "115728.169000", "115728.172000", "115728.174000", "115728.177000", "115728.180000", "115808.129000", "115808.132000", "115808.134000", "115808.137000", "115808.140000", "115808.142000", "115808.145000", "115808.147000", "115808.150000", "115808.153000", "115808.155000", "115808.158000", "115808.161000", "115808.163000", "115808.166000", "115808.168000", "115808.171000", "115808.174000", "115808.176000", "115808.179000", "115833.901000", "115833.903000", "115833.906000", "115833.909000", "115833.912000", "115833.914000", "115833.917000", "115833.920000", "115833.922000", "115833.925000", "115833.928000", "115833.937000", "115833.940000"],
      "InstanceNumber": [1, 2, 3, 4, 5, 6, 7, 8, 9, 10, 11, 12, 13, 14, 15, 16, 17, 18, 19, 20, 21, 22, 23, 24, 25, 26, 27, 28, 29, 30, 31, 32, 33, 34, 35, 36, 37, 38, 39, 40, 41, 42, 43, 44, 45, 46, 47, 48, 49, 50, 51, 52, 53, 54, 55, 56, 57, 58, 59, 60, 61, 62, 63, 64, 65, 66, 67, 68, 69, 70, 71, 72, 73, 74, 75, 76, 77, 78, 79, 80, 81, 82, 83, 84, 85, 86, 87, 88, 89, 90, 91, 92, 93, 94, 95, 96, 97, 98, 99, 100, 101, 102, 103, 104, 105, 106, 107, 108, 109, 110, 111, 112, 113, 114, 115, 116, 117, 118, 119, 120, 121, 122, 123, 124, 125, 126, 127, 128, 129, 130, 131, 132, 133, 134, 135, 136, 137, 138, 139, 140, 141, 142, 143, 144, 145, 146, 147, 148, 149, 150, 151, 152, 153, 154, 155, 156, 157, 158, 159, 160, 161, 162, 163, 164, 165, 166, 167, 168, 169, 170, 171, 172, 173, 174, 175, 176, 177, 178, 179, 180, 181, 182, 183, 184, 185, 186, 187, 188, 189, 190, 191, 192, 193, 194, 195, 196, 197, 198, 199, 200],
      "LargestImagePixelValue": [2398, 2412, 2396, 2401, 2405, 2397, 2400, 2395, 2408, 2406, 2395, 2396, 2404, 2398, 2408, 2401, 2400, 2402, 2404, 2402, 2400, 2401, 2403, 2402, 2395, 2400, 2391, 2400, 2394, 2396, 2389, 2403, 2392, 2400, 2399, 2399, 2397, 2396, 2399, 2402, 2397, 2399, 2401, 2397, 2388, 2401, 2401, 2402, 2397, 2393, 2396, 2394, 2399, 2392, 2393, 2396, 2399, 2398, 2391, 2401, 2399, 2400, 2400, 2391, 2400, 2397, 2392, 2395, 2401, 2401, 2392, 2396, 2391, 2391, 2393, 2396, 2406, 2397, 2399, 2393, 2395, 2388, 2401, 2389, 2395, 2396, 2397, 2398, 2395, 2392, 2398, 2395, 2394, 2395, 2403, 2386, 2400, 2394, 2390, 2395, 2397, 2406, 2397, 2399, 2396, 2388, 2390, 2389, 2393, 2392, 2393, 2392, 2391, 2397, 2400, 2399, 2402, 2395, 2393, 2398, 2393, 2392, 2388, 2395, 2395, 2391, 2398, 2386, 2397, 2392, 2391, 2390, 2391, 2395, 2384, 2391, 2393, 2395, 2392, 2388, 2397, 2393, 2395, 2391, 2391, 2397, 2396, 2393, 2399, 2403, 2400, 2391, 2394, 2389, 2392, 2391, 2387, 2387, 2391, 2389, 2394, 2394, 2393, 2387, 2391, 2392, 2386, 2392, 2387, 2391, 2388, 2398, 2394, 2395, 2395, 2397, 2387, 2386, 2395, 2397, 2392, 2390, 2389, 2387, 2391, 2393, 2384, 2391, 2387, 2394, 2392, 2391, 2399, 2389, 2389, 2391, 2389, 2384, 2391, 2393],
      "WindowCenter": [1056.0, 1055.0, 1056.0, 1056.0, 1056.0, 1056.0, 1055.0, 1055.0, 1055.0, 1055.0, 1055.0, 1055.0, 1055.0, 1055.0, 1055.0, 1055.0, 1055.0, 1055.0, 1055.0, 1055.0, 1055.0, 1055.0, 1055.0, 1055.0, 1055.0, 1055.0, 1055.0, 1055.0, 1055.0, 1055.0, 1055.0, 1055.0, 1055.0, 1055.0, 1055.0, 1055.0, 1055.0, 1055.0, 1055.0, 1055.0, 1055.0, 1055.0, 1055.0, 1055.0, 1055.0, 1055.0, 1055.0, 1055.0, 1055.0, 1055.0, 1055.0, 1055.0, 1055.0, 1055.0, 1055.0, 1055.0, 1055.0, 1055.0, 1055.0, 1055.0, 1055.0, 1055.0, 1055.0, 1055.0, 1055.0, 1055.0, 1055.0, 1055.0, 1055.0, 1055.0, 1055.0, 1055.0, 1055.0, 1055.0, 1055.0, 1055.0, 1055.0, 1055.0, 1055.0, 1055.0, 1055.0, 1055.0, 1055.0, 1055.0, 1055.0, 1055.0, 1055.0, 1055.0, 1055.0, 1055.0, 1055.0, 1055.0, 1055.0, 1055.0, 1055.0, 1055.0, 1055.0, 1055.0, 1055.0, 1055.0, 1055.0, 1055.0, 1055.0, 1055.0, 1055.0, 1054.0, 1055.0, 1055.0, 1055.0, 1055.0, 1055.0, 1054.0, 1054.0, 1055.0, 1055.0, 1055.0, 1055.0, 1055.0, 1055.0, 1055.0, 1055.0, 1055.0, 1055.0, 1055.0, 1055.0, 1055.0, 1055.0, 1055.0, 1055.0, 1055.0, 1055.0, 1054.0, 1055.0, 1055.0, 1055.0, 1055.0, 1054.0, 1055.0, 1055.0, 1055.0, 1055.0, 1054.0, 1054.0, 1055.0, 1054.0, 1054.0, 1055.0, 1054.0, 1054.0, 1055.0, 1054.0, 1054.0, 1054.0, 1054.0, 1054.0, 1055.0, 1054.0, 1054.0, 1054.0, 1054.0, 1054.0, 1054.0, 1054.0, 1054.0, 1054.0, 1054.0, 1054.0, 1054.0, 1054.0, 1054.0, 1054.0, 1054.0, 1054.0, 1054.0, 1054.0, 1054.0, 1054.0, 1054.0, 1054.0, 1054.0, 1054.0, 1054.0, 1054.0, 1054.0, 1054.0, 1054.0, 1054.0, 1054.0, 1054.0, 1054.0, 1054.0, 1054.0, 1054.0, 1054.0, 1054.0, 1054.0, 1054.0, 1054.0, 1054.0, 1054.0],
      "WindowWidth": [2371.0, 2371.0, 2370.0, 2370.0, 2370.0, 2370.0, 2370.0, 2370.0, 2370.0, 2370.0, 2370.0, 2370.0, 2370.0, 2370.0, 2370.0, 2370.0, 2370.0, 2370.0, 2370.0, 2370.0, 2370.0, 2370.0, 2370.0, 2370.0, 2370.0, 2370.0, 2370.0, 2370.0, 2370.0, 2370.0, 2370.0, 2370.0, 2370.0, 2370.0, 2370.0, 2370.0, 2370.0, 2370.0, 2370.0, 2370.0, 2370.0, 2370.0, 2370.0, 2370.0, 2369.0, 2370.0, 2369.0, 2370.0, 2370.0, 2370.0, 2370.0, 2370.0, 2370.0, 2370.0, 2370.0, 2369.0, 2370.0, 2369.0, 2369.0, 2369.0, 2369.0, 2369.0, 2369.0, 2369.0, 2369.0, 2369.0, 2369.0, 2369.0, 2369.0, 2369.0, 2369.0, 2369.0, 2369.0, 2369.0, 2369.0, 2369.0, 2369.0, 2369.0, 2369.0, 2369.0, 2369.0, 2369.0, 2369.0, 2369.0, 2369.0, 2369.0, 2369.0, 2369.0, 2369.0, 2369.0, 2369.0, 2369.0, 2369.0, 2369.0, 2369.0, 2369.0, 2369.0, 2369.0, 2369.0, 2369.0, 2369.0, 2369.0, 2369.0, 2369.0, 2369.0, 2369.0, 2369.0, 2369.0, 2369.0, 2369.0, 2369.0, 2369.0, 2369.0, 2369.0, 2370.0, 2369.0, 2369.0, 2369.0, 2369.0, 2369.0, 2369.0, 2369.0, 2369.0, 2369.0, 2369.0, 2369.0, 2369.0, 2369.0, 2369.0, 2369.0, 2369.0, 2369.0, 2369.0, 2369.0, 2369.0, 2369.0, 2369.0, 2369.0, 2369.0, 2369.0, 2369.0, 2369.0, 2369.0, 2369.0, 2369.0, 2369.0, 2369.0, 2369.0, 2369.0, 2369.0, 2369.0, 2369.0, 2369.0, 2369.0, 2368.0, 2369.0, 2368.0, 2368.0, 2368.0, 2368.0, 2368.0, 2368.0, 2368.0, 2368.0, 2368.0, 2368.0, 2368.0, 2368.0, 2368.0, 2368.0, 2368.0, 2368.0, 2368.0, 2368.0, 2368.0, 2368.0, 2368.0, 2368.0, 2368.0, 2368.0, 2368.0, 2368.0, 2368.0, 2368.0, 2368.0, 2368.0, 2368.0, 2368.0, 2368.0, 2368.0, 2368.0, 2368.0, 2368.0, 2368.0, 2368.0, 2368.0, 2368.0, 2368.0, 2368.0, 2368.0]
    },
    "slices": {}
  }
}