{
  "AcquisitionMatrixPE": 80,
  "AcquisitionNumber": 1,
  "AcquisitionTime": "12:12:26.512500",
  "BandwidthPerPixelPhaseEncode": 25,
  "BaseResolution": 80,
  "BodyPartExamined": "BRAIN",
  "CoilCombinationMethod": "Sum of Squares",
  "ConsistencyInfo": "N4_VE11C_LATEST_20160120",
  "ConversionSoftware": "dcm2niix",
  "ConversionSoftwareVersion": "v1.0.20220720",
  "DerivedVendorReportedEchoSpacing": 0.0005,
  "DeviceSerialNumber": "66112",
  "DwellTime": 2.7e-06,
  "EchoTime": 0.03,
  "EchoTrainLength": 80,
  "EffectiveEchoSpacing": 0.0005,
  "FlipAngle": 10,
  "HeudiconvVersion": "0.13.1",
  "ImageOrientationPatientDICOM": [0.986175, 0.165422, 0.00967037, -0.160079, 0.935991, 0.31352],
  "ImageOrientationText": "Tra>Cor(18.1)>Sag(-2.5)",
  "ImageType": [
    "ORIGINAL",
    "PRIMARY",
    "M",
    "ND",
    "NORM",
    "MOSAIC"
],
  "ImagingFrequency": 123.252,
  "InPlanePhaseEncodingDirectionDICOM": "COL",
  "InstitutionAddress": "Maynard 3,Hanover,NH,US,03755",
  "InstitutionName": "Dartmouth College - PBS",
  "InstitutionalDepartmentName": "Department",
  "MRAcquisitionType": "2D",
  "MagneticFieldStrength": 3,
  "Manufacturer": "Siemens",
  "ManufacturersModelName": "Prisma",
  "MatrixCoilMode": "SENSE",
  "Modality": "MR",
  "NonlinearGradientCorrection": false,
  "PartialFourier": 1,
  "PatientPosition": "HFS",
  "PercentPhaseFOV": 100,
  "PercentSampling": 100,
  "PhaseEncodingDirection": "j-",
  "PhaseEncodingSteps": 80,
  "PhaseResolution": 1,
  "PixelBandwidth": 2315,
  "ProcedureStepDescription": "dbic^QA",
  "ProtocolName": "func-bold_fa-10",
  "PulseSequenceDetails": "%SiemensSeq%\\ep2d_bold",
  "ReceiveCoilActiveElements": "HEA;HEP",
  "ReceiveCoilName": "Head_32",
  "ReconMatrixPE": 80,
  "RepetitionTime": 2,
  "SAR": 0.00997962,
  "ScanOptions": "FS",
  "ScanningSequence": "EP",
  "SequenceName": "*epfid2d1_80",
  "SequenceVariant": "SK",
  "SeriesDescription": "func-bold_fa-10",
  "SeriesNumber": 10,
  "ShimSetting": [4144, -7697, -7529, 233, -71, -101, -20, 63],
  "SliceThickness": 3.5,
  "SliceTiming": [0.99, 0, 1.055, 0.065, 1.12, 0.13, 1.1875, 0.1975, 1.2525, 0.2625, 1.32, 0.33, 1.385, 0.395, 1.45, 0.46, 1.5175, 0.5275, 1.5825, 0.5925, 1.6475, 0.66, 1.715, 0.725, 1.78, 0.79, 1.8475, 0.8575, 1.9125, 0.9225],
  "SoftwareVersions": "syngo MR E11",
  "SpacingBetweenSlices": 3.99,
  "StationName": "AWP66112",
  "TotalReadoutTime": 0.0395,
  "TxRefAmp": 218.173,
  "dcmmeta_affine": [
    [-2.958526134490967, -0.48023656010627747, -0.1708192527294159, 142.5594940185547],
    [-0.49626725912094116, 2.807974338531494, 1.239827275276184, -109.8422622680664],
    [0.029011104255914688, -0.9405597448348999, 3.7886343002319336, -15.978484153747559],
    [0.0, 0.0, 0.0, 1.0]
],
  "dcmmeta_reorient_transform": [
    [0.0, -1.0, 0.0, 79.0],
    [1.0, 0.0, 0.0, 0.0],
    [0.0, 0.0, 1.0, 0.0],
    [0.0, 0.0, 0.0, 1.0]
],
  "dcmmeta_shape": [80, 80, 30, 200],
  "dcmmeta_slice_dim": 2,
  "dcmmeta_version": 0.6,
  "global": {
    "const": {
      "AccessionNumber": "qa",
      "AcquisitionMatrix": [80, 0, 0, 80],
      "AngioFlag": "N",
      "BitsAllocated": 16,
      "BitsStored": 12,
      "BodyPartExamined": "BRAIN",
      "Columns": 480,
      "EchoNumbers": 1,
      "EchoTime": 30.0,
      "EchoTrainLength": 80,
      "FlipAngle": 10.0,
      "HighBit": 11,
      "ImageOrientationPatient": [0.98617539430648, 0.16542241580457, 0.00967036782301, -0.1600788491863, 0.9359914647723, 0.31351991948936],
      "ImagePositionPatient": [-600.27872833738, -772.83604249252, -284.1968771652],
      "ImageType": [
        "ORIGINAL",
        "PRIMARY",
        "M",
        "ND",
        "NORM",
        "MOSAIC"
],
      "ImagedNucleus": "1H",
      "ImagingFrequency": 123.252359,
      "InPlanePhaseEncodingDirection": "COL",
      "MRAcquisitionType": "2D",
      "MagneticFieldStrength": 3.0,
      "Manufacturer": "SIEMENS",
      "ManufacturerModelName": "Prisma",
      "Modality": "MR",
      "NumberOfAverages": 1.0,
      "NumberOfPhaseEncodingSteps": 80,
      "PercentPhaseFieldOfView": 100.0,
      "PercentSampling": 100.0,
      "PerformedProcedureStepStartTime": "114011.358000",
      "PhotometricInterpretation": "MONOCHROME2",
      "PixelBandwidth": 2315.0,
      "PixelRepresentation": 0,
      "PixelSpacing": [3.0, 3.0],
      "ProtocolName": "func-bold_fa-10",
      "RepetitionTime": 2000.0,
      "Rows": 480,
      "SAR": 0.00997962313132,
      "SamplesPerPixel": 1,
      "ScanOptions": "FS",
      "ScanningSequence": "EP",
      "SequenceName": "*epfid2d1_80",
      "SequenceVariant": "SK",
      "SeriesDescription": "func-bold_fa-10",
      "SeriesNumber": 10,
      "SeriesTime": "121308.130000",
      "SliceLocation": -55.407009435613,
      "SliceThickness": 3.5,
      "SmallestImagePixelValue": 0,
      "SoftwareVersions": "syngo MR E11",
      "SpacingBetweenSlices": 3.9900000232778,
      "SpecificCharacterSet": "ISO_IR 100",
      "StudyID": "40",
      "StudyTime": "114011.313000",
      "TransmitCoilName": "Body",
      "VariableFlipAngleFlag": "N",
      "WindowCenterWidthExplanation": "Algo1",
      "dBdt": 0.0},
    "slices": {}
  },
  "time": {
    "samples": {
      "AcquisitionNumber": [1, 2, 3, 4, 5, 6, 7, 8, 9, 10, 11, 12, 13, 14, 15, 16, 17, 18, 19, 20, 21, 22, 23, 24, 25, 26, 27, 28, 29, 30, 31, 32, 33, 34, 35, 36, 37, 38, 39, 40, 41, 42, 43, 44, 45, 46, 47, 48, 49, 50, 51, 52, 53, 54, 55, 56, 57, 58, 59, 60, 61, 62, 63, 64, 65, 66, 67, 68, 69, 70, 71, 72, 73, 74, 75, 76, 77, 78, 79, 80, 81, 82, 83, 84, 85, 86, 87, 88, 89, 90, 91, 92, 93, 94, 95, 96, 97, 98, 99, 100, 101, 102, 103, 104, 105, 106, 107, 108, 109, 110, 111, 112, 113, 114, 115, 116, 117, 118, 119, 120, 121, 122, 123, 124, 125, 126, 127, 128, 129, 130, 131, 132, 133, 134, 135, 136, 137, 138, 139, 140, 141, 142, 143, 144, 145, 146, 147, 148, 149, 150, 151, 152, 153, 154, 155, 156, 157, 158, 159, 160, 161, 162, 163, 164, 165, 166, 167, 168, 169, 170, 171, 172, 173, 174, 175, 176, 177, 178, 179, 180, 181, 182, 183, 184, 185, 186, 187, 188, 189, 190, 191, 192, 193, 194, 195, 196, 197, 198, 199, 200],
      "AcquisitionTime": ["121226.512500", "121228.512500", "121230.512500", "121232.512500", "121234.512500", "121236.512500", "121238.512500", "121240.512500", "121242.512500", "121244.512500", "121246.512500", "121248.512500", "121250.512500", "121252.512500", "121254.512500", "121256.512500", "121258.512500", "121300.512500", "121302.512500", "121304.512500", "121306.512500", "121308.512500", "121310.512500", "121312.512500", "121314.512500", "121316.512500", "121318.512500", "121320.512500", "121322.512500", "121324.512500", "121326.512500", "121328.512500", "121330.512500", "121332.512500", "121334.512500", "121336.512500", "121338.512500", "121340.512500", "121342.512500", "121344.512500", "121346.512500", "121348.512500", "121350.512500", "121352.512500", "121354.512500", "121356.512500", "121358.512500", "121400.512500", "121402.512500", "121404.512500", "121406.512500", "121408.512500", "121410.512500", "121412.512500", "121414.512500", "121416.512500", "121418.512500", "121420.512500", "121422.512500", "121424.512500", "121426.512500", "121428.512500", "121430.512500", "121432.512500", "121434.512500", "121436.512500", "121438.512500", "121440.512500", "121442.512500", "121444.512500", "121446.512500", "121448.512500", "121450.512500", "121452.512500", "121454.512500", "121456.512500", "121458.512500", "121500.512500", "121502.512500", "121504.512500", "121506.512500", "121508.512500", "121510.512500", "121512.512500", "121514.512500", "121516.512500", "121518.512500", "121520.512500", "121522.512500", "121524.512500", "121526.512500", "121528.512500", "121530.512500", "121532.512500", "121534.512500", "121536.512500", "121538.512500", "121540.512500", "121542.512500", "121544.512500", "121546.512500", "121548.512500", "121550.512500", "121552.512500", "121554.512500", "121556.512500", "121558.512500", "121600.512500", "121602.512500", "121604.512500", "121606.512500", "121608.512500", "121610.512500", "121612.512500", "121614.512500", "121616.512500", "121618.512500", "121620.512500", "121622.512500", "121624.512500", "121626.512500", "121628.512500", "121630.512500", "121632.512500", "121634.512500", "121636.512500", "121638.512500", "121640.512500", "121642.512500", "121644.512500", "121646.512500", "121648.512500", "121650.512500", "121652.512500", "121654.512500", "121656.512500", "121658.512500", "121700.512500", "121702.512500", "121704.512500", "121706.512500", "121708.512500", "121710.512500", "121712.512500", "121714.512500", "121716.512500", "121718.512500", "121720.512500", "121722.512500", "121724.512500", "121726.512500", "121728.512500", "121730.512500", "121732.512500", "121734.512500", "121736.512500", "121738.512500", "121740.512500", "121742.512500", "121744.512500", "121746.512500", "121748.512500", "121750.512500", "121752.512500", "121754.512500", "121756.512500", "121758.512500", "121800.512500", "121802.512500", "121804.512500", "121806.512500", "121808.512500", "121810.512500", "121812.512500", "121814.512500", "121816.512500", "121818.512500", "121820.512500", "121822.512500", "121824.512500", "121826.512500", "121828.512500", "121830.512500", "121832.512500", "121834.512500", "121836.512500", "121838.512500", "121840.512500", "121842.512500", "121844.512500", "121846.512500", "121848.512500", "121850.512500", "121852.512500", "121854.512500", "121856.512500", "121858.512500", "121900.512500", "121902.512500", "121904.512500"],
      "ContentTime": ["121308.133000", "121308.137000", "121308.139000", "121308.142000", "121308.145000", "121308.147000", "121308.150000", "121308.152000", "121308.155000", "121308.157000", "121308.160000", "121308.162000", "121308.165000", "121308.167000", "121308.170000", "121308.172000", "121308.175000", "121308.188000", "121308.190000", "121308.193000", "121348.128000", "121348.131000", "121348.134000", "121348.137000", "121348.149000", "121348.152000", "121348.155000", "121348.157000", "121348.159000", "121348.162000", "121348.165000", "121348.167000", "121348.170000", "121348.172000", "121348.175000", "121348.177000", "121348.180000", "121348.182000", "121348.185000", "121348.188000", "121428.129000", "121428.131000", "121428.134000", "121428.137000", "121428.139000", "121428.142000", "121428.144000", "121428.147000", "121428.150000", "121428.152000", "121428.155000", "121428.157000", "121428.160000", "121428.162000", "121428.165000", "121428.167000", "121428.170000", "121428.172000", "121428.175000", "121428.178000", "121508.128000", "121508.131000", "121508.134000", "121508.137000", "121508.139000", "121508.142000", "121508.144000", "121508.147000", "121508.149000", "121508.152000", "121508.155000", "121508.157000", "121508.160000", "121508.162000", "121508.165000", "121508.167000", "121508.170000", "121508.172000", "121508.175000", "121508.177000", "121548.128000", "121548.131000", "121548.134000", "121548.136000", "121548.139000", "121548.141000", "121548.144000", "121548.147000", "121548.149000", "121548.152000", "121548.154000", "121548.157000", "121548.159000", "121548.162000", "121548.164000", "121548.167000", "121548.169000", "121548.172000", "121548.175000", "121548.177000", "121628.129000", "121628.131000", "121628.134000", "121628.137000", "121628.139000", "121628.142000", "121628.145000", "121628.147000", "121628.150000", "121628.152000", "121628.155000", "121628.157000", "121628.160000", "121628.162000", "121628.165000", "121628.168000", "121628.170000", "121628.172000", "121628.175000", "121628.178000", "121708.129000", "121708.131000", "121708.134000", "121708.137000", "121708.139000", "121708.142000", "121708.144000", "121708.147000", "121708.149000", "121708.152000", "121708.155000", "121708.157000", "121708.160000", "121708.162000", "121708.165000", "121708.167000", "121708.170000", "121708.172000", "121708.175000", "121708.177000", "121748.128000", "121748.131000", "121748.134000", "121748.137000", "121748.139000", "121748.142000", "121748.144000", "121748.147000", "121748.149000", "121748.152000", "121748.155000", "121748.157000", "121748.160000", "121748.162000", "121748.165000", "121748.167000", "121748.170000", "121748.172000", "121748.175000", "121748.178000", "121828.128000", "121828.131000", "121828.134000", "121828.137000", "121828.139000", "121828.142000", "121828.145000", "121828.147000", "121828.150000", "121828.152000", "121828.155000", "121828.158000", "121828.160000", "121828.163000", "121828.166000", "121828.168000", "121828.171000", "121828.173000", "121828.176000", "121828.178000", "121906.506000", "121906.509000", "121906.511000", "121906.514000", "121906.517000", "121906.519000", "121906.522000", "121906.524000", "121906.527000", "121906.529000", "121906.532000", "121906.535000", "121906.540000", "121906.543000", "121906.546000", "121906.549000", "121906.559000", "121906.562000", "121906.565000", "121906.569000"],
      "InstanceCreationTime": ["121308.133000", "121308.137000", "121308.139000", "121308.142000", "121308.145000", "121308.147000", "121308.150000", "121308.152000", "121308.155000", "121308.157000", "121308.160000", "121308.162000", "121308.165000", "121308.167000", "121308.170000", "121308.172000", "121308.175000", "121308.188000", "121308.190000", "121308.193000", "121348.128000", "121348.131000", "121348.134000", "121348.137000", "121348.149000", "121348.152000", "121348.155000", "121348.157000", "121348.159000", "121348.162000", "121348.165000", "121348.167000", "121348.170000", "121348.172000", "121348.175000", "121348.177000", "121348.180000", "121348.182000", "121348.185000", "121348.188000", "121428.129000", "121428.131000", "121428.134000", "121428.137000", "121428.139000", "121428.142000", "121428.144000", "121428.147000", "121428.150000", "121428.152000", "121428.155000", "121428.157000", "121428.160000", "121428.162000", "121428.165000", "121428.167000", "121428.170000", "121428.172000", "121428.175000", "121428.178000", "121508.128000", "121508.131000", "121508.134000", "121508.137000", "121508.139000", "121508.142000", "121508.144000", "121508.147000", "121508.149000", "121508.152000", "121508.155000", "121508.157000", "121508.160000", "121508.162000", "121508.165000", "121508.167000", "121508.170000", "121508.172000", "121508.175000", "121508.177000", "121548.128000", "121548.131000", "121548.134000", "121548.136000", "121548.139000", "121548.141000", "121548.144000", "121548.147000", "121548.149000", "121548.152000", "121548.154000", "121548.157000", "121548.159000", "121548.162000", "121548.164000", "121548.167000", "121548.169000", "121548.172000", "121548.175000", "121548.177000", "121628.129000", "121628.131000", "121628.134000", "121628.137000", "121628.139000", "121628.142000", "121628.145000", "121628.147000", "121628.150000", "121628.152000", "121628.155000", "121628.157000", "121628.160000", "121628.162000", "121628.165000", "121628.168000", "121628.170000", "121628.172000", "121628.175000", "121628.178000", "121708.129000", "121708.131000", "121708.134000", "121708.137000", "121708.139000", "121708.142000", "121708.144000", "121708.147000", "121708.149000", "121708.152000", "121708.155000", "121708.157000", "121708.160000", "121708.162000", "121708.165000", "121708.167000", "121708.170000", "121708.172000", "121708.175000", "121708.177000", "121748.128000", "121748.131000", "121748.134000", "121748.137000", "121748.139000", "121748.142000", "121748.144000", "121748.147000", "121748.149000", "121748.152000", "121748.155000", "121748.157000", "121748.160000", "121748.162000", "121748.165000", "121748.167000", "121748.170000", "121748.172000", "121748.175000", "121748.178000", "121828.128000", "121828.131000", "121828.134000", "121828.137000", "121828.139000", "121828.142000", "121828.145000", "121828.147000", "121828.150000", "121828.152000", "121828.155000", "121828.158000", "121828.160000", "121828.163000", "121828.166000", "121828.168000", "121828.171000", "121828.173000", "121828.176000", "121828.178000", "121906.506000", "121906.509000", "121906.511000", "121906.514000", "121906.517000", "121906.519000", "121906.522000", "121906.524000", "121906.527000", "121906.529000", "121906.532000", "121906.535000", "121906.540000", "121906.543000", "121906.546000", "121906.549000", "121906.559000", "121906.562000", "121906.565000", "121906.569000"],
      "InstanceNumber": [1, 2, 3, 4, 5, 6, 7, 8, 9, 10, 11, 12, 13, 14, 15, 16, 17, 18, 19, 20, 21, 22, 23, 24, 25, 26, 27, 28, 29, 30, 31, 32, 33, 34, 35, 36, 37, 38, 39, 40, 41, 42, 43, 44, 45, 46, 47, 48, 49, 50, 51, 52, 53, 54, 55, 56, 57, 58, 59, 60, 61, 62, 63, 64, 65, 66, 67, 68, 69, 70, 71, 72, 73, 74, 75, 76, 77, 78, 79, 80, 81, 82, 83, 84, 85, 86, 87, 88, 89, 90, 91, 92, 93, 94, 95, 96, 97, 98, 99, 100, 101, 102, 103, 104, 105, 106, 107, 108, 109, 110, 111, 112, 113, 114, 115, 116, 117, 118, 119, 120, 121, 122, 123, 124, 125, 126, 127, 128, 129, 130, 131, 132, 133, 134, 135, 136, 137, 138, 139, 140, 141, 142, 143, 144, 145, 146, 147, 148, 149, 150, 151, 152, 153, 154, 155, 156, 157, 158, 159, 160, 161, 162, 163, 164, 165, 166, 167, 168, 169, 170, 171, 172, 173, 174, 175, 176, 177, 178, 179, 180, 181, 182, 183, 184, 185, 186, 187, 188, 189, 190, 191, 192, 193, 194, 195, 196, 197, 198, 199, 200],
      "LargestImagePixelValue": [403, 404, 403, 403, 402, 402, 402, 404, 402, 402, 403, 402, 403, 403, 403, 402, 403, 402, 403, 402, 401, 401, 402, 403, 402, 403, 402, 402, 401, 402, 403, 401, 404, 403, 402, 404, 401, 400, 402, 403, 402, 402, 402, 402, 402, 403, 402, 403, 404, 402, 403, 403, 403, 402, 402, 402, 403, 403, 402, 402, 404, 402, 403, 402, 402, 402, 403, 401, 402, 402, 403, 402, 401, 402, 401, 402, 402, 401, 402, 402, 402, 403, 401, 403, 401, 402, 403, 402, 402, 402, 403, 401, 401, 403, 402, 401, 402, 401, 402, 400, 401, 402, 402, 402, 403, 400, 402, 402, 402, 403, 402, 403, 402, 400, 402, 401, 401, 402, 400, 400, 403, 403, 402, 403, 402, 402, 400, 401, 400, 402, 402, 401, 401, 403, 402, 401, 402, 402, 401, 402, 401, 402, 400, 403, 401, 401, 402, 401, 402, 403, 402, 403, 401, 401, 400, 401, 402, 402, 402, 401, 401, 400, 402, 402, 402, 402, 401, 401, 402, 401, 401, 402, 402, 401, 401, 401, 402, 402, 402, 401, 402, 400, 402, 401, 402, 401, 406, 401, 401, 404, 401, 402, 400, 403, 402, 400, 400, 401, 400, 401],
      "WindowCenter": [310.0, 311.0, 311.0, 310.0, 310.0, 311.0, 311.0, 310.0, 310.0, 311.0, 311.0, 311.0, 310.0, 311.0, 311.0, 311.0, 311.0, 311.0, 310.0, 311.0, 310.0, 311.0, 311.0, 310.0, 311.0, 310.0, 311.0, 310.0, 311.0, 310.0, 310.0, 310.0, 310.0, 310.0, 310.0, 310.0, 311.0, 311.0, 311.0, 310.0, 311.0, 311.0, 310.0, 310.0, 311.0, 310.0, 311.0, 311.0, 311.0, 311.0, 311.0, 310.0, 311.0, 311.0, 310.0, 311.0, 311.0, 310.0, 310.0, 310.0, 310.0, 310.0, 311.0, 310.0, 310.0, 310.0, 311.0, 310.0, 310.0, 310.0, 310.0, 310.0, 310.0, 310.0, 310.0, 310.0, 310.0, 310.0, 310.0, 311.0, 310.0, 311.0, 310.0, 310.0, 310.0, 310.0, 310.0, 311.0, 310.0, 311.0, 310.0, 310.0, 310.0, 310.0, 311.0, 310.0, 310.0, 310.0, 310.0, 310.0, 310.0, 309.0, 310.0, 310.0, 310.0, 310.0, 310.0, 310.0, 310.0, 310.0, 310.0, 310.0, 310.0, 310.0, 310.0, 310.0, 309.0, 310.0, 310.0, 310.0, 310.0, 310.0, 310.0, 310.0, 310.0, 310.0, 310.0, 310.0, 310.0, 310.0, 310.0, 310.0, 310.0, 310.0, 310.0, 310.0, 310.0, 310.0, 310.0, 310.0, 310.0, 310.0, 310.0, 310.0, 310.0, 310.0, 309.0, 310.0, 310.0, 310.0, 310.0, 310.0, 310.0, 310.0, 310.0, 310.0, 309.0, 310.0, 310.0, 310.0, 310.0, 310.0, 309.0, 311.0, 310.0, 310.0, 310.0, 310.0, 310.0, 310.0, 310.0, 310.0, 310.0, 310.0, 310.0, 310.0, 310.0, 310.0, 310.0, 309.0, 310.0, 310.0, 310.0, 310.0, 309.0, 310.0, 309.0, 310.0, 310.0, 310.0, 310.0, 310.0, 310.0, 310.0, 310.0, 310.0, 310.0, 310.0, 310.0, 310.0],
      "WindowWidth": [670.0, 671.0, 671.0, 670.0, 670.0, 671.0, 671.0, 670.0, 670.0, 671.0, 671.0, 671.0, 670.0, 671.0, 671.0, 670.0, 671.0, 671.0, 670.0, 670.0, 670.0, 670.0, 670.0, 670.0, 670.0, 670.0, 670.0, 670.0, 670.0, 670.0, 670.0, 670.0, 670.0, 670.0, 670.0, 670.0, 671.0, 670.0, 670.0, 670.0, 670.0, 670.0, 670.0, 670.0, 670.0, 670.0, 670.0, 670.0, 670.0, 670.0, 670.0, 670.0, 670.0, 670.0, 670.0, 670.0, 670.0, 670.0, 670.0, 670.0, 670.0, 670.0, 670.0, 670.0, 669.0, 670.0, 670.0, 670.0, 670.0, 670.0, 670.0, 670.0, 670.0, 670.0, 670.0, 670.0, 670.0, 670.0, 670.0, 670.0, 670.0, 670.0, 670.0, 670.0, 670.0, 670.0, 670.0, 670.0, 669.0, 670.0, 670.0, 670.0, 670.0, 669.0, 670.0, 669.0, 670.0, 670.0, 669.0, 670.0, 670.0, 669.0, 669.0, 669.0, 669.0, 669.0, 669.0, 669.0, 669.0, 670.0, 669.0, 669.0, 670.0, 669.0, 669.0, 669.0, 669.0, 670.0, 669.0, 669.0, 670.0, 669.0, 669.0, 669.0, 669.0, 669.0, 669.0, 669.0, 669.0, 669.0, 669.0, 669.0, 669.0, 669.0, 669.0, 669.0, 669.0, 669.0, 669.0, 669.0, 669.0, 669.0, 669.0, 669.0, 669.0, 669.0, 668.0, 669.0, 669.0, 669.0, 669.0, 669.0, 669.0, 669.0, 669.0, 669.0, 669.0, 670.0, 669.0, 669.0, 669.0, 669.0, 669.0, 670.0, 669.0, 669.0, 669.0, 669.0, 670.0, 669.0, 669.0, 670.0, 669.0, 669.0, 669.0, 669.0, 669.0, 669.0, 669.0, 669.0, 669.0, 670.0, 669.0, 669.0, 669.0, 669.0, 669.0, 669.0, 669.0, 669.0, 669.0, 669.0, 669.0, 669.0, 669.0, 669.0, 669.0, 669.0, 669.0, 669.0]
    },
    "slices": {}
  }
}