{
  "AcquisitionMatrixPE": 80,
  "AcquisitionNumber": 1,
  "AcquisitionTime": "12:05:40.505000",
  "BandwidthPerPixelPhaseEncode": 25,
  "BaseResolution": 80,
  "BodyPartExamined": "BRAIN",
  "CoilCombinationMethod": "Sum of Squares",
  "ConsistencyInfo": "N4_VE11C_LATEST_20160120",
  "ConversionSoftware": "dcm2niix",
  "ConversionSoftwareVersion": "v1.0.20220720",
  "DerivedVendorReportedEchoSpacing": 0.0005,
  "DeviceSerialNumber": "66112",
  "DwellTime": 2.7e-06,
  "EchoTime": 0.03,
  "EchoTrainLength": 80,
  "EffectiveEchoSpacing": 0.0005,
  "FlipAngle": 77,
  "HeudiconvVersion": "0.13.1",
  "ImageOrientationPatientDICOM": [0.986175, 0.165422, 0.00967037, -0.160079, 0.935991, 0.31352],
  "ImageOrientationText": "Tra>Cor(18.1)>Sag(-2.5)",
  "ImageType": [
    "ORIGINAL",
    "PRIMARY",
    "M",
    "ND",
    "NORM",
    "MOSAIC"
],
  "ImagingFrequency": 123.252,
  "InPlanePhaseEncodingDirectionDICOM": "COL",
  "InstitutionAddress": "Maynard 3,Hanover,NH,US,03755",
  "InstitutionName": "Dartmouth College - PBS",
  "InstitutionalDepartmentName": "Department",
  "MRAcquisitionType": "2D",
  "MagneticFieldStrength": 3,
  "Manufacturer": "Siemens",
  "ManufacturersModelName": "Prisma",
  "MatrixCoilMode": "SENSE",
  "Modality": "MR",
  "NonlinearGradientCorrection": false,
  "PartialFourier": 1,
  "PatientPosition": "HFS",
  "PercentPhaseFOV": 100,
  "PercentSampling": 100,
  "PhaseEncodingDirection": "j-",
  "PhaseEncodingSteps": 80,
  "PhaseResolution": 1,
  "PixelBandwidth": 2315,
  "ProcedureStepDescription": "dbic^QA",
  "ProtocolName": "func-bold_fa-77",
  "PulseSequenceDetails": "%SiemensSeq%\\ep2d_bold",
  "ReceiveCoilActiveElements": "HEA;HEP",
  "ReceiveCoilName": "Head_32",
  "ReconMatrixPE": 80,
  "RepetitionTime": 2,
  "SAR": 0.0372028,
  "ScanOptions": "FS",
  "ScanningSequence": "EP",
  "SequenceName": "*epfid2d1_80",
  "SequenceVariant": "SK",
  "SeriesDescription": "func-bold_fa-77",
  "SeriesNumber": 8,
  "ShimSetting": [4144, -7697, -7529, 233, -71, -101, -20, 63],
  "SliceThickness": 3.5,
  "SliceTiming": [0.99, 0, 1.0575, 0.0675, 1.1225, 0.1325, 1.1875, 0.1975, 1.255, 0.265, 1.32, 0.33, 1.3875, 0.3975, 1.4525, 0.4625, 1.5175, 0.5275, 1.585, 0.595, 1.65, 0.66, 1.7175, 0.7275, 1.7825, 0.7925, 1.8475, 0.8575, 1.915, 0.925],
  "SoftwareVersions": "syngo MR E11",
  "SpacingBetweenSlices": 3.99,
  "StationName": "AWP66112",
  "TotalReadoutTime": 0.0395,
  "TxRefAmp": 218.173,
  "dcmmeta_affine": [
    [-2.958526134490967, -0.48023656010627747, -0.1708192527294159, 142.5594940185547],
    [-0.49626725912094116, 2.807974338531494, 1.239827275276184, -109.8422622680664],
    [0.029011104255914688, -0.9405597448348999, 3.7886343002319336, -15.978484153747559],
    [0.0, 0.0, 0.0, 1.0]
],
  "dcmmeta_reorient_transform": [
    [0.0, -1.0, 0.0, 79.0],
    [1.0, 0.0, 0.0, 0.0],
    [0.0, 0.0, 1.0, 0.0],
    [0.0, 0.0, 0.0, 1.0]
],
  "dcmmeta_shape": [80, 80, 30, 200],
  "dcmmeta_slice_dim": 2,
  "dcmmeta_version": 0.6,
  "global": {
    "const": {
      "AccessionNumber": "qa",
      "AcquisitionMatrix": [80, 0, 0, 80],
      "AngioFlag": "N",
      "BitsAllocated": 16,
      "BitsStored": 12,
      "BodyPartExamined": "BRAIN",
      "Columns": 480,
      "EchoNumbers": 1,
      "EchoTime": 30.0,
      "EchoTrainLength": 80,
      "FlipAngle": 77.0,
      "HighBit": 11,
      "ImageOrientationPatient": [0.98617539430648, 0.16542241580457, 0.00967036782301, -0.1600788491863, 0.9359914647723, 0.31351991948936],
      "ImagePositionPatient": [-600.27872833738, -772.83604249252, -284.1968771652],
      "ImageType": [
        "ORIGINAL",
        "PRIMARY",
        "M",
        "ND",
        "NORM",
        "MOSAIC"
],
      "ImagedNucleus": "1H",
      "ImagingFrequency": 123.252359,
      "InPlanePhaseEncodingDirection": "COL",
      "MRAcquisitionType": "2D",
      "MagneticFieldStrength": 3.0,
      "Manufacturer": "SIEMENS",
      "ManufacturerModelName": "Prisma",
      "Modality": "MR",
      "NumberOfAverages": 1.0,
      "NumberOfPhaseEncodingSteps": 80,
      "PercentPhaseFieldOfView": 100.0,
      "PercentSampling": 100.0,
      "PerformedProcedureStepStartTime": "114011.358000",
      "PhotometricInterpretation": "MONOCHROME2",
      "PixelBandwidth": 2315.0,
      "PixelRepresentation": 0,
      "PixelSpacing": [3.0, 3.0],
      "ProtocolName": "func-bold_fa-77",
      "RepetitionTime": 2000.0,
      "Rows": 480,
      "SAR": 0.03720281875994,
      "SamplesPerPixel": 1,
      "ScanOptions": "FS",
      "ScanningSequence": "EP",
      "SequenceName": "*epfid2d1_80",
      "SequenceVariant": "SK",
      "SeriesDescription": "func-bold_fa-77",
      "SeriesNumber": 8,
      "SeriesTime": "120628.060000",
      "SliceLocation": -55.407009435613,
      "SliceThickness": 3.5,
      "SmallestImagePixelValue": 0,
      "SoftwareVersions": "syngo MR E11",
      "SpacingBetweenSlices": 3.9900000232778,
      "SpecificCharacterSet": "ISO_IR 100",
      "StudyID": "40",
      "StudyTime": "114011.313000",
      "TransmitCoilName": "Body",
      "VariableFlipAngleFlag": "N",
      "WindowCenterWidthExplanation": "Algo1",
      "dBdt": 0.0},
    "slices": {}
  },
  "time": {
    "samples": {
      "AcquisitionNumber": [1, 2, 3, 4, 5, 6, 7, 8, 9, 10, 11, 12, 13, 14, 15, 16, 17, 18, 19, 20, 21, 22, 23, 24, 25, 26, 27, 28, 29, 30, 31, 32, 33, 34, 35, 36, 37, 38, 39, 40, 41, 42, 43, 44, 45, 46, 47, 48, 49, 50, 51, 52, 53, 54, 55, 56, 57, 58, 59, 60, 61, 62, 63, 64, 65, 66, 67, 68, 69, 70, 71, 72, 73, 74, 75, 76, 77, 78, 79, 80, 81, 82, 83, 84, 85, 86, 87, 88, 89, 90, 91, 92, 93, 94, 95, 96, 97, 98, 99, 100, 101, 102, 103, 104, 105, 106, 107, 108, 109, 110, 111, 112, 113, 114, 115, 116, 117, 118, 119, 120, 121, 122, 123, 124, 125, 126, 127, 128, 129, 130, 131, 132, 133, 134, 135, 136, 137, 138, 139, 140, 141, 142, 143, 144, 145, 146, 147, 148, 149, 150, 151, 152, 153, 154, 155, 156, 157, 158, 159, 160, 161, 162, 163, 164, 165, 166, 167, 168, 169, 170, 171, 172, 173, 174, 175, 176, 177, 178, 179, 180, 181, 182, 183, 184, 185, 186, 187, 188, 189, 190, 191, 192, 193, 194, 195, 196, 197, 198, 199, 200],
      "AcquisitionTime": ["120540.505000", "120542.505000", "120544.505000", "120546.505000", "120548.505000", "120550.505000", "120552.505000", "120554.505000", "120556.505000", "120558.505000", "120600.505000", "120602.505000", "120604.505000", "120606.505000", "120608.505000", "120610.505000", "120612.505000", "120614.505000", "120616.505000", "120618.505000", "120620.505000", "120622.505000", "120624.505000", "120626.505000", "120628.505000", "120630.505000", "120632.505000", "120634.505000", "120636.505000", "120638.505000", "120640.505000", "120642.505000", "120644.505000", "120646.505000", "120648.505000", "120650.505000", "120652.505000", "120654.505000", "120656.505000", "120658.505000", "120700.505000", "120702.505000", "120704.505000", "120706.505000", "120708.505000", "120710.505000", "120712.505000", "120714.505000", "120716.505000", "120718.505000", "120720.505000", "120722.505000", "120724.505000", "120726.505000", "120728.505000", "120730.505000", "120732.505000", "120734.505000", "120736.505000", "120738.505000", "120740.505000", "120742.505000", "120744.505000", "120746.505000", "120748.505000", "120750.505000", "120752.505000", "120754.505000", "120756.505000", "120758.505000", "120800.505000", "120802.505000", "120804.505000", "120806.505000", "120808.505000", "120810.505000", "120812.505000", "120814.505000", "120816.505000", "120818.505000", "120820.505000", "120822.505000", "120824.505000", "120826.505000", "120828.505000", "120830.505000", "120832.505000", "120834.505000", "120836.505000", "120838.505000", "120840.505000", "120842.505000", "120844.505000", "120846.505000", "120848.505000", "120850.505000", "120852.505000", "120854.505000", "120856.505000", "120858.505000", "120900.505000", "120902.505000", "120904.505000", "120906.505000", "120908.505000", "120910.505000", "120912.505000", "120914.505000", "120916.505000", "120918.505000", "120920.505000", "120922.505000", "120924.505000", "120926.505000", "120928.505000", "120930.505000", "120932.505000", "120934.505000", "120936.505000", "120938.505000", "120940.505000", "120942.505000", "120944.505000", "120946.505000", "120948.505000", "120950.505000", "120952.505000", "120954.505000", "120956.505000", "120958.505000", "121000.505000", "121002.505000", "121004.505000", "121006.505000", "121008.505000", "121010.505000", "121012.505000", "121014.505000", "121016.505000", "121018.505000", "121020.505000", "121022.505000", "121024.505000", "121026.505000", "121028.505000", "121030.505000", "121032.505000", "121034.505000", "121036.505000", "121038.505000", "121040.505000", "121042.505000", "121044.505000", "121046.505000", "121048.505000", "121050.505000", "121052.505000", "121054.505000", "121056.505000", "121058.505000", "121100.505000", "121102.505000", "121104.505000", "121106.505000", "121108.505000", "121110.505000", "121112.505000", "121114.505000", "121116.505000", "121118.505000", "121120.505000", "121122.505000", "121124.505000", "121126.505000", "121128.505000", "121130.505000", "121132.505000", "121134.505000", "121136.505000", "121138.505000", "121140.505000", "121142.505000", "121144.505000", "121146.505000", "121148.505000", "121150.505000", "121152.505000", "121154.505000", "121156.505000", "121158.505000", "121200.505000", "121202.505000", "121204.505000", "121206.505000", "121208.505000", "121210.505000", "121212.505000", "121214.505000", "121216.505000", "121218.505000"],
      "ContentTime": ["120628.077000", "120628.081000", "120628.083000", "120628.086000", "120628.110000", "120628.112000", "120628.115000", "120628.117000", "120628.120000", "120628.123000", "120628.125000", "120628.128000", "120628.130000", "120628.133000", "120628.136000", "120628.138000", "120628.141000", "120628.158000", "120628.161000", "120628.164000", "120628.166000", "120628.169000", "120628.171000", "120708.058000", "120708.062000", "120708.064000", "120708.067000", "120708.070000", "120708.073000", "120708.076000", "120708.078000", "120708.081000", "120708.083000", "120708.086000", "120708.088000", "120708.091000", "120708.094000", "120708.096000", "120708.099000", "120708.101000", "120708.104000", "120708.106000", "120708.109000", "120748.058000", "120748.061000", "120748.064000", "120748.067000", "120748.070000", "120748.073000", "120748.075000", "120748.078000", "120748.080000", "120748.083000", "120748.086000", "120748.088000", "120748.091000", "120748.093000", "120748.096000", "120748.098000", "120748.101000", "120748.104000", "120748.106000", "120748.109000", "120828.059000", "120828.061000", "120828.064000", "120828.067000", "120828.070000", "120828.073000", "120828.076000", "120828.078000", "120828.081000", "120828.083000", "120828.086000", "120828.088000", "120828.091000", "120828.094000", "120828.096000", "120828.099000", "120828.101000", "120828.104000", "120828.106000", "120828.109000", "120908.059000", "120908.061000", "120908.065000", "120908.068000", "120908.070000", "120908.073000", "120908.075000", "120908.078000", "120908.081000", "120908.083000", "120908.086000", "120908.088000", "120908.091000", "120908.094000", "120908.096000", "120908.099000", "120908.101000", "120908.104000", "120908.106000", "120908.109000", "120948.058000", "120948.061000", "120948.065000", "120948.067000", "120948.070000", "120948.073000", "120948.075000", "120948.078000", "120948.080000", "120948.083000", "120948.086000", "120948.088000", "120948.091000", "120948.093000", "120948.096000", "120948.099000", "120948.101000", "120948.104000", "120948.106000", "120948.109000", "121028.058000", "121028.061000", "121028.065000", "121028.068000", "121028.070000", "121028.073000", "121028.076000", "121028.078000", "121028.081000", "121028.083000", "121028.086000", "121028.089000", "121028.091000", "121028.094000", "121028.096000", "121028.099000", "121028.101000", "121028.104000", "121028.107000", "121028.109000", "121108.058000", "121108.062000", "121108.065000", "121108.067000", "121108.070000", "121108.073000", "121108.075000", "121108.078000", "121108.080000", "121108.083000", "121108.086000", "121108.088000", "121108.091000", "121108.093000", "121108.096000", "121108.098000", "121108.101000", "121108.104000", "121108.106000", "121108.109000", "121108.111000", "121148.058000", "121148.062000", "121148.065000", "121148.067000", "121148.070000", "121148.072000", "121148.075000", "121148.078000", "121148.080000", "121148.083000", "121148.085000", "121148.088000", "121148.091000", "121148.093000", "121148.103000", "121148.106000", "121148.109000", "121148.111000", "121148.114000", "121220.114000", "121220.117000", "121220.120000", "121220.131000", "121220.133000", "121220.136000", "121220.138000", "121220.141000", "121220.144000", "121220.148000", "121220.152000", "121220.156000", "121220.160000", "121220.163000", "121220.166000", "121220.171000", "121220.173000"],
      "InstanceCreationTime": ["120628.077000", "120628.081000", "120628.083000", "120628.086000", "120628.110000", "120628.112000", "120628.115000", "120628.117000", "120628.120000", "120628.123000", "120628.125000", "120628.128000", "120628.130000", "120628.133000", "120628.136000", "120628.138000", "120628.141000", "120628.158000", "120628.161000", "120628.164000", "120628.166000", "120628.169000", "120628.171000", "120708.058000", "120708.062000", "120708.064000", "120708.067000", "120708.070000", "120708.073000", "120708.076000", "120708.078000", "120708.081000", "120708.083000", "120708.086000", "120708.088000", "120708.091000", "120708.094000", "120708.096000", "120708.099000", "120708.101000", "120708.104000", "120708.106000", "120708.109000", "120748.058000", "120748.061000", "120748.064000", "120748.067000", "120748.070000", "120748.073000", "120748.075000", "120748.078000", "120748.080000", "120748.083000", "120748.086000", "120748.088000", "120748.091000", "120748.093000", "120748.096000", "120748.098000", "120748.101000", "120748.104000", "120748.106000", "120748.109000", "120828.059000", "120828.061000", "120828.064000", "120828.067000", "120828.070000", "120828.073000", "120828.076000", "120828.078000", "120828.081000", "120828.083000", "120828.086000", "120828.088000", "120828.091000", "120828.094000", "120828.096000", "120828.099000", "120828.101000", "120828.104000", "120828.106000", "120828.109000", "120908.059000", "120908.061000", "120908.065000", "120908.068000", "120908.070000", "120908.073000", "120908.075000", "120908.078000", "120908.081000", "120908.083000", "120908.086000", "120908.088000", "120908.091000", "120908.094000", "120908.096000", "120908.099000", "120908.101000", "120908.104000", "120908.106000", "120908.109000", "120948.058000", "120948.061000", "120948.065000", "120948.067000", "120948.070000", "120948.073000", "120948.075000", "120948.078000", "120948.080000", "120948.083000", "120948.086000", "120948.088000", "120948.091000", "120948.093000", "120948.096000", "120948.099000", "120948.101000", "120948.104000", "120948.106000", "120948.109000", "121028.058000", "121028.061000", "121028.065000", "121028.068000", "121028.070000", "121028.073000", "121028.076000", "121028.078000", "121028.081000", "121028.083000", "121028.086000", "121028.089000", "121028.091000", "121028.094000", "121028.096000", "121028.099000", "121028.101000", "121028.104000", "121028.107000", "121028.109000", "121108.058000", "121108.062000", "121108.065000", "121108.067000", "121108.070000", "121108.073000", "121108.075000", "121108.078000", "121108.080000", "121108.083000", "121108.086000", "121108.088000", "121108.091000", "121108.093000", "121108.096000", "121108.098000", "121108.101000", "121108.104000", "121108.106000", "121108.109000", "121108.111000", "121148.058000", "121148.062000", "121148.065000", "121148.067000", "121148.070000", "121148.072000", "121148.075000", "121148.078000", "121148.080000", "121148.083000", "121148.085000", "121148.088000", "121148.091000", "121148.093000", "121148.103000", "121148.106000", "121148.109000", "121148.111000", "121148.114000", "121220.114000", "121220.117000", "121220.120000", "121220.131000", "121220.133000", "121220.136000", "121220.138000", "121220.141000", "121220.144000", "121220.148000", "121220.152000", "121220.156000", "121220.160000", "121220.163000", "121220.166000", "121220.171000", "121220.173000"],
      "InstanceNumber": [1, 2, 3, 4, 5, 6, 7, 8, 9, 10, 11, 12, 13, 14, 15, 16, 17, 18, 19, 20, 21, 22, 23, 24, 25, 26, 27, 28, 29, 30, 31, 32, 33, 34, 35, 36, 37, 38, 39, 40, 41, 42, 43, 44, 45, 46, 47, 48, 49, 50, 51, 52, 53, 54, 55, 56, 57, 58, 59, 60, 61, 62, 63, 64, 65, 66, 67, 68, 69, 70, 71, 72, 73, 74, 75, 76, 77, 78, 79, 80, 81, 82, 83, 84, 85, 86, 87, 88, 89, 90, 91, 92, 93, 94, 95, 96, 97, 98, 99, 100, 101, 102, 103, 104, 105, 106, 107, 108, 109, 110, 111, 112, 113, 114, 115, 116, 117, 118, 119, 120, 121, 122, 123, 124, 125, 126, 127, 128, 129, 130, 131, 132, 133, 134, 135, 136, 137, 138, 139, 140, 141, 142, 143, 144, 145, 146, 147, 148, 149, 150, 151, 152, 153, 154, 155, 156, 157, 158, 159, 160, 161, 162, 163, 164, 165, 166, 167, 168, 169, 170, 171, 172, 173, 174, 175, 176, 177, 178, 179, 180, 181, 182, 183, 184, 185, 186, 187, 188, 189, 190, 191, 192, 193, 194, 195, 196, 197, 198, 199, 200],
      "LargestImagePixelValue": [2440, 2440, 2441, 2442, 2439, 2441, 2441, 2440, 2441, 2440, 2442, 2438, 2441, 2438, 2438, 2438, 2439, 2439, 2439, 2440, 2441, 2439, 2439, 2438, 2439, 2438, 2439, 2436, 2436, 2439, 2437, 2438, 2440, 2437, 2441, 2441, 2438, 2438, 2436, 2440, 2440, 2438, 2438, 2439, 2439, 2439, 2438, 2437, 2438, 2439, 2435, 2436, 2439, 2436, 2435, 2437, 2439, 2436, 2437, 2436, 2437, 2435, 2437, 2435, 2436, 2435, 2434, 2436, 2436, 2436, 2437, 2435, 2437, 2438, 2436, 2436, 2437, 2438, 2437, 2436, 2438, 2434, 2436, 2436, 2436, 2439, 2435, 2437, 2436, 2436, 2436, 2435, 2435, 2436, 2438, 2434, 2434, 2433, 2435, 2436, 2437, 2432, 2434, 2434, 2437, 2437, 2435, 2437, 2435, 2434, 2432, 2435, 2437, 2438, 2436, 2436, 2434, 2436, 2437, 2435, 2434, 2435, 2434, 2436, 2435, 2435, 2433, 2435, 2437, 2433, 2432, 2435, 2433, 2432, 2433, 2435, 2435, 2432, 2434, 2434, 2433, 2434, 2433, 2431, 2432, 2434, 2432, 2434, 2431, 2432, 2434, 2431, 2431, 2432, 2433, 2430, 2433, 2433, 2432, 2434, 2430, 2433, 2433, 2433, 2433, 2433, 2433, 2434, 2435, 2436, 2432, 2434, 2432, 2434, 2432, 2434, 2431, 2432, 2433, 2430, 2431, 2430, 2430, 2433, 2432, 2433, 2431, 2431, 2433, 2433, 2431, 2431, 2431, 2430, 2430, 2430, 2430, 2430, 2432, 2433],
      "WindowCenter": [1039.0, 1039.0, 1040.0, 1039.0, 1039.0, 1039.0, 1039.0, 1039.0, 1039.0, 1039.0, 1039.0, 1039.0, 1039.0, 1039.0, 1038.0, 1040.0, 1040.0, 1041.0, 1038.0, 1040.0, 1040.0, 1039.0, 1039.0, 1038.0, 1038.0, 1038.0, 1038.0, 1038.0, 1038.0, 1038.0, 1039.0, 1040.0, 1039.0, 1038.0, 1039.0, 1038.0, 1039.0, 1038.0, 1038.0, 1038.0, 1038.0, 1038.0, 1038.0, 1039.0, 1037.0, 1038.0, 1039.0, 1038.0, 1039.0, 1040.0, 1038.0, 1038.0, 1038.0, 1038.0, 1039.0, 1038.0, 1038.0, 1040.0, 1038.0, 1038.0, 1038.0, 1039.0, 1039.0, 1039.0, 1038.0, 1038.0, 1038.0, 1039.0, 1039.0, 1038.0, 1038.0, 1040.0, 1039.0, 1038.0, 1038.0, 1038.0, 1038.0, 1039.0, 1038.0, 1038.0, 1038.0, 1038.0, 1038.0, 1038.0, 1038.0, 1038.0, 1038.0, 1038.0, 1039.0, 1038.0, 1038.0, 1039.0, 1038.0, 1039.0, 1039.0, 1039.0, 1039.0, 1038.0, 1038.0, 1038.0, 1038.0, 1039.0, 1038.0, 1038.0, 1038.0, 1039.0, 1038.0, 1038.0, 1039.0, 1038.0, 1038.0, 1038.0, 1037.0, 1039.0, 1039.0, 1038.0, 1038.0, 1038.0, 1038.0, 1038.0, 1039.0, 1038.0, 1038.0, 1040.0, 1038.0, 1038.0, 1038.0, 1038.0, 1038.0, 1039.0, 1039.0, 1038.0, 1038.0, 1038.0, 1037.0, 1038.0, 1039.0, 1038.0, 1038.0, 1038.0, 1038.0, 1038.0, 1038.0, 1038.0, 1037.0, 1037.0, 1038.0, 1037.0, 1037.0, 1037.0, 1037.0, 1037.0, 1037.0, 1037.0, 1038.0, 1037.0, 1037.0, 1037.0, 1037.0, 1038.0, 1037.0, 1037.0, 1037.0, 1037.0, 1037.0, 1037.0, 1038.0, 1038.0, 1038.0, 1037.0, 1037.0, 1037.0, 1037.0, 1037.0, 1037.0, 1037.0, 1037.0, 1037.0, 1037.0, 1037.0, 1036.0, 1037.0, 1037.0, 1036.0, 1036.0, 1037.0, 1038.0, 1037.0, 1037.0, 1037.0, 1037.0, 1037.0, 1037.0, 1037.0, 1037.0, 1037.0, 1037.0, 1037.0, 1038.0, 1036.0],
      "WindowWidth": [2343.0, 2343.0, 2344.0, 2344.0, 2344.0, 2343.0, 2344.0, 2343.0, 2343.0, 2343.0, 2343.0, 2343.0, 2343.0, 2343.0, 2343.0, 2343.0, 2343.0, 2344.0, 2342.0, 2343.0, 2343.0, 2343.0, 2343.0, 2343.0, 2343.0, 2343.0, 2343.0, 2342.0, 2342.0, 2342.0, 2343.0, 2344.0, 2344.0, 2343.0, 2343.0, 2343.0, 2343.0, 2343.0, 2343.0, 2343.0, 2342.0, 2342.0, 2342.0, 2343.0, 2342.0, 2342.0, 2343.0, 2342.0, 2343.0, 2344.0, 2342.0, 2342.0, 2342.0, 2342.0, 2343.0, 2342.0, 2342.0, 2344.0, 2342.0, 2342.0, 2343.0, 2343.0, 2344.0, 2343.0, 2343.0, 2343.0, 2342.0, 2343.0, 2343.0, 2342.0, 2342.0, 2344.0, 2343.0, 2342.0, 2342.0, 2342.0, 2342.0, 2343.0, 2342.0, 2342.0, 2342.0, 2342.0, 2342.0, 2342.0, 2342.0, 2342.0, 2342.0, 2342.0, 2343.0, 2342.0, 2342.0, 2343.0, 2342.0, 2342.0, 2343.0, 2343.0, 2342.0, 2342.0, 2342.0, 2342.0, 2342.0, 2343.0, 2342.0, 2342.0, 2342.0, 2342.0, 2341.0, 2341.0, 2343.0, 2341.0, 2341.0, 2341.0, 2341.0, 2342.0, 2342.0, 2341.0, 2341.0, 2341.0, 2341.0, 2341.0, 2342.0, 2341.0, 2341.0, 2343.0, 2341.0, 2341.0, 2341.0, 2341.0, 2341.0, 2342.0, 2342.0, 2341.0, 2341.0, 2341.0, 2340.0, 2341.0, 2342.0, 2341.0, 2341.0, 2341.0, 2341.0, 2342.0, 2341.0, 2341.0, 2341.0, 2341.0, 2341.0, 2340.0, 2340.0, 2340.0, 2340.0, 2340.0, 2341.0, 2341.0, 2342.0, 2341.0, 2341.0, 2340.0, 2340.0, 2341.0, 2340.0, 2340.0, 2340.0, 2341.0, 2341.0, 2341.0, 2341.0, 2340.0, 2341.0, 2341.0, 2340.0, 2340.0, 2340.0, 2340.0, 2340.0, 2340.0, 2340.0, 2340.0, 2340.0, 2340.0, 2339.0, 2340.0, 2339.0, 2339.0, 2339.0, 2340.0, 2341.0, 2340.0, 2340.0, 2340.0, 2340.0, 2339.0, 2340.0, 2339.0, 2339.0, 2339.0, 2340.0, 2340.0, 2340.0, 2338.0]
    },
    "slices": {}
  }
}