{
  "AcquisitionMatrixPE": 80,
  "AcquisitionNumber": 1,
  "AcquisitionTime": "09:37:4.410000",
  "BandwidthPerPixelPhaseEncode": 25,
  "BaseResolution": 80,
  "BodyPartExamined": "BRAIN",
  "CoilCombinationMethod": "Sum of Squares",
  "ConsistencyInfo": "N4_VE11E_LATEST_20181129",
  "ConversionSoftware": "dcm2niix",
  "ConversionSoftwareVersion": "v1.0.20220720",
  "DerivedVendorReportedEchoSpacing": 0.0005,
  "DeviceSerialNumber": "66112",
  "DwellTime": 2.7e-06,
  "EchoTime": 0.03,
  "EchoTrainLength": 80,
  "EffectiveEchoSpacing": 0.0005,
  "FlipAngle": 77,
  "HeudiconvVersion": "0.13.1",
  "ImageOrientationPatientDICOM": [0.979144, 0.202888, 0.0106467, -0.196186, 0.930577, 0.309091],
  "ImageOrientationText": "Tra>Cor(17.8)>Sag(-3.0)",
  "ImageType": [
    "ORIGINAL",
    "PRIMARY",
    "M",
    "ND",
    "NORM",
    "MOSAIC"
],
  "ImagingFrequency": 123.259,
  "InPlanePhaseEncodingDirectionDICOM": "COL",
  "InstitutionAddress": "Maynard 3,Hanover,NH,US,03755",
  "InstitutionName": "Dartmouth College - PBS",
  "InstitutionalDepartmentName": "Department",
  "MRAcquisitionType": "2D",
  "MagneticFieldStrength": 3,
  "Manufacturer": "Siemens",
  "ManufacturersModelName": "Prisma",
  "MatrixCoilMode": "SENSE",
  "Modality": "MR",
  "NonlinearGradientCorrection": false,
  "PartialFourier": 1,
  "PatientPosition": "HFS",
  "PercentPhaseFOV": 100,
  "PercentSampling": 100,
  "PhaseEncodingDirection": "j-",
  "PhaseEncodingSteps": 80,
  "PhaseResolution": 1,
  "PixelBandwidth": 2315,
  "ProcedureStepDescription": "dbic^QA",
  "ProtocolName": "func-bold_fa-77",
  "PulseSequenceDetails": "%SiemensSeq%\\ep2d_bold",
  "ReceiveCoilActiveElements": "HEA;HEP",
  "ReceiveCoilName": "Head_32",
  "ReconMatrixPE": 80,
  "RepetitionTime": 2,
  "SAR": 0.0370092,
  "ScanOptions": "FS",
  "ScanningSequence": "EP",
  "SequenceName": "*epfid2d1_80",
  "SequenceVariant": "SK",
  "SeriesDescription": "func-bold_fa-77",
  "SeriesNumber": 7,
  "ShimSetting": [4218, -7743, -7509, -46, -135, 29, 15, 81],
  "SliceThickness": 3.5,
  "SliceTiming": [0.99, 0, 1.0575, 0.0675, 1.1225, 0.1325, 1.1875, 0.2, 1.255, 0.265, 1.32, 0.33, 1.3875, 0.3975, 1.4525, 0.4625, 1.5175, 0.53, 1.585, 0.595, 1.65, 0.66, 1.7175, 0.7275, 1.7825, 0.7925, 1.8475, 0.86, 1.915, 0.925],
  "SoftwareVersions": "syngo MR E11",
  "SpacingBetweenSlices": 3.99,
  "StationName": "AWP66112",
  "TotalReadoutTime": 0.0395,
  "TxRefAmp": 224.466,
  "dcmmeta_affine": [
    [-2.937432050704956, -0.5885566473007202, -0.2106853574514389, 146.40386962890625],
    [-0.6086645126342773, 2.791731834411621, 1.2158854007720947, -91.49016571044922],
    [0.031939953565597534, -0.9272725582122803, 3.794381856918335, -24.483421325683594],
    [0.0, 0.0, 0.0, 1.0]
],
  "dcmmeta_reorient_transform": [
    [0.0, -1.0, 0.0, 79.0],
    [1.0, 0.0, 0.0, 0.0],
    [0.0, 0.0, 1.0, 0.0],
    [0.0, 0.0, 0.0, 1.0]
],
  "dcmmeta_shape": [80, 80, 30, 200],
  "dcmmeta_slice_dim": 2,
  "dcmmeta_version": 0.6,
  "global": {
    "const": {
      "AccessionNumber": "qa",
      "AcquisitionMatrix": [80, 0, 0, 80],
      "AngioFlag": "N",
      "BitsAllocated": 16,
      "BitsStored": 12,
      "BodyPartExamined": "BRAIN",
      "Columns": 480,
      "EchoNumbers": 1,
      "EchoTime": 30.0,
      "EchoTrainLength": 80,
      "FlipAngle": 77.0,
      "HighBit": 11,
      "ImageOrientationPatient": [0.97914403432269, 0.20288816840355, 0.01064665074792, -0.1961855411178, 0.9305772792895, 0.30909086160297],
      "ImagePositionPatient": [-569.68299739741, -809.13591575788, -289.58046232282],
      "ImageType": [
        "ORIGINAL",
        "PRIMARY",
        "M",
        "ND",
        "NORM",
        "MOSAIC"
],
      "ImagedNucleus": "1H",
      "ImagingFrequency": 123.259136,
      "InPlanePhaseEncodingDirection": "COL",
      "MRAcquisitionType": "2D",
      "MagneticFieldStrength": 3.0,
      "Manufacturer": "SIEMENS",
      "ManufacturerModelName": "Prisma",
      "Modality": "MR",
      "NumberOfAverages": 1.0,
      "NumberOfPhaseEncodingSteps": 80,
      "PercentPhaseFieldOfView": 100.0,
      "PercentSampling": 100.0,
      "PerformedProcedureStepStartTime": "091846.102000",
      "PhotometricInterpretation": "MONOCHROME2",
      "PixelBandwidth": 2315.0,
      "PixelRepresentation": 0,
      "PixelSpacing": [3.0, 3.0],
      "ProtocolName": "func-bold_fa-77",
      "RepetitionTime": 2000.0,
      "Rows": 480,
      "SAR": 0.03700923979086,
      "SamplesPerPixel": 1,
      "ScanOptions": "FS",
      "ScanningSequence": "EP",
      "SequenceName": "*epfid2d1_80",
      "SequenceVariant": "SK",
      "SeriesDescription": "func-bold_fa-77",
      "SeriesNumber": 7,
      "SeriesTime": "093746.563000",
      "SliceLocation": -58.893775633649,
      "SliceThickness": 3.5,
      "SmallestImagePixelValue": 0,
      "SoftwareVersions": "syngo MR E11",
      "SpacingBetweenSlices": 3.9899999677804,
      "SpecificCharacterSet": "ISO_IR 100",
      "StudyID": "13",
      "StudyTime": "091845.987000",
      "TransmitCoilName": "Body",
      "VariableFlipAngleFlag": "N",
      "WindowCenterWidthExplanation": "Algo1"
    },
    "slices": {}
  },
  "time": {
    "samples": {
      "AcquisitionNumber": [1, 2, 3, 4, 5, 6, 7, 8, 9, 10, 11, 12, 13, 14, 15, 16, 17, 18, 19, 20, 21, 22, 23, 24, 25, 26, 27, 28, 29, 30, 31, 32, 33, 34, 35, 36, 37, 38, 39, 40, 41, 42, 43, 44, 45, 46, 47, 48, 49, 50, 51, 52, 53, 54, 55, 56, 57, 58, 59, 60, 61, 62, 63, 64, 65, 66, 67, 68, 69, 70, 71, 72, 73, 74, 75, 76, 77, 78, 79, 80, 81, 82, 83, 84, 85, 86, 87, 88, 89, 90, 91, 92, 93, 94, 95, 96, 97, 98, 99, 100, 101, 102, 103, 104, 105, 106, 107, 108, 109, 110, 111, 112, 113, 114, 115, 116, 117, 118, 119, 120, 121, 122, 123, 124, 125, 126, 127, 128, 129, 130, 131, 132, 133, 134, 135, 136, 137, 138, 139, 140, 141, 142, 143, 144, 145, 146, 147, 148, 149, 150, 151, 152, 153, 154, 155, 156, 157, 158, 159, 160, 161, 162, 163, 164, 165, 166, 167, 168, 169, 170, 171, 172, 173, 174, 175, 176, 177, 178, 179, 180, 181, 182, 183, 184, 185, 186, 187, 188, 189, 190, 191, 192, 193, 194, 195, 196, 197, 198, 199, 200],
      "AcquisitionTime": ["093704.410000", "093706.410000", "093708.410000", "093710.410000", "093712.410000", "093714.410000", "093716.410000", "093718.410000", "093720.410000", "093722.410000", "093724.410000", "093726.410000", "093728.410000", "093730.410000", "093732.410000", "093734.410000", "093736.410000", "093738.410000", "093740.410000", "093742.410000", "093744.410000", "093746.410000", "093748.410000", "093750.410000", "093752.410000", "093754.410000", "093756.410000", "093758.410000", "093800.410000", "093802.410000", "093804.410000", "093806.410000", "093808.410000", "093810.410000", "093812.410000", "093814.410000", "093816.410000", "093818.410000", "093820.410000", "093822.410000", "093824.410000", "093826.410000", "093828.410000", "093830.410000", "093832.410000", "093834.410000", "093836.410000", "093838.410000", "093840.410000", "093842.410000", "093844.410000", "093846.410000", "093848.410000", "093850.410000", "093852.410000", "093854.410000", "093856.410000", "093858.410000", "093900.410000", "093902.410000", "093904.410000", "093906.410000", "093908.410000", "093910.410000", "093912.410000", "093914.410000", "093916.410000", "093918.410000", "093920.410000", "093922.410000", "093924.410000", "093926.410000", "093928.410000", "093930.410000", "093932.410000", "093934.410000", "093936.410000", "093938.410000", "093940.410000", "093942.410000", "093944.410000", "093946.410000", "093948.410000", "093950.410000", "093952.410000", "093954.410000", "093956.410000", "093958.410000", "094000.410000", "094002.410000", "094004.410000", "094006.410000", "094008.410000", "094010.410000", "094012.410000", "094014.410000", "094016.410000", "094018.410000", "094020.410000", "094022.410000", "094024.410000", "094026.410000", "094028.410000", "094030.410000", "094032.410000", "094034.410000", "094036.410000", "094038.410000", "094040.410000", "094042.410000", "094044.410000", "094046.410000", "094048.410000", "094050.410000", "094052.410000", "094054.410000", "094056.410000", "094058.410000", "094100.410000", "094102.410000", "094104.410000", "094106.410000", "094108.410000", "094110.410000", "094112.410000", "094114.410000", "094116.410000", "094118.410000", "094120.410000", "094122.410000", "094124.410000", "094126.410000", "094128.410000", "094130.410000", "094132.410000", "094134.410000", "094136.410000", "094138.410000", "094140.410000", "094142.410000", "094144.410000", "094146.410000", "094148.410000", "094150.410000", "094152.410000", "094154.410000", "094156.410000", "094158.410000", "094200.410000", "094202.410000", "094204.410000", "094206.410000", "094208.410000", "094210.410000", "094212.410000", "094214.410000", "094216.410000", "094218.410000", "094220.410000", "094222.410000", "094224.410000", "094226.410000", "094228.410000", "094230.410000", "094232.410000", "094234.410000", "094236.410000", "094238.410000", "094240.410000", "094242.410000", "094244.410000", "094246.410000", "094248.410000", "094250.410000", "094252.410000", "094254.410000", "094256.410000", "094258.410000", "094300.410000", "094302.410000", "094304.410000", "094306.410000", "094308.410000", "094310.410000", "094312.410000", "094314.410000", "094316.410000", "094318.410000", "094320.410000", "094322.410000", "094324.410000", "094326.410000", "094328.410000", "094330.410000", "094332.410000", "094334.410000", "094336.410000", "094338.410000", "094340.410000", "094342.410000"],
      "ContentTime": ["093746.566000", "093746.569000", "093746.572000", "093746.575000", "093746.577000", "093746.579000", "093746.582000", "093746.584000", "093746.586000", "093746.589000", "093746.591000", "093746.593000", "093746.596000", "093746.598000", "093746.600000", "093746.603000", "093746.605000", "093746.607000", "093746.610000", "093746.612000", "093746.614000", "093826.560000", "093826.563000", "093826.565000", "093826.567000", "093826.570000", "093826.572000", "093826.575000", "093826.577000", "093826.579000", "093826.582000", "093826.584000", "093826.586000", "093826.588000", "093826.591000", "093826.593000", "093826.595000", "093826.598000", "093826.601000", "093826.603000", "093826.605000", "093906.560000", "093906.563000", "093906.565000", "093906.568000", "093906.570000", "093906.573000", "093906.575000", "093906.577000", "093906.580000", "093906.582000", "093906.584000", "093906.587000", "093906.589000", "093906.592000", "093906.594000", "093906.596000", "093906.599000", "093906.601000", "093906.603000", "093906.606000", "093946.561000", "093946.564000", "093946.566000", "093946.569000", "093946.571000", "093946.574000", "093946.576000", "093946.578000", "093946.581000", "093946.583000", "093946.586000", "093946.588000", "093946.591000", "093946.593000", "093946.595000", "093946.598000", "093946.600000", "093946.603000", "093946.605000", "093946.607000", "094026.561000", "094026.564000", "094026.566000", "094026.568000", "094026.571000", "094026.573000", "094026.576000", "094026.578000", "094026.580000", "094026.583000", "094026.585000", "094026.587000", "094026.590000", "094026.592000", "094026.594000", "094026.597000", "094026.599000", "094026.602000", "094026.604000", "094026.606000", "094106.560000", "094106.563000", "094106.565000", "094106.567000", "094106.570000", "094106.572000", "094106.575000", "094106.577000", "094106.580000", "094106.582000", "094106.584000", "094106.587000", "094106.589000", "094106.591000", "094106.594000", "094106.596000", "094106.598000", "094106.601000", "094106.603000", "094106.605000", "094146.560000", "094146.563000", "094146.565000", "094146.567000", "094146.570000", "094146.572000", "094146.575000", "094146.577000", "094146.579000", "094146.582000", "094146.584000", "094146.586000", "094146.589000", "094146.591000", "094146.593000", "094146.596000", "094146.598000", "094146.601000", "094146.603000", "094146.605000", "094226.561000", "094226.564000", "094226.566000", "094226.568000", "094226.571000", "094226.573000", "094226.576000", "094226.578000", "094226.580000", "094226.583000", "094226.585000", "094226.587000", "094226.590000", "094226.592000", "094226.594000", "094226.597000", "094226.599000", "094226.601000", "094226.604000", "094226.606000", "094306.560000", "094306.563000", "094306.565000", "094306.567000", "094306.570000", "094306.572000", "094306.574000", "094306.577000", "094306.579000", "094306.581000", "094306.584000", "094306.586000", "094306.588000", "094306.591000", "094306.593000", "094306.595000", "094306.598000", "094306.600000", "094306.602000", "094306.605000", "094326.560000", "094326.563000", "094326.565000", "094326.567000", "094326.570000", "094326.573000", "094326.575000", "094326.577000", "094326.579000", "094326.582000", "094343.973000", "094343.975000", "094343.977000", "094343.980000", "094343.982000", "094343.985000", "094343.987000", "094343.990000", "094343.992000"],
      "InstanceCreationTime": ["093746.566000", "093746.569000", "093746.572000", "093746.575000", "093746.577000", "093746.579000", "093746.582000", "093746.584000", "093746.586000", "093746.589000", "093746.591000", "093746.593000", "093746.596000", "093746.598000", "093746.600000", "093746.603000", "093746.605000", "093746.607000", "093746.610000", "093746.612000", "093746.614000", "093826.560000", "093826.563000", "093826.565000", "093826.567000", "093826.570000", "093826.572000", "093826.575000", "093826.577000", "093826.579000", "093826.582000", "093826.584000", "093826.586000", "093826.588000", "093826.591000", "093826.593000", "093826.595000", "093826.598000", "093826.601000", "093826.603000", "093826.605000", "093906.560000", "093906.563000", "093906.565000", "093906.568000", "093906.570000", "093906.573000", "093906.575000", "093906.577000", "093906.580000", "093906.582000", "093906.584000", "093906.587000", "093906.589000", "093906.592000", "093906.594000", "093906.596000", "093906.599000", "093906.601000", "093906.603000", "093906.606000", "093946.561000", "093946.564000", "093946.566000", "093946.569000", "093946.571000", "093946.574000", "093946.576000", "093946.578000", "093946.581000", "093946.583000", "093946.586000", "093946.588000", "093946.591000", "093946.593000", "093946.595000", "093946.598000", "093946.600000", "093946.603000", "093946.605000", "093946.607000", "094026.561000", "094026.564000", "094026.566000", "094026.568000", "094026.571000", "094026.573000", "094026.576000", "094026.578000", "094026.580000", "094026.583000", "094026.585000", "094026.587000", "094026.590000", "094026.592000", "094026.594000", "094026.597000", "094026.599000", "094026.602000", "094026.604000", "094026.606000", "094106.560000", "094106.563000", "094106.565000", "094106.567000", "094106.570000", "094106.572000", "094106.575000", "094106.577000", "094106.580000", "094106.582000", "094106.584000", "094106.587000", "094106.589000", "094106.591000", "094106.594000", "094106.596000", "094106.598000", "094106.601000", "094106.603000", "094106.605000", "094146.560000", "094146.563000", "094146.565000", "094146.567000", "094146.570000", "094146.572000", "094146.575000", "094146.577000", "094146.579000", "094146.582000", "094146.584000", "094146.586000", "094146.589000", "094146.591000", "094146.593000", "094146.596000", "094146.598000", "094146.601000", "094146.603000", "094146.605000", "094226.561000", "094226.564000", "094226.566000", "094226.568000", "094226.571000", "094226.573000", "094226.576000", "094226.578000", "094226.580000", "094226.583000", "094226.585000", "094226.587000", "094226.590000", "094226.592000", "094226.594000", "094226.597000", "094226.599000", "094226.601000", "094226.604000", "094226.606000", "094306.560000", "094306.563000", "094306.565000", "094306.567000", "094306.570000", "094306.572000", "094306.574000", "094306.577000", "094306.579000", "094306.581000", "094306.584000", "094306.586000", "094306.588000", "094306.591000", "094306.593000", "094306.595000", "094306.598000", "094306.600000", "094306.602000", "094306.605000", "094326.560000", "094326.563000", "094326.565000", "094326.567000", "094326.570000", "094326.573000", "094326.575000", "094326.577000", "094326.579000", "094326.582000", "094343.973000", "094343.975000", "094343.977000", "094343.980000", "094343.982000", "094343.985000", "094343.987000", "094343.990000", "094343.992000"],
      "InstanceNumber": [1, 2, 3, 4, 5, 6, 7, 8, 9, 10, 11, 12, 13, 14, 15, 16, 17, 18, 19, 20, 21, 22, 23, 24, 25, 26, 27, 28, 29, 30, 31, 32, 33, 34, 35, 36, 37, 38, 39, 40, 41, 42, 43, 44, 45, 46, 47, 48, 49, 50, 51, 52, 53, 54, 55, 56, 57, 58, 59, 60, 61, 62, 63, 64, 65, 66, 67, 68, 69, 70, 71, 72, 73, 74, 75, 76, 77, 78, 79, 80, 81, 82, 83, 84, 85, 86, 87, 88, 89, 90, 91, 92, 93, 94, 95, 96, 97, 98, 99, 100, 101, 102, 103, 104, 105, 106, 107, 108, 109, 110, 111, 112, 113, 114, 115, 116, 117, 118, 119, 120, 121, 122, 123, 124, 125, 126, 127, 128, 129, 130, 131, 132, 133, 134, 135, 136, 137, 138, 139, 140, 141, 142, 143, 144, 145, 146, 147, 148, 149, 150, 151, 152, 153, 154, 155, 156, 157, 158, 159, 160, 161, 162, 163, 164, 165, 166, 167, 168, 169, 170, 171, 172, 173, 174, 175, 176, 177, 178, 179, 180, 181, 182, 183, 184, 185, 186, 187, 188, 189, 190, 191, 192, 193, 194, 195, 196, 197, 198, 199, 200],
      "LargestImagePixelValue": [2361, 2358, 2358, 2359, 2359, 2360, 2359, 2359, 2359, 2357, 2358, 2357, 2359, 2360, 2360, 2358, 2358, 2357, 2359, 2359, 2358, 2356, 2356, 2358, 2359, 2357, 2358, 2356, 2358, 2355, 2358, 2356, 2357, 2359, 2359, 2358, 2356, 2356, 2357, 2353, 2356, 2353, 2355, 2356, 2355, 2357, 2355, 2356, 2356, 2355, 2355, 2355, 2353, 2356, 2353, 2357, 2354, 2355, 2353, 2354, 2353, 2353, 2355, 2353, 2353, 2355, 2354, 2352, 2355, 2354, 2353, 2353, 2352, 2354, 2353, 2353, 2353, 2353, 2354, 2352, 2352, 2351, 2350, 2351, 2352, 2352, 2352, 2354, 2352, 2352, 2353, 2354, 2352, 2354, 2351, 2354, 2353, 2353, 2350, 2353, 2353, 2349, 2353, 2350, 2352, 2353, 2354, 2351, 2352, 2352, 2354, 2351, 2350, 2350, 2352, 2352, 2348, 2350, 2352, 2350, 2348, 2349, 2350, 2349, 2351, 2352, 2350, 2349, 2351, 2349, 2350, 2351, 2348, 2348, 2351, 2350, 2349, 2348, 2350, 2347, 2350, 2350, 2350, 2351, 2350, 2349, 2349, 2348, 2348, 2351, 2350, 2350, 2351, 2348, 2350, 2349, 2350, 2349, 2349, 2349, 2349, 2348, 2349, 2350, 2349, 2348, 2350, 2349, 2349, 2349, 2349, 2348, 2347, 2348, 2350, 2350, 2347, 2348, 2350, 2349, 2349, 2349, 2349, 2350, 2348, 2348, 2348, 2348, 2346, 2347, 2347, 2346, 2345, 2349, 2347, 2349, 2348, 2351, 2351, 2348],
      "WindowCenter": [1054.0, 1053.0, 1053.0, 1053.0, 1054.0, 1053.0, 1053.0, 1053.0, 1054.0, 1054.0, 1054.0, 1053.0, 1053.0, 1053.0, 1054.0, 1054.0, 1053.0, 1053.0, 1053.0, 1053.0, 1054.0, 1053.0, 1054.0, 1054.0, 1054.0, 1053.0, 1053.0, 1053.0, 1054.0, 1054.0, 1053.0, 1052.0, 1053.0, 1053.0, 1052.0, 1052.0, 1052.0, 1054.0, 1052.0, 1052.0, 1053.0, 1052.0, 1052.0, 1052.0, 1052.0, 1052.0, 1053.0, 1052.0, 1053.0, 1052.0, 1052.0, 1052.0, 1052.0, 1053.0, 1053.0, 1052.0, 1052.0, 1053.0, 1053.0, 1053.0, 1052.0, 1052.0, 1052.0, 1052.0, 1053.0, 1052.0, 1053.0, 1052.0, 1052.0, 1052.0, 1053.0, 1053.0, 1052.0, 1053.0, 1053.0, 1052.0, 1052.0, 1054.0, 1052.0, 1052.0, 1052.0, 1053.0, 1052.0, 1052.0, 1052.0, 1052.0, 1052.0, 1052.0, 1052.0, 1052.0, 1052.0, 1052.0, 1053.0, 1052.0, 1052.0, 1053.0, 1053.0, 1052.0, 1053.0, 1052.0, 1052.0, 1052.0, 1053.0, 1053.0, 1052.0, 1053.0, 1052.0, 1053.0, 1052.0, 1052.0, 1052.0, 1053.0, 1053.0, 1052.0, 1053.0, 1053.0, 1052.0, 1052.0, 1052.0, 1051.0, 1052.0, 1052.0, 1051.0, 1051.0, 1052.0, 1051.0, 1052.0, 1052.0, 1051.0, 1052.0, 1051.0, 1052.0, 1051.0, 1052.0, 1052.0, 1051.0, 1051.0, 1053.0, 1051.0, 1051.0, 1051.0, 1052.0, 1051.0, 1051.0, 1051.0, 1051.0, 1054.0, 1051.0, 1051.0, 1052.0, 1052.0, 1052.0, 1051.0, 1051.0, 1051.0, 1051.0, 1051.0, 1051.0, 1051.0, 1051.0, 1052.0, 1051.0, 1051.0, 1051.0, 1051.0, 1051.0, 1052.0, 1051.0, 1051.0, 1051.0, 1052.0, 1053.0, 1052.0, 1052.0, 1051.0, 1051.0, 1051.0, 1052.0, 1051.0, 1052.0, 1051.0, 1051.0, 1051.0, 1052.0, 1051.0, 1051.0, 1051.0, 1052.0, 1053.0, 1051.0, 1051.0, 1052.0, 1051.0, 1052.0, 1051.0, 1051.0, 1051.0, 1051.0, 1051.0, 1053.0],
      "WindowWidth": [2393.0, 2392.0, 2392.0, 2392.0, 2393.0, 2392.0, 2392.0, 2392.0, 2393.0, 2393.0, 2392.0, 2392.0, 2392.0, 2392.0, 2392.0, 2392.0, 2392.0, 2392.0, 2392.0, 2392.0, 2392.0, 2392.0, 2392.0, 2392.0, 2392.0, 2392.0, 2392.0, 2392.0, 2392.0, 2392.0, 2392.0, 2391.0, 2392.0, 2392.0, 2391.0, 2391.0, 2391.0, 2392.0, 2391.0, 2391.0, 2392.0, 2391.0, 2391.0, 2391.0, 2391.0, 2391.0, 2392.0, 2391.0, 2392.0, 2391.0, 2391.0, 2391.0, 2391.0, 2392.0, 2392.0, 2391.0, 2391.0, 2392.0, 2392.0, 2392.0, 2391.0, 2391.0, 2391.0, 2391.0, 2392.0, 2391.0, 2392.0, 2391.0, 2391.0, 2391.0, 2392.0, 2392.0, 2390.0, 2391.0, 2392.0, 2391.0, 2391.0, 2392.0, 2390.0, 2390.0, 2390.0, 2391.0, 2390.0, 2390.0, 2390.0, 2390.0, 2390.0, 2390.0, 2390.0, 2390.0, 2390.0, 2390.0, 2391.0, 2390.0, 2390.0, 2391.0, 2391.0, 2390.0, 2391.0, 2390.0, 2390.0, 2390.0, 2391.0, 2391.0, 2390.0, 2391.0, 2390.0, 2391.0, 2390.0, 2390.0, 2390.0, 2391.0, 2391.0, 2390.0, 2391.0, 2391.0, 2390.0, 2390.0, 2391.0, 2390.0, 2391.0, 2391.0, 2390.0, 2390.0, 2391.0, 2390.0, 2391.0, 2391.0, 2390.0, 2391.0, 2390.0, 2391.0, 2390.0, 2390.0, 2390.0, 2390.0, 2390.0, 2390.0, 2389.0, 2389.0, 2389.0, 2390.0, 2389.0, 2390.0, 2390.0, 2389.0, 2391.0, 2389.0, 2389.0, 2390.0, 2390.0, 2390.0, 2389.0, 2389.0, 2389.0, 2389.0, 2389.0, 2389.0, 2389.0, 2389.0, 2390.0, 2389.0, 2389.0, 2389.0, 2389.0, 2389.0, 2390.0, 2389.0, 2389.0, 2389.0, 2390.0, 2390.0, 2390.0, 2390.0, 2389.0, 2389.0, 2389.0, 2390.0, 2389.0, 2390.0, 2389.0, 2389.0, 2389.0, 2389.0, 2389.0, 2389.0, 2389.0, 2389.0, 2390.0, 2389.0, 2389.0, 2389.0, 2389.0, 2389.0, 2388.0, 2389.0, 2389.0, 2389.0, 2389.0, 2390.0]
    },
    "slices": {}
  }
}