{
  "AcquisitionMatrixPE": 80,
  "AcquisitionNumber": 1,
  "AcquisitionTime": "09:43:50.457500",
  "BandwidthPerPixelPhaseEncode": 25,
  "BaseResolution": 80,
  "BodyPartExamined": "BRAIN",
  "CoilCombinationMethod": "Sum of Squares",
  "ConsistencyInfo": "N4_VE11E_LATEST_20181129",
  "ConversionSoftware": "dcm2niix",
  "ConversionSoftwareVersion": "v1.0.20220720",
  "DerivedVendorReportedEchoSpacing": 0.0005,
  "DeviceSerialNumber": "66112",
  "DwellTime": 2.7e-06,
  "EchoTime": 0.03,
  "EchoTrainLength": 80,
  "EffectiveEchoSpacing": 0.0005,
  "FlipAngle": 10,
  "HeudiconvVersion": "0.13.1",
  "ImageOrientationPatientDICOM": [0.979144, 0.202888, 0.0106467, -0.196186, 0.930577, 0.309091],
  "ImageOrientationText": "Tra>Cor(17.8)>Sag(-3.0)",
  "ImageType": [
    "ORIGINAL",
    "PRIMARY",
    "M",
    "ND",
    "NORM",
    "MOSAIC"
],
  "ImagingFrequency": 123.259,
  "InPlanePhaseEncodingDirectionDICOM": "COL",
  "InstitutionAddress": "Maynard 3,Hanover,NH,US,03755",
  "InstitutionName": "Dartmouth College - PBS",
  "InstitutionalDepartmentName": "Department",
  "MRAcquisitionType": "2D",
  "MagneticFieldStrength": 3,
  "Manufacturer": "Siemens",
  "ManufacturersModelName": "Prisma",
  "MatrixCoilMode": "SENSE",
  "Modality": "MR",
  "NonlinearGradientCorrection": false,
  "PartialFourier": 1,
  "PatientPosition": "HFS",
  "PercentPhaseFOV": 100,
  "PercentSampling": 100,
  "PhaseEncodingDirection": "j-",
  "PhaseEncodingSteps": 80,
  "PhaseResolution": 1,
  "PixelBandwidth": 2315,
  "ProcedureStepDescription": "dbic^QA",
  "ProtocolName": "func-bold_fa-10",
  "PulseSequenceDetails": "%SiemensSeq%\\ep2d_bold",
  "ReceiveCoilActiveElements": "HEA;HEP",
  "ReceiveCoilName": "Head_32",
  "ReconMatrixPE": 80,
  "RepetitionTime": 2,
  "SAR": 0.0099277,
  "ScanOptions": "FS",
  "ScanningSequence": "EP",
  "SequenceName": "*epfid2d1_80",
  "SequenceVariant": "SK",
  "SeriesDescription": "func-bold_fa-10",
  "SeriesNumber": 8,
  "ShimSetting": [4218, -7743, -7509, -46, -135, 29, 15, 81],
  "SliceThickness": 3.5,
  "SliceTiming": [0.99, 0, 1.055, 0.0675, 1.1225, 0.1325, 1.1875, 0.1975, 1.255, 0.265, 1.32, 0.33, 1.385, 0.3975, 1.4525, 0.4625, 1.5175, 0.5275, 1.585, 0.595, 1.65, 0.66, 1.715, 0.725, 1.7825, 0.7925, 1.8475, 0.8575, 1.915, 0.925],
  "SoftwareVersions": "syngo MR E11",
  "SpacingBetweenSlices": 3.99,
  "StationName": "AWP66112",
  "TotalReadoutTime": 0.0395,
  "TxRefAmp": 224.466,
  "dcmmeta_affine": [
    [-2.937432050704956, -0.5885566473007202, -0.2106853574514389, 146.40386962890625],
    [-0.6086645126342773, 2.791731834411621, 1.2158854007720947, -91.49016571044922],
    [0.031939953565597534, -0.9272725582122803, 3.794381856918335, -24.483421325683594],
    [0.0, 0.0, 0.0, 1.0]
],
  "dcmmeta_reorient_transform": [
    [0.0, -1.0, 0.0, 79.0],
    [1.0, 0.0, 0.0, 0.0],
    [0.0, 0.0, 1.0, 0.0],
    [0.0, 0.0, 0.0, 1.0]
],
  "dcmmeta_shape": [80, 80, 30, 200],
  "dcmmeta_slice_dim": 2,
  "dcmmeta_version": 0.6,
  "global": {
    "const": {
      "AccessionNumber": "qa",
      "AcquisitionMatrix": [80, 0, 0, 80],
      "AngioFlag": "N",
      "BitsAllocated": 16,
      "BitsStored": 12,
      "BodyPartExamined": "BRAIN",
      "Columns": 480,
      "EchoNumbers": 1,
      "EchoTime": 30.0,
      "EchoTrainLength": 80,
      "FlipAngle": 10.0,
      "HighBit": 11,
      "ImageOrientationPatient": [0.97914403432269, 0.20288816840355, 0.01064665074792, -0.1961855411178, 0.9305772792895, 0.30909086160297],
      "ImagePositionPatient": [-569.68299739741, -809.13591575788, -289.58046232282],
      "ImageType": [
        "ORIGINAL",
        "PRIMARY",
        "M",
        "ND",
        "NORM",
        "MOSAIC"
],
      "ImagedNucleus": "1H",
      "ImagingFrequency": 123.259138,
      "InPlanePhaseEncodingDirection": "COL",
      "MRAcquisitionType": "2D",
      "MagneticFieldStrength": 3.0,
      "Manufacturer": "SIEMENS",
      "ManufacturerModelName": "Prisma",
      "Modality": "MR",
      "NumberOfAverages": 1.0,
      "NumberOfPhaseEncodingSteps": 80,
      "PercentPhaseFieldOfView": 100.0,
      "PercentSampling": 100.0,
      "PerformedProcedureStepStartTime": "091846.102000",
      "PhotometricInterpretation": "MONOCHROME2",
      "PixelBandwidth": 2315.0,
      "PixelRepresentation": 0,
      "PixelSpacing": [3.0, 3.0],
      "ProtocolName": "func-bold_fa-10",
      "RepetitionTime": 2000.0,
      "Rows": 480,
      "SAR": 0.00992769631094,
      "SamplesPerPixel": 1,
      "ScanOptions": "FS",
      "ScanningSequence": "EP",
      "SequenceName": "*epfid2d1_80",
      "SequenceVariant": "SK",
      "SeriesDescription": "func-bold_fa-10",
      "SeriesNumber": 8,
      "SeriesTime": "094446.648000",
      "SliceLocation": -58.893775633649,
      "SliceThickness": 3.5,
      "SmallestImagePixelValue": 0,
      "SoftwareVersions": "syngo MR E11",
      "SpacingBetweenSlices": 3.9899999677804,
      "SpecificCharacterSet": "ISO_IR 100",
      "StudyID": "13",
      "StudyTime": "091845.987000",
      "TransmitCoilName": "Body",
      "VariableFlipAngleFlag": "N",
      "WindowCenterWidthExplanation": "Algo1"
    },
    "slices": {}
  },
  "time": {
    "samples": {
      "AcquisitionNumber": [1, 2, 3, 4, 5, 6, 7, 8, 9, 10, 11, 12, 13, 14, 15, 16, 17, 18, 19, 20, 21, 22, 23, 24, 25, 26, 27, 28, 29, 30, 31, 32, 33, 34, 35, 36, 37, 38, 39, 40, 41, 42, 43, 44, 45, 46, 47, 48, 49, 50, 51, 52, 53, 54, 55, 56, 57, 58, 59, 60, 61, 62, 63, 64, 65, 66, 67, 68, 69, 70, 71, 72, 73, 74, 75, 76, 77, 78, 79, 80, 81, 82, 83, 84, 85, 86, 87, 88, 89, 90, 91, 92, 93, 94, 95, 96, 97, 98, 99, 100, 101, 102, 103, 104, 105, 106, 107, 108, 109, 110, 111, 112, 113, 114, 115, 116, 117, 118, 119, 120, 121, 122, 123, 124, 125, 126, 127, 128, 129, 130, 131, 132, 133, 134, 135, 136, 137, 138, 139, 140, 141, 142, 143, 144, 145, 146, 147, 148, 149, 150, 151, 152, 153, 154, 155, 156, 157, 158, 159, 160, 161, 162, 163, 164, 165, 166, 167, 168, 169, 170, 171, 172, 173, 174, 175, 176, 177, 178, 179, 180, 181, 182, 183, 184, 185, 186, 187, 188, 189, 190, 191, 192, 193, 194, 195, 196, 197, 198, 199, 200],
      "AcquisitionTime": ["094350.457500", "094352.457500", "094354.457500", "094356.457500", "094358.457500", "094400.457500", "094402.457500", "094404.457500", "094406.457500", "094408.457500", "094410.457500", "094412.457500", "094414.457500", "094416.457500", "094418.457500", "094420.457500", "094422.457500", "094424.457500", "094426.457500", "094428.457500", "094430.457500", "094432.457500", "094434.457500", "094436.457500", "094438.457500", "094440.457500", "094442.457500", "094444.457500", "094446.457500", "094448.457500", "094450.457500", "094452.457500", "094454.457500", "094456.457500", "094458.457500", "094500.457500", "094502.457500", "094504.457500", "094506.457500", "094508.457500", "094510.457500", "094512.457500", "094514.457500", "094516.457500", "094518.457500", "094520.457500", "094522.457500", "094524.457500", "094526.457500", "094528.457500", "094530.457500", "094532.457500", "094534.457500", "094536.457500", "094538.457500", "094540.457500", "094542.457500", "094544.457500", "094546.457500", "094548.457500", "094550.457500", "094552.457500", "094554.457500", "094556.457500", "094558.457500", "094600.457500", "094602.457500", "094604.457500", "094606.457500", "094608.457500", "094610.457500", "094612.457500", "094614.457500", "094616.457500", "094618.457500", "094620.457500", "094622.457500", "094624.457500", "094626.457500", "094628.457500", "094630.457500", "094632.457500", "094634.457500", "094636.457500", "094638.457500", "094640.457500", "094642.457500", "094644.457500", "094646.457500", "094648.457500", "094650.457500", "094652.457500", "094654.457500", "094656.457500", "094658.457500", "094700.457500", "094702.457500", "094704.457500", "094706.457500", "094708.457500", "094710.457500", "094712.457500", "094714.457500", "094716.457500", "094718.457500", "094720.457500", "094722.457500", "094724.457500", "094726.457500", "094728.457500", "094730.457500", "094732.457500", "094734.457500", "094736.457500", "094738.457500", "094740.457500", "094742.457500", "094744.457500", "094746.457500", "094748.457500", "094750.457500", "094752.457500", "094754.457500", "094756.457500", "094758.457500", "094800.457500", "094802.457500", "094804.457500", "094806.457500", "094808.457500", "094810.457500", "094812.457500", "094814.457500", "094816.457500", "094818.457500", "094820.457500", "094822.457500", "094824.457500", "094826.457500", "094828.457500", "094830.457500", "094832.457500", "094834.457500", "094836.457500", "094838.457500", "094840.457500", "094842.457500", "094844.457500", "094846.457500", "094848.457500", "094850.457500", "094852.457500", "094854.457500", "094856.457500", "094858.457500", "094900.457500", "094902.457500", "094904.457500", "094906.457500", "094908.457500", "094910.457500", "094912.457500", "094914.457500", "094916.457500", "094918.457500", "094920.457500", "094922.457500", "094924.457500", "094926.457500", "094928.457500", "094930.457500", "094932.457500", "094934.457500", "094936.457500", "094938.457500", "094940.457500", "094942.457500", "094944.457500", "094946.457500", "094948.457500", "094950.457500", "094952.457500", "094954.457500", "094956.457500", "094958.457500", "095000.457500", "095002.457500", "095004.457500", "095006.457500", "095008.457500", "095010.457500", "095012.457500", "095014.457500", "095016.457500", "095018.457500", "095020.457500", "095022.457500", "095024.457500", "095026.457500", "095028.457500"],
      "ContentTime": ["094446.651000", "094446.654000", "094446.656000", "094446.659000", "094446.661000", "094446.664000", "094446.666000", "094446.668000", "094446.671000", "094446.673000", "094446.675000", "094446.677000", "094446.680000", "094446.682000", "094446.684000", "094446.687000", "094446.689000", "094446.691000", "094446.693000", "094446.696000", "094446.698000", "094446.700000", "094446.703000", "094446.705000", "094446.707000", "094446.710000", "094446.712000", "094446.714000", "094526.645000", "094526.648000", "094526.650000", "094526.652000", "094526.655000", "094526.657000", "094526.668000", "094526.671000", "094526.673000", "094526.675000", "094526.678000", "094526.680000", "094526.682000", "094526.684000", "094526.687000", "094526.689000", "094526.691000", "094526.694000", "094526.696000", "094526.698000", "094606.646000", "094606.648000", "094606.651000", "094606.653000", "094606.655000", "094606.657000", "094606.660000", "094606.662000", "094606.664000", "094606.667000", "094606.669000", "094606.671000", "094606.674000", "094606.676000", "094606.678000", "094606.681000", "094606.683000", "094606.685000", "094606.687000", "094606.690000", "094646.646000", "094646.649000", "094646.651000", "094646.654000", "094646.656000", "094646.658000", "094646.661000", "094646.663000", "094646.665000", "094646.667000", "094646.670000", "094646.672000", "094646.674000", "094646.677000", "094646.679000", "094646.681000", "094646.684000", "094646.686000", "094646.688000", "094646.691000", "094726.645000", "094726.648000", "094726.650000", "094726.653000", "094726.655000", "094726.657000", "094726.660000", "094726.662000", "094726.664000", "094726.666000", "094726.669000", "094726.671000", "094726.673000", "094726.676000", "094726.678000", "094726.680000", "094726.683000", "094726.685000", "094726.687000", "094726.689000", "094806.645000", "094806.648000", "094806.650000", "094806.653000", "094806.655000", "094806.657000", "094806.659000", "094806.662000", "094806.664000", "094806.666000", "094806.669000", "094806.671000", "094806.673000", "094806.676000", "094806.678000", "094806.680000", "094806.683000", "094806.685000", "094806.687000", "094806.690000", "094846.646000", "094846.648000", "094846.650000", "094846.653000", "094846.655000", "094846.657000", "094846.660000", "094846.662000", "094846.664000", "094846.667000", "094846.669000", "094846.671000", "094846.674000", "094846.676000", "094846.678000", "094846.680000", "094846.683000", "094846.685000", "094846.687000", "094846.690000", "094926.646000", "094926.649000", "094926.651000", "094926.653000", "094926.656000", "094926.658000", "094926.660000", "094926.663000", "094926.665000", "094926.667000", "094926.670000", "094926.672000", "094926.674000", "094926.676000", "094926.679000", "094926.681000", "094926.683000", "094926.686000", "094926.688000", "094926.690000", "095006.645000", "095006.648000", "095006.650000", "095006.652000", "095006.655000", "095006.657000", "095006.659000", "095006.662000", "095006.664000", "095006.666000", "095006.669000", "095006.671000", "095006.673000", "095006.675000", "095006.678000", "095006.680000", "095006.682000", "095006.685000", "095006.687000", "095006.689000", "095030.385000", "095030.387000", "095030.390000", "095030.392000", "095030.394000", "095030.397000", "095030.399000", "095030.402000", "095030.404000", "095030.406000", "095030.409000", "095030.411000"],
      "InstanceCreationTime": ["094446.651000", "094446.654000", "094446.656000", "094446.659000", "094446.661000", "094446.664000", "094446.666000", "094446.668000", "094446.671000", "094446.673000", "094446.675000", "094446.677000", "094446.680000", "094446.682000", "094446.684000", "094446.687000", "094446.689000", "094446.691000", "094446.693000", "094446.696000", "094446.698000", "094446.700000", "094446.703000", "094446.705000", "094446.707000", "094446.710000", "094446.712000", "094446.714000", "094526.645000", "094526.648000", "094526.650000", "094526.652000", "094526.655000", "094526.657000", "094526.668000", "094526.671000", "094526.673000", "094526.675000", "094526.678000", "094526.680000", "094526.682000", "094526.684000", "094526.687000", "094526.689000", "094526.691000", "094526.694000", "094526.696000", "094526.698000", "094606.646000", "094606.648000", "094606.651000", "094606.653000", "094606.655000", "094606.657000", "094606.660000", "094606.662000", "094606.664000", "094606.667000", "094606.669000", "094606.671000", "094606.674000", "094606.676000", "094606.678000", "094606.681000", "094606.683000", "094606.685000", "094606.687000", "094606.690000", "094646.646000", "094646.649000", "094646.651000", "094646.654000", "094646.656000", "094646.658000", "094646.661000", "094646.663000", "094646.665000", "094646.667000", "094646.670000", "094646.672000", "094646.674000", "094646.677000", "094646.679000", "094646.681000", "094646.684000", "094646.686000", "094646.688000", "094646.691000", "094726.645000", "094726.648000", "094726.650000", "094726.653000", "094726.655000", "094726.657000", "094726.660000", "094726.662000", "094726.664000", "094726.666000", "094726.669000", "094726.671000", "094726.673000", "094726.676000", "094726.678000", "094726.680000", "094726.683000", "094726.685000", "094726.687000", "094726.689000", "094806.645000", "094806.648000", "094806.650000", "094806.653000", "094806.655000", "094806.657000", "094806.659000", "094806.662000", "094806.664000", "094806.666000", "094806.669000", "094806.671000", "094806.673000", "094806.676000", "094806.678000", "094806.680000", "094806.683000", "094806.685000", "094806.687000", "094806.690000", "094846.646000", "094846.648000", "094846.650000", "094846.653000", "094846.655000", "094846.657000", "094846.660000", "094846.662000", "094846.664000", "094846.667000", "094846.669000", "094846.671000", "094846.674000", "094846.676000", "094846.678000", "094846.680000", "094846.683000", "094846.685000", "094846.687000", "094846.690000", "094926.646000", "094926.649000", "094926.651000", "094926.653000", "094926.656000", "094926.658000", "094926.660000", "094926.663000", "094926.665000", "094926.667000", "094926.670000", "094926.672000", "094926.674000", "094926.676000", "094926.679000", "094926.681000", "094926.683000", "094926.686000", "094926.688000", "094926.690000", "095006.645000", "095006.648000", "095006.650000", "095006.652000", "095006.655000", "095006.657000", "095006.659000", "095006.662000", "095006.664000", "095006.666000", "095006.669000", "095006.671000", "095006.673000", "095006.675000", "095006.678000", "095006.680000", "095006.682000", "095006.685000", "095006.687000", "095006.689000", "095030.385000", "095030.387000", "095030.390000", "095030.392000", "095030.394000", "095030.397000", "095030.399000", "095030.402000", "095030.404000", "095030.406000", "095030.409000", "095030.411000"],
      "InstanceNumber": [1, 2, 3, 4, 5, 6, 7, 8, 9, 10, 11, 12, 13, 14, 15, 16, 17, 18, 19, 20, 21, 22, 23, 24, 25, 26, 27, 28, 29, 30, 31, 32, 33, 34, 35, 36, 37, 38, 39, 40, 41, 42, 43, 44, 45, 46, 47, 48, 49, 50, 51, 52, 53, 54, 55, 56, 57, 58, 59, 60, 61, 62, 63, 64, 65, 66, 67, 68, 69, 70, 71, 72, 73, 74, 75, 76, 77, 78, 79, 80, 81, 82, 83, 84, 85, 86, 87, 88, 89, 90, 91, 92, 93, 94, 95, 96, 97, 98, 99, 100, 101, 102, 103, 104, 105, 106, 107, 108, 109, 110, 111, 112, 113, 114, 115, 116, 117, 118, 119, 120, 121, 122, 123, 124, 125, 126, 127, 128, 129, 130, 131, 132, 133, 134, 135, 136, 137, 138, 139, 140, 141, 142, 143, 144, 145, 146, 147, 148, 149, 150, 151, 152, 153, 154, 155, 156, 157, 158, 159, 160, 161, 162, 163, 164, 165, 166, 167, 168, 169, 170, 171, 172, 173, 174, 175, 176, 177, 178, 179, 180, 181, 182, 183, 184, 185, 186, 187, 188, 189, 190, 191, 192, 193, 194, 195, 196, 197, 198, 199, 200],
      "LargestImagePixelValue": [394, 395, 395, 395, 396, 396, 394, 394, 398, 397, 395, 395, 398, 395, 396, 395, 397, 395, 395, 396, 397, 395, 395, 396, 396, 396, 395, 397, 393, 395, 394, 396, 395, 393, 396, 396, 395, 395, 395, 397, 395, 394, 394, 396, 395, 396, 396, 395, 395, 396, 394, 396, 396, 394, 394, 397, 394, 394, 398, 396, 395, 395, 397, 396, 395, 395, 397, 394, 396, 395, 395, 395, 395, 393, 396, 396, 394, 393, 396, 398, 395, 393, 395, 395, 395, 395, 395, 396, 394, 395, 395, 395, 394, 394, 395, 396, 395, 394, 395, 395, 394, 393, 395, 395, 394, 393, 394, 397, 395, 394, 397, 396, 396, 394, 395, 397, 394, 395, 394, 394, 394, 393, 395, 395, 395, 395, 394, 395, 394, 395, 396, 395, 394, 394, 394, 394, 393, 394, 395, 395, 392, 397, 396, 396, 394, 393, 396, 396, 393, 394, 395, 396, 392, 394, 394, 397, 393, 393, 395, 395, 394, 395, 396, 395, 392, 395, 395, 396, 394, 395, 397, 396, 393, 395, 395, 395, 394, 394, 396, 394, 395, 395, 395, 393, 393, 395, 395, 395, 393, 394, 396, 394, 394, 394, 396, 394, 394, 394, 395, 395],
      "WindowCenter": [320.0, 320.0, 320.0, 320.0, 320.0, 320.0, 319.0, 319.0, 320.0, 320.0, 320.0, 319.0, 320.0, 320.0, 320.0, 320.0, 320.0, 320.0, 320.0, 320.0, 320.0, 320.0, 319.0, 320.0, 320.0, 320.0, 319.0, 320.0, 320.0, 320.0, 320.0, 320.0, 320.0, 320.0, 319.0, 320.0, 320.0, 320.0, 319.0, 320.0, 320.0, 319.0, 319.0, 319.0, 319.0, 319.0, 319.0, 320.0, 320.0, 319.0, 319.0, 320.0, 319.0, 319.0, 319.0, 319.0, 320.0, 319.0, 319.0, 319.0, 320.0, 319.0, 319.0, 319.0, 320.0, 319.0, 319.0, 319.0, 320.0, 320.0, 319.0, 319.0, 320.0, 319.0, 319.0, 319.0, 320.0, 319.0, 319.0, 319.0, 319.0, 319.0, 319.0, 319.0, 320.0, 319.0, 319.0, 319.0, 319.0, 319.0, 319.0, 319.0, 319.0, 319.0, 319.0, 319.0, 319.0, 319.0, 319.0, 319.0, 319.0, 319.0, 319.0, 319.0, 319.0, 319.0, 319.0, 319.0, 319.0, 319.0, 319.0, 319.0, 319.0, 319.0, 319.0, 319.0, 319.0, 319.0, 319.0, 319.0, 319.0, 319.0, 319.0, 319.0, 320.0, 319.0, 319.0, 319.0, 319.0, 319.0, 319.0, 319.0, 319.0, 319.0, 319.0, 319.0, 319.0, 319.0, 319.0, 319.0, 319.0, 319.0, 319.0, 319.0, 319.0, 319.0, 319.0, 319.0, 319.0, 319.0, 319.0, 319.0, 319.0, 319.0, 319.0, 319.0, 319.0, 319.0, 319.0, 319.0, 319.0, 319.0, 319.0, 319.0, 319.0, 319.0, 319.0, 319.0, 319.0, 319.0, 319.0, 319.0, 319.0, 319.0, 319.0, 319.0, 319.0, 319.0, 319.0, 319.0, 318.0, 319.0, 319.0, 319.0, 319.0, 319.0, 319.0, 319.0, 319.0, 319.0, 319.0, 319.0, 319.0, 319.0, 319.0, 319.0, 319.0, 319.0, 319.0, 319.0],
      "WindowWidth": [687.0, 687.0, 687.0, 687.0, 687.0, 687.0, 686.0, 686.0, 687.0, 687.0, 687.0, 686.0, 688.0, 687.0, 687.0, 687.0, 687.0, 687.0, 687.0, 687.0, 687.0, 687.0, 686.0, 687.0, 687.0, 687.0, 686.0, 686.0, 687.0, 687.0, 687.0, 686.0, 687.0, 686.0, 685.0, 687.0, 687.0, 686.0, 686.0, 687.0, 687.0, 685.0, 685.0, 686.0, 686.0, 686.0, 686.0, 687.0, 687.0, 685.0, 686.0, 687.0, 686.0, 686.0, 685.0, 686.0, 687.0, 686.0, 686.0, 686.0, 687.0, 686.0, 685.0, 685.0, 687.0, 686.0, 686.0, 686.0, 687.0, 687.0, 686.0, 685.0, 687.0, 686.0, 686.0, 686.0, 686.0, 686.0, 685.0, 686.0, 686.0, 686.0, 686.0, 686.0, 686.0, 686.0, 686.0, 686.0, 686.0, 685.0, 686.0, 686.0, 685.0, 686.0, 686.0, 686.0, 686.0, 686.0, 685.0, 686.0, 685.0, 685.0, 685.0, 686.0, 686.0, 685.0, 685.0, 686.0, 685.0, 685.0, 685.0, 686.0, 686.0, 685.0, 686.0, 686.0, 686.0, 686.0, 686.0, 686.0, 685.0, 685.0, 685.0, 686.0, 686.0, 686.0, 686.0, 685.0, 686.0, 685.0, 685.0, 686.0, 686.0, 685.0, 686.0, 685.0, 686.0, 685.0, 686.0, 685.0, 685.0, 685.0, 686.0, 685.0, 686.0, 685.0, 685.0, 685.0, 686.0, 685.0, 685.0, 686.0, 686.0, 685.0, 685.0, 685.0, 685.0, 685.0, 685.0, 685.0, 685.0, 685.0, 686.0, 685.0, 685.0, 685.0, 685.0, 685.0, 686.0, 685.0, 685.0, 685.0, 685.0, 685.0, 686.0, 686.0, 685.0, 685.0, 685.0, 685.0, 685.0, 685.0, 685.0, 686.0, 685.0, 685.0, 686.0, 686.0, 685.0, 685.0, 685.0, 686.0, 685.0, 685.0, 685.0, 685.0, 685.0, 685.0, 686.0, 685.0]
    },
    "slices": {}
  }
}