{
  "AcquisitionMatrixPE": 80,
  "AcquisitionNumber": 1,
  "AcquisitionTime": "09:30:15.087500",
  "BandwidthPerPixelPhaseEncode": 46.296,
  "BaseResolution": 80,
  "BodyPartExamined": "BRAIN",
  "CoilCombinationMethod": "Sum of Squares",
  "ConsistencyInfo": "N4_VE11E_LATEST_20181129",
  "ConversionSoftware": "dcm2niix",
  "ConversionSoftwareVersion": "v1.0.20220720",
  "DerivedVendorReportedEchoSpacing": 0.000540003,
  "DeviceSerialNumber": "66112",
  "DwellTime": 2.7e-06,
  "EchoTime": 0.035,
  "EchoTrainLength": 39,
  "EffectiveEchoSpacing": 0.000270002,
  "FlipAngle": 90,
  "HeudiconvVersion": "0.13.1",
  "ImageOrientationPatientDICOM": [0.979144, 0.202888, 0.0106467, -0.196186, 0.930577, 0.309091],
  "ImageOrientationText": "Tra>Cor(17.8)>Sag(-3.0)",
  "ImageType": [
    "ORIGINAL",
    "PRIMARY",
    "M",
    "ND",
    "NORM",
    "MOSAIC"
],
  "ImagingFrequency": 123.259,
  "InPlanePhaseEncodingDirectionDICOM": "COL",
  "InstitutionAddress": "Maynard 3,Hanover,NH,US,03755",
  "InstitutionName": "Dartmouth College - PBS",
  "InstitutionalDepartmentName": "Department",
  "MRAcquisitionType": "2D",
  "MagneticFieldStrength": 3,
  "Manufacturer": "Siemens",
  "ManufacturersModelName": "Prisma",
  "Modality": "MR",
  "MultibandAccelerationFactor": 4,
  "NonlinearGradientCorrection": false,
  "ParallelReductionFactorInPlane": 2,
  "PartialFourier": 1,
  "PatientPosition": "HFS",
  "PercentPhaseFOV": 100,
  "PercentSampling": 100,
  "PhaseEncodingDirection": "j-",
  "PhaseEncodingSteps": 79,
  "PhaseResolution": 1,
  "PixelBandwidth": 2315,
  "ProcedureStepDescription": "dbic^QA",
  "ProtocolName": "func-bold_task-rest_acq-p2-s4-3.5mm",
  "PulseSequenceDetails": "%SiemensSeq%\\ep2d_bold",
  "ReceiveCoilActiveElements": "HEA;HEP",
  "ReceiveCoilName": "Head_32",
  "ReconMatrixPE": 80,
  "RefLinesPE": 24,
  "RepetitionTime": 2,
  "SAR": 0.0177101,
  "ScanOptions": "FS",
  "ScanningSequence": "EP",
  "SequenceName": "*epfid2d1_80",
  "SequenceVariant": "SK",
  "SeriesDescription": "func-bold_task-rest_acq-p2-s4-3.5mm",
  "SeriesNumber": 6,
  "ShimSetting": [4218, -7743, -7509, -45, -133, 28, 15, 81],
  "SliceThickness": 3.5,
  "SliceTiming": [1.485, 0, 0.99, 0.2475, 1.2375, 0.7425, 1.7325, 0.495, 1.485, 0, 0.99, 0.2475, 1.2375, 0.7425, 1.7325, 0.495, 1.485, 0, 0.99, 0.2475, 1.2375, 0.7425, 1.7325, 0.495, 1.485, 0, 0.99, 0.2475, 1.2375, 0.7425, 1.7325, 0.495],
  "SoftwareVersions": "syngo MR E11",
  "SpacingBetweenSlices": 3.99,
  "StationName": "AWP66112",
  "TaskName": "rest",
  "TotalReadoutTime": 0.0213301,
  "TxRefAmp": 224.466,
  "dcmmeta_affine": [
    [-2.937432050704956, -0.5885566473007202, -0.2106853574514389, 146.87530517578125],
    [-0.6086645126342773, 2.791731834411621, 1.2158854007720947, -94.08180236816406],
    [0.031939953565597534, -0.9272725582122803, 3.794381856918335, -30.513839721679688],
    [0.0, 0.0, 0.0, 1.0]
],
  "dcmmeta_reorient_transform": [
    [0.0, -1.0, 0.0, 79.0],
    [1.0, 0.0, 0.0, 0.0],
    [0.0, 0.0, 1.0, 0.0],
    [0.0, 0.0, 0.0, 1.0]
],
  "dcmmeta_shape": [80, 80, 32, 200],
  "dcmmeta_slice_dim": 2,
  "dcmmeta_version": 0.6,
  "global": {
    "const": {
      "AccessionNumber": "qa",
      "AcquisitionMatrix": [80, 0, 0, 80],
      "AngioFlag": "N",
      "BitsAllocated": 16,
      "BitsStored": 12,
      "BodyPartExamined": "BRAIN",
      "Columns": 480,
      "EchoNumbers": 1,
      "EchoTime": 35.0,
      "EchoTrainLength": 39,
      "FlipAngle": 90.0,
      "HighBit": 11,
      "ImageOrientationPatient": [0.97914403432269, 0.20288816840355, 0.01064665074792, -0.1961855411178, 0.9305772792895, 0.30909086160297],
      "ImagePositionPatient": [-570.15443437479, -806.54428005384, -295.61088071881],
      "ImageType": [
        "ORIGINAL",
        "PRIMARY",
        "M",
        "ND",
        "NORM",
        "MOSAIC"
],
      "ImagedNucleus": "1H",
      "ImagingFrequency": 123.25914,
      "InPlanePhaseEncodingDirection": "COL",
      "MRAcquisitionType": "2D",
      "MagneticFieldStrength": 3.0,
      "Manufacturer": "SIEMENS",
      "ManufacturerModelName": "Prisma",
      "Modality": "MR",
      "NumberOfAverages": 1.0,
      "NumberOfPhaseEncodingSteps": 79,
      "PercentPhaseFieldOfView": 100.0,
      "PercentSampling": 100.0,
      "PerformedProcedureStepStartTime": "091846.102000",
      "PhotometricInterpretation": "MONOCHROME2",
      "PixelBandwidth": 2315.0,
      "PixelRepresentation": 0,
      "PixelSpacing": [3.0, 3.0],
      "ProtocolName": "func-bold_task-rest_acq-p2-s4-3.5mm",
      "RepetitionTime": 2000.0,
      "Rows": 480,
      "SAR": 0.01771005892223,
      "SamplesPerPixel": 1,
      "ScanOptions": "FS",
      "ScanningSequence": "EP",
      "SequenceName": "*epfid2d1_80",
      "SequenceVariant": "SK",
      "SeriesDescription": "func-bold_task-rest_acq-p2-s4-3.5mm",
      "SeriesNumber": 6,
      "SeriesTime": "093106.733000",
      "SliceLocation": -65.443191075486,
      "SliceThickness": 3.5,
      "SmallestImagePixelValue": 0,
      "SoftwareVersions": "syngo MR E11",
      "SpacingBetweenSlices": 3.989999964377,
      "SpecificCharacterSet": "ISO_IR 100",
      "StudyID": "13",
      "StudyTime": "091845.987000",
      "TransmitCoilName": "Body",
      "VariableFlipAngleFlag": "N",
      "WindowCenterWidthExplanation": "Algo1"
    },
    "slices": {}
  },
  "time": {
    "samples": {
      "AcquisitionNumber": [1, 2, 3, 4, 5, 6, 7, 8, 9, 10, 11, 12, 13, 14, 15, 16, 17, 18, 19, 20, 21, 22, 23, 24, 25, 26, 27, 28, 29, 30, 31, 32, 33, 34, 35, 36, 37, 38, 39, 40, 41, 42, 43, 44, 45, 46, 47, 48, 49, 50, 51, 52, 53, 54, 55, 56, 57, 58, 59, 60, 61, 62, 63, 64, 65, 66, 67, 68, 69, 70, 71, 72, 73, 74, 75, 76, 77, 78, 79, 80, 81, 82, 83, 84, 85, 86, 87, 88, 89, 90, 91, 92, 93, 94, 95, 96, 97, 98, 99, 100, 101, 102, 103, 104, 105, 106, 107, 108, 109, 110, 111, 112, 113, 114, 115, 116, 117, 118, 119, 120, 121, 122, 123, 124, 125, 126, 127, 128, 129, 130, 131, 132, 133, 134, 135, 136, 137, 138, 139, 140, 141, 142, 143, 144, 145, 146, 147, 148, 149, 150, 151, 152, 153, 154, 155, 156, 157, 158, 159, 160, 161, 162, 163, 164, 165, 166, 167, 168, 169, 170, 171, 172, 173, 174, 175, 176, 177, 178, 179, 180, 181, 182, 183, 184, 185, 186, 187, 188, 189, 190, 191, 192, 193, 194, 195, 196, 197, 198, 199, 200],
      "AcquisitionTime": ["093015.087500", "093017.087500", "093019.087500", "093021.087500", "093023.087500", "093025.087500", "093027.087500", "093029.087500", "093031.087500", "093033.087500", "093035.087500", "093037.087500", "093039.087500", "093041.087500", "093043.087500", "093045.087500", "093047.087500", "093049.087500", "093051.087500", "093053.087500", "093055.087500", "093057.087500", "093059.087500", "093101.087500", "093103.087500", "093105.087500", "093107.087500", "093109.087500", "093111.087500", "093113.087500", "093115.087500", "093117.087500", "093119.087500", "093121.087500", "093123.087500", "093125.087500", "093127.087500", "093129.087500", "093131.087500", "093133.087500", "093135.087500", "093137.087500", "093139.087500", "093141.087500", "093143.087500", "093145.087500", "093147.087500", "093149.087500", "093151.087500", "093153.087500", "093155.087500", "093157.087500", "093159.087500", "093201.087500", "093203.087500", "093205.087500", "093207.087500", "093209.087500", "093211.087500", "093213.087500", "093215.087500", "093217.087500", "093219.087500", "093221.087500", "093223.087500", "093225.087500", "093227.087500", "093229.087500", "093231.087500", "093233.087500", "093235.087500", "093237.087500", "093239.087500", "093241.087500", "093243.087500", "093245.087500", "093247.087500", "093249.087500", "093251.087500", "093253.087500", "093255.087500", "093257.087500", "093259.087500", "093301.087500", "093303.087500", "093305.087500", "093307.087500", "093309.087500", "093311.087500", "093313.087500", "093315.087500", "093317.087500", "093319.087500", "093321.087500", "093323.087500", "093325.087500", "093327.087500", "093329.087500", "093331.087500", "093333.087500", "093335.087500", "093337.087500", "093339.087500", "093341.087500", "093343.087500", "093345.087500", "093347.087500", "093349.087500", "093351.087500", "093353.087500", "093355.087500", "093357.087500", "093359.087500", "093401.087500", "093403.087500", "093405.087500", "093407.087500", "093409.087500", "093411.087500", "093413.087500", "093415.087500", "093417.087500", "093419.087500", "093421.087500", "093423.087500", "093425.087500", "093427.087500", "093429.087500", "093431.087500", "093433.087500", "093435.087500", "093437.087500", "093439.087500", "093441.087500", "093443.087500", "093445.087500", "093447.087500", "093449.087500", "093451.087500", "093453.087500", "093455.087500", "093457.087500", "093459.087500", "093501.087500", "093503.087500", "093505.087500", "093507.087500", "093509.087500", "093511.087500", "093513.087500", "093515.087500", "093517.087500", "093519.087500", "093521.087500", "093523.087500", "093525.087500", "093527.087500", "093529.087500", "093531.087500", "093533.087500", "093535.087500", "093537.087500", "093539.087500", "093541.087500", "093543.087500", "093545.087500", "093547.087500", "093549.087500", "093551.087500", "093553.087500", "093555.087500", "093557.087500", "093559.087500", "093601.087500", "093603.087500", "093605.087500", "093607.087500", "093609.087500", "093611.087500", "093613.087500", "093615.087500", "093617.087500", "093619.087500", "093621.087500", "093623.087500", "093625.087500", "093627.087500", "093629.087500", "093631.087500", "093633.087500", "093635.087500", "093637.087500", "093639.087500", "093641.087500", "093643.087500", "093645.087500", "093647.087500", "093649.087500", "093651.087500", "093653.087500"],
      "ContentTime": ["093106.736000", "093106.739000", "093106.742000", "093106.744000", "093106.746000", "093106.749000", "093106.751000", "093106.753000", "093106.756000", "093106.758000", "093106.760000", "093106.763000", "093106.765000", "093106.767000", "093106.770000", "093106.772000", "093106.774000", "093106.777000", "093106.779000", "093106.781000", "093106.784000", "093106.786000", "093106.788000", "093106.791000", "093106.793000", "093106.797000", "093146.730000", "093146.733000", "093146.735000", "093146.738000", "093146.740000", "093146.742000", "093146.745000", "093146.747000", "093146.749000", "093146.752000", "093146.754000", "093146.756000", "093146.759000", "093146.761000", "093146.763000", "093146.766000", "093146.768000", "093146.770000", "093146.773000", "093146.775000", "093226.730000", "093226.733000", "093226.735000", "093226.743000", "093226.746000", "093226.748000", "093226.757000", "093226.759000", "093226.761000", "093226.763000", "093226.766000", "093226.768000", "093226.771000", "093226.773000", "093226.775000", "093226.778000", "093226.780000", "093226.782000", "093226.785000", "093226.787000", "093306.731000", "093306.734000", "093306.736000", "093306.738000", "093306.741000", "093306.743000", "093306.746000", "093306.748000", "093306.750000", "093306.752000", "093306.755000", "093306.757000", "093306.759000", "093306.762000", "093306.764000", "093306.766000", "093306.769000", "093306.771000", "093306.774000", "093306.776000", "093346.730000", "093346.733000", "093346.735000", "093346.738000", "093346.740000", "093346.742000", "093346.745000", "093346.747000", "093346.749000", "093346.752000", "093346.754000", "093346.756000", "093346.759000", "093346.761000", "093346.763000", "093346.766000", "093346.768000", "093346.770000", "093346.773000", "093346.775000", "093426.730000", "093426.732000", "093426.735000", "093426.737000", "093426.740000", "093426.742000", "093426.744000", "093426.747000", "093426.749000", "093426.751000", "093426.754000", "093426.756000", "093426.758000", "093426.761000", "093426.763000", "093426.766000", "093426.768000", "093426.770000", "093426.773000", "093426.775000", "093506.731000", "093506.734000", "093506.737000", "093506.739000", "093506.742000", "093506.744000", "093506.747000", "093506.749000", "093506.751000", "093506.753000", "093506.756000", "093506.758000", "093506.761000", "093506.763000", "093506.765000", "093506.768000", "093506.770000", "093506.772000", "093506.775000", "093506.777000", "093546.731000", "093546.734000", "093546.736000", "093546.739000", "093546.741000", "093546.743000", "093546.746000", "093546.748000", "093546.750000", "093546.753000", "093546.755000", "093546.757000", "093546.760000", "093546.762000", "093546.764000", "093546.767000", "093546.769000", "093546.771000", "093546.774000", "093546.776000", "093626.730000", "093626.733000", "093626.735000", "093626.737000", "093626.740000", "093626.742000", "093626.744000", "093626.747000", "093626.749000", "093626.751000", "093626.754000", "093626.756000", "093626.758000", "093626.761000", "093626.763000", "093626.765000", "093626.768000", "093626.770000", "093626.772000", "093626.775000", "093654.510000", "093654.513000", "093654.515000", "093654.517000", "093654.520000", "093654.522000", "093654.525000", "093654.527000", "093654.529000", "093654.532000", "093654.534000", "093654.537000", "093654.539000", "093654.542000"],
      "InstanceCreationTime": ["093106.736000", "093106.739000", "093106.742000", "093106.744000", "093106.746000", "093106.749000", "093106.751000", "093106.753000", "093106.756000", "093106.758000", "093106.760000", "093106.763000", "093106.765000", "093106.767000", "093106.770000", "093106.772000", "093106.774000", "093106.777000", "093106.779000", "093106.781000", "093106.784000", "093106.786000", "093106.788000", "093106.791000", "093106.793000", "093106.797000", "093146.730000", "093146.733000", "093146.735000", "093146.738000", "093146.740000", "093146.742000", "093146.745000", "093146.747000", "093146.749000", "093146.752000", "093146.754000", "093146.756000", "093146.759000", "093146.761000", "093146.763000", "093146.766000", "093146.768000", "093146.770000", "093146.773000", "093146.775000", "093226.730000", "093226.733000", "093226.735000", "093226.743000", "093226.746000", "093226.748000", "093226.757000", "093226.759000", "093226.761000", "093226.763000", "093226.766000", "093226.768000", "093226.771000", "093226.773000", "093226.775000", "093226.778000", "093226.780000", "093226.782000", "093226.785000", "093226.787000", "093306.731000", "093306.734000", "093306.736000", "093306.738000", "093306.741000", "093306.743000", "093306.746000", "093306.748000", "093306.750000", "093306.752000", "093306.755000", "093306.757000", "093306.759000", "093306.762000", "093306.764000", "093306.766000", "093306.769000", "093306.771000", "093306.774000", "093306.776000", "093346.730000", "093346.733000", "093346.735000", "093346.738000", "093346.740000", "093346.742000", "093346.745000", "093346.747000", "093346.749000", "093346.752000", "093346.754000", "093346.756000", "093346.759000", "093346.761000", "093346.763000", "093346.766000", "093346.768000", "093346.770000", "093346.773000", "093346.775000", "093426.730000", "093426.732000", "093426.735000", "093426.737000", "093426.740000", "093426.742000", "093426.744000", "093426.747000", "093426.749000", "093426.751000", "093426.754000", "093426.756000", "093426.758000", "093426.761000", "093426.763000", "093426.766000", "093426.768000", "093426.770000", "093426.773000", "093426.775000", "093506.731000", "093506.734000", "093506.737000", "093506.739000", "093506.742000", "093506.744000", "093506.747000", "093506.749000", "093506.751000", "093506.753000", "093506.756000", "093506.758000", "093506.761000", "093506.763000", "093506.765000", "093506.768000", "093506.770000", "093506.772000", "093506.775000", "093506.777000", "093546.731000", "093546.734000", "093546.736000", "093546.739000", "093546.741000", "093546.743000", "093546.746000", "093546.748000", "093546.750000", "093546.753000", "093546.755000", "093546.757000", "093546.760000", "093546.762000", "093546.764000", "093546.767000", "093546.769000", "093546.771000", "093546.774000", "093546.776000", "093626.730000", "093626.733000", "093626.735000", "093626.737000", "093626.740000", "093626.742000", "093626.744000", "093626.747000", "093626.749000", "093626.751000", "093626.754000", "093626.756000", "093626.758000", "093626.761000", "093626.763000", "093626.765000", "093626.768000", "093626.770000", "093626.772000", "093626.775000", "093654.510000", "093654.513000", "093654.515000", "093654.517000", "093654.520000", "093654.522000", "093654.525000", "093654.527000", "093654.529000", "093654.532000", "093654.534000", "093654.537000", "093654.539000", "093654.542000"],
      "InstanceNumber": [1, 2, 3, 4, 5, 6, 7, 8, 9, 10, 11, 12, 13, 14, 15, 16, 17, 18, 19, 20, 21, 22, 23, 24, 25, 26, 27, 28, 29, 30, 31, 32, 33, 34, 35, 36, 37, 38, 39, 40, 41, 42, 43, 44, 45, 46, 47, 48, 49, 50, 51, 52, 53, 54, 55, 56, 57, 58, 59, 60, 61, 62, 63, 64, 65, 66, 67, 68, 69, 70, 71, 72, 73, 74, 75, 76, 77, 78, 79, 80, 81, 82, 83, 84, 85, 86, 87, 88, 89, 90, 91, 92, 93, 94, 95, 96, 97, 98, 99, 100, 101, 102, 103, 104, 105, 106, 107, 108, 109, 110, 111, 112, 113, 114, 115, 116, 117, 118, 119, 120, 121, 122, 123, 124, 125, 126, 127, 128, 129, 130, 131, 132, 133, 134, 135, 136, 137, 138, 139, 140, 141, 142, 143, 144, 145, 146, 147, 148, 149, 150, 151, 152, 153, 154, 155, 156, 157, 158, 159, 160, 161, 162, 163, 164, 165, 166, 167, 168, 169, 170, 171, 172, 173, 174, 175, 176, 177, 178, 179, 180, 181, 182, 183, 184, 185, 186, 187, 188, 189, 190, 191, 192, 193, 194, 195, 196, 197, 198, 199, 200],
      "LargestImagePixelValue": [2435, 2436, 2433, 2443, 2437, 2437, 2440, 2432, 2438, 2438, 2436, 2437, 2439, 2440, 2438, 2439, 2438, 2440, 2436, 2436, 2441, 2433, 2437, 2438, 2435, 2436, 2437, 2435, 2437, 2441, 2437, 2439, 2439, 2438, 2437, 2435, 2436, 2436, 2440, 2439, 2437, 2440, 2437, 2438, 2438, 2438, 2438, 2437, 2436, 2435, 2436, 2435, 2438, 2437, 2434, 2440, 2433, 2441, 2438, 2438, 2440, 2436, 2440, 2437, 2438, 2437, 2436, 2438, 2437, 2443, 2435, 2439, 2434, 2438, 2437, 2437, 2439, 2436, 2436, 2436, 2438, 2436, 2432, 2437, 2436, 2439, 2434, 2436, 2437, 2434, 2438, 2428, 2440, 2433, 2435, 2437, 2437, 2438, 2436, 2438, 2435, 2436, 2436, 2431, 2437, 2433, 2433, 2432, 2432, 2433, 2436, 2435, 2431, 2434, 2434, 2431, 2439, 2431, 2432, 2436, 2437, 2434, 2434, 2439, 2431, 2439, 2435, 2433, 2434, 2434, 2439, 2434, 2439, 2434, 2434, 2436, 2433, 2440, 2434, 2435, 2432, 2437, 2438, 2434, 2440, 2432, 2436, 2434, 2434, 2433, 2431, 2434, 2435, 2440, 2434, 2436, 2438, 2432, 2441, 2431, 2438, 2435, 2442, 2438, 2434, 2436, 2431, 2436, 2436, 2432, 2437, 2433, 2434, 2434, 2435, 2432, 2434, 2436, 2432, 2434, 2433, 2432, 2432, 2436, 2433, 2434, 2437, 2436, 2438, 2432, 2435, 2436, 2433, 2437, 2434, 2436, 2438, 2440, 2436, 2435],
      "WindowCenter": [992.0, 992.0, 992.0, 992.0, 991.0, 992.0, 992.0, 991.0, 993.0, 992.0, 992.0, 991.0, 993.0, 991.0, 991.0, 992.0, 991.0, 991.0, 992.0, 992.0, 992.0, 991.0, 992.0, 992.0, 991.0, 991.0, 991.0, 991.0, 991.0, 990.0, 991.0, 992.0, 992.0, 990.0, 991.0, 992.0, 991.0, 992.0, 992.0, 993.0, 991.0, 990.0, 993.0, 991.0, 992.0, 991.0, 991.0, 991.0, 992.0, 992.0, 991.0, 992.0, 992.0, 992.0, 992.0, 992.0, 991.0, 992.0, 991.0, 990.0, 993.0, 991.0, 991.0, 991.0, 992.0, 991.0, 992.0, 991.0, 992.0, 991.0, 991.0, 991.0, 992.0, 991.0, 991.0, 991.0, 992.0, 991.0, 991.0, 991.0, 992.0, 992.0, 991.0, 991.0, 992.0, 992.0, 990.0, 991.0, 991.0, 993.0, 992.0, 992.0, 992.0, 992.0, 993.0, 991.0, 992.0, 992.0, 991.0, 991.0, 992.0, 992.0, 991.0, 992.0, 992.0, 992.0, 992.0, 992.0, 990.0, 991.0, 992.0, 992.0, 992.0, 991.0, 991.0, 992.0, 992.0, 992.0, 993.0, 992.0, 991.0, 992.0, 992.0, 992.0, 992.0, 992.0, 992.0, 993.0, 992.0, 991.0, 992.0, 992.0, 993.0, 992.0, 991.0, 992.0, 992.0, 992.0, 991.0, 992.0, 992.0, 992.0, 991.0, 993.0, 992.0, 992.0, 991.0, 991.0, 992.0, 992.0, 992.0, 992.0, 991.0, 992.0, 993.0, 991.0, 992.0, 991.0, 992.0, 993.0, 992.0, 991.0, 991.0, 991.0, 991.0, 990.0, 992.0, 992.0, 991.0, 991.0, 991.0, 991.0, 990.0, 991.0, 991.0, 992.0, 992.0, 991.0, 992.0, 993.0, 992.0, 991.0, 991.0, 992.0, 992.0, 992.0, 991.0, 992.0, 992.0, 992.0, 992.0, 992.0, 990.0, 992.0, 992.0, 991.0, 991.0, 992.0, 992.0, 993.0],
      "WindowWidth": [2398.0, 2398.0, 2398.0, 2398.0, 2397.0, 2398.0, 2398.0, 2397.0, 2399.0, 2398.0, 2399.0, 2397.0, 2399.0, 2398.0, 2397.0, 2398.0, 2397.0, 2397.0, 2398.0, 2398.0, 2398.0, 2397.0, 2398.0, 2398.0, 2397.0, 2397.0, 2398.0, 2397.0, 2397.0, 2396.0, 2397.0, 2399.0, 2399.0, 2396.0, 2397.0, 2398.0, 2398.0, 2398.0, 2398.0, 2399.0, 2397.0, 2396.0, 2399.0, 2398.0, 2398.0, 2397.0, 2397.0, 2397.0, 2399.0, 2398.0, 2397.0, 2398.0, 2399.0, 2398.0, 2398.0, 2398.0, 2397.0, 2399.0, 2398.0, 2397.0, 2399.0, 2398.0, 2397.0, 2398.0, 2398.0, 2398.0, 2399.0, 2397.0, 2398.0, 2397.0, 2397.0, 2398.0, 2398.0, 2398.0, 2397.0, 2397.0, 2398.0, 2397.0, 2398.0, 2397.0, 2399.0, 2398.0, 2397.0, 2397.0, 2398.0, 2398.0, 2396.0, 2398.0, 2397.0, 2399.0, 2398.0, 2398.0, 2398.0, 2398.0, 2399.0, 2397.0, 2398.0, 2398.0, 2397.0, 2397.0, 2398.0, 2399.0, 2398.0, 2398.0, 2398.0, 2398.0, 2398.0, 2398.0, 2396.0, 2397.0, 2398.0, 2398.0, 2398.0, 2397.0, 2397.0, 2398.0, 2398.0, 2398.0, 2399.0, 2398.0, 2397.0, 2398.0, 2398.0, 2398.0, 2398.0, 2398.0, 2398.0, 2399.0, 2398.0, 2397.0, 2398.0, 2398.0, 2399.0, 2398.0, 2397.0, 2398.0, 2398.0, 2398.0, 2397.0, 2398.0, 2398.0, 2398.0, 2397.0, 2399.0, 2398.0, 2398.0, 2397.0, 2397.0, 2398.0, 2398.0, 2398.0, 2398.0, 2397.0, 2398.0, 2399.0, 2397.0, 2398.0, 2397.0, 2398.0, 2399.0, 2398.0, 2397.0, 2397.0, 2397.0, 2397.0, 2396.0, 2398.0, 2398.0, 2397.0, 2397.0, 2397.0, 2397.0, 2396.0, 2397.0, 2397.0, 2398.0, 2398.0, 2397.0, 2398.0, 2398.0, 2398.0, 2397.0, 2397.0, 2398.0, 2398.0, 2398.0, 2397.0, 2397.0, 2397.0, 2397.0, 2398.0, 2397.0, 2396.0, 2398.0, 2398.0, 2397.0, 2397.0, 2398.0, 2398.0, 2399.0]
    },
    "slices": {}
  }
}