{
  "AcquisitionMatrixPE": 122,
  "AcquisitionNumber": 1,
  "AcquisitionTime": "09:46:2.475000",
  "BandwidthPerPixelPhaseEncode": 27.785,
  "BaseResolution": 122,
  "BodyPartExamined": "BRAIN",
  "CoilCombinationMethod": "Adaptive Combine",
  "ConsistencyInfo": "N4_VE11C_LATEST_20160120",
  "ConversionSoftware": "dcm2niix",
  "ConversionSoftwareVersion": "v1.0.20220720",
  "DerivedVendorReportedEchoSpacing": 0.000590011,
  "DeviceSerialNumber": "66112",
  "DiffusionScheme": "Monopolar",
  "DwellTime": 2e-06,
  "EchoTime": 0.068,
  "EchoTrainLength": 61,
  "EffectiveEchoSpacing": 0.000295005,
  "FlipAngle": 90,
  "HeudiconvVersion": "0.13.1",
  "ImageOrientationPatientDICOM": [0.988233, 0.152683, 0.00909319, -0.149103, 0.948395, 0.279848],
  "ImageOrientationText": "Tra>Cor(16.1)>Sag(-2.0)",
  "ImageType": [
    "ORIGINAL",
    "PRIMARY",
    "DIFFUSION",
    "NONE",
    "ND",
    "NORM"
],
  "ImagingFrequency": 123.253,
  "InPlanePhaseEncodingDirectionDICOM": "COL",
  "InstitutionAddress": "Maynard 3,Hanover,NH,US,03755",
  "InstitutionName": "Dartmouth College - PBS",
  "InstitutionalDepartmentName": "Department",
  "MRAcquisitionType": "2D",
  "MagneticFieldStrength": 3,
  "Manufacturer": "Siemens",
  "ManufacturersModelName": "Prisma",
  "Modality": "MR",
  "MultibandAccelerationFactor": 4,
  "NonlinearGradientCorrection": false,
  "ParallelReductionFactorInPlane": 2,
  "PartialFourier": 1,
  "PatientPosition": "HFS",
  "PercentPhaseFOV": 100,
  "PercentSampling": 100,
  "PhaseEncodingDirection": "j-",
  "PhaseEncodingSteps": 122,
  "PhaseResolution": 1,
  "PixelBandwidth": 2050,
  "ProcedureStepDescription": "dbic^QA",
  "ProtocolName": "dwi_acq-DTI-30-p2-s4",
  "PulseSequenceDetails": "%SiemensSeq%\\ep2d_diff",
  "ReceiveCoilActiveElements": "HEA;HEP",
  "ReceiveCoilName": "Head_32",
  "ReconMatrixPE": 122,
  "RefLinesPE": 38,
  "RepetitionTime": 3.6,
  "SAR": 0.161791,
  "ScanOptions": "FS",
  "ScanningSequence": "EP",
  "SequenceName": "*ep_b0",
  "SequenceVariant": "SK\\SP",
  "SeriesDescription": "dwi_acq-DTI-30-p2-s4",
  "SeriesNumber": 13,
  "ShimSetting": [4154, -7694, -7513, 309, -31, -212, -35, 110],
  "SliceThickness": 2,
  "SliceTiming": [2.58594, 0, 1.78906, 0.19531, 1.98438, 0.39844, 2.1875, 0.59375, 2.38281, 0.99219, 2.78125, 1.19531, 2.98438, 1.39062, 3.17969, 1.58594, 3.38281, 0.79688, 2.58594, 0, 1.78906, 0.19531, 1.98438, 0.39844, 2.1875, 0.59375, 2.38281, 0.99219, 2.78125, 1.19531, 2.98438, 1.39062, 3.17969, 1.58594, 3.38281, 0.79688, 2.58594, 0, 1.78906, 0.19531, 1.98438, 0.39844, 2.1875, 0.59375, 2.38281, 0.99219, 2.78125, 1.19531, 2.98438, 1.39062, 3.17969, 1.58594, 3.38281, 0.79688, 2.58594, 0, 1.78906, 0.19531, 1.98438, 0.39844, 2.1875, 0.59375, 2.38281, 0.99219, 2.78125, 1.19531, 2.98438, 1.39062, 3.17969, 1.58594, 3.38281, 0.79688],
  "SoftwareVersions": "syngo MR E11",
  "SpacingBetweenSlices": 2,
  "SpoilingState": true,
  "StationName": "AWP66112",
  "TotalReadoutTime": 0.0356956,
  "TxRefAmp": 230.204,
  "dcmmeta_affine": [
    [-1.9440655708312988, -0.29331815242767334, -0.06820869445800781, 143.69287109375],
    [-0.30036088824272156, 1.8656951189041138, 0.5558223724365234, -121.48133087158203],
    [0.01788824237883091, -0.5505213737487793, 1.9200057983398438, -31.928234100341797],
    [0.0, 0.0, 0.0, 1.0]
],
  "dcmmeta_reorient_transform": [
    [0.0, -1.0, 0.0, 121.0],
    [1.0, 0.0, 0.0, 0.0],
    [0.0, 0.0, -1.0, 71.0],
    [0.0, 0.0, 0.0, 1.0]
],
  "dcmmeta_shape": [122, 122, 72, 31],
  "dcmmeta_slice_dim": 2,
  "dcmmeta_version": 0.6,
  "global": {
    "const": {
      "AccessionNumber": "qa",
      "AcquisitionMatrix": [122, 0, 0, 122],
      "AngioFlag": "N",
      "BitsAllocated": 16,
      "BitsStored": 12,
      "BodyPartExamined": "BRAIN",
      "Columns": 122,
      "EchoNumbers": 1,
      "EchoTime": 68.0,
      "EchoTrainLength": 61,
      "FlipAngle": 90.0,
      "HighBit": 11,
      "ImageOrientationPatient": [0.98823331089674, 0.1526834540246, 0.0090931898245, -0.1491033920157, 0.94839500125523, 0.27984835193997],
      "ImageType": [
        "ORIGINAL",
        "PRIMARY",
        "DIFFUSION",
        "NONE",
        "ND",
        "NORM"
],
      "ImagedNucleus": "1H",
      "ImagingFrequency": 123.252521,
      "InPlanePhaseEncodingDirection": "COL",
      "MRAcquisitionType": "2D",
      "MagneticFieldStrength": 3.0,
      "Manufacturer": "SIEMENS",
      "ManufacturerModelName": "Prisma",
      "Modality": "MR",
      "NumberOfAverages": 1.0,
      "NumberOfPhaseEncodingSteps": 122,
      "PercentPhaseFieldOfView": 100.0,
      "PercentSampling": 100.0,
      "PerformedProcedureStepStartTime": "091124.632000",
      "PhotometricInterpretation": "MONOCHROME2",
      "PixelBandwidth": 2050.0,
      "PixelRepresentation": 0,
      "PixelSpacing": [1.9672131538391, 1.9672131538391],
      "ProtocolName": "dwi_acq-DTI-30-p2-s4",
      "RepetitionTime": 3600.0,
      "Rows": 122,
      "SAR": 0.16179108429965,
      "SamplesPerPixel": 1,
      "ScanOptions": "FS",
      "ScanningSequence": "EP",
      "SequenceVariant": [
        "SK",
        "SP"
],
      "SeriesDescription": "dwi_acq-DTI-30-p2-s4",
      "SeriesNumber": 13,
      "SeriesTime": "094611.853000",
      "SliceThickness": 2.0,
      "SmallestImagePixelValue": 0,
      "SoftwareVersions": "syngo MR E11",
      "SpacingBetweenSlices": 2.0,
      "SpecificCharacterSet": "ISO_IR 100",
      "StudyID": "18",
      "StudyTime": "091124.563000",
      "TransmitCoilName": "Body",
      "VariableFlipAngleFlag": "N",
      "WindowCenterWidthExplanation": "Algo1",
      "dBdt": 0.0},
    "slices": {
      "AcquisitionTime": ["094602.475000", "094559.890000", "094601.680000", "094600.087500", "094601.877500", "094600.287500", "094602.077500", "094600.485000", "094602.275000", "094600.882500", "094602.672500", "094601.082500", "094602.872500", "094601.280000", "094603.070000", "094601.480000", "094603.270000", "094600.685000", "094602.475000", "094559.890000", "094601.680000", "094600.087500", "094601.877500", "094600.287500", "094602.077500", "094600.485000", "094602.275000", "094600.882500", "094602.672500", "094601.082500", "094602.872500", "094601.280000", "094603.070000", "094601.480000", "094603.270000", "094600.685000", "094602.475000", "094559.890000", "094601.680000", "094600.087500", "094601.877500", "094600.287500", "094602.077500", "094600.485000", "094602.275000", "094600.882500", "094602.672500", "094601.082500", "094602.872500", "094601.280000", "094603.070000", "094601.480000", "094603.270000", "094600.685000", "094602.475000", "094559.890000", "094601.680000", "094600.087500", "094601.877500", "094600.287500", "094602.077500", "094600.485000", "094602.275000", "094600.882500", "094602.672500", "094601.082500", "094602.872500", "094601.280000", "094603.070000", "094601.480000", "094603.270000", "094600.685000", "094606.075000", "094603.490000", "094605.280000", "094603.687500", "094605.477500", "094603.887500", "094605.677500", "094604.085000", "094605.875000", "094604.482500", "094606.272500", "094604.682500", "094606.472500", "094604.880000", "094606.670000", "094605.080000", "094606.870000", "094604.285000", "094606.075000", "094603.490000", "094605.280000", "094603.687500", "094605.477500", "094603.887500", "094605.677500", "094604.085000", "094605.875000", "094604.482500", "094606.272500", "094604.682500", "094606.472500", "094604.880000", "094606.670000", "094605.080000", "094606.870000", "094604.285000", "094606.075000", "094603.490000", "094605.280000", "094603.687500", "094605.477500", "094603.887500", "094605.677500", "094604.085000", "094605.875000", "094604.482500", "094606.272500", "094604.682500", "094606.472500", "094604.880000", "094606.670000", "094605.080000", "094606.870000", "094604.285000", "094606.075000", "094603.490000", "094605.280000", "094603.687500", "094605.477500", "094603.887500", "094605.677500", "094604.085000", "094605.875000", "094604.482500", "094606.272500", "094604.682500", "094606.472500", "094604.880000", "094606.670000", "094605.080000", "094606.870000", "094604.285000", "094609.675000", "094607.090000", "094608.880000", "094607.287500", "094609.077500", "094607.487500", "094609.277500", "094607.685000", "094609.475000", "094608.082500", "094609.872500", "094608.282500", "094610.072500", "094608.480000", "094610.270000", "094608.680000", "094610.470000", "094607.885000", "094609.675000", "094607.090000", "094608.880000", "094607.287500", "094609.077500", "094607.487500", "094609.277500", "094607.685000", "094609.475000", "094608.082500", "094609.872500", "094608.282500", "094610.072500", "094608.480000", "094610.270000", "094608.680000", "094610.470000", "094607.885000", "094609.675000", "094607.090000", "094608.880000", "094607.287500", "094609.077500", "094607.487500", "094609.277500", "094607.685000", "094609.475000", "094608.082500", "094609.872500", "094608.282500", "094610.072500", "094608.480000", "094610.270000", "094608.680000", "094610.470000", "094607.885000", "094609.675000", "094607.090000", "094608.880000", "094607.287500", "094609.077500", "094607.487500", "094609.277500", "094607.685000", "094609.475000", "094608.082500", "094609.872500", "094608.282500", "094610.072500", "094608.480000", "094610.270000", "094608.680000", "094610.470000", "094607.885000", "094613.275000", "094610.690000", "094612.480000", "094610.887500", "094612.677500", "094611.087500", "094612.877500", "094611.285000", "094613.075000", "094611.682500", "094613.472500", "094611.882500", "094613.672500", "094612.080000", "094613.870000", "094612.280000", "094614.070000", "094611.485000", "094613.275000", "094610.690000", "094612.480000", "094610.887500", "094612.677500", "094611.087500", "094612.877500", "094611.285000", "094613.075000", "094611.682500", "094613.472500", "094611.882500", "094613.672500", "094612.080000", "094613.870000", "094612.280000", "094614.070000", "094611.485000", "094613.275000", "094610.690000", "094612.480000", "094610.887500", "094612.677500", "094611.087500", "094612.877500", "094611.285000", "094613.075000", "094611.682500", "094613.472500", "094611.882500", "094613.672500", "094612.080000", "094613.870000", "094612.280000", "094614.070000", "094611.485000", "094613.275000", "094610.690000", "094612.480000", "094610.887500", "094612.677500", "094611.087500", "094612.877500", "094611.285000", "094613.075000", "094611.682500", "094613.472500", "094611.882500", "094613.672500", "094612.080000", "094613.870000", "094612.280000", "094614.070000", "094611.485000", "094616.875000", "094614.290000", "094616.080000", "094614.487500", "094616.277500", "094614.687500", "094616.477500", "094614.885000", "094616.675000", "094615.282500", "094617.072500", "094615.482500", "094617.272500", "094615.680000", "094617.470000", "094615.880000", "094617.670000", "094615.085000", "094616.875000", "094614.290000", "094616.080000", "094614.487500", "094616.277500", "094614.687500", "094616.477500", "094614.885000", "094616.675000", "094615.282500", "094617.072500", "094615.482500", "094617.272500", "094615.680000", "094617.470000", "094615.880000", "094617.670000", "094615.085000", "094616.875000", "094614.290000", "094616.080000", "094614.487500", "094616.277500", "094614.687500", "094616.477500", "094614.885000", "094616.675000", "094615.282500", "094617.072500", "094615.482500", "094617.272500", "094615.680000", "094617.470000", "094615.880000", "094617.670000", "094615.085000", "094616.875000", "094614.290000", "094616.080000", "094614.487500", "094616.277500", "094614.687500", "094616.477500", "094614.885000", "094616.675000", "094615.282500", "094617.072500", "094615.482500", "094617.272500", "094615.680000", "094617.470000", "094615.880000", "094617.670000", "094615.085000", "094620.475000", "094617.890000", "094619.680000", "094618.087500", "094619.877500", "094618.287500", "094620.077500", "094618.485000", "094620.275000", "094618.882500", "094620.672500", "094619.082500", "094620.872500", "094619.280000", "094621.070000", "094619.480000", "094621.270000", "094618.685000", "094620.475000", "094617.890000", "094619.680000", "094618.087500", "094619.877500", "094618.287500", "094620.077500", "094618.485000", "094620.275000", "094618.882500", "094620.672500", "094619.082500", "094620.872500", "094619.280000", "094621.070000", "094619.480000", "094621.270000", "094618.685000", "094620.475000", "094617.890000", "094619.680000", "094618.087500", "094619.877500", "094618.287500", "094620.077500", "094618.485000", "094620.275000", "094618.882500", "094620.672500", "094619.082500", "094620.872500", "094619.280000", "094621.070000", "094619.480000", "094621.270000", "094618.685000", "094620.475000", "094617.890000", "094619.680000", "094618.087500", "094619.877500", "094618.287500", "094620.077500", "094618.485000", "094620.275000", "094618.882500", "094620.672500", "094619.082500", "094620.872500", "094619.280000", "094621.070000", "094619.480000", "094621.270000", "094618.685000", "094624.075000", "094621.490000", "094623.280000", "094621.687500", "094623.477500", "094621.887500", "094623.677500", "094622.085000", "094623.875000", "094622.482500", "094624.272500", "094622.682500", "094624.472500", "094622.880000", "094624.670000", "094623.080000", "094624.870000", "094622.285000", "094624.075000", "094621.490000", "094623.280000", "094621.687500", "094623.477500", "094621.887500", "094623.677500", "094622.085000", "094623.875000", "094622.482500", "094624.272500", "094622.682500", "094624.472500", "094622.880000", "094624.670000", "094623.080000", "094624.870000", "094622.285000", "094624.075000", "094621.490000", "094623.280000", "094621.687500", "094623.477500", "094621.887500", "094623.677500", "094622.085000", "094623.875000", "094622.482500", "094624.272500", "094622.682500", "094624.472500", "094622.880000", "094624.670000", "094623.080000", "094624.870000", "094622.285000", "094624.075000", "094621.490000", "094623.280000", "094621.687500", "094623.477500", "094621.887500", "094623.677500", "094622.085000", "094623.875000", "094622.482500", "094624.272500", "094622.682500", "094624.472500", "094622.880000", "094624.670000", "094623.080000", "094624.870000", "094622.285000", "094627.675000", "094625.090000", "094626.880000", "094625.287500", "094627.077500", "094625.487500", "094627.277500", "094625.685000", "094627.475000", "094626.082500", "094627.872500", "094626.282500", "094628.072500", "094626.480000", "094628.270000", "094626.680000", "094628.470000", "094625.885000", "094627.675000", "094625.090000", "094626.880000", "094625.287500", "094627.077500", "094625.487500", "094627.277500", "094625.685000", "094627.475000", "094626.082500", "094627.872500", "094626.282500", "094628.072500", "094626.480000", "094628.270000", "094626.680000", "094628.470000", "094625.885000", "094627.675000", "094625.090000", "094626.880000", "094625.287500", "094627.077500", "094625.487500", "094627.277500", "094625.685000", "094627.475000", "094626.082500", "094627.872500", "094626.282500", "094628.072500", "094626.480000", "094628.270000", "094626.680000", "094628.470000", "094625.885000", "094627.675000", "094625.090000", "094626.880000", "094625.287500", "094627.077500", "094625.487500", "094627.277500", "094625.685000", "094627.475000", "094626.082500", "094627.872500", "094626.282500", "094628.072500", "094626.480000", "094628.270000", "094626.680000", "094628.470000", "094625.885000", "094631.275000", "094628.690000", "094630.480000", "094628.887500", "094630.677500", "094629.087500", "094630.877500", "094629.285000", "094631.075000", "094629.682500", "094631.472500", "094629.882500", "094631.672500", "094630.080000", "094631.870000", "094630.280000", "094632.070000", "094629.485000", "094631.275000", "094628.690000", "094630.480000", "094628.887500", "094630.677500", "094629.087500", "094630.877500", "094629.285000", "094631.075000", "094629.682500", "094631.472500", "094629.882500", "094631.672500", "094630.080000", "094631.870000", "094630.280000", "094632.070000", "094629.485000", "094631.275000", "094628.690000", "094630.480000", "094628.887500", "094630.677500", "094629.087500", "094630.877500", "094629.285000", "094631.075000", "094629.682500", "094631.472500", "094629.882500", "094631.672500", "094630.080000", "094631.870000", "094630.280000", "094632.070000", "094629.485000", "094631.275000", "094628.690000", "094630.480000", "094628.887500", "094630.677500", "094629.087500", "094630.877500", "094629.285000", "094631.075000", "094629.682500", "094631.472500", "094629.882500", "094631.672500", "094630.080000", "094631.870000", "094630.280000", "094632.070000", "094629.485000", "094634.875000", "094632.290000", "094634.080000", "094632.487500", "094634.277500", "094632.687500", "094634.477500", "094632.885000", "094634.675000", "094633.282500", "094635.072500", "094633.482500", "094635.272500", "094633.680000", "094635.470000", "094633.880000", "094635.670000", "094633.085000", "094634.875000", "094632.290000", "094634.080000", "094632.487500", "094634.277500", "094632.687500", "094634.477500", "094632.885000", "094634.675000", "094633.282500", "094635.072500", "094633.482500", "094635.272500", "094633.680000", "094635.470000", "094633.880000", "094635.670000", "094633.085000", "094634.875000", "094632.290000", "094634.080000", "094632.487500", "094634.277500", "094632.687500", "094634.477500", "094632.885000", "094634.675000", "094633.282500", "094635.072500", "094633.482500", "094635.272500", "094633.680000", "094635.470000", "094633.880000", "094635.670000", "094633.085000", "094634.875000", "094632.290000", "094634.080000", "094632.487500", "094634.277500", "094632.687500", "094634.477500", "094632.885000", "094634.675000", "094633.282500", "094635.072500", "094633.482500", "094635.272500", "094633.680000", "094635.470000", "094633.880000", "094635.670000", "094633.085000", "094638.475000", "094635.890000", "094637.680000", "094636.087500", "094637.877500", "094636.287500", "094638.077500", "094636.485000", "094638.275000", "094636.882500", "094638.672500", "094637.082500", "094638.872500", "094637.280000", "094639.070000", "094637.480000", "094639.270000", "094636.685000", "094638.475000", "094635.890000", "094637.680000", "094636.087500", "094637.877500", "094636.287500", "094638.077500", "094636.485000", "094638.275000", "094636.882500", "094638.672500", "094637.082500", "094638.872500", "094637.280000", "094639.070000", "094637.480000", "094639.270000", "094636.685000", "094638.475000", "094635.890000", "094637.680000", "094636.087500", "094637.877500", "094636.287500", "094638.077500", "094636.485000", "094638.275000", "094636.882500", "094638.672500", "094637.082500", "094638.872500", "094637.280000", "094639.070000", "094637.480000", "094639.270000", "094636.685000", "094638.475000", "094635.890000", "094637.680000", "094636.087500", "094637.877500", "094636.287500", "094638.077500", "094636.485000", "094638.275000", "094636.882500", "094638.672500", "094637.082500", "094638.872500", "094637.280000", "094639.070000", "094637.480000", "094639.270000", "094636.685000", "094642.075000", "094639.490000", "094641.280000", "094639.687500", "094641.477500", "094639.887500", "094641.677500", "094640.085000", "094641.875000", "094640.482500", "094642.272500", "094640.682500", "094642.472500", "094640.880000", "094642.670000", "094641.080000", "094642.870000", "094640.285000", "094642.075000", "094639.490000", "094641.280000", "094639.687500", "094641.477500", "094639.887500", "094641.677500", "094640.085000", "094641.875000", "094640.482500", "094642.272500", "094640.682500", "094642.472500", "094640.880000", "094642.670000", "094641.080000", "094642.870000", "094640.285000", "094642.075000", "094639.490000", "094641.280000", "094639.687500", "094641.477500", "094639.887500", "094641.677500", "094640.085000", "094641.875000", "094640.482500", "094642.272500", "094640.682500", "094642.472500", "094640.880000", "094642.670000", "094641.080000", "094642.870000", "094640.285000", "094642.075000", "094639.490000", "094641.280000", "094639.687500", "094641.477500", "094639.887500", "094641.677500", "094640.085000", "094641.875000", "094640.482500", "094642.272500", "094640.682500", "094642.472500", "094640.880000", "094642.670000", "094641.080000", "094642.870000", "094640.285000", "094645.675000", "094643.090000", "094644.880000", "094643.287500", "094645.077500", "094643.487500", "094645.277500", "094643.685000", "094645.475000", "094644.082500", "094645.872500", "094644.282500", "094646.072500", "094644.480000", "094646.270000", "094644.680000", "094646.470000", "094643.885000", "094645.675000", "094643.090000", "094644.880000", "094643.287500", "094645.077500", "094643.487500", "094645.277500", "094643.685000", "094645.475000", "094644.082500", "094645.872500", "094644.282500", "094646.072500", "094644.480000", "094646.270000", "094644.680000", "094646.470000", "094643.885000", "094645.675000", "094643.090000", "094644.880000", "094643.287500", "094645.077500", "094643.487500", "094645.277500", "094643.685000", "094645.475000", "094644.082500", "094645.872500", "094644.282500", "094646.072500", "094644.480000", "094646.270000", "094644.680000", "094646.470000", "094643.885000", "094645.675000", "094643.090000", "094644.880000", "094643.287500", "094645.077500", "094643.487500", "094645.277500", "094643.685000", "094645.475000", "094644.082500", "094645.872500", "094644.282500", "094646.072500", "094644.480000", "094646.270000", "094644.680000", "094646.470000", "094643.885000", "094649.275000", "094646.690000", "094648.480000", "094646.887500", "094648.677500", "094647.087500", "094648.877500", "094647.285000", "094649.075000", "094647.682500", "094649.472500", "094647.882500", "094649.672500", "094648.080000", "094649.870000", "094648.280000", "094650.070000", "094647.485000", "094649.275000", "094646.690000", "094648.480000", "094646.887500", "094648.677500", "094647.087500", "094648.877500", "094647.285000", "094649.075000", "094647.682500", "094649.472500", "094647.882500", "094649.672500", "094648.080000", "094649.870000", "094648.280000", "094650.070000", "094647.485000", "094649.275000", "094646.690000", "094648.480000", "094646.887500", "094648.677500", "094647.087500", "094648.877500", "094647.285000", "094649.075000", "094647.682500", "094649.472500", "094647.882500", "094649.672500", "094648.080000", "094649.870000", "094648.280000", "094650.070000", "094647.485000", "094649.275000", "094646.690000", "094648.480000", "094646.887500", "094648.677500", "094647.087500", "094648.877500", "094647.285000", "094649.075000", "094647.682500", "094649.472500", "094647.882500", "094649.672500", "094648.080000", "094649.870000", "094648.280000", "094650.070000", "094647.485000", "094652.875000", "094650.290000", "094652.080000", "094650.487500", "094652.277500", "094650.687500", "094652.477500", "094650.885000", "094652.675000", "094651.282500", "094653.072500", "094651.482500", "094653.272500", "094651.680000", "094653.470000", "094651.880000", "094653.670000", "094651.085000", "094652.875000", "094650.290000", "094652.080000", "094650.487500", "094652.277500", "094650.687500", "094652.477500", "094650.885000", "094652.675000", "094651.282500", "094653.072500", "094651.482500", "094653.272500", "094651.680000", "094653.470000", "094651.880000", "094653.670000", "094651.085000", "094652.875000", "094650.290000", "094652.080000", "094650.487500", "094652.277500", "094650.687500", "094652.477500", "094650.885000", "094652.675000", "094651.282500", "094653.072500", "094651.482500", "094653.272500", "094651.680000", "094653.470000", "094651.880000", "094653.670000", "094651.085000", "094652.875000", "094650.290000", "094652.080000", "094650.487500", "094652.277500", "094650.687500", "094652.477500", "094650.885000", "094652.675000", "094651.282500", "094653.072500", "094651.482500", "094653.272500", "094651.680000", "094653.470000", "094651.880000", "094653.670000", "094651.085000", "094656.475000", "094653.890000", "094655.680000", "094654.087500", "094655.877500", "094654.287500", "094656.077500", "094654.485000", "094656.275000", "094654.882500", "094656.672500", "094655.082500", "094656.872500", "094655.280000", "094657.070000", "094655.480000", "094657.270000", "094654.685000", "094656.475000", "094653.890000", "094655.680000", "094654.087500", "094655.877500", "094654.287500", "094656.077500", "094654.485000", "094656.275000", "094654.882500", "094656.672500", "094655.082500", "094656.872500", "094655.280000", "094657.070000", "094655.480000", "094657.270000", "094654.685000", "094656.475000", "094653.890000", "094655.680000", "094654.087500", "094655.877500", "094654.287500", "094656.077500", "094654.485000", "094656.275000", "094654.882500", "094656.672500", "094655.082500", "094656.872500", "094655.280000", "094657.070000", "094655.480000", "094657.270000", "094654.685000", "094656.475000", "094653.890000", "094655.680000", "094654.087500", "094655.877500", "094654.287500", "094656.077500", "094654.485000", "094656.275000", "094654.882500", "094656.672500", "094655.082500", "094656.872500", "094655.280000", "094657.070000", "094655.480000", "094657.270000", "094654.685000", "094700.075000", "094657.490000", "094659.280000", "094657.687500", "094659.477500", "094657.887500", "094659.677500", "094658.085000", "094659.875000", "094658.482500", "094700.272500", "094658.682500", "094700.472500", "094658.880000", "094700.670000", "094659.080000", "094700.870000", "094658.285000", "094700.075000", "094657.490000", "094659.280000", "094657.687500", "094659.477500", "094657.887500", "094659.677500", "094658.085000", "094659.875000", "094658.482500", "094700.272500", "094658.682500", "094700.472500", "094658.880000", "094700.670000", "094659.080000", "094700.870000", "094658.285000", "094700.075000", "094657.490000", "094659.280000", "094657.687500", "094659.477500", "094657.887500", "094659.677500", "094658.085000", "094659.875000", "094658.482500", "094700.272500", "094658.682500", "094700.472500", "094658.880000", "094700.670000", "094659.080000", "094700.870000", "094658.285000", "094700.075000", "094657.490000", "094659.280000", "094657.687500", "094659.477500", "094657.887500", "094659.677500", "094658.085000", "094659.875000", "094658.482500", "094700.272500", "094658.682500", "094700.472500", "094658.880000", "094700.670000", "094659.080000", "094700.870000", "094658.285000", "094703.675000", "094701.090000", "094702.880000", "094701.287500", "094703.077500", "094701.487500", "094703.277500", "094701.685000", "094703.475000", "094702.082500", "094703.872500", "094702.282500", "094704.072500", "094702.480000", "094704.270000", "094702.680000", "094704.470000", "094701.885000", "094703.675000", "094701.090000", "094702.880000", "094701.287500", "094703.077500", "094701.487500", "094703.277500", "094701.685000", "094703.475000", "094702.082500", "094703.872500", "094702.282500", "094704.072500", "094702.480000", "094704.270000", "094702.680000", "094704.470000", "094701.885000", "094703.675000", "094701.090000", "094702.880000", "094701.287500", "094703.077500", "094701.487500", "094703.277500", "094701.685000", "094703.475000", "094702.082500", "094703.872500", "094702.282500", "094704.072500", "094702.480000", "094704.270000", "094702.680000", "094704.470000", "094701.885000", "094703.675000", "094701.090000", "094702.880000", "094701.287500", "094703.077500", "094701.487500", "094703.277500", "094701.685000", "094703.475000", "094702.082500", "094703.872500", "094702.282500", "094704.072500", "094702.480000", "094704.270000", "094702.680000", "094704.470000", "094701.885000", "094707.275000", "094704.690000", "094706.480000", "094704.887500", "094706.677500", "094705.087500", "094706.877500", "094705.285000", "094707.075000", "094705.682500", "094707.472500", "094705.882500", "094707.672500", "094706.080000", "094707.870000", "094706.280000", "094708.070000", "094705.485000", "094707.275000", "094704.690000", "094706.480000", "094704.887500", "094706.677500", "094705.087500", "094706.877500", "094705.285000", "094707.075000", "094705.682500", "094707.472500", "094705.882500", "094707.672500", "094706.080000", "094707.870000", "094706.280000", "094708.070000", "094705.485000", "094707.275000", "094704.690000", "094706.480000", "094704.887500", "094706.677500", "094705.087500", "094706.877500", "094705.285000", "094707.075000", "094705.682500", "094707.472500", "094705.882500", "094707.672500", "094706.080000", "094707.870000", "094706.280000", "094708.070000", "094705.485000", "094707.275000", "094704.690000", "094706.480000", "094704.887500", "094706.677500", "094705.087500", "094706.877500", "094705.285000", "094707.075000", "094705.682500", "094707.472500", "094705.882500", "094707.672500", "094706.080000", "094707.870000", "094706.280000", "094708.070000", "094705.485000", "094710.875000", "094708.290000", "094710.080000", "094708.487500", "094710.277500", "094708.687500", "094710.477500", "094708.885000", "094710.675000", "094709.282500", "094711.072500", "094709.482500", "094711.272500", "094709.680000", "094711.470000", "094709.880000", "094711.670000", "094709.085000", "094710.875000", "094708.290000", "094710.080000", "094708.487500", "094710.277500", "094708.687500", "094710.477500", "094708.885000", "094710.675000", "094709.282500", "094711.072500", "094709.482500", "094711.272500", "094709.680000", "094711.470000", "094709.880000", "094711.670000", "094709.085000", "094710.875000", "094708.290000", "094710.080000", "094708.487500", "094710.277500", "094708.687500", "094710.477500", "094708.885000", "094710.675000", "094709.282500", "094711.072500", "094709.482500", "094711.272500", "094709.680000", "094711.470000", "094709.880000", "094711.670000", "094709.085000", "094710.875000", "094708.290000", "094710.080000", "094708.487500", "094710.277500", "094708.687500", "094710.477500", "094708.885000", "094710.675000", "094709.282500", "094711.072500", "