{
  "AcquisitionMatrixPE": 80,
  "AcquisitionNumber": 1,
  "AcquisitionTime": "10:35:6.800000",
  "BandwidthPerPixelPhaseEncode": 48.077,
  "BaseResolution": 80,
  "BodyPartExamined": "BRAIN",
  "CoilCombinationMethod": "Sum of Squares",
  "ConsistencyInfo": "N4_VE11E_LATEST_20181129",
  "ConversionSoftware": "dcm2niix",
  "ConversionSoftwareVersion": "v1.0.20220720",
  "DerivedVendorReportedEchoSpacing": 0.000519999,
  "DeviceSerialNumber": "66112",
  "DwellTime": 2.7e-06,
  "EchoTime": 0.035,
  "EchoTrainLength": 39,
  "EffectiveEchoSpacing": 0.00026,
  "FlipAngle": 90,
  "HeudiconvVersion": "0.13.1",
  "ImageOrientationPatientDICOM": [0.999974, 0.00657935, 0.0029572, -0.00715573, 0.956516, 0.291591],
  "ImageOrientationText": "Tra>Cor(17.0)>Sag(0.1)",
  "ImageType": [
    "ORIGINAL",
    "PRIMARY",
    "M",
    "ND",
    "NORM",
    "MOSAIC"
],
  "ImagingFrequency": 123.261,
  "InPlanePhaseEncodingDirectionDICOM": "COL",
  "InstitutionAddress": "Maynard 3,Hanover,NH,US,03755",
  "InstitutionName": "Dartmouth College - PBS",
  "InstitutionalDepartmentName": "Department",
  "MRAcquisitionType": "2D",
  "MagneticFieldStrength": 3,
  "Manufacturer": "Siemens",
  "ManufacturersModelName": "Prisma",
  "MatrixCoilMode": "GRAPPA",
  "Modality": "MR",
  "NonlinearGradientCorrection": false,
  "ParallelReductionFactorInPlane": 2,
  "PartialFourier": 1,
  "PatientPosition": "HFS",
  "PercentPhaseFOV": 100,
  "PercentSampling": 100,
  "PhaseEncodingDirection": "j-",
  "PhaseEncodingSteps": 79,
  "PhaseResolution": 1,
  "PixelBandwidth": 2315,
  "ProcedureStepDescription": "dbic^QA",
  "ProtocolName": "func-bold_task-rest_acq-p2",
  "PulseSequenceDetails": "%SiemensSeq%\\ep2d_bold",
  "ReceiveCoilActiveElements": "HEA;HEP",
  "ReceiveCoilName": "Head_32",
  "ReconMatrixPE": 80,
  "RefLinesPE": 24,
  "RepetitionTime": 2,
  "SAR": 0.0469075,
  "ScanOptions": "FS",
  "ScanningSequence": "EP",
  "SequenceName": "*epfid2d1_80",
  "SequenceVariant": "SK",
  "SeriesDescription": "func-bold_task-rest_acq-p2",
  "SeriesNumber": 5,
  "ShimSetting": [4250, -7734, -7492, -39, -183, -86, -17, 76],
  "SliceThickness": 3.5,
  "SliceTiming": [0.99, 0, 1.055, 0.065, 1.1225, 0.1325, 1.1875, 0.1975, 1.2525, 0.2625, 1.32, 0.33, 1.385, 0.395, 1.45, 0.4625, 1.5175, 0.5275, 1.5825, 0.5925, 1.65, 0.66, 1.715, 0.725, 1.78, 0.7925, 1.8475, 0.8575, 1.9125, 0.9225],
  "SoftwareVersions": "syngo MR E11",
  "SpacingBetweenSlices": 3.99,
  "StationName": "AWP66112",
  "TaskName": "rest",
  "TotalReadoutTime": 0.02054,
  "TxRefAmp": 225.727,
  "dcmmeta_affine": [
    [-2.999922037124634, -0.021467197686433792, 0.003631417639553547, 120.8310317993164],
    [-0.01973804645240307, 2.869549036026001, 1.1635016202926636, -127.28618621826172],
    [0.00887159164994955, -0.8747725486755371, 3.816588878631592, -29.40236473083496],
    [0.0, 0.0, 0.0, 1.0]
],
  "dcmmeta_reorient_transform": [
    [0.0, -1.0, 0.0, 79.0],
    [1.0, 0.0, 0.0, 0.0],
    [0.0, 0.0, 1.0, 0.0],
    [0.0, 0.0, 0.0, 1.0]
],
  "dcmmeta_shape": [80, 80, 30, 200],
  "dcmmeta_slice_dim": 2,
  "dcmmeta_version": 0.6,
  "global": {
    "const": {
      "AccessionNumber": "qa",
      "AcquisitionMatrix": [80, 0, 0, 80],
      "AngioFlag": "N",
      "BitsAllocated": 16,
      "BitsStored": 12,
      "BodyPartExamined": "BRAIN",
      "Columns": 480,
      "EchoNumbers": 1,
      "EchoTime": 35.0,
      "EchoTrainLength": 39,
      "FlipAngle": 90.0,
      "HighBit": 11,
      "ImageOrientationPatient": [0.99997398323764, 0.00657934888146, 0.00295719734559, -0.0071557327868, 0.95651637234084, 0.29159085193503],
      "ImagePositionPatient": [-714.82607532106, -677.26562353421, -275.23822692126],
      "ImageType": [
        "ORIGINAL",
        "PRIMARY",
        "M",
        "ND",
        "NORM",
        "MOSAIC"
],
      "ImagedNucleus": "1H",
      "ImagingFrequency": 123.261276,
      "InPlanePhaseEncodingDirection": "COL",
      "MRAcquisitionType": "2D",
      "MagneticFieldStrength": 3.0,
      "Manufacturer": "SIEMENS",
      "ManufacturerModelName": "Prisma",
      "Modality": "MR",
      "NumberOfAverages": 1.0,
      "NumberOfPhaseEncodingSteps": 79,
      "PercentPhaseFieldOfView": 100.0,
      "PercentSampling": 100.0,
      "PerformedProcedureStepStartTime": "103000.250000",
      "PhotometricInterpretation": "MONOCHROME2",
      "PixelBandwidth": 2315.0,
      "PixelRepresentation": 0,
      "PixelSpacing": [3.0, 3.0],
      "ProtocolName": "func-bold_task-rest_acq-p2",
      "RepetitionTime": 2000.0,
      "Rows": 480,
      "SAR": 0.04690747892759,
      "SamplesPerPixel": 1,
      "ScanOptions": "FS",
      "ScanningSequence": "EP",
      "SequenceName": "*epfid2d1_80",
      "SequenceVariant": "SK",
      "SeriesDescription": "func-bold_task-rest_acq-p2",
      "SeriesNumber": 5,
      "SeriesTime": "103600.544000",
      "SliceLocation": -65.131740877324,
      "SliceThickness": 3.5,
      "SmallestImagePixelValue": 0,
      "SoftwareVersions": "syngo MR E11",
      "SpacingBetweenSlices": 3.9900000594753,
      "SpecificCharacterSet": "ISO_IR 100",
      "StudyID": "32",
      "StudyTime": "103000.198000",
      "TransmitCoilName": "Body",
      "VariableFlipAngleFlag": "N",
      "WindowCenterWidthExplanation": "Algo1"
    },
    "slices": {}
  },
  "time": {
    "samples": {
      "AcquisitionNumber": [1, 2, 3, 4, 5, 6, 7, 8, 9, 10, 11, 12, 13, 14, 15, 16, 17, 18, 19, 20, 21, 22, 23, 24, 25, 26, 27, 28, 29, 30, 31, 32, 33, 34, 35, 36, 37, 38, 39, 40, 41, 42, 43, 44, 45, 46, 47, 48, 49, 50, 51, 52, 53, 54, 55, 56, 57, 58, 59, 60, 61, 62, 63, 64, 65, 66, 67, 68, 69, 70, 71, 72, 73, 74, 75, 76, 77, 78, 79, 80, 81, 82, 83, 84, 85, 86, 87, 88, 89, 90, 91, 92, 93, 94, 95, 96, 97, 98, 99, 100, 101, 102, 103, 104, 105, 106, 107, 108, 109, 110, 111, 112, 113, 114, 115, 116, 117, 118, 119, 120, 121, 122, 123, 124, 125, 126, 127, 128, 129, 130, 131, 132, 133, 134, 135, 136, 137, 138, 139, 140, 141, 142, 143, 144, 145, 146, 147, 148, 149, 150, 151, 152, 153, 154, 155, 156, 157, 158, 159, 160, 161, 162, 163, 164, 165, 166, 167, 168, 169, 170, 171, 172, 173, 174, 175, 176, 177, 178, 179, 180, 181, 182, 183, 184, 185, 186, 187, 188, 189, 190, 191, 192, 193, 194, 195, 196, 197, 198, 199, 200],
      "AcquisitionTime": ["103506.800000", "103508.800000", "103510.800000", "103512.800000", "103514.800000", "103516.800000", "103518.800000", "103520.800000", "103522.800000", "103524.800000", "103526.800000", "103528.800000", "103530.800000", "103532.800000", "103534.800000", "103536.800000", "103538.800000", "103540.800000", "103542.800000", "103544.800000", "103546.800000", "103548.800000", "103550.800000", "103552.800000", "103554.800000", "103556.800000", "103558.800000", "103600.800000", "103602.800000", "103604.800000", "103606.800000", "103608.800000", "103610.800000", "103612.800000", "103614.800000", "103616.800000", "103618.800000", "103620.800000", "103622.800000", "103624.800000", "103626.800000", "103628.800000", "103630.800000", "103632.800000", "103634.800000", "103636.800000", "103638.800000", "103640.800000", "103642.800000", "103644.800000", "103646.800000", "103648.800000", "103650.800000", "103652.800000", "103654.800000", "103656.800000", "103658.800000", "103700.800000", "103702.800000", "103704.800000", "103706.800000", "103708.800000", "103710.800000", "103712.800000", "103714.800000", "103716.800000", "103718.800000", "103720.800000", "103722.800000", "103724.800000", "103726.800000", "103728.800000", "103730.800000", "103732.800000", "103734.800000", "103736.800000", "103738.800000", "103740.800000", "103742.800000", "103744.800000", "103746.800000", "103748.800000", "103750.800000", "103752.800000", "103754.800000", "103756.800000", "103758.800000", "103800.800000", "103802.800000", "103804.800000", "103806.800000", "103808.800000", "103810.800000", "103812.800000", "103814.800000", "103816.800000", "103818.800000", "103820.800000", "103822.800000", "103824.800000", "103826.800000", "103828.800000", "103830.800000", "103832.800000", "103834.800000", "103836.800000", "103838.800000", "103840.800000", "103842.800000", "103844.800000", "103846.800000", "103848.800000", "103850.800000", "103852.800000", "103854.800000", "103856.800000", "103858.800000", "103900.800000", "103902.800000", "103904.800000", "103906.800000", "103908.800000", "103910.800000", "103912.800000", "103914.800000", "103916.800000", "103918.800000", "103920.800000", "103922.800000", "103924.800000", "103926.800000", "103928.800000", "103930.800000", "103932.800000", "103934.800000", "103936.800000", "103938.800000", "103940.800000", "103942.800000", "103944.800000", "103946.800000", "103948.800000", "103950.800000", "103952.800000", "103954.800000", "103956.800000", "103958.800000", "104000.800000", "104002.800000", "104004.800000", "104006.800000", "104008.800000", "104010.800000", "104012.800000", "104014.800000", "104016.800000", "104018.800000", "104020.800000", "104022.800000", "104024.800000", "104026.800000", "104028.800000", "104030.800000", "104032.800000", "104034.800000", "104036.800000", "104038.800000", "104040.800000", "104042.800000", "104044.800000", "104046.800000", "104048.800000", "104050.800000", "104052.800000", "104054.800000", "104056.800000", "104058.800000", "104100.800000", "104102.800000", "104104.800000", "104106.800000", "104108.800000", "104110.800000", "104112.800000", "104114.800000", "104116.800000", "104118.800000", "104120.800000", "104122.800000", "104124.800000", "104126.800000", "104128.800000", "104130.800000", "104132.800000", "104134.800000", "104136.800000", "104138.800000", "104140.800000", "104142.800000", "104144.800000"],
      "ContentTime": ["103600.547000", "103600.550000", "103600.562000", "103600.564000", "103600.566000", "103600.569000", "103600.571000", "103600.573000", "103600.576000", "103600.578000", "103600.580000", "103600.582000", "103600.585000", "103600.587000", "103600.589000", "103600.592000", "103600.599000", "103600.602000", "103600.604000", "103600.606000", "103600.609000", "103600.611000", "103600.613000", "103600.616000", "103600.618000", "103600.620000", "103600.623000", "103640.543000", "103640.546000", "103640.548000", "103640.550000", "103640.553000", "103640.555000", "103640.557000", "103640.560000", "103640.562000", "103640.564000", "103640.567000", "103640.569000", "103640.571000", "103640.574000", "103640.576000", "103640.578000", "103640.581000", "103640.583000", "103640.585000", "103640.588000", "103720.542000", "103720.545000", "103720.547000", "103720.549000", "103720.552000", "103720.554000", "103720.556000", "103720.559000", "103720.561000", "103720.563000", "103720.565000", "103720.568000", "103720.570000", "103720.572000", "103720.575000", "103720.577000", "103720.583000", "103720.585000", "103720.587000", "103720.590000", "103740.543000", "103740.545000", "103740.547000", "103740.550000", "103740.552000", "103740.554000", "103740.557000", "103740.559000", "103740.561000", "103740.564000", "103820.542000", "103820.545000", "103820.547000", "103820.549000", "103820.552000", "103820.554000", "103820.556000", "103820.558000", "103820.561000", "103820.563000", "103820.566000", "103820.568000", "103820.570000", "103820.572000", "103820.575000", "103820.577000", "103820.580000", "103820.582000", "103820.584000", "103820.587000", "103900.543000", "103900.546000", "103900.548000", "103900.550000", "103900.553000", "103900.555000", "103900.557000", "103900.560000", "103900.562000", "103900.564000", "103900.570000", "103900.572000", "103900.575000", "103900.577000", "103900.579000", "103900.582000", "103900.584000", "103900.586000", "103900.589000", "103900.591000", "103940.542000", "103940.545000", "103940.547000", "103940.549000", "103940.561000", "103940.563000", "103940.565000", "103940.568000", "103940.570000", "103940.572000", "103940.575000", "103940.577000", "103940.579000", "103940.582000", "103940.584000", "103940.586000", "103940.589000", "103940.591000", "103940.593000", "103940.595000", "104020.542000", "104020.545000", "104020.547000", "104020.549000", "104020.552000", "104020.554000", "104020.556000", "104020.559000", "104020.561000", "104020.563000", "104020.566000", "104020.568000", "104020.570000", "104020.573000", "104020.575000", "104020.577000", "104020.580000", "104020.582000", "104020.584000", "104020.586000", "104100.542000", "104100.545000", "104100.547000", "104100.549000", "104100.552000", "104100.554000", "104100.556000", "104100.559000", "104100.561000", "104100.563000", "104100.565000", "104100.568000", "104100.570000", "104100.572000", "104100.575000", "104100.577000", "104100.579000", "104100.582000", "104100.584000", "104100.586000", "104140.542000", "104140.545000", "104140.547000", "104140.550000", "104140.552000", "104140.554000", "104140.557000", "104140.559000", "104140.561000", "104140.564000", "104140.566000", "104140.568000", "104140.571000", "104140.573000", "104140.576000", "104140.578000", "104140.580000", "104140.583000", "104140.585000", "104140.587000", "104146.497000", "104146.500000", "104146.502000"],
      "InstanceCreationTime": ["103600.547000", "103600.550000", "103600.562000", "103600.564000", "103600.566000", "103600.569000", "103600.571000", "103600.573000", "103600.576000", "103600.578000", "103600.580000", "103600.582000", "103600.585000", "103600.587000", "103600.589000", "103600.592000", "103600.599000", "103600.602000", "103600.604000", "103600.606000", "103600.609000", "103600.611000", "103600.613000", "103600.616000", "103600.618000", "103600.620000", "103600.623000", "103640.543000", "103640.546000", "103640.548000", "103640.550000", "103640.553000", "103640.555000", "103640.557000", "103640.560000", "103640.562000", "103640.564000", "103640.567000", "103640.569000", "103640.571000", "103640.574000", "103640.576000", "103640.578000", "103640.581000", "103640.583000", "103640.585000", "103640.588000", "103720.542000", "103720.545000", "103720.547000", "103720.549000", "103720.552000", "103720.554000", "103720.556000", "103720.559000", "103720.561000", "103720.563000", "103720.565000", "103720.568000", "103720.570000", "103720.572000", "103720.575000", "103720.577000", "103720.583000", "103720.585000", "103720.587000", "103720.590000", "103740.543000", "103740.545000", "103740.547000", "103740.550000", "103740.552000", "103740.554000", "103740.557000", "103740.559000", "103740.561000", "103740.564000", "103820.542000", "103820.545000", "103820.547000", "103820.549000", "103820.552000", "103820.554000", "103820.556000", "103820.558000", "103820.561000", "103820.563000", "103820.566000", "103820.568000", "103820.570000", "103820.572000", "103820.575000", "103820.577000", "103820.580000", "103820.582000", "103820.584000", "103820.587000", "103900.543000", "103900.546000", "103900.548000", "103900.550000", "103900.553000", "103900.555000", "103900.557000", "103900.560000", "103900.562000", "103900.564000", "103900.570000", "103900.572000", "103900.575000", "103900.577000", "103900.579000", "103900.582000", "103900.584000", "103900.586000", "103900.589000", "103900.591000", "103940.542000", "103940.545000", "103940.547000", "103940.549000", "103940.561000", "103940.563000", "103940.565000", "103940.568000", "103940.570000", "103940.572000", "103940.575000", "103940.577000", "103940.579000", "103940.582000", "103940.584000", "103940.586000", "103940.589000", "103940.591000", "103940.593000", "103940.595000", "104020.542000", "104020.545000", "104020.547000", "104020.549000", "104020.552000", "104020.554000", "104020.556000", "104020.559000", "104020.561000", "104020.563000", "104020.566000", "104020.568000", "104020.570000", "104020.573000", "104020.575000", "104020.577000", "104020.580000", "104020.582000", "104020.584000", "104020.586000", "104100.542000", "104100.545000", "104100.547000", "104100.549000", "104100.552000", "104100.554000", "104100.556000", "104100.559000", "104100.561000", "104100.563000", "104100.565000", "104100.568000", "104100.570000", "104100.572000", "104100.575000", "104100.577000", "104100.579000", "104100.582000", "104100.584000", "104100.586000", "104140.542000", "104140.545000", "104140.547000", "104140.550000", "104140.552000", "104140.554000", "104140.557000", "104140.559000", "104140.561000", "104140.564000", "104140.566000", "104140.568000", "104140.571000", "104140.573000", "104140.576000", "104140.578000", "104140.580000", "104140.583000", "104140.585000", "104140.587000", "104146.497000", "104146.500000", "104146.502000"],
      "InstanceNumber": [1, 2, 3, 4, 5, 6, 7, 8, 9, 10, 11, 12, 13, 14, 15, 16, 17, 18, 19, 20, 21, 22, 23, 24, 25, 26, 27, 28, 29, 30, 31, 32, 33, 34, 35, 36, 37, 38, 39, 40, 41, 42, 43, 44, 45, 46, 47, 48, 49, 50, 51, 52, 53, 54, 55, 56, 57, 58, 59, 60, 61, 62, 63, 64, 65, 66, 67, 68, 69, 70, 71, 72, 73, 74, 75, 76, 77, 78, 79, 80, 81, 82, 83, 84, 85, 86, 87, 88, 89, 90, 91, 92, 93, 94, 95, 96, 97, 98, 99, 100, 101, 102, 103, 104, 105, 106, 107, 108, 109, 110, 111, 112, 113, 114, 115, 116, 117, 118, 119, 120, 121, 122, 123, 124, 125, 126, 127, 128, 129, 130, 131, 132, 133, 134, 135, 136, 137, 138, 139, 140, 141, 142, 143, 144, 145, 146, 147, 148, 149, 150, 151, 152, 153, 154, 155, 156, 157, 158, 159, 160, 161, 162, 163, 164, 165, 166, 167, 168, 169, 170, 171, 172, 173, 174, 175, 176, 177, 178, 179, 180, 181, 182, 183, 184, 185, 186, 187, 188, 189, 190, 191, 192, 193, 194, 195, 196, 197, 198, 199, 200],
      "LargestImagePixelValue": [2254, 2254, 2254, 2257, 2253, 2262, 2251, 2252, 2254, 2254, 2260, 2259, 2260, 2251, 2253, 2265, 2248, 2253, 2254, 2252, 2253, 2265, 2260, 2255, 2250, 2255, 2259, 2259, 2254, 2254, 2261, 2255, 2256, 2255, 2259, 2252, 2258, 2260, 2256, 2259, 2255, 2263, 2260, 2254, 2258, 2261, 2263, 2258, 2262, 2256, 2260, 2260, 2260, 2263, 2263, 2260, 2265, 2263, 2261, 2259, 2251, 2256, 2258, 2258, 2252, 2263, 2259, 2254, 2262, 2255, 2254, 2261, 2256, 2255, 2258, 2262, 2258, 2258, 2255, 2260, 2264, 2265, 2262, 2266, 2260, 2258, 2266, 2250, 2258, 2259, 2257, 2259, 2255, 2255, 2262, 2266, 2262, 2257, 2255, 2264, 2256, 2265, 2262, 2263, 2262, 2258, 2262, 2261, 2256, 2264, 2260, 2257, 2259, 2254, 2263, 2261, 2261, 2270, 2259, 2263, 2265, 2252, 2261, 2268, 2260, 2262, 2259, 2260, 2260, 2262, 2263, 2257, 2264, 2261, 2259, 2261, 2259, 2266, 2255, 2261, 2263, 2263, 2263, 2260, 2252, 2254, 2258, 2264, 2257, 2254, 2262, 2262, 2257, 2255, 2262, 2255, 2265, 2259, 2257, 2259, 2258, 2253, 2264, 2261, 2260, 2262, 2262, 2264, 2261, 2259, 2260, 2263, 2254, 2254, 2259, 2253, 2261, 2260, 2259, 2256, 2260, 2260, 2256, 2264, 2254, 2256, 2259, 2263, 2262, 2260, 2263, 2266, 2263, 2261, 2255, 2261, 2259, 2261, 2257, 2256],
      "WindowCenter": [1042.0, 1042.0, 1042.0, 1042.0, 1042.0, 1042.0, 1042.0, 1042.0, 1042.0, 1042.0, 1042.0, 1042.0, 1042.0, 1042.0, 1042.0, 1042.0, 1042.0, 1042.0, 1042.0, 1042.0, 1043.0, 1042.0, 1042.0, 1042.0, 1042.0, 1043.0, 1043.0, 1043.0, 1043.0, 1043.0, 1044.0, 1044.0, 1043.0, 1043.0, 1043.0, 1043.0, 1043.0, 1043.0, 1043.0, 1043.0, 1043.0, 1043.0, 1044.0, 1043.0, 1043.0, 1043.0, 1043.0, 1043.0, 1043.0, 1043.0, 1044.0, 1043.0, 1043.0, 1043.0, 1043.0, 1044.0, 1043.0, 1043.0, 1043.0, 1043.0, 1043.0, 1043.0, 1043.0, 1043.0, 1043.0, 1043.0, 1043.0, 1043.0, 1043.0, 1043.0, 1043.0, 1044.0, 1044.0, 1043.0, 1043.0, 1043.0, 1044.0, 1044.0, 1044.0, 1044.0, 1044.0, 1044.0, 1044.0, 1044.0, 1044.0, 1044.0, 1044.0, 1043.0, 1044.0, 1044.0, 1044.0, 1044.0, 1044.0, 1044.0, 1044.0, 1044.0, 1044.0, 1044.0, 1044.0, 1044.0, 1044.0, 1044.0, 1044.0, 1044.0, 1044.0, 1044.0, 1044.0, 1044.0, 1044.0, 1044.0, 1044.0, 1044.0, 1044.0, 1044.0, 1044.0, 1044.0, 1044.0, 1045.0, 1044.0, 1044.0, 1044.0, 1044.0, 1044.0, 1044.0, 1045.0, 1044.0, 1044.0, 1044.0, 1044.0, 1044.0, 1044.0, 1044.0, 1045.0, 1043.0, 1044.0, 1044.0, 1045.0, 1043.0, 1044.0, 1044.0, 1044.0, 1044.0, 1045.0, 1044.0, 1044.0, 1043.0, 1044.0, 1043.0, 1044.0, 1043.0, 1043.0, 1044.0, 1043.0, 1044.0, 1043.0, 1045.0, 1044.0, 1043.0, 1045.0, 1044.0, 1044.0, 1044.0, 1044.0, 1044.0, 1043.0, 1044.0, 1044.0, 1044.0, 1043.0, 1043.0, 1044.0, 1044.0, 1044.0, 1044.0, 1043.0, 1045.0, 1043.0, 1044.0, 1044.0, 1044.0, 1044.0, 1043.0, 1043.0, 1043.0, 1044.0, 1043.0, 1043.0, 1043.0, 1043.0, 1043.0, 1043.0, 1043.0, 1044.0, 1043.0, 1043.0, 1043.0, 1043.0, 1043.0, 1043.0, 1043.0],
      "WindowWidth": [2338.0, 2337.0, 2337.0, 2338.0, 2337.0, 2338.0, 2337.0, 2338.0, 2337.0, 2338.0, 2338.0, 2338.0, 2338.0, 2338.0, 2338.0, 2338.0, 2338.0, 2338.0, 2339.0, 2339.0, 2339.0, 2339.0, 2339.0, 2339.0, 2339.0, 2339.0, 2339.0, 2339.0, 2339.0, 2339.0, 2340.0, 2340.0, 2340.0, 2340.0, 2340.0, 2340.0, 2340.0, 2340.0, 2340.0, 2341.0, 2340.0, 2340.0, 2341.0, 2340.0, 2341.0, 2341.0, 2341.0, 2340.0, 2341.0, 2341.0, 2342.0, 2341.0, 2341.0, 2341.0, 2341.0, 2342.0, 2342.0, 2342.0, 2342.0, 2341.0, 2342.0, 2342.0, 2342.0, 2342.0, 2342.0, 2342.0, 2342.0, 2342.0, 2342.0, 2342.0, 2342.0, 2342.0, 2343.0, 2342.0, 2342.0, 2342.0, 2342.0, 2342.0, 2342.0, 2342.0, 2342.0, 2342.0, 2342.0, 2344.0, 2342.0, 2342.0, 2342.0, 2343.0, 2342.0, 2342.0, 2342.0, 2342.0, 2342.0, 2342.0, 2342.0, 2342.0, 2343.0, 2343.0, 2343.0, 2343.0, 2342.0, 2344.0, 2343.0, 2343.0, 2343.0, 2343.0, 2343.0, 2343.0, 2343.0, 2343.0, 2343.0, 2343.0, 2342.0, 2343.0, 2343.0, 2343.0, 2343.0, 2344.0, 2343.0, 2343.0, 2343.0, 2343.0, 2343.0, 2343.0, 2344.0, 2343.0, 2343.0, 2343.0, 2343.0, 2343.0, 2343.0, 2343.0, 2344.0, 2343.0, 2343.0, 2343.0, 2344.0, 2343.0, 2342.0, 2342.0, 2344.0, 2343.0, 2344.0, 2343.0, 2343.0, 2343.0, 2343.0, 2343.0, 2343.0, 2343.0, 2343.0, 2343.0, 2343.0, 2343.0, 2343.0, 2343.0, 2343.0, 2343.0, 2343.0, 2342.0, 2342.0, 2342.0, 2344.0, 2344.0, 2343.0, 2342.0, 2342.0, 2342.0, 2343.0, 2343.0, 2342.0, 2342.0, 2342.0, 2342.0, 2342.0, 2343.0, 2342.0, 2343.0, 2342.0, 2342.0, 2342.0, 2342.0, 2342.0, 2342.0, 2343.0, 2342.0, 2342.0, 2342.0, 2342.0, 2342.0, 2342.0, 2342.0, 2343.0, 2342.0, 2342.0, 2342.0, 2342.0, 2342.0, 2342.0, 2342.0]
    },
    "slices": {}
  }
}