{
  "AcquisitionMatrixPE": 80,
  "AcquisitionNumber": 1,
  "AcquisitionTime": "10:55:36.487500",
  "BandwidthPerPixelPhaseEncode": 25,
  "BaseResolution": 80,
  "BodyPartExamined": "BRAIN",
  "CoilCombinationMethod": "Sum of Squares",
  "ConsistencyInfo": "N4_VE11E_LATEST_20181129",
  "ConversionSoftware": "dcm2niix",
  "ConversionSoftwareVersion": "v1.0.20220720",
  "DerivedVendorReportedEchoSpacing": 0.0005,
  "DeviceSerialNumber": "66112",
  "DwellTime": 2.7e-06,
  "EchoTime": 0.03,
  "EchoTrainLength": 80,
  "EffectiveEchoSpacing": 0.0005,
  "FlipAngle": 10,
  "HeudiconvVersion": "0.13.1",
  "ImageOrientationPatientDICOM": [0.999974, 0.00657935, 0.0029572, -0.00715573, 0.956516, 0.291591],
  "ImageOrientationText": "Tra>Cor(17.0)>Sag(0.1)",
  "ImageType": [
    "ORIGINAL",
    "PRIMARY",
    "M",
    "ND",
    "NORM",
    "MOSAIC"
],
  "ImagingFrequency": 123.261,
  "InPlanePhaseEncodingDirectionDICOM": "COL",
  "InstitutionAddress": "Maynard 3,Hanover,NH,US,03755",
  "InstitutionName": "Dartmouth College - PBS",
  "InstitutionalDepartmentName": "Department",
  "MRAcquisitionType": "2D",
  "MagneticFieldStrength": 3,
  "Manufacturer": "Siemens",
  "ManufacturersModelName": "Prisma",
  "MatrixCoilMode": "SENSE",
  "Modality": "MR",
  "NonlinearGradientCorrection": false,
  "PartialFourier": 1,
  "PatientPosition": "HFS",
  "PercentPhaseFOV": 100,
  "PercentSampling": 100,
  "PhaseEncodingDirection": "j-",
  "PhaseEncodingSteps": 80,
  "PhaseResolution": 1,
  "PixelBandwidth": 2315,
  "ProcedureStepDescription": "dbic^QA",
  "ProtocolName": "func-bold_fa-10",
  "PulseSequenceDetails": "%SiemensSeq%\\ep2d_bold",
  "ReceiveCoilActiveElements": "HEA;HEP",
  "ReceiveCoilName": "Head_32",
  "ReconMatrixPE": 80,
  "RepetitionTime": 2,
  "SAR": 0.00988826,
  "ScanOptions": "FS",
  "ScanningSequence": "EP",
  "SequenceName": "*epfid2d1_80",
  "SequenceVariant": "SK",
  "SeriesDescription": "func-bold_fa-10",
  "SeriesNumber": 8,
  "ShimSetting": [4250, -7735, -7492, -34, -181, -81, -12, 75],
  "SliceThickness": 3.5,
  "SliceTiming": [0.99, 0, 1.0575, 0.0675, 1.1225, 0.1325, 1.1875, 0.1975, 1.255, 0.265, 1.32, 0.33, 1.3875, 0.3975, 1.4525, 0.4625, 1.5175, 0.5275, 1.585, 0.595, 1.65, 0.66, 1.7175, 0.7275, 1.7825, 0.7925, 1.8475, 0.8575, 1.915, 0.925],
  "SoftwareVersions": "syngo MR E11",
  "SpacingBetweenSlices": 3.99,
  "StationName": "AWP66112",
  "TotalReadoutTime": 0.0395,
  "TxRefAmp": 225.727,
  "dcmmeta_affine": [
    [-2.999922037124634, -0.021467197686433792, 0.003631417639553547, 120.83055877685547],
    [-0.01973804645240307, 2.869549036026001, 1.1635017395019531, -125.3685302734375],
    [0.00887159164994955, -0.8747725486755371, 3.816588878631592, -25.296403884887695],
    [0.0, 0.0, 0.0, 1.0]
],
  "dcmmeta_reorient_transform": [
    [0.0, -1.0, 0.0, 79.0],
    [1.0, 0.0, 0.0, 0.0],
    [0.0, 0.0, 1.0, 0.0],
    [0.0, 0.0, 0.0, 1.0]
],
  "dcmmeta_shape": [80, 80, 30, 200],
  "dcmmeta_slice_dim": 2,
  "dcmmeta_version": 0.6,
  "global": {
    "const": {
      "AccessionNumber": "qa",
      "AcquisitionMatrix": [80, 0, 0, 80],
      "AngioFlag": "N",
      "BitsAllocated": 16,
      "BitsStored": 12,
      "BodyPartExamined": "BRAIN",
      "Columns": 480,
      "EchoNumbers": 1,
      "EchoTime": 30.0,
      "EchoTrainLength": 80,
      "FlipAngle": 10.0,
      "HighBit": 11,
      "ImageOrientationPatient": [0.99997398323764, 0.00657934888146, 0.00295719734559, -0.0071557327868, 0.95651637234084, 0.29159085193503],
      "ImagePositionPatient": [-714.82560319779, -679.18328615475, -271.13226607531],
      "ImageType": [
        "ORIGINAL",
        "PRIMARY",
        "M",
        "ND",
        "NORM",
        "MOSAIC"
],
      "ImagedNucleus": "1H",
      "ImagingFrequency": 123.261274,
      "InPlanePhaseEncodingDirection": "COL",
      "MRAcquisitionType": "2D",
      "MagneticFieldStrength": 3.0,
      "Manufacturer": "SIEMENS",
      "ManufacturerModelName": "Prisma",
      "Modality": "MR",
      "NumberOfAverages": 1.0,
      "NumberOfPhaseEncodingSteps": 80,
      "PercentPhaseFieldOfView": 100.0,
      "PercentSampling": 100.0,
      "PerformedProcedureStepStartTime": "103000.250000",
      "PhotometricInterpretation": "MONOCHROME2",
      "PixelBandwidth": 2315.0,
      "PixelRepresentation": 0,
      "PixelSpacing": [3.0, 3.0],
      "ProtocolName": "func-bold_fa-10",
      "RepetitionTime": 2000.0,
      "Rows": 480,
      "SAR": 0.00988826205569,
      "SamplesPerPixel": 1,
      "ScanOptions": "FS",
      "ScanningSequence": "EP",
      "SequenceName": "*epfid2d1_80",
      "SequenceVariant": "SK",
      "SeriesDescription": "func-bold_fa-10",
      "SeriesNumber": 8,
      "SeriesTime": "105620.543000",
      "SliceLocation": -60.645032494632,
      "SliceThickness": 3.5,
      "SmallestImagePixelValue": 0,
      "SoftwareVersions": "syngo MR E11",
      "SpacingBetweenSlices": 3.9900000690649,
      "SpecificCharacterSet": "ISO_IR 100",
      "StudyID": "32",
      "StudyTime": "103000.198000",
      "TransmitCoilName": "Body",
      "VariableFlipAngleFlag": "N",
      "WindowCenterWidthExplanation": "Algo1"
    },
    "slices": {}
  },
  "time": {
    "samples": {
      "AcquisitionNumber": [1, 2, 3, 4, 5, 6, 7, 8, 9, 10, 11, 12, 13, 14, 15, 16, 17, 18, 19, 20, 21, 22, 23, 24, 25, 26, 27, 28, 29, 30, 31, 32, 33, 34, 35, 36, 37, 38, 39, 40, 41, 42, 43, 44, 45, 46, 47, 48, 49, 50, 51, 52, 53, 54, 55, 56, 57, 58, 59, 60, 61, 62, 63, 64, 65, 66, 67, 68, 69, 70, 71, 72, 73, 74, 75, 76, 77, 78, 79, 80, 81, 82, 83, 84, 85, 86, 87, 88, 89, 90, 91, 92, 93, 94, 95, 96, 97, 98, 99, 100, 101, 102, 103, 104, 105, 106, 107, 108, 109, 110, 111, 112, 113, 114, 115, 116, 117, 118, 119, 120, 121, 122, 123, 124, 125, 126, 127, 128, 129, 130, 131, 132, 133, 134, 135, 136, 137, 138, 139, 140, 141, 142, 143, 144, 145, 146, 147, 148, 149, 150, 151, 152, 153, 154, 155, 156, 157, 158, 159, 160, 161, 162, 163, 164, 165, 166, 167, 168, 169, 170, 171, 172, 173, 174, 175, 176, 177, 178, 179, 180, 181, 182, 183, 184, 185, 186, 187, 188, 189, 190, 191, 192, 193, 194, 195, 196, 197, 198, 199, 200],
      "AcquisitionTime": ["105536.487500", "105538.487500", "105540.487500", "105542.487500", "105544.487500", "105546.487500", "105548.487500", "105550.487500", "105552.487500", "105554.487500", "105556.487500", "105558.487500", "105600.487500", "105602.487500", "105604.487500", "105606.487500", "105608.487500", "105610.487500", "105612.487500", "105614.487500", "105616.487500", "105618.487500", "105620.487500", "105622.487500", "105624.487500", "105626.487500", "105628.487500", "105630.487500", "105632.487500", "105634.487500", "105636.487500", "105638.487500", "105640.487500", "105642.487500", "105644.487500", "105646.487500", "105648.487500", "105650.487500", "105652.487500", "105654.487500", "105656.487500", "105658.487500", "105700.487500", "105702.487500", "105704.487500", "105706.487500", "105708.487500", "105710.487500", "105712.487500", "105714.487500", "105716.487500", "105718.487500", "105720.487500", "105722.487500", "105724.487500", "105726.487500", "105728.487500", "105730.487500", "105732.487500", "105734.487500", "105736.487500", "105738.487500", "105740.487500", "105742.487500", "105744.487500", "105746.487500", "105748.487500", "105750.487500", "105752.487500", "105754.487500", "105756.487500", "105758.487500", "105800.487500", "105802.487500", "105804.487500", "105806.487500", "105808.487500", "105810.487500", "105812.487500", "105814.487500", "105816.487500", "105818.487500", "105820.487500", "105822.487500", "105824.487500", "105826.487500", "105828.487500", "105830.487500", "105832.487500", "105834.487500", "105836.487500", "105838.487500", "105840.487500", "105842.487500", "105844.487500", "105846.487500", "105848.487500", "105850.487500", "105852.487500", "105854.487500", "105856.487500", "105858.487500", "105900.487500", "105902.487500", "105904.487500", "105906.487500", "105908.487500", "105910.487500", "105912.487500", "105914.487500", "105916.487500", "105918.487500", "105920.487500", "105922.487500", "105924.487500", "105926.487500", "105928.487500", "105930.487500", "105932.487500", "105934.487500", "105936.487500", "105938.487500", "105940.487500", "105942.487500", "105944.487500", "105946.487500", "105948.487500", "105950.487500", "105952.487500", "105954.487500", "105956.487500", "105958.487500", "110000.487500", "110002.487500", "110004.487500", "110006.487500", "110008.487500", "110010.487500", "110012.487500", "110014.487500", "110016.487500", "110018.487500", "110020.487500", "110022.487500", "110024.487500", "110026.487500", "110028.487500", "110030.487500", "110032.487500", "110034.487500", "110036.487500", "110038.487500", "110040.487500", "110042.487500", "110044.487500", "110046.487500", "110048.487500", "110050.487500", "110052.487500", "110054.487500", "110056.487500", "110058.487500", "110100.487500", "110102.487500", "110104.487500", "110106.487500", "110108.487500", "110110.487500", "110112.487500", "110114.487500", "110116.487500", "110118.487500", "110120.487500", "110122.487500", "110124.487500", "110126.487500", "110128.487500", "110130.487500", "110132.487500", "110134.487500", "110136.487500", "110138.487500", "110140.487500", "110142.487500", "110144.487500", "110146.487500", "110148.487500", "110150.487500", "110152.487500", "110154.487500", "110156.487500", "110158.487500", "110200.487500", "110202.487500", "110204.487500", "110206.487500", "110208.487500", "110210.487500", "110212.487500", "110214.487500"],
      "ContentTime": ["105620.547000", "105620.550000", "105620.552000", "105620.555000", "105620.557000", "105620.559000", "105620.562000", "105620.564000", "105620.566000", "105620.569000", "105620.571000", "105620.573000", "105620.575000", "105620.578000", "105620.580000", "105620.582000", "105620.584000", "105620.587000", "105620.589000", "105620.591000", "105620.594000", "105620.596000", "105700.542000", "105700.545000", "105700.547000", "105700.549000", "105700.552000", "105700.554000", "105700.556000", "105700.558000", "105700.561000", "105700.563000", "105700.565000", "105700.568000", "105700.570000", "105700.572000", "105700.574000", "105700.577000", "105700.579000", "105700.581000", "105700.583000", "105700.586000", "105740.542000", "105740.545000", "105740.547000", "105740.550000", "105740.552000", "105740.554000", "105740.556000", "105740.559000", "105740.561000", "105740.568000", "105740.570000", "105740.572000", "105740.574000", "105740.577000", "105740.579000", "105740.581000", "105740.583000", "105740.586000", "105740.588000", "105740.590000", "105820.542000", "105820.545000", "105820.547000", "105820.549000", "105820.552000", "105820.554000", "105820.556000", "105820.559000", "105820.561000", "105820.563000", "105820.566000", "105820.568000", "105820.570000", "105820.572000", "105820.575000", "105820.577000", "105820.579000", "105820.581000", "105820.584000", "105820.593000", "105900.542000", "105900.545000", "105900.547000", "105900.549000", "105900.552000", "105900.554000", "105900.556000", "105900.559000", "105900.561000", "105900.563000", "105900.566000", "105900.568000", "105900.570000", "105900.572000", "105900.575000", "105900.577000", "105900.579000", "105900.582000", "105900.584000", "105900.586000", "105940.543000", "105940.546000", "105940.548000", "105940.550000", "105940.553000", "105940.555000", "105940.557000", "105940.560000", "105940.562000", "105940.564000", "105940.567000", "105940.569000", "105940.571000", "105940.573000", "105940.576000", "105940.578000", "105940.580000", "105940.582000", "105940.585000", "105940.587000", "110020.542000", "110020.558000", "110020.560000", "110020.563000", "110020.565000", "110020.567000", "110020.570000", "110020.572000", "110020.574000", "110020.576000", "110020.579000", "110020.581000", "110020.583000", "110020.585000", "110020.588000", "110020.590000", "110020.593000", "110020.595000", "110020.597000", "110020.599000", "110100.542000", "110100.545000", "110100.547000", "110100.549000", "110100.552000", "110100.554000", "110100.556000", "110100.559000", "110100.561000", "110100.563000", "110100.566000", "110100.568000", "110100.570000", "110100.573000", "110100.575000", "110100.577000", "110100.580000", "110100.582000", "110100.584000", "110100.586000", "110140.542000", "110140.545000", "110140.547000", "110140.549000", "110140.552000", "110140.554000", "110140.556000", "110140.559000", "110140.561000", "110140.563000", "110140.566000", "110140.568000", "110140.570000", "110140.572000", "110140.575000", "110140.577000", "110140.579000", "110140.582000", "110140.584000", "110140.586000", "110216.345000", "110216.348000", "110216.350000", "110216.353000", "110216.355000", "110216.358000", "110216.361000", "110216.363000", "110216.366000", "110216.368000", "110216.370000", "110216.373000", "110216.375000", "110216.380000", "110216.384000", "110216.386000", "110216.389000", "110216.391000"],
      "InstanceCreationTime": ["105620.547000", "105620.550000", "105620.552000", "105620.555000", "105620.557000", "105620.559000", "105620.562000", "105620.564000", "105620.566000", "105620.569000", "105620.571000", "105620.573000", "105620.575000", "105620.578000", "105620.580000", "105620.582000", "105620.584000", "105620.587000", "105620.589000", "105620.591000", "105620.594000", "105620.596000", "105700.542000", "105700.545000", "105700.547000", "105700.549000", "105700.552000", "105700.554000", "105700.556000", "105700.558000", "105700.561000", "105700.563000", "105700.565000", "105700.568000", "105700.570000", "105700.572000", "105700.574000", "105700.577000", "105700.579000", "105700.581000", "105700.583000", "105700.586000", "105740.542000", "105740.545000", "105740.547000", "105740.550000", "105740.552000", "105740.554000", "105740.556000", "105740.559000", "105740.561000", "105740.568000", "105740.570000", "105740.572000", "105740.574000", "105740.577000", "105740.579000", "105740.581000", "105740.583000", "105740.586000", "105740.588000", "105740.590000", "105820.542000", "105820.545000", "105820.547000", "105820.549000", "105820.552000", "105820.554000", "105820.556000", "105820.559000", "105820.561000", "105820.563000", "105820.566000", "105820.568000", "105820.570000", "105820.572000", "105820.575000", "105820.577000", "105820.579000", "105820.581000", "105820.584000", "105820.593000", "105900.542000", "105900.545000", "105900.547000", "105900.549000", "105900.552000", "105900.554000", "105900.556000", "105900.559000", "105900.561000", "105900.563000", "105900.566000", "105900.568000", "105900.570000", "105900.572000", "105900.575000", "105900.577000", "105900.579000", "105900.582000", "105900.584000", "105900.586000", "105940.543000", "105940.546000", "105940.548000", "105940.550000", "105940.553000", "105940.555000", "105940.557000", "105940.560000", "105940.562000", "105940.564000", "105940.567000", "105940.569000", "105940.571000", "105940.573000", "105940.576000", "105940.578000", "105940.580000", "105940.582000", "105940.585000", "105940.587000", "110020.542000", "110020.558000", "110020.560000", "110020.563000", "110020.565000", "110020.567000", "110020.570000", "110020.572000", "110020.574000", "110020.576000", "110020.579000", "110020.581000", "110020.583000", "110020.585000", "110020.588000", "110020.590000", "110020.593000", "110020.595000", "110020.597000", "110020.599000", "110100.542000", "110100.545000", "110100.547000", "110100.549000", "110100.552000", "110100.554000", "110100.556000", "110100.559000", "110100.561000", "110100.563000", "110100.566000", "110100.568000", "110100.570000", "110100.573000", "110100.575000", "110100.577000", "110100.580000", "110100.582000", "110100.584000", "110100.586000", "110140.542000", "110140.545000", "110140.547000", "110140.549000", "110140.552000", "110140.554000", "110140.556000", "110140.559000", "110140.561000", "110140.563000", "110140.566000", "110140.568000", "110140.570000", "110140.572000", "110140.575000", "110140.577000", "110140.579000", "110140.582000", "110140.584000", "110140.586000", "110216.345000", "110216.348000", "110216.350000", "110216.353000", "110216.355000", "110216.358000", "110216.361000", "110216.363000", "110216.366000", "110216.368000", "110216.370000", "110216.373000", "110216.375000", "110216.380000", "110216.384000", "110216.386000", "110216.389000", "110216.391000"],
      "InstanceNumber": [1, 2, 3, 4, 5, 6, 7, 8, 9, 10, 11, 12, 13, 14, 15, 16, 17, 18, 19, 20, 21, 22, 23, 24, 25, 26, 27, 28, 29, 30, 31, 32, 33, 34, 35, 36, 37, 38, 39, 40, 41, 42, 43, 44, 45, 46, 47, 48, 49, 50, 51, 52, 53, 54, 55, 56, 57, 58, 59, 60, 61, 62, 63, 64, 65, 66, 67, 68, 69, 70, 71, 72, 73, 74, 75, 76, 77, 78, 79, 80, 81, 82, 83, 84, 85, 86, 87, 88, 89, 90, 91, 92, 93, 94, 95, 96, 97, 98, 99, 100, 101, 102, 103, 104, 105, 106, 107, 108, 109, 110, 111, 112, 113, 114, 115, 116, 117, 118, 119, 120, 121, 122, 123, 124, 125, 126, 127, 128, 129, 130, 131, 132, 133, 134, 135, 136, 137, 138, 139, 140, 141, 142, 143, 144, 145, 146, 147, 148, 149, 150, 151, 152, 153, 154, 155, 156, 157, 158, 159, 160, 161, 162, 163, 164, 165, 166, 167, 168, 169, 170, 171, 172, 173, 174, 175, 176, 177, 178, 179, 180, 181, 182, 183, 184, 185, 186, 187, 188, 189, 190, 191, 192, 193, 194, 195, 196, 197, 198, 199, 200],
      "LargestImagePixelValue": [374, 375, 374, 376, 374, 376, 374, 374, 374, 375, 374, 375, 374, 373, 376, 374, 373, 375, 376, 373, 374, 375, 374, 374, 374, 376, 375, 373, 373, 374, 374, 374, 374, 373, 373, 374, 375, 373, 374, 375, 373, 374, 375, 374, 373, 373, 376, 373, 374, 374, 377, 372, 375, 374, 373, 374, 374, 373, 374, 374, 374, 375, 373, 374, 374, 373, 373, 374, 374, 373, 374, 374, 374, 374, 375, 373, 374, 373, 375, 372, 373, 374, 374, 373, 374, 374, 373, 373, 374, 373, 374, 374, 374, 372, 373, 375, 373, 372, 374, 375, 373, 373, 374, 373, 373, 373, 374, 373, 374, 375, 373, 373, 373, 374, 373, 372, 374, 373, 375, 374, 373, 374, 373, 373, 374, 373, 373, 374, 374, 373, 376, 374, 373, 374, 375, 374, 373, 375, 373, 372, 375, 374, 373, 375, 374, 374, 373, 374, 373, 373, 373, 373, 373, 373, 373, 375, 373, 373, 373, 373, 372, 373, 375, 373, 373, 374, 373, 373, 374, 373, 374, 373, 375, 375, 373, 374, 374, 373, 373, 373, 373, 373, 373, 374, 373, 374, 374, 374, 372, 373, 374, 373, 373, 373, 374, 374, 374, 375, 373, 373],
      "WindowCenter": [308.0, 308.0, 308.0, 308.0, 308.0, 308.0, 308.0, 308.0, 308.0, 308.0, 308.0, 308.0, 308.0, 308.0, 308.0, 308.0, 308.0, 308.0, 308.0, 308.0, 308.0, 308.0, 308.0, 308.0, 308.0, 308.0, 308.0, 308.0, 308.0, 308.0, 308.0, 308.0, 308.0, 308.0, 308.0, 308.0, 308.0, 308.0, 308.0, 308.0, 308.0, 308.0, 308.0, 308.0, 308.0, 308.0, 308.0, 308.0, 308.0, 308.0, 308.0, 308.0, 308.0, 308.0, 308.0, 308.0, 308.0, 308.0, 308.0, 308.0, 308.0, 308.0, 308.0, 308.0, 307.0, 308.0, 308.0, 308.0, 308.0, 308.0, 307.0, 308.0, 308.0, 308.0, 307.0, 308.0, 308.0, 308.0, 308.0, 308.0, 308.0, 307.0, 308.0, 308.0, 308.0, 308.0, 308.0, 308.0, 307.0, 308.0, 307.0, 308.0, 307.0, 308.0, 308.0, 307.0, 307.0, 307.0, 307.0, 307.0, 307.0, 308.0, 307.0, 307.0, 307.0, 307.0, 307.0, 308.0, 308.0, 307.0, 307.0, 308.0, 307.0, 307.0, 308.0, 307.0, 307.0, 307.0, 307.0, 307.0, 307.0, 307.0, 307.0, 307.0, 307.0, 307.0, 307.0, 307.0, 308.0, 307.0, 307.0, 307.0, 308.0, 307.0, 307.0, 307.0, 307.0, 307.0, 307.0, 307.0, 307.0, 307.0, 307.0, 307.0, 307.0, 307.0, 307.0, 307.0, 307.0, 308.0, 307.0, 307.0, 307.0, 307.0, 307.0, 307.0, 307.0, 307.0, 307.0, 307.0, 307.0, 307.0, 307.0, 307.0, 307.0, 307.0, 307.0, 307.0, 307.0, 307.0, 307.0, 307.0, 307.0, 307.0, 307.0, 307.0, 307.0, 307.0, 307.0, 307.0, 307.0, 307.0, 307.0, 307.0, 307.0, 307.0, 307.0, 307.0, 307.0, 307.0, 307.0, 307.0, 307.0, 307.0, 307.0, 307.0, 307.0, 307.0, 307.0, 307.0],
      "WindowWidth": [665.0, 665.0, 665.0, 665.0, 665.0, 665.0, 665.0, 664.0, 665.0, 665.0, 665.0, 665.0, 665.0, 665.0, 665.0, 665.0, 665.0, 665.0, 664.0, 665.0, 665.0, 665.0, 665.0, 665.0, 665.0, 664.0, 664.0, 665.0, 665.0, 664.0, 665.0, 665.0, 665.0, 665.0, 665.0, 665.0, 665.0, 665.0, 665.0, 665.0, 665.0, 665.0, 664.0, 664.0, 665.0, 665.0, 664.0, 665.0, 665.0, 665.0, 665.0, 664.0, 664.0, 664.0, 665.0, 665.0, 664.0, 664.0, 665.0, 665.0, 664.0, 665.0, 664.0, 664.0, 663.0, 665.0, 664.0, 664.0, 665.0, 664.0, 664.0, 665.0, 664.0, 664.0, 663.0, 665.0, 665.0, 665.0, 665.0, 664.0, 664.0, 664.0, 664.0, 664.0, 664.0, 664.0, 664.0, 665.0, 663.0, 664.0, 664.0, 664.0, 664.0, 665.0, 664.0, 664.0, 664.0, 664.0, 664.0, 664.0, 664.0, 664.0, 663.0, 664.0, 664.0, 664.0, 663.0, 664.0, 664.0, 663.0, 663.0, 665.0, 663.0, 663.0, 664.0, 663.0, 663.0, 664.0, 664.0, 663.0, 663.0, 664.0, 664.0, 663.0, 664.0, 664.0, 664.0, 663.0, 665.0, 663.0, 663.0, 663.0, 664.0, 663.0, 663.0, 664.0, 664.0, 663.0, 663.0, 664.0, 664.0, 663.0, 664.0, 663.0, 663.0, 663.0, 663.0, 663.0, 663.0, 664.0, 664.0, 663.0, 663.0, 663.0, 663.0, 663.0, 664.0, 663.0, 663.0, 663.0, 663.0, 663.0, 663.0, 663.0, 663.0, 663.0, 663.0, 663.0, 663.0, 663.0, 663.0, 663.0, 663.0, 663.0, 663.0, 663.0, 663.0, 663.0, 663.0, 663.0, 663.0, 663.0, 663.0, 663.0, 663.0, 663.0, 663.0, 663.0, 663.0, 663.0, 663.0, 663.0, 663.0, 663.0, 663.0, 663.0, 663.0, 663.0, 663.0, 663.0]
    },
    "slices": {}
  }
}