{
  "AcquisitionMatrixPE": 80,
  "AcquisitionNumber": 1,
  "AcquisitionTime": "09:25:55.455000",
  "BandwidthPerPixelPhaseEncode": 48.077,
  "BaseResolution": 80,
  "BodyPartExamined": "BRAIN",
  "CoilCombinationMethod": "Sum of Squares",
  "ConsistencyInfo": "N4_VE11C_LATEST_20160120",
  "ConversionSoftware": "dcm2niix",
  "ConversionSoftwareVersion": "v1.0.20220720",
  "DerivedVendorReportedEchoSpacing": 0.000519999,
  "DeviceSerialNumber": "66112",
  "DwellTime": 2.7e-06,
  "EchoTime": 0.035,
  "EchoTrainLength": 39,
  "EffectiveEchoSpacing": 0.00026,
  "FlipAngle": 90,
  "HeudiconvVersion": "0.13.1",
  "ImageOrientationPatientDICOM": [0.984123, 0.176725, 0.0164461, -0.173173, 0.935757, 0.307198],
  "ImageOrientationText": "Tra>Cor(17.8)>Sag(-2.2)",
  "ImageType": [
    "ORIGINAL",
    "PRIMARY",
    "M",
    "ND",
    "NORM",
    "MOSAIC"
],
  "ImagingFrequency": 123.252,
  "InPlanePhaseEncodingDirectionDICOM": "COL",
  "InstitutionAddress": "Maynard 3,Hanover,NH,US,03755",
  "InstitutionName": "Dartmouth College - PBS",
  "InstitutionalDepartmentName": "Department",
  "MRAcquisitionType": "2D",
  "MagneticFieldStrength": 3,
  "Manufacturer": "Siemens",
  "ManufacturersModelName": "Prisma",
  "MatrixCoilMode": "GRAPPA",
  "Modality": "MR",
  "NonlinearGradientCorrection": false,
  "ParallelReductionFactorInPlane": 2,
  "PartialFourier": 1,
  "PatientPosition": "HFS",
  "PercentPhaseFOV": 100,
  "PercentSampling": 100,
  "PhaseEncodingDirection": "j-",
  "PhaseEncodingSteps": 79,
  "PhaseResolution": 1,
  "PixelBandwidth": 2315,
  "ProcedureStepDescription": "dbic^QA",
  "ProtocolName": "func-bold_task-rest_acq-p2",
  "PulseSequenceDetails": "%SiemensSeq%\\ep2d_bold",
  "ReceiveCoilActiveElements": "HC1-7;NC1,2",
  "ReceiveCoilName": "HeadNeck_64",
  "ReconMatrixPE": 80,
  "RefLinesPE": 24,
  "RepetitionTime": 2,
  "SAR": 0.0410266,
  "ScanOptions": "FS",
  "ScanningSequence": "EP",
  "SequenceName": "*epfid2d1_80",
  "SequenceVariant": "SK",
  "SeriesDescription": "func-bold_task-rest_acq-p2",
  "SeriesNumber": 5,
  "ShimSetting": [4140, -7708, -7515, 188, -61, -297, -77, 20],
  "SliceThickness": 3.5,
  "SliceTiming": [0.99, 0, 1.055, 0.065, 1.1225, 0.1325, 1.1875, 0.1975, 1.2525, 0.2625, 1.32, 0.33, 1.385, 0.395, 1.4525, 0.4625, 1.5175, 0.5275, 1.5825, 0.5925, 1.65, 0.66, 1.715, 0.725, 1.7825, 0.7925, 1.8475, 0.8575, 1.9125, 0.9225],
  "SoftwareVersions": "syngo MR E11",
  "SpacingBetweenSlices": 3.99,
  "StationName": "AWP66112",
  "TaskName": "rest",
  "TotalReadoutTime": 0.02054,
  "TxRefAmp": 219.202,
  "dcmmeta_affine": [
    [-2.9523684978485107, -0.5195197463035583, -0.15521089732646942, 149.04425048828125],
    [-0.5301748514175415, 2.807270050048828, 1.2176213264465332, -95.78423309326172],
    [0.049338195472955704, -0.9215929508209229, 3.796499490737915, -17.508663177490234],
    [0.0, 0.0, 0.0, 1.0]
],
  "dcmmeta_reorient_transform": [
    [0.0, -1.0, 0.0, 79.0],
    [1.0, 0.0, 0.0, 0.0],
    [0.0, 0.0, 1.0, 0.0],
    [0.0, 0.0, 0.0, 1.0]
],
  "dcmmeta_shape": [80, 80, 30, 200],
  "dcmmeta_slice_dim": 2,
  "dcmmeta_version": 0.6,
  "global": {
    "const": {
      "AccessionNumber": "qa64",
      "AcquisitionMatrix": [80, 0, 0, 80],
      "AngioFlag": "N",
      "BitsAllocated": 16,
      "BitsStored": 12,
      "BodyPartExamined": "BRAIN",
      "Columns": 480,
      "EchoNumbers": 1,
      "EchoTime": 35.0,
      "EchoTrainLength": 39,
      "FlipAngle": 90.0,
      "HighBit": 11,
      "ImageOrientationPatient": [0.98412286901521, 0.1767249433822, 0.01644606542091, -0.1731732393263, 0.9357567142569, 0.30719765771303],
      "ImagePositionPatient": [-594.57196770524, -793.4791035473, -284.50074124603],
      "ImageType": [
        "ORIGINAL",
        "PRIMARY",
        "M",
        "ND",
        "NORM",
        "MOSAIC"
],
      "ImagedNucleus": "1H",
      "ImagingFrequency": 123.252355,
      "InPlanePhaseEncodingDirection": "COL",
      "LargestImagePixelValue": 4095,
      "MRAcquisitionType": "2D",
      "MagneticFieldStrength": 3.0,
      "Manufacturer": "SIEMENS",
      "ManufacturerModelName": "Prisma",
      "Modality": "MR",
      "NumberOfAverages": 1.0,
      "NumberOfPhaseEncodingSteps": 79,
      "PercentPhaseFieldOfView": 100.0,
      "PercentSampling": 100.0,
      "PerformedProcedureStepStartTime": "092438.719000",
      "PhotometricInterpretation": "MONOCHROME2",
      "PixelBandwidth": 2315.0,
      "PixelRepresentation": 0,
      "PixelSpacing": [3.0, 3.0],
      "ProtocolName": "func-bold_task-rest_acq-p2",
      "RepetitionTime": 2000.0,
      "Rows": 480,
      "SAR": 0.04102664075124,
      "SamplesPerPixel": 1,
      "ScanOptions": "FS",
      "ScanningSequence": "EP",
      "SequenceName": "*epfid2d1_80",
      "SequenceVariant": "SK",
      "SeriesDescription": "func-bold_task-rest_acq-p2",
      "SeriesNumber": 5,
      "SeriesTime": "092638.856000",
      "SliceLocation": -51.68768014264,
      "SliceThickness": 3.5,
      "SmallestImagePixelValue": 0,
      "SoftwareVersions": "syngo MR E11",
      "SpacingBetweenSlices": 3.9900000326947,
      "SpecificCharacterSet": "ISO_IR 100",
      "StudyID": "4",
      "StudyTime": "092438.674000",
      "TransmitCoilName": "Body",
      "VariableFlipAngleFlag": "N",
      "WindowCenterWidthExplanation": "Algo1",
      "dBdt": 0.0},
    "slices": {}
  },
  "time": {
    "samples": {
      "AcquisitionNumber": [1, 2, 3, 4, 5, 6, 7, 8, 9, 10, 11, 12, 13, 14, 15, 16, 17, 18, 19, 20, 21, 22, 23, 24, 25, 26, 27, 28, 29, 30, 31, 32, 33, 34, 35, 36, 37, 38, 39, 40, 41, 42, 43, 44, 45, 46, 47, 48, 49, 50, 51, 52, 53, 54, 55, 56, 57, 58, 59, 60, 61, 62, 63, 64, 65, 66, 67, 68, 69, 70, 71, 72, 73, 74, 75, 76, 77, 78, 79, 80, 81, 82, 83, 84, 85, 86, 87, 88, 89, 90, 91, 92, 93, 94, 95, 96, 97, 98, 99, 100, 101, 102, 103, 104, 105, 106, 107, 108, 109, 110, 111, 112, 113, 114, 115, 116, 117, 118, 119, 120, 121, 122, 123, 124, 125, 126, 127, 128, 129, 130, 131, 132, 133, 134, 135, 136, 137, 138, 139, 140, 141, 142, 143, 144, 145, 146, 147, 148, 149, 150, 151, 152, 153, 154, 155, 156, 157, 158, 159, 160, 161, 162, 163, 164, 165, 166, 167, 168, 169, 170, 171, 172, 173, 174, 175, 176, 177, 178, 179, 180, 181, 182, 183, 184, 185, 186, 187, 188, 189, 190, 191, 192, 193, 194, 195, 196, 197, 198, 199, 200],
      "AcquisitionTime": ["092555.455000", "092557.455000", "092559.455000", "092601.455000", "092603.455000", "092605.455000", "092607.455000", "092609.455000", "092611.455000", "092613.455000", "092615.455000", "092617.455000", "092619.455000", "092621.455000", "092623.455000", "092625.455000", "092627.455000", "092629.455000", "092631.455000", "092633.455000", "092635.455000", "092637.455000", "092639.455000", "092641.455000", "092643.455000", "092645.455000", "092647.455000", "092649.455000", "092651.455000", "092653.455000", "092655.455000", "092657.455000", "092659.455000", "092701.455000", "092703.455000", "092705.455000", "092707.455000", "092709.455000", "092711.455000", "092713.455000", "092715.455000", "092717.455000", "092719.455000", "092721.455000", "092723.455000", "092725.455000", "092727.455000", "092729.455000", "092731.455000", "092733.455000", "092735.455000", "092737.455000", "092739.455000", "092741.455000", "092743.455000", "092745.455000", "092747.455000", "092749.455000", "092751.455000", "092753.455000", "092755.455000", "092757.455000", "092759.455000", "092801.455000", "092803.455000", "092805.455000", "092807.455000", "092809.455000", "092811.455000", "092813.455000", "092815.455000", "092817.455000", "092819.455000", "092821.455000", "092823.455000", "092825.455000", "092827.455000", "092829.455000", "092831.455000", "092833.455000", "092835.455000", "092837.455000", "092839.455000", "092841.455000", "092843.455000", "092845.455000", "092847.455000", "092849.455000", "092851.455000", "092853.455000", "092855.455000", "092857.455000", "092859.455000", "092901.455000", "092903.455000", "092905.455000", "092907.455000", "092909.455000", "092911.455000", "092913.455000", "092915.455000", "092917.455000", "092919.455000", "092921.455000", "092923.455000", "092925.455000", "092927.455000", "092929.455000", "092931.455000", "092933.455000", "092935.455000", "092937.455000", "092939.455000", "092941.455000", "092943.455000", "092945.455000", "092947.455000", "092949.455000", "092951.455000", "092953.455000", "092955.455000", "092957.455000", "092959.455000", "093001.455000", "093003.455000", "093005.455000", "093007.455000", "093009.455000", "093011.455000", "093013.455000", "093015.455000", "093017.455000", "093019.455000", "093021.455000", "093023.455000", "093025.455000", "093027.455000", "093029.455000", "093031.455000", "093033.455000", "093035.455000", "093037.455000", "093039.455000", "093041.455000", "093043.455000", "093045.455000", "093047.455000", "093049.455000", "093051.455000", "093053.455000", "093055.455000", "093057.455000", "093059.455000", "093101.455000", "093103.455000", "093105.455000", "093107.455000", "093109.455000", "093111.455000", "093113.455000", "093115.455000", "093117.455000", "093119.455000", "093121.455000", "093123.455000", "093125.455000", "093127.455000", "093129.455000", "093131.455000", "093133.455000", "093135.455000", "093137.455000", "093139.455000", "093141.455000", "093143.455000", "093145.455000", "093147.455000", "093149.455000", "093151.455000", "093153.455000", "093155.455000", "093157.455000", "093159.455000", "093201.455000", "093203.455000", "093205.455000", "093207.455000", "093209.455000", "093211.455000", "093213.455000", "093215.455000", "093217.455000", "093219.455000", "093221.455000", "093223.455000", "093225.455000", "093227.455000", "093229.455000", "093231.455000", "093233.455000"],
      "ContentTime": ["092638.859000", "092638.863000", "092638.865000", "092638.868000", "092638.870000", "092638.873000", "092638.876000", "092638.878000", "092638.881000", "092638.883000", "092638.886000", "092638.888000", "092638.891000", "092638.893000", "092638.896000", "092638.899000", "092638.901000", "092638.904000", "092638.911000", "092638.914000", "092638.916000", "092638.919000", "092718.854000", "092718.857000", "092718.860000", "092718.862000", "092718.865000", "092718.868000", "092718.870000", "092718.873000", "092718.875000", "092718.878000", "092718.880000", "092718.883000", "092718.885000", "092718.888000", "092718.890000", "092718.893000", "092718.896000", "092718.898000", "092718.901000", "092718.903000", "092758.856000", "092758.858000", "092758.870000", "092758.872000", "092758.875000", "092758.877000", "092758.880000", "092758.883000", "092758.885000", "092758.888000", "092758.890000", "092758.893000", "092758.895000", "092758.898000", "092758.901000", "092758.903000", "092758.906000", "092758.908000", "092758.911000", "092758.913000", "092818.856000", "092818.858000", "092818.861000", "092818.864000", "092818.866000", "092818.869000", "092818.871000", "092818.874000", "092818.876000", "092818.879000", "092858.854000", "092858.857000", "092858.860000", "092858.863000", "092858.865000", "092858.868000", "092858.870000", "092858.873000", "092858.875000", "092858.878000", "092858.880000", "092858.883000", "092858.886000", "092858.888000", "092858.891000", "092858.893000", "092858.896000", "092858.898000", "092858.901000", "092858.910000", "092938.854000", "092938.857000", "092938.860000", "092938.862000", "092938.865000", "092938.868000", "092938.870000", "092938.873000", "092938.875000", "092938.878000", "092938.880000", "092938.883000", "092938.886000", "092938.895000", "092938.898000", "092938.900000", "092938.903000", "092938.905000", "092938.908000", "092938.910000", "093018.855000", "093018.858000", "093018.861000", "093018.864000", "093018.866000", "093018.869000", "093018.871000", "093018.874000", "093018.876000", "093018.879000", "093018.882000", "093018.884000", "093018.887000", "093018.890000", "093018.892000", "093018.895000", "093018.898000", "093018.900000", "093018.903000", "093018.905000", "093058.854000", "093058.857000", "093058.860000", "093058.862000", "093058.865000", "093058.868000", "093058.870000", "093058.873000", "093058.875000", "093058.878000", "093058.880000", "093058.883000", "093058.886000", "093058.888000", "093058.891000", "093058.893000", "093058.896000", "093058.898000", "093058.901000", "093058.904000", "093138.854000", "093138.857000", "093138.860000", "093138.863000", "093138.865000", "093138.868000", "093138.870000", "093138.873000", "093138.876000", "093138.878000", "093138.881000", "093138.883000", "093138.886000", "093138.888000", "093138.891000", "093138.894000", "093138.896000", "093138.899000", "093138.901000", "093138.904000", "093218.856000", "093218.858000", "093218.861000", "093218.864000", "093218.866000", "093218.869000", "093218.871000", "093218.874000", "093218.877000", "093218.879000", "093218.882000", "093218.884000", "093218.887000", "093218.889000", "093218.892000", "093218.895000", "093218.897000", "093218.900000", "093218.902000", "093218.905000", "093234.502000", "093234.505000", "093234.507000", "093234.510000", "093234.513000", "093234.515000", "093234.518000", "093234.521000"],
      "InstanceCreationTime": ["092638.859000", "092638.863000", "092638.865000", "092638.868000", "092638.870000", "092638.873000", "092638.876000", "092638.878000", "092638.881000", "092638.883000", "092638.886000", "092638.888000", "092638.891000", "092638.893000", "092638.896000", "092638.899000", "092638.901000", "092638.904000", "092638.911000", "092638.914000", "092638.916000", "092638.919000", "092718.854000", "092718.857000", "092718.860000", "092718.862000", "092718.865000", "092718.868000", "092718.870000", "092718.873000", "092718.875000", "092718.878000", "092718.880000", "092718.883000", "092718.885000", "092718.888000", "092718.890000", "092718.893000", "092718.896000", "092718.898000", "092718.901000", "092718.903000", "092758.856000", "092758.858000", "092758.870000", "092758.872000", "092758.875000", "092758.877000", "092758.880000", "092758.883000", "092758.885000", "092758.888000", "092758.890000", "092758.893000", "092758.895000", "092758.898000", "092758.901000", "092758.903000", "092758.906000", "092758.908000", "092758.911000", "092758.913000", "092818.856000", "092818.858000", "092818.861000", "092818.864000", "092818.866000", "092818.869000", "092818.871000", "092818.874000", "092818.876000", "092818.879000", "092858.854000", "092858.857000", "092858.860000", "092858.863000", "092858.865000", "092858.868000", "092858.870000", "092858.873000", "092858.875000", "092858.878000", "092858.880000", "092858.883000", "092858.886000", "092858.888000", "092858.891000", "092858.893000", "092858.896000", "092858.898000", "092858.901000", "092858.910000", "092938.854000", "092938.857000", "092938.860000", "092938.862000", "092938.865000", "092938.868000", "092938.870000", "092938.873000", "092938.875000", "092938.878000", "092938.880000", "092938.883000", "092938.886000", "092938.895000", "092938.898000", "092938.900000", "092938.903000", "092938.905000", "092938.908000", "092938.910000", "093018.855000", "093018.858000", "093018.861000", "093018.864000", "093018.866000", "093018.869000", "093018.871000", "093018.874000", "093018.876000", "093018.879000", "093018.882000", "093018.884000", "093018.887000", "093018.890000", "093018.892000", "093018.895000", "093018.898000", "093018.900000", "093018.903000", "093018.905000", "093058.854000", "093058.857000", "093058.860000", "093058.862000", "093058.865000", "093058.868000", "093058.870000", "093058.873000", "093058.875000", "093058.878000", "093058.880000", "093058.883000", "093058.886000", "093058.888000", "093058.891000", "093058.893000", "093058.896000", "093058.898000", "093058.901000", "093058.904000", "093138.854000", "093138.857000", "093138.860000", "093138.863000", "093138.865000", "093138.868000", "093138.870000", "093138.873000", "093138.876000", "093138.878000", "093138.881000", "093138.883000", "093138.886000", "093138.888000", "093138.891000", "093138.894000", "093138.896000", "093138.899000", "093138.901000", "093138.904000", "093218.856000", "093218.858000", "093218.861000", "093218.864000", "093218.866000", "093218.869000", "093218.871000", "093218.874000", "093218.877000", "093218.879000", "093218.882000", "093218.884000", "093218.887000", "093218.889000", "093218.892000", "093218.895000", "093218.897000", "093218.900000", "093218.902000", "093218.905000", "093234.502000", "093234.505000", "093234.507000", "093234.510000", "093234.513000", "093234.515000", "093234.518000", "093234.521000"],
      "InstanceNumber": [1, 2, 3, 4, 5, 6, 7, 8, 9, 10, 11, 12, 13, 14, 15, 16, 17, 18, 19, 20, 21, 22, 23, 24, 25, 26, 27, 28, 29, 30, 31, 32, 33, 34, 35, 36, 37, 38, 39, 40, 41, 42, 43, 44, 45, 46, 47, 48, 49, 50, 51, 52, 53, 54, 55, 56, 57, 58, 59, 60, 61, 62, 63, 64, 65, 66, 67, 68, 69, 70, 71, 72, 73, 74, 75, 76, 77, 78, 79, 80, 81, 82, 83, 84, 85, 86, 87, 88, 89, 90, 91, 92, 93, 94, 95, 96, 97, 98, 99, 100, 101, 102, 103, 104, 105, 106, 107, 108, 109, 110, 111, 112, 113, 114, 115, 116, 117, 118, 119, 120, 121, 122, 123, 124, 125, 126, 127, 128, 129, 130, 131, 132, 133, 134, 135, 136, 137, 138, 139, 140, 141, 142, 143, 144, 145, 146, 147, 148, 149, 150, 151, 152, 153, 154, 155, 156, 157, 158, 159, 160, 161, 162, 163, 164, 165, 166, 167, 168, 169, 170, 171, 172, 173, 174, 175, 176, 177, 178, 179, 180, 181, 182, 183, 184, 185, 186, 187, 188, 189, 190, 191, 192, 193, 194, 195, 196, 197, 198, 199, 200],
      "WindowCenter": [1492.0, 1491.0, 1490.0, 1490.0, 1490.0, 1490.0, 1490.0, 1490.0, 1491.0, 1491.0, 1490.0, 1490.0, 1490.0, 1489.0, 1490.0, 1489.0, 1489.0, 1490.0, 1489.0, 1489.0, 1489.0, 1489.0, 1489.0, 1489.0, 1489.0, 1488.0, 1488.0, 1488.0, 1488.0, 1487.0, 1487.0, 1487.0, 1487.0, 1487.0, 1487.0, 1487.0, 1488.0, 1487.0, 1486.0, 1487.0, 1487.0, 1487.0, 1486.0, 1486.0, 1486.0, 1486.0, 1486.0, 1486.0, 1486.0, 1485.0, 1486.0, 1486.0, 1486.0, 1485.0, 1485.0, 1485.0, 1485.0, 1485.0, 1485.0, 1485.0, 1485.0, 1485.0, 1485.0, 1484.0, 1485.0, 1484.0, 1485.0, 1485.0, 1484.0, 1484.0, 1484.0, 1484.0, 1484.0, 1484.0, 1484.0, 1484.0, 1483.0, 1483.0, 1483.0, 1483.0, 1483.0, 1483.0, 1483.0, 1482.0, 1482.0, 1482.0, 1482.0, 1483.0, 1483.0, 1483.0, 1483.0, 1482.0, 1483.0, 1482.0, 1483.0, 1482.0, 1482.0, 1482.0, 1482.0, 1482.0, 1483.0, 1482.0, 1481.0, 1482.0, 1482.0, 1481.0, 1482.0, 1482.0, 1481.0, 1482.0, 1482.0, 1481.0, 1481.0, 1481.0, 1481.0, 1481.0, 1482.0, 1481.0, 1481.0, 1481.0, 1481.0, 1481.0, 1481.0, 1481.0, 1481.0, 1481.0, 1481.0, 1481.0, 1480.0, 1480.0, 1481.0, 1481.0, 1480.0, 1480.0, 1480.0, 1480.0, 1480.0, 1480.0, 1480.0, 1480.0, 1480.0, 1480.0, 1480.0, 1480.0, 1480.0, 1479.0, 1479.0, 1479.0, 1479.0, 1479.0, 1480.0, 1480.0, 1479.0, 1480.0, 1479.0, 1479.0, 1479.0, 1478.0, 1479.0, 1479.0, 1479.0, 1479.0, 1478.0, 1479.0, 1479.0, 1479.0, 1479.0, 1479.0, 1478.0, 1479.0, 1479.0, 1478.0, 1479.0, 1478.0, 1478.0, 1478.0, 1479.0, 1478.0, 1478.0, 1478.0, 1478.0, 1477.0, 1479.0, 1478.0, 1477.0, 1478.0, 1478.0, 1478.0, 1478.0, 1478.0, 1478.0, 1478.0, 1478.0, 1477.0, 1477.0, 1477.0, 1477.0, 1477.0, 1478.0, 1478.0],
      "WindowWidth": [3370.0, 3369.0, 3369.0, 3368.0, 3368.0, 3368.0, 3368.0, 3368.0, 3367.0, 3367.0, 3368.0, 3368.0, 3367.0, 3367.0, 3367.0, 3367.0, 3367.0, 3367.0, 3367.0, 3367.0, 3366.0, 3366.0, 3366.0, 3366.0, 3366.0, 3366.0, 3366.0, 3365.0, 3366.0, 3366.0, 3366.0, 3366.0, 3366.0, 3366.0, 3365.0, 3365.0, 3365.0, 3365.0, 3366.0, 3365.0, 3365.0, 3365.0, 3365.0, 3365.0, 3365.0, 3365.0, 3364.0, 3364.0, 3364.0, 3365.0, 3364.0, 3364.0, 3364.0, 3364.0, 3364.0, 3364.0, 3363.0, 3363.0, 3363.0, 3363.0, 3363.0, 3363.0, 3363.0, 3363.0, 3363.0, 3363.0, 3363.0, 3363.0, 3363.0, 3363.0, 3363.0, 3363.0, 3363.0, 3362.0, 3362.0, 3362.0, 3362.0, 3362.0, 3362.0, 3362.0, 3362.0, 3362.0, 3362.0, 3362.0, 3362.0, 3362.0, 3362.0, 3362.0, 3362.0, 3362.0, 3362.0, 3362.0, 3362.0, 3362.0, 3362.0, 3362.0, 3361.0, 3362.0, 3362.0, 3361.0, 3361.0, 3361.0, 3361.0, 3361.0, 3361.0, 3361.0, 3361.0, 3361.0, 3361.0, 3361.0, 3361.0, 3361.0, 3361.0, 3361.0, 3361.0, 3361.0, 3360.0, 3361.0, 3361.0, 3361.0, 3361.0, 3361.0, 3361.0, 3360.0, 3361.0, 3360.0, 3360.0, 3360.0, 3360.0, 3360.0, 3360.0, 3360.0, 3360.0, 3360.0, 3360.0, 3360.0, 3360.0, 3360.0, 3360.0, 3360.0, 3360.0, 3360.0, 3360.0, 3360.0, 3359.0, 3360.0, 3360.0, 3360.0, 3360.0, 3360.0, 3359.0, 3359.0, 3360.0, 3359.0, 3359.0, 3359.0, 3359.0, 3359.0, 3359.0, 3359.0, 3359.0, 3359.0, 3359.0, 3359.0, 3359.0, 3359.0, 3359.0, 3359.0, 3359.0, 3359.0, 3358.0, 3359.0, 3358.0, 3359.0, 3358.0, 3358.0, 3358.0, 3359.0, 3358.0, 3358.0, 3358.0, 3359.0, 3358.0, 3358.0, 3359.0, 3358.0, 3358.0, 3358.0, 3358.0, 3358.0, 3358.0, 3358.0, 3358.0, 3358.0, 3358.0, 3358.0, 3358.0, 3358.0, 3357.0, 3358.0]
    },
    "slices": {}
  }
}