{
  "AcquisitionMatrixPE": 80,
  "AcquisitionNumber": 1,
  "AcquisitionTime": "10:04:18.452500",
  "BandwidthPerPixelPhaseEncode": 25,
  "BaseResolution": 80,
  "BodyPartExamined": "BRAIN",
  "CoilCombinationMethod": "Sum of Squares",
  "ConsistencyInfo": "N4_VE11E_LATEST_20181129",
  "ConversionSoftware": "dcm2niix",
  "ConversionSoftwareVersion": "v1.0.20220720",
  "DerivedVendorReportedEchoSpacing": 0.0005,
  "DeviceSerialNumber": "66112",
  "DwellTime": 2.7e-06,
  "EchoTime": 0.03,
  "EchoTrainLength": 80,
  "EffectiveEchoSpacing": 0.0005,
  "FlipAngle": 10,
  "HeudiconvVersion": "0.13.1",
  "ImageOrientationPatientDICOM": [0.99365, 0.112476, 0.00303564, -0.10812, 0.947005, 0.302476],
  "ImageOrientationText": "Tra>Cor(17.5)>Sag(-1.8)",
  "ImageType": [
    "ORIGINAL",
    "PRIMARY",
    "M",
    "ND",
    "NORM",
    "MOSAIC"
],
  "ImagingFrequency": 123.259,
  "InPlanePhaseEncodingDirectionDICOM": "COL",
  "InstitutionAddress": "Maynard 3,Hanover,NH,US,03755",
  "InstitutionName": "Dartmouth College - PBS",
  "InstitutionalDepartmentName": "Department",
  "MRAcquisitionType": "2D",
  "MagneticFieldStrength": 3,
  "Manufacturer": "Siemens",
  "ManufacturersModelName": "Prisma",
  "MatrixCoilMode": "SENSE",
  "Modality": "MR",
  "NonlinearGradientCorrection": false,
  "PartialFourier": 1,
  "PatientPosition": "HFS",
  "PercentPhaseFOV": 100,
  "PercentSampling": 100,
  "PhaseEncodingDirection": "j-",
  "PhaseEncodingSteps": 80,
  "PhaseResolution": 1,
  "PixelBandwidth": 2315,
  "ProcedureStepDescription": "dbic^QA",
  "ProtocolName": "func-bold_fa-10",
  "PulseSequenceDetails": "%SiemensSeq%\\ep2d_bold",
  "ReceiveCoilActiveElements": "HEA;HEP",
  "ReceiveCoilName": "Head_32",
  "ReconMatrixPE": 80,
  "RepetitionTime": 2,
  "SAR": 0.017143,
  "ScanOptions": "FS",
  "ScanningSequence": "EP",
  "SequenceName": "*epfid2d1_80",
  "SequenceVariant": "SK",
  "SeriesDescription": "func-bold_fa-10",
  "SeriesNumber": 8,
  "ShimSetting": [4224, -7738, -7481, -15, -135, -52, 17, 59],
  "SliceThickness": 3.5,
  "SliceTiming": [0.99, 0, 1.0575, 0.0675, 1.1225, 0.1325, 1.19, 0.2, 1.255, 0.265, 1.32, 0.33, 1.3875, 0.3975, 1.4525, 0.4625, 1.5175, 0.53, 1.585, 0.595, 1.65, 0.66, 1.7175, 0.7275, 1.7825, 0.7925, 1.8475, 0.86, 1.915, 0.925],
  "SoftwareVersions": "syngo MR E11",
  "SpacingBetweenSlices": 3.99,
  "StationName": "AWP66112",
  "TotalReadoutTime": 0.0395,
  "TxRefAmp": 227.55,
  "dcmmeta_affine": [
    [-2.9809494018554688, -0.324361115694046, -0.12427479773759842, 133.3297576904297],
    [-0.3374287486076355, 2.841014862060547, 1.2005237340927124, -112.85990905761719],
    [0.009106926620006561, -0.9074271321296692, 3.803077459335327, -12.022418022155762],
    [0.0, 0.0, 0.0, 1.0]
],
  "dcmmeta_reorient_transform": [
    [0.0, -1.0, 0.0, 79.0],
    [1.0, 0.0, 0.0, 0.0],
    [0.0, 0.0, 1.0, 0.0],
    [0.0, 0.0, 0.0, 1.0]
],
  "dcmmeta_shape": [80, 80, 30, 200],
  "dcmmeta_slice_dim": 2,
  "dcmmeta_version": 0.6,
  "global": {
    "const": {
      "AccessionNumber": "qa",
      "AcquisitionMatrix": [80, 0, 0, 80],
      "AngioFlag": "N",
      "BitsAllocated": 16,
      "BitsStored": 12,
      "BodyPartExamined": "BRAIN",
      "Columns": 480,
      "EchoNumbers": 1,
      "EchoTime": 30.0,
      "EchoTrainLength": 80,
      "FlipAngle": 10.0,
      "HighBit": 11,
      "ImageOrientationPatient": [0.99364977592937, 0.11247625381513, 0.00303564214526, -0.108120369255, 0.9470049817815, 0.30247570188891],
      "ImagePositionPatient": [-639.0228721912, -747.26901167852, -267.01596586134],
      "ImageType": [
        "ORIGINAL",
        "PRIMARY",
        "M",
        "ND",
        "NORM",
        "MOSAIC"
],
      "ImagedNucleus": "1H",
      "ImagingFrequency": 123.259246,
      "InPlanePhaseEncodingDirection": "COL",
      "MRAcquisitionType": "2D",
      "MagneticFieldStrength": 3.0,
      "Manufacturer": "SIEMENS",
      "ManufacturerModelName": "Prisma",
      "Modality": "MR",
      "NumberOfAverages": 1.0,
      "NumberOfPhaseEncodingSteps": 80,
      "PercentPhaseFieldOfView": 100.0,
      "PercentSampling": 100.0,
      "PerformedProcedureStepStartTime": "093534.317000",
      "PhotometricInterpretation": "MONOCHROME2",
      "PixelBandwidth": 2315.0,
      "PixelRepresentation": 0,
      "PixelSpacing": [3.0, 3.0],
      "ProtocolName": "func-bold_fa-10",
      "RepetitionTime": 2000.0,
      "Rows": 480,
      "SAR": 0.01714295638688,
      "SamplesPerPixel": 1,
      "ScanOptions": "FS",
      "ScanningSequence": "EP",
      "SequenceName": "*epfid2d1_80",
      "SequenceVariant": "SK",
      "SeriesDescription": "func-bold_fa-10",
      "SeriesNumber": 8,
      "SeriesTime": "100513.053000",
      "SliceLocation": -49.569601853975,
      "SliceThickness": 3.5,
      "SmallestImagePixelValue": 0,
      "SoftwareVersions": "syngo MR E11",
      "SpacingBetweenSlices": 3.9900000471039,
      "SpecificCharacterSet": "ISO_IR 100",
      "StudyID": "23",
      "StudyTime": "093534.248000",
      "TransmitCoilName": "Body",
      "VariableFlipAngleFlag": "N",
      "WindowCenterWidthExplanation": "Algo1"
    },
    "slices": {}
  },
  "time": {
    "samples": {
      "AcquisitionNumber": [1, 2, 3, 4, 5, 6, 7, 8, 9, 10, 11, 12, 13, 14, 15, 16, 17, 18, 19, 20, 21, 22, 23, 24, 25, 26, 27, 28, 29, 30, 31, 32, 33, 34, 35, 36, 37, 38, 39, 40, 41, 42, 43, 44, 45, 46, 47, 48, 49, 50, 51, 52, 53, 54, 55, 56, 57, 58, 59, 60, 61, 62, 63, 64, 65, 66, 67, 68, 69, 70, 71, 72, 73, 74, 75, 76, 77, 78, 79, 80, 81, 82, 83, 84, 85, 86, 87, 88, 89, 90, 91, 92, 93, 94, 95, 96, 97, 98, 99, 100, 101, 102, 103, 104, 105, 106, 107, 108, 109, 110, 111, 112, 113, 114, 115, 116, 117, 118, 119, 120, 121, 122, 123, 124, 125, 126, 127, 128, 129, 130, 131, 132, 133, 134, 135, 136, 137, 138, 139, 140, 141, 142, 143, 144, 145, 146, 147, 148, 149, 150, 151, 152, 153, 154, 155, 156, 157, 158, 159, 160, 161, 162, 163, 164, 165, 166, 167, 168, 169, 170, 171, 172, 173, 174, 175, 176, 177, 178, 179, 180, 181, 182, 183, 184, 185, 186, 187, 188, 189, 190, 191, 192, 193, 194, 195, 196, 197, 198, 199, 200],
      "AcquisitionTime": ["100418.452500", "100420.452500", "100422.452500", "100424.452500", "100426.452500", "100428.452500", "100430.452500", "100432.452500", "100434.452500", "100436.452500", "100438.452500", "100440.452500", "100442.452500", "100444.452500", "100446.452500", "100448.452500", "100450.452500", "100452.452500", "100454.452500", "100456.452500", "100458.452500", "100500.452500", "100502.452500", "100504.452500", "100506.452500", "100508.452500", "100510.452500", "100512.452500", "100514.452500", "100516.452500", "100518.452500", "100520.452500", "100522.452500", "100524.452500", "100526.452500", "100528.452500", "100530.452500", "100532.452500", "100534.452500", "100536.452500", "100538.452500", "100540.452500", "100542.452500", "100544.452500", "100546.452500", "100548.452500", "100550.452500", "100552.452500", "100554.452500", "100556.452500", "100558.452500", "100600.452500", "100602.452500", "100604.452500", "100606.452500", "100608.452500", "100610.452500", "100612.452500", "100614.452500", "100616.452500", "100618.452500", "100620.452500", "100622.452500", "100624.452500", "100626.452500", "100628.452500", "100630.452500", "100632.452500", "100634.452500", "100636.452500", "100638.452500", "100640.452500", "100642.452500", "100644.452500", "100646.452500", "100648.452500", "100650.452500", "100652.452500", "100654.452500", "100656.452500", "100658.452500", "100700.452500", "100702.452500", "100704.452500", "100706.452500", "100708.452500", "100710.452500", "100712.452500", "100714.452500", "100716.452500", "100718.452500", "100720.452500", "100722.452500", "100724.452500", "100726.452500", "100728.452500", "100730.452500", "100732.452500", "100734.452500", "100736.452500", "100738.452500", "100740.452500", "100742.452500", "100744.452500", "100746.452500", "100748.452500", "100750.452500", "100752.452500", "100754.452500", "100756.452500", "100758.452500", "100800.452500", "100802.452500", "100804.452500", "100806.452500", "100808.452500", "100810.452500", "100812.452500", "100814.452500", "100816.452500", "100818.452500", "100820.452500", "100822.452500", "100824.452500", "100826.452500", "100828.452500", "100830.452500", "100832.452500", "100834.452500", "100836.452500", "100838.452500", "100840.452500", "100842.452500", "100844.452500", "100846.452500", "100848.452500", "100850.452500", "100852.452500", "100854.452500", "100856.452500", "100858.452500", "100900.452500", "100902.452500", "100904.452500", "100906.452500", "100908.452500", "100910.452500", "100912.452500", "100914.452500", "100916.452500", "100918.452500", "100920.452500", "100922.452500", "100924.452500", "100926.452500", "100928.452500", "100930.452500", "100932.452500", "100934.452500", "100936.452500", "100938.452500", "100940.452500", "100942.452500", "100944.452500", "100946.452500", "100948.452500", "100950.452500", "100952.452500", "100954.452500", "100956.452500", "100958.452500", "101000.452500", "101002.452500", "101004.452500", "101006.452500", "101008.452500", "101010.452500", "101012.452500", "101014.452500", "101016.452500", "101018.452500", "101020.452500", "101022.452500", "101024.452500", "101026.452500", "101028.452500", "101030.452500", "101032.452500", "101034.452500", "101036.452500", "101038.452500", "101040.452500", "101042.452500", "101044.452500", "101046.452500", "101048.452500", "101050.452500", "101052.452500", "101054.452500", "101056.452500"],
      "ContentTime": ["100513.056000", "100513.059000", "100513.061000", "100513.064000", "100513.066000", "100513.077000", "100513.079000", "100513.081000", "100513.084000", "100513.086000", "100513.088000", "100513.091000", "100513.099000", "100513.101000", "100513.103000", "100513.105000", "100513.108000", "100513.110000", "100513.112000", "100513.114000", "100513.117000", "100513.119000", "100513.121000", "100513.124000", "100513.126000", "100513.128000", "100513.130000", "100553.051000", "100553.054000", "100553.056000", "100553.058000", "100553.060000", "100553.063000", "100553.065000", "100553.073000", "100553.075000", "100553.078000", "100553.080000", "100553.090000", "100553.093000", "100553.095000", "100553.097000", "100553.099000", "100553.102000", "100553.104000", "100553.106000", "100553.109000", "100633.051000", "100633.054000", "100633.056000", "100633.058000", "100633.061000", "100633.063000", "100633.065000", "100633.067000", "100633.070000", "100633.072000", "100633.074000", "100633.091000", "100633.093000", "100633.095000", "100633.097000", "100633.100000", "100633.102000", "100633.104000", "100633.106000", "100633.109000", "100713.051000", "100713.054000", "100713.056000", "100713.058000", "100713.061000", "100713.063000", "100713.065000", "100713.068000", "100713.070000", "100713.072000", "100713.075000", "100713.077000", "100713.079000", "100713.081000", "100713.084000", "100713.097000", "100713.099000", "100713.101000", "100713.103000", "100713.106000", "100753.050000", "100753.053000", "100753.055000", "100753.057000", "100753.059000", "100753.062000", "100753.064000", "100753.066000", "100753.069000", "100753.071000", "100753.073000", "100753.075000", "100753.078000", "100753.080000", "100753.082000", "100753.085000", "100753.087000", "100753.089000", "100753.091000", "100753.094000", "100833.051000", "100833.054000", "100833.056000", "100833.058000", "100833.061000", "100833.063000", "100833.065000", "100833.067000", "100833.070000", "100833.072000", "100833.074000", "100833.077000", "100833.079000", "100833.081000", "100833.083000", "100833.086000", "100833.088000", "100833.090000", "100833.092000", "100833.095000", "100913.051000", "100913.054000", "100913.056000", "100913.058000", "100913.060000", "100913.063000", "100913.065000", "100913.067000", "100913.070000", "100913.072000", "100913.074000", "100913.076000", "100913.079000", "100913.081000", "100913.083000", "100913.086000", "100913.088000", "100913.090000", "100913.092000", "100913.095000", "100953.051000", "100953.054000", "100953.056000", "100953.058000", "100953.060000", "100953.063000", "100953.065000", "100953.067000", "100953.070000", "100953.072000", "100953.074000", "100953.077000", "100953.079000", "100953.081000", "100953.083000", "100953.086000", "100953.088000", "100953.090000", "100953.093000", "100953.095000", "101033.051000", "101033.054000", "101033.056000", "101033.058000", "101033.060000", "101033.063000", "101033.065000", "101033.067000", "101033.070000", "101033.072000", "101033.088000", "101033.090000", "101033.093000", "101033.095000", "101033.097000", "101033.099000", "101033.102000", "101033.104000", "101033.106000", "101033.108000", "101053.051000", "101053.054000", "101053.056000", "101053.058000", "101053.061000", "101053.063000", "101053.065000", "101053.068000", "101053.070000", "101053.072000", "101058.263000", "101058.266000", "101058.268000"],
      "InstanceCreationTime": ["100513.056000", "100513.059000", "100513.061000", "100513.064000", "100513.066000", "100513.077000", "100513.079000", "100513.081000", "100513.084000", "100513.086000", "100513.088000", "100513.091000", "100513.099000", "100513.101000", "100513.103000", "100513.105000", "100513.108000", "100513.110000", "100513.112000", "100513.114000", "100513.117000", "100513.119000", "100513.121000", "100513.124000", "100513.126000", "100513.128000", "100513.130000", "100553.051000", "100553.054000", "100553.056000", "100553.058000", "100553.060000", "100553.063000", "100553.065000", "100553.073000", "100553.075000", "100553.078000", "100553.080000", "100553.090000", "100553.093000", "100553.095000", "100553.097000", "100553.099000", "100553.102000", "100553.104000", "100553.106000", "100553.109000", "100633.051000", "100633.054000", "100633.056000", "100633.058000", "100633.061000", "100633.063000", "100633.065000", "100633.067000", "100633.070000", "100633.072000", "100633.074000", "100633.091000", "100633.093000", "100633.095000", "100633.097000", "100633.100000", "100633.102000", "100633.104000", "100633.106000", "100633.109000", "100713.051000", "100713.054000", "100713.056000", "100713.058000", "100713.061000", "100713.063000", "100713.065000", "100713.068000", "100713.070000", "100713.072000", "100713.075000", "100713.077000", "100713.079000", "100713.081000", "100713.084000", "100713.097000", "100713.099000", "100713.101000", "100713.103000", "100713.106000", "100753.050000", "100753.053000", "100753.055000", "100753.057000", "100753.059000", "100753.062000", "100753.064000", "100753.066000", "100753.069000", "100753.071000", "100753.073000", "100753.075000", "100753.078000", "100753.080000", "100753.082000", "100753.085000", "100753.087000", "100753.089000", "100753.091000", "100753.094000", "100833.051000", "100833.054000", "100833.056000", "100833.058000", "100833.061000", "100833.063000", "100833.065000", "100833.067000", "100833.070000", "100833.072000", "100833.074000", "100833.077000", "100833.079000", "100833.081000", "100833.083000", "100833.086000", "100833.088000", "100833.090000", "100833.092000", "100833.095000", "100913.051000", "100913.054000", "100913.056000", "100913.058000", "100913.060000", "100913.063000", "100913.065000", "100913.067000", "100913.070000", "100913.072000", "100913.074000", "100913.076000", "100913.079000", "100913.081000", "100913.083000", "100913.086000", "100913.088000", "100913.090000", "100913.092000", "100913.095000", "100953.051000", "100953.054000", "100953.056000", "100953.058000", "100953.060000", "100953.063000", "100953.065000", "100953.067000", "100953.070000", "100953.072000", "100953.074000", "100953.077000", "100953.079000", "100953.081000", "100953.083000", "100953.086000", "100953.088000", "100953.090000", "100953.093000", "100953.095000", "101033.051000", "101033.054000", "101033.056000", "101033.058000", "101033.060000", "101033.063000", "101033.065000", "101033.067000", "101033.070000", "101033.072000", "101033.088000", "101033.090000", "101033.093000", "101033.095000", "101033.097000", "101033.099000", "101033.102000", "101033.104000", "101033.106000", "101033.108000", "101053.051000", "101053.054000", "101053.056000", "101053.058000", "101053.061000", "101053.063000", "101053.065000", "101053.068000", "101053.070000", "101053.072000", "101058.263000", "101058.266000", "101058.268000"],
      "InstanceNumber": [1, 2, 3, 4, 5, 6, 7, 8, 9, 10, 11, 12, 13, 14, 15, 16, 17, 18, 19, 20, 21, 22, 23, 24, 25, 26, 27, 28, 29, 30, 31, 32, 33, 34, 35, 36, 37, 38, 39, 40, 41, 42, 43, 44, 45, 46, 47, 48, 49, 50, 51, 52, 53, 54, 55, 56, 57, 58, 59, 60, 61, 62, 63, 64, 65, 66, 67, 68, 69, 70, 71, 72, 73, 74, 75, 76, 77, 78, 79, 80, 81, 82, 83, 84, 85, 86, 87, 88, 89, 90, 91, 92, 93, 94, 95, 96, 97, 98, 99, 100, 101, 102, 103, 104, 105, 106, 107, 108, 109, 110, 111, 112, 113, 114, 115, 116, 117, 118, 119, 120, 121, 122, 123, 124, 125, 126, 127, 128, 129, 130, 131, 132, 133, 134, 135, 136, 137, 138, 139, 140, 141, 142, 143, 144, 145, 146, 147, 148, 149, 150, 151, 152, 153, 154, 155, 156, 157, 158, 159, 160, 161, 162, 163, 164, 165, 166, 167, 168, 169, 170, 171, 172, 173, 174, 175, 176, 177, 178, 179, 180, 181, 182, 183, 184, 185, 186, 187, 188, 189, 190, 191, 192, 193, 194, 195, 196, 197, 198, 199, 200],
      "LargestImagePixelValue": [376, 377, 376, 378, 375, 375, 375, 378, 375, 376, 376, 377, 379, 375, 377, 378, 377, 378, 377, 375, 375, 378, 377, 377, 377, 375, 377, 377, 376, 373, 377, 378, 376, 377, 377, 376, 377, 376, 375, 375, 376, 379, 376, 378, 375, 377, 377, 376, 376, 374, 375, 379, 378, 375, 374, 375, 376, 377, 376, 375, 377, 376, 378, 376, 375, 375, 377, 380, 375, 375, 377, 377, 377, 376, 376, 376, 376, 377, 376, 376, 374, 377, 376, 377, 376, 375, 378, 376, 375, 377, 377, 375, 377, 376, 375, 376, 377, 377, 375, 376, 375, 376, 379, 377, 375, 376, 375, 377, 376, 376, 376, 376, 376, 375, 376, 375, 375, 377, 377, 375, 376, 378, 376, 375, 375, 376, 377, 377, 377, 375, 375, 377, 376, 376, 375, 377, 377, 376, 376, 375, 375, 377, 375, 377, 376, 376, 374, 377, 377, 375, 375, 375, 376, 377, 375, 375, 377, 378, 375, 376, 376, 375, 378, 378, 377, 375, 375, 377, 378, 376, 375, 375, 378, 376, 376, 375, 376, 378, 376, 376, 376, 376, 377, 375, 374, 372, 375, 375, 378, 374, 376, 375, 376, 376, 377, 373, 374, 376, 376, 378],
      "WindowCenter": [305.0, 305.0, 305.0, 305.0, 305.0, 305.0, 305.0, 305.0, 305.0, 305.0, 305.0, 305.0, 305.0, 305.0, 305.0, 305.0, 305.0, 305.0, 305.0, 305.0, 305.0, 305.0, 305.0, 305.0, 305.0, 305.0, 305.0, 305.0, 305.0, 305.0, 305.0, 305.0, 305.0, 305.0, 305.0, 305.0, 305.0, 305.0, 305.0, 305.0, 305.0, 305.0, 305.0, 305.0, 305.0, 305.0, 305.0, 305.0, 305.0, 305.0, 305.0, 305.0, 305.0, 305.0, 305.0, 305.0, 305.0, 305.0, 305.0, 305.0, 305.0, 305.0, 305.0, 305.0, 305.0, 305.0, 305.0, 305.0, 305.0, 305.0, 304.0, 305.0, 305.0, 305.0, 305.0, 305.0, 305.0, 305.0, 305.0, 304.0, 305.0, 305.0, 304.0, 305.0, 305.0, 305.0, 304.0, 305.0, 304.0, 305.0, 305.0, 305.0, 305.0, 305.0, 305.0, 305.0, 305.0, 305.0, 304.0, 305.0, 305.0, 305.0, 305.0, 305.0, 304.0, 305.0, 305.0, 304.0, 304.0, 305.0, 305.0, 305.0, 305.0, 305.0, 304.0, 305.0, 305.0, 304.0, 304.0, 305.0, 305.0, 304.0, 304.0, 304.0, 304.0, 304.0, 305.0, 304.0, 304.0, 304.0, 304.0, 305.0, 304.0, 305.0, 304.0, 304.0, 304.0, 305.0, 305.0, 304.0, 304.0, 304.0, 304.0, 305.0, 304.0, 304.0, 304.0, 304.0, 304.0, 304.0, 304.0, 304.0, 304.0, 304.0, 304.0, 304.0, 305.0, 304.0, 304.0, 304.0, 304.0, 304.0, 304.0, 304.0, 304.0, 304.0, 304.0, 304.0, 304.0, 304.0, 304.0, 304.0, 304.0, 304.0, 304.0, 304.0, 304.0, 304.0, 304.0, 304.0, 304.0, 304.0, 304.0, 304.0, 304.0, 304.0, 304.0, 304.0, 304.0, 304.0, 304.0, 304.0, 304.0, 304.0, 304.0, 304.0, 304.0, 304.0, 304.0, 304.0],
      "WindowWidth": [660.0, 660.0, 660.0, 660.0, 660.0, 660.0, 660.0, 660.0, 660.0, 660.0, 660.0, 660.0, 660.0, 660.0, 660.0, 660.0, 660.0, 660.0, 660.0, 660.0, 660.0, 660.0, 660.0, 660.0, 660.0, 660.0, 660.0, 660.0, 660.0, 660.0, 660.0, 660.0, 660.0, 660.0, 660.0, 660.0, 660.0, 660.0, 660.0, 660.0, 660.0, 660.0, 660.0, 660.0, 660.0, 660.0, 660.0, 660.0, 660.0, 660.0, 660.0, 660.0, 660.0, 660.0, 660.0, 660.0, 660.0, 660.0, 660.0, 660.0, 660.0, 660.0, 660.0, 660.0, 660.0, 660.0, 660.0, 660.0, 660.0, 660.0, 659.0, 660.0, 660.0, 660.0, 660.0, 660.0, 660.0, 660.0, 660.0, 659.0, 660.0, 660.0, 659.0, 660.0, 660.0, 660.0, 659.0, 660.0, 659.0, 660.0, 660.0, 660.0, 660.0, 659.0, 660.0, 660.0, 660.0, 660.0, 659.0, 660.0, 660.0, 660.0, 660.0, 660.0, 659.0, 660.0, 660.0, 659.0, 659.0, 660.0, 660.0, 660.0, 660.0, 660.0, 659.0, 659.0, 660.0, 659.0, 659.0, 660.0, 660.0, 659.0, 659.0, 659.0, 658.0, 659.0, 660.0, 659.0, 659.0, 659.0, 659.0, 659.0, 659.0, 659.0, 659.0, 659.0, 659.0, 660.0, 660.0, 659.0, 659.0, 658.0, 658.0, 659.0, 659.0, 659.0, 659.0, 659.0, 659.0, 659.0, 659.0, 659.0, 659.0, 659.0, 659.0, 659.0, 659.0, 658.0, 658.0, 658.0, 659.0, 658.0, 659.0, 659.0, 659.0, 659.0, 658.0, 659.0, 659.0, 658.0, 658.0, 658.0, 659.0, 659.0, 658.0, 659.0, 659.0, 659.0, 659.0, 658.0, 659.0, 659.0, 659.0, 659.0, 659.0, 658.0, 659.0, 658.0, 659.0, 659.0, 658.0, 658.0, 659.0, 659.0, 658.0, 659.0, 659.0, 659.0, 658.0, 658.0]
    },
    "slices": {}
  }
}