{
  "AcquisitionMatrixPE": 80,
  "AcquisitionNumber": 1,
  "AcquisitionTime": "09:57:32.407500",
  "BandwidthPerPixelPhaseEncode": 25,
  "BaseResolution": 80,
  "BodyPartExamined": "BRAIN",
  "CoilCombinationMethod": "Sum of Squares",
  "ConsistencyInfo": "N4_VE11E_LATEST_20181129",
  "ConversionSoftware": "dcm2niix",
  "ConversionSoftwareVersion": "v1.0.20220720",
  "DerivedVendorReportedEchoSpacing": 0.0005,
  "DeviceSerialNumber": "66112",
  "DwellTime": 2.7e-06,
  "EchoTime": 0.03,
  "EchoTrainLength": 80,
  "EffectiveEchoSpacing": 0.0005,
  "FlipAngle": 77,
  "HeudiconvVersion": "0.13.1",
  "ImageOrientationPatientDICOM": [0.99365, 0.112476, 0.00303564, -0.10812, 0.947005, 0.302476],
  "ImageOrientationText": "Tra>Cor(17.5)>Sag(-1.8)",
  "ImageType": [
    "ORIGINAL",
    "PRIMARY",
    "M",
    "ND",
    "NORM",
    "MOSAIC"
],
  "ImagingFrequency": 123.259,
  "InPlanePhaseEncodingDirectionDICOM": "COL",
  "InstitutionAddress": "Maynard 3,Hanover,NH,US,03755",
  "InstitutionName": "Dartmouth College - PBS",
  "InstitutionalDepartmentName": "Department",
  "MRAcquisitionType": "2D",
  "MagneticFieldStrength": 3,
  "Manufacturer": "Siemens",
  "ManufacturersModelName": "Prisma",
  "MatrixCoilMode": "SENSE",
  "Modality": "MR",
  "NonlinearGradientCorrection": false,
  "PartialFourier": 1,
  "PatientPosition": "HFS",
  "PercentPhaseFOV": 100,
  "PercentSampling": 100,
  "PhaseEncodingDirection": "j-",
  "PhaseEncodingSteps": 80,
  "PhaseResolution": 1,
  "PixelBandwidth": 2315,
  "ProcedureStepDescription": "dbic^QA",
  "ProtocolName": "func-bold_fa-77",
  "PulseSequenceDetails": "%SiemensSeq%\\ep2d_bold",
  "ReceiveCoilActiveElements": "HEA;HEP",
  "ReceiveCoilName": "Head_32",
  "ReconMatrixPE": 80,
  "RepetitionTime": 2,
  "SAR": 0.0639068,
  "ScanOptions": "FS",
  "ScanningSequence": "EP",
  "SequenceName": "*epfid2d1_80",
  "SequenceVariant": "SK",
  "SeriesDescription": "func-bold_fa-77",
  "SeriesNumber": 7,
  "ShimSetting": [4224, -7738, -7481, -15, -135, -52, 17, 59],
  "SliceThickness": 3.5,
  "SliceTiming": [0.99, 0, 1.0575, 0.0675, 1.1225, 0.1325, 1.1875, 0.1975, 1.255, 0.265, 1.32, 0.33, 1.3875, 0.3975, 1.4525, 0.4625, 1.5175, 0.5275, 1.585, 0.595, 1.65, 0.66, 1.7175, 0.7275, 1.7825, 0.7925, 1.8475, 0.8575, 1.915, 0.925],
  "SoftwareVersions": "syngo MR E11",
  "SpacingBetweenSlices": 3.99,
  "StationName": "AWP66112",
  "TotalReadoutTime": 0.0395,
  "TxRefAmp": 227.55,
  "dcmmeta_affine": [
    [-2.9809494018554688, -0.324361115694046, -0.12427479773759842, 133.3297576904297],
    [-0.3374287486076355, 2.841014862060547, 1.2005237340927124, -112.85990905761719],
    [0.009106926620006561, -0.9074271321296692, 3.803077459335327, -12.022418022155762],
    [0.0, 0.0, 0.0, 1.0]
],
  "dcmmeta_reorient_transform": [
    [0.0, -1.0, 0.0, 79.0],
    [1.0, 0.0, 0.0, 0.0],
    [0.0, 0.0, 1.0, 0.0],
    [0.0, 0.0, 0.0, 1.0]
],
  "dcmmeta_shape": [80, 80, 30, 200],
  "dcmmeta_slice_dim": 2,
  "dcmmeta_version": 0.6,
  "global": {
    "const": {
      "AccessionNumber": "qa",
      "AcquisitionMatrix": [80, 0, 0, 80],
      "AngioFlag": "N",
      "BitsAllocated": 16,
      "BitsStored": 12,
      "BodyPartExamined": "BRAIN",
      "Columns": 480,
      "EchoNumbers": 1,
      "EchoTime": 30.0,
      "EchoTrainLength": 80,
      "FlipAngle": 77.0,
      "HighBit": 11,
      "ImageOrientationPatient": [0.99364977592937, 0.11247625381513, 0.00303564214526, -0.108120369255, 0.9470049817815, 0.30247570188891],
      "ImagePositionPatient": [-639.0228721912, -747.26901167852, -267.01596586134],
      "ImageType": [
        "ORIGINAL",
        "PRIMARY",
        "M",
        "ND",
        "NORM",
        "MOSAIC"
],
      "ImagedNucleus": "1H",
      "ImagingFrequency": 123.259243,
      "InPlanePhaseEncodingDirection": "COL",
      "MRAcquisitionType": "2D",
      "MagneticFieldStrength": 3.0,
      "Manufacturer": "SIEMENS",
      "ManufacturerModelName": "Prisma",
      "Modality": "MR",
      "NumberOfAverages": 1.0,
      "NumberOfPhaseEncodingSteps": 80,
      "PercentPhaseFieldOfView": 100.0,
      "PercentSampling": 100.0,
      "PerformedProcedureStepStartTime": "093534.317000",
      "PhotometricInterpretation": "MONOCHROME2",
      "PixelBandwidth": 2315.0,
      "PixelRepresentation": 0,
      "PixelSpacing": [3.0, 3.0],
      "ProtocolName": "func-bold_fa-77",
      "RepetitionTime": 2000.0,
      "Rows": 480,
      "SAR": 0.06390684836451,
      "SamplesPerPixel": 1,
      "ScanOptions": "FS",
      "ScanningSequence": "EP",
      "SequenceName": "*epfid2d1_80",
      "SequenceVariant": "SK",
      "SeriesDescription": "func-bold_fa-77",
      "SeriesNumber": 7,
      "SeriesTime": "095812.968000",
      "SliceLocation": -49.569601853975,
      "SliceThickness": 3.5,
      "SmallestImagePixelValue": 0,
      "SoftwareVersions": "syngo MR E11",
      "SpacingBetweenSlices": 3.9900000471039,
      "SpecificCharacterSet": "ISO_IR 100",
      "StudyID": "23",
      "StudyTime": "093534.248000",
      "TransmitCoilName": "Body",
      "VariableFlipAngleFlag": "N",
      "WindowCenterWidthExplanation": "Algo1"
    },
    "slices": {}
  },
  "time": {
    "samples": {
      "AcquisitionNumber": [1, 2, 3, 4, 5, 6, 7, 8, 9, 10, 11, 12, 13, 14, 15, 16, 17, 18, 19, 20, 21, 22, 23, 24, 25, 26, 27, 28, 29, 30, 31, 32, 33, 34, 35, 36, 37, 38, 39, 40, 41, 42, 43, 44, 45, 46, 47, 48, 49, 50, 51, 52, 53, 54, 55, 56, 57, 58, 59, 60, 61, 62, 63, 64, 65, 66, 67, 68, 69, 70, 71, 72, 73, 74, 75, 76, 77, 78, 79, 80, 81, 82, 83, 84, 85, 86, 87, 88, 89, 90, 91, 92, 93, 94, 95, 96, 97, 98, 99, 100, 101, 102, 103, 104, 105, 106, 107, 108, 109, 110, 111, 112, 113, 114, 115, 116, 117, 118, 119, 120, 121, 122, 123, 124, 125, 126, 127, 128, 129, 130, 131, 132, 133, 134, 135, 136, 137, 138, 139, 140, 141, 142, 143, 144, 145, 146, 147, 148, 149, 150, 151, 152, 153, 154, 155, 156, 157, 158, 159, 160, 161, 162, 163, 164, 165, 166, 167, 168, 169, 170, 171, 172, 173, 174, 175, 176, 177, 178, 179, 180, 181, 182, 183, 184, 185, 186, 187, 188, 189, 190, 191, 192, 193, 194, 195, 196, 197, 198, 199, 200],
      "AcquisitionTime": ["095732.407500", "095734.407500", "095736.407500", "095738.407500", "095740.407500", "095742.407500", "095744.407500", "095746.407500", "095748.407500", "095750.407500", "095752.407500", "095754.407500", "095756.407500", "095758.407500", "095800.407500", "095802.407500", "095804.407500", "095806.407500", "095808.407500", "095810.407500", "095812.407500", "095814.407500", "095816.407500", "095818.407500", "095820.407500", "095822.407500", "095824.407500", "095826.407500", "095828.407500", "095830.407500", "095832.407500", "095834.407500", "095836.407500", "095838.407500", "095840.407500", "095842.407500", "095844.407500", "095846.407500", "095848.407500", "095850.407500", "095852.407500", "095854.407500", "095856.407500", "095858.407500", "095900.407500", "095902.407500", "095904.407500", "095906.407500", "095908.407500", "095910.407500", "095912.407500", "095914.407500", "095916.407500", "095918.407500", "095920.407500", "095922.407500", "095924.407500", "095926.407500", "095928.407500", "095930.407500", "095932.407500", "095934.407500", "095936.407500", "095938.407500", "095940.407500", "095942.407500", "095944.407500", "095946.407500", "095948.407500", "095950.407500", "095952.407500", "095954.407500", "095956.407500", "095958.407500", "100000.407500", "100002.407500", "100004.407500", "100006.407500", "100008.407500", "100010.407500", "100012.407500", "100014.407500", "100016.407500", "100018.407500", "100020.407500", "100022.407500", "100024.407500", "100026.407500", "100028.407500", "100030.407500", "100032.407500", "100034.407500", "100036.407500", "100038.407500", "100040.407500", "100042.407500", "100044.407500", "100046.407500", "100048.407500", "100050.407500", "100052.407500", "100054.407500", "100056.407500", "100058.407500", "100100.407500", "100102.407500", "100104.407500", "100106.407500", "100108.407500", "100110.407500", "100112.407500", "100114.407500", "100116.407500", "100118.407500", "100120.407500", "100122.407500", "100124.407500", "100126.407500", "100128.407500", "100130.407500", "100132.407500", "100134.407500", "100136.407500", "100138.407500", "100140.407500", "100142.407500", "100144.407500", "100146.407500", "100148.407500", "100150.407500", "100152.407500", "100154.407500", "100156.407500", "100158.407500", "100200.407500", "100202.407500", "100204.407500", "100206.407500", "100208.407500", "100210.407500", "100212.407500", "100214.407500", "100216.407500", "100218.407500", "100220.407500", "100222.407500", "100224.407500", "100226.407500", "100228.407500", "100230.407500", "100232.407500", "100234.407500", "100236.407500", "100238.407500", "100240.407500", "100242.407500", "100244.407500", "100246.407500", "100248.407500", "100250.407500", "100252.407500", "100254.407500", "100256.407500", "100258.407500", "100300.407500", "100302.407500", "100304.407500", "100306.407500", "100308.407500", "100310.407500", "100312.407500", "100314.407500", "100316.407500", "100318.407500", "100320.407500", "100322.407500", "100324.407500", "100326.407500", "100328.407500", "100330.407500", "100332.407500", "100334.407500", "100336.407500", "100338.407500", "100340.407500", "100342.407500", "100344.407500", "100346.407500", "100348.407500", "100350.407500", "100352.407500", "100354.407500", "100356.407500", "100358.407500", "100400.407500", "100402.407500", "100404.407500", "100406.407500", "100408.407500", "100410.407500"],
      "ContentTime": ["095812.971000", "095812.974000", "095812.976000", "095812.986000", "095812.988000", "095812.991000", "095812.993000", "095812.995000", "095812.998000", "095813.001000", "095813.003000", "095813.005000", "095813.008000", "095813.010000", "095813.012000", "095813.015000", "095813.017000", "095813.019000", "095813.021000", "095813.024000", "095852.966000", "095852.969000", "095852.971000", "095852.973000", "095852.976000", "095852.978000", "095852.980000", "095852.982000", "095852.985000", "095852.987000", "095852.989000", "095852.992000", "095852.994000", "095852.996000", "095852.998000", "095853.002000", "095853.004000", "095853.006000", "095853.009000", "095853.011000", "095932.966000", "095932.969000", "095932.971000", "095932.974000", "095932.976000", "095932.978000", "095932.980000", "095932.983000", "095932.985000", "095932.987000", "095932.989000", "095932.992000", "095932.994000", "095932.996000", "095933.000000", "095933.002000", "095933.004000", "095933.006000", "095933.009000", "095933.020000", "100012.966000", "100012.969000", "100012.971000", "100012.973000", "100012.976000", "100012.978000", "100012.980000", "100012.982000", "100012.985000", "100012.987000", "100012.989000", "100012.992000", "100012.994000", "100012.996000", "100012.998000", "100013.002000", "100013.004000", "100013.006000", "100013.008000", "100013.011000", "100052.965000", "100052.968000", "100052.970000", "100052.972000", "100052.974000", "100052.985000", "100052.987000", "100052.989000", "100052.991000", "100052.994000", "100052.996000", "100052.998000", "100053.002000", "100053.004000", "100053.006000", "100053.008000", "100053.011000", "100053.013000", "100053.015000", "100053.017000", "100132.966000", "100132.969000", "100132.971000", "100132.974000", "100132.976000", "100132.978000", "100132.980000", "100132.983000", "100132.985000", "100132.987000", "100132.990000", "100132.992000", "100132.994000", "100132.996000", "100133.000000", "100133.002000", "100133.004000", "100133.007000", "100133.009000", "100133.011000", "100212.966000", "100212.969000", "100212.971000", "100212.973000", "100212.976000", "100212.978000", "100212.980000", "100212.982000", "100212.985000", "100212.987000", "100212.995000", "100212.998000", "100213.001000", "100213.003000", "100213.005000", "100213.008000", "100213.010000", "100213.012000", "100213.015000", "100213.017000", "100252.966000", "100252.969000", "100252.971000", "100252.973000", "100252.976000", "100252.978000", "100252.980000", "100252.982000", "100252.985000", "100252.987000", "100252.989000", "100252.991000", "100252.994000", "100252.996000", "100252.998000", "100253.002000", "100253.004000", "100253.006000", "100253.009000", "100253.011000", "100332.966000", "100332.969000", "100332.971000", "100332.973000", "100332.975000", "100332.978000", "100332.980000", "100332.982000", "100332.985000", "100332.997000", "100333.009000", "100333.011000", "100333.013000", "100333.016000", "100333.018000", "100333.020000", "100333.023000", "100333.025000", "100333.027000", "100333.030000", "100411.864000", "100411.867000", "100411.869000", "100411.871000", "100411.874000", "100411.876000", "100411.879000", "100411.881000", "100411.883000", "100411.885000", "100411.888000", "100411.890000", "100411.892000", "100411.897000", "100411.900000", "100411.902000", "100411.905000", "100411.910000", "100411.913000", "100411.917000"],
      "InstanceCreationTime": ["095812.971000", "095812.974000", "095812.976000", "095812.986000", "095812.988000", "095812.991000", "095812.993000", "095812.995000", "095812.998000", "095813.001000", "095813.003000", "095813.005000", "095813.008000", "095813.010000", "095813.012000", "095813.015000", "095813.017000", "095813.019000", "095813.021000", "095813.024000", "095852.966000", "095852.969000", "095852.971000", "095852.973000", "095852.976000", "095852.978000", "095852.980000", "095852.982000", "095852.985000", "095852.987000", "095852.989000", "095852.992000", "095852.994000", "095852.996000", "095852.998000", "095853.002000", "095853.004000", "095853.006000", "095853.009000", "095853.011000", "095932.966000", "095932.969000", "095932.971000", "095932.974000", "095932.976000", "095932.978000", "095932.980000", "095932.983000", "095932.985000", "095932.987000", "095932.989000", "095932.992000", "095932.994000", "095932.996000", "095933.000000", "095933.002000", "095933.004000", "095933.006000", "095933.009000", "095933.020000", "100012.966000", "100012.969000", "100012.971000", "100012.973000", "100012.976000", "100012.978000", "100012.980000", "100012.982000", "100012.985000", "100012.987000", "100012.989000", "100012.992000", "100012.994000", "100012.996000", "100012.998000", "100013.002000", "100013.004000", "100013.006000", "100013.008000", "100013.011000", "100052.965000", "100052.968000", "100052.970000", "100052.972000", "100052.974000", "100052.985000", "100052.987000", "100052.989000", "100052.991000", "100052.994000", "100052.996000", "100052.998000", "100053.002000", "100053.004000", "100053.006000", "100053.008000", "100053.011000", "100053.013000", "100053.015000", "100053.017000", "100132.966000", "100132.969000", "100132.971000", "100132.974000", "100132.976000", "100132.978000", "100132.980000", "100132.983000", "100132.985000", "100132.987000", "100132.990000", "100132.992000", "100132.994000", "100132.996000", "100133.000000", "100133.002000", "100133.004000", "100133.007000", "100133.009000", "100133.011000", "100212.966000", "100212.969000", "100212.971000", "100212.973000", "100212.976000", "100212.978000", "100212.980000", "100212.982000", "100212.985000", "100212.987000", "100212.995000", "100212.998000", "100213.001000", "100213.003000", "100213.005000", "100213.008000", "100213.010000", "100213.012000", "100213.015000", "100213.017000", "100252.966000", "100252.969000", "100252.971000", "100252.973000", "100252.976000", "100252.978000", "100252.980000", "100252.982000", "100252.985000", "100252.987000", "100252.989000", "100252.991000", "100252.994000", "100252.996000", "100252.998000", "100253.002000", "100253.004000", "100253.006000", "100253.009000", "100253.011000", "100332.966000", "100332.969000", "100332.971000", "100332.973000", "100332.975000", "100332.978000", "100332.980000", "100332.982000", "100332.985000", "100332.997000", "100333.009000", "100333.011000", "100333.013000", "100333.016000", "100333.018000", "100333.020000", "100333.023000", "100333.025000", "100333.027000", "100333.030000", "100411.864000", "100411.867000", "100411.869000", "100411.871000", "100411.874000", "100411.876000", "100411.879000", "100411.881000", "100411.883000", "100411.885000", "100411.888000", "100411.890000", "100411.892000", "100411.897000", "100411.900000", "100411.902000", "100411.905000", "100411.910000", "100411.913000", "100411.917000"],
      "InstanceNumber": [1, 2, 3, 4, 5, 6, 7, 8, 9, 10, 11, 12, 13, 14, 15, 16, 17, 18, 19, 20, 21, 22, 23, 24, 25, 26, 27, 28, 29, 30, 31, 32, 33, 34, 35, 36, 37, 38, 39, 40, 41, 42, 43, 44, 45, 46, 47, 48, 49, 50, 51, 52, 53, 54, 55, 56, 57, 58, 59, 60, 61, 62, 63, 64, 65, 66, 67, 68, 69, 70, 71, 72, 73, 74, 75, 76, 77, 78, 79, 80, 81, 82, 83, 84, 85, 86, 87, 88, 89, 90, 91, 92, 93, 94, 95, 96, 97, 98, 99, 100, 101, 102, 103, 104, 105, 106, 107, 108, 109, 110, 111, 112, 113, 114, 115, 116, 117, 118, 119, 120, 121, 122, 123, 124, 125, 126, 127, 128, 129, 130, 131, 132, 133, 134, 135, 136, 137, 138, 139, 140, 141, 142, 143, 144, 145, 146, 147, 148, 149, 150, 151, 152, 153, 154, 155, 156, 157, 158, 159, 160, 161, 162, 163, 164, 165, 166, 167, 168, 169, 170, 171, 172, 173, 174, 175, 176, 177, 178, 179, 180, 181, 182, 183, 184, 185, 186, 187, 188, 189, 190, 191, 192, 193, 194, 195, 196, 197, 198, 199, 200],
      "LargestImagePixelValue": [2182, 2183, 2183, 2183, 2182, 2183, 2182, 2183, 2183, 2181, 2183, 2184, 2186, 2183, 2184, 2181, 2185, 2183, 2184, 2185, 2183, 2184, 2184, 2182, 2184, 2184, 2183, 2184, 2182, 2184, 2183, 2185, 2183, 2183, 2183, 2183, 2187, 2186, 2186, 2184, 2183, 2185, 2184, 2183, 2184, 2186, 2184, 2186, 2183, 2185, 2182, 2183, 2180, 2185, 2182, 2185, 2183, 2185, 2185, 2183, 2185, 2184, 2182, 2181, 2183, 2187, 2187, 2185, 2188, 2183, 2184, 2184, 2183, 2184, 2184, 2185, 2185, 2182, 2185, 2181, 2185, 2182, 2185, 2183, 2184, 2185, 2184, 2185, 2185, 2185, 2185, 2183, 2187, 2184, 2183, 2185, 2184, 2185, 2184, 2183, 2186, 2184, 2183, 2184, 2184, 2184, 2184, 2186, 2186, 2185, 2183, 2185, 2185, 2185, 2184, 2184, 2185, 2184, 2185, 2184, 2184, 2184, 2183, 2186, 2185, 2184, 2185, 2184, 2185, 2184, 2186, 2184, 2185, 2184, 2183, 2184, 2185, 2186, 2182, 2184, 2183, 2187, 2185, 2184, 2183, 2186, 2183, 2186, 2186, 2184, 2185, 2184, 2183, 2184, 2183, 2184, 2185, 2184, 2183, 2184, 2184, 2184, 2183, 2186, 2185, 2184, 2184, 2185, 2182, 2185, 2184, 2182, 2185, 2185, 2183, 2184, 2185, 2185, 2184, 2185, 2184, 2183, 2184, 2184, 2184, 2184, 2185, 2185, 2184, 2183, 2186, 2184, 2184, 2185, 2185, 2184, 2185, 2184, 2184, 2183],
      "WindowCenter": [1024.0, 1024.0, 1024.0, 1024.0, 1024.0, 1024.0, 1024.0, 1024.0, 1024.0, 1024.0, 1024.0, 1024.0, 1023.0, 1024.0, 1023.0, 1023.0, 1024.0, 1023.0, 1024.0, 1024.0, 1023.0, 1023.0, 1023.0, 1023.0, 1023.0, 1023.0, 1023.0, 1023.0, 1023.0, 1023.0, 1023.0, 1023.0, 1023.0, 1024.0, 1023.0, 1023.0, 1023.0, 1023.0, 1023.0, 1023.0, 1023.0, 1023.0, 1023.0, 1025.0, 1023.0, 1023.0, 1024.0, 1024.0, 1023.0, 1024.0, 1024.0, 1024.0, 1023.0, 1023.0, 1023.0, 1023.0, 1023.0, 1023.0, 1023.0, 1023.0, 1023.0, 1023.0, 1023.0, 1024.0, 1023.0, 1023.0, 1023.0, 1024.0, 1023.0, 1023.0, 1023.0, 1023.0, 1023.0, 1024.0, 1023.0, 1023.0, 1023.0, 1023.0, 1023.0, 1023.0, 1024.0, 1023.0, 1023.0, 1023.0, 1023.0, 1024.0, 1023.0, 1022.0, 1023.0, 1023.0, 1022.0, 1022.0, 1022.0, 1022.0, 1022.0, 1022.0, 1022.0, 1022.0, 1022.0, 1023.0, 1023.0, 1022.0, 1022.0, 1022.0, 1022.0, 1022.0, 1022.0, 1022.0, 1022.0, 1022.0, 1022.0, 1022.0, 1022.0, 1022.0, 1022.0, 1022.0, 1022.0, 1022.0, 1022.0, 1022.0, 1022.0, 1022.0, 1022.0, 1022.0, 1022.0, 1022.0, 1022.0, 1023.0, 1022.0, 1023.0, 1023.0, 1023.0, 1022.0, 1022.0, 1022.0, 1022.0, 1022.0, 1022.0, 1023.0, 1022.0, 1022.0, 1022.0, 1023.0, 1022.0, 1022.0, 1022.0, 1022.0, 1022.0, 1023.0, 1022.0, 1022.0, 1022.0, 1023.0, 1022.0, 1022.0, 1022.0, 1023.0, 1023.0, 1022.0, 1022.0, 1023.0, 1022.0, 1022.0, 1022.0, 1022.0, 1022.0, 1022.0, 1022.0, 1022.0, 1023.0, 1022.0, 1022.0, 1022.0, 1022.0, 1022.0, 1022.0, 1022.0, 1022.0, 1022.0, 1022.0, 1022.0, 1022.0, 1022.0, 1022.0, 1022.0, 1022.0, 1022.0, 1022.0, 1022.0, 1022.0, 1022.0, 1021.0, 1021.0, 1022.0, 1022.0, 1021.0, 1022.0, 1022.0, 1022.0, 1022.0],
      "WindowWidth": [2289.0, 2289.0, 2289.0, 2289.0, 2289.0, 2290.0, 2290.0, 2289.0, 2289.0, 2290.0, 2290.0, 2290.0, 2289.0, 2289.0, 2289.0, 2288.0, 2289.0, 2289.0, 2289.0, 2289.0, 2289.0, 2289.0, 2289.0, 2289.0, 2289.0, 2289.0, 2289.0, 2289.0, 2289.0, 2289.0, 2289.0, 2289.0, 2288.0, 2289.0, 2289.0, 2288.0, 2288.0, 2288.0, 2288.0, 2288.0, 2288.0, 2288.0, 2288.0, 2290.0, 2288.0, 2288.0, 2289.0, 2289.0, 2288.0, 2288.0, 2289.0, 2289.0, 2288.0, 2288.0, 2288.0, 2288.0, 2288.0, 2288.0, 2288.0, 2288.0, 2288.0, 2287.0, 2287.0, 2288.0, 2287.0, 2288.0, 2288.0, 2289.0, 2287.0, 2287.0, 2288.0, 2287.0, 2287.0, 2288.0, 2287.0, 2288.0, 2287.0, 2287.0, 2287.0, 2288.0, 2288.0, 2288.0, 2288.0, 2288.0, 2287.0, 2288.0, 2287.0, 2287.0, 2287.0, 2288.0, 2287.0, 2287.0, 2287.0, 2287.0, 2287.0, 2287.0, 2287.0, 2287.0, 2287.0, 2287.0, 2288.0, 2287.0, 2287.0, 2286.0, 2287.0, 2287.0, 2286.0, 2286.0, 2287.0, 2286.0, 2287.0, 2286.0, 2286.0, 2286.0, 2286.0, 2286.0, 2286.0, 2286.0, 2287.0, 2286.0, 2286.0, 2287.0, 2286.0, 2287.0, 2286.0, 2286.0, 2286.0, 2287.0, 2286.0, 2287.0, 2287.0, 2287.0, 2286.0, 2286.0, 2286.0, 2286.0, 2286.0, 2286.0, 2287.0, 2286.0, 2286.0, 2286.0, 2287.0, 2286.0, 2286.0, 2286.0, 2286.0, 2286.0, 2287.0, 2286.0, 2286.0, 2286.0, 2287.0, 2286.0, 2286.0, 2286.0, 2286.0, 2287.0, 2286.0, 2286.0, 2286.0, 2286.0, 2286.0, 2286.0, 2286.0, 2286.0, 2286.0, 2286.0, 2286.0, 2286.0, 2286.0, 2286.0, 2286.0, 2286.0, 2286.0, 2286.0, 2286.0, 2286.0, 2285.0, 2286.0, 2286.0, 2286.0, 2286.0, 2286.0, 2286.0, 2286.0, 2286.0, 2286.0, 2285.0, 2286.0, 2286.0, 2285.0, 2285.0, 2285.0, 2285.0, 2285.0, 2286.0, 2286.0, 2285.0, 2286.0]
    },
    "slices": {}
  }
}