{
  "AcquisitionMatrixPE": 80,
  "AcquisitionNumber": 1,
  "AcquisitionTime": "09:50:43.072500",
  "BandwidthPerPixelPhaseEncode": 46.296,
  "BaseResolution": 80,
  "BodyPartExamined": "BRAIN",
  "CoilCombinationMethod": "Sum of Squares",
  "ConsistencyInfo": "N4_VE11E_LATEST_20181129",
  "ConversionSoftware": "dcm2niix",
  "ConversionSoftwareVersion": "v1.0.20220720",
  "DerivedVendorReportedEchoSpacing": 0.000540003,
  "DeviceSerialNumber": "66112",
  "DwellTime": 2.7e-06,
  "EchoTime": 0.035,
  "EchoTrainLength": 39,
  "EffectiveEchoSpacing": 0.000270002,
  "FlipAngle": 90,
  "HeudiconvVersion": "0.13.1",
  "ImageOrientationPatientDICOM": [0.99365, 0.112476, 0.00303564, -0.10812, 0.947005, 0.302476],
  "ImageOrientationText": "Tra>Cor(17.5)>Sag(-1.8)",
  "ImageType": [
    "ORIGINAL",
    "PRIMARY",
    "M",
    "ND",
    "NORM",
    "MOSAIC"
],
  "ImagingFrequency": 123.259,
  "InPlanePhaseEncodingDirectionDICOM": "COL",
  "InstitutionAddress": "Maynard 3,Hanover,NH,US,03755",
  "InstitutionName": "Dartmouth College - PBS",
  "InstitutionalDepartmentName": "Department",
  "MRAcquisitionType": "2D",
  "MagneticFieldStrength": 3,
  "Manufacturer": "Siemens",
  "ManufacturersModelName": "Prisma",
  "Modality": "MR",
  "MultibandAccelerationFactor": 4,
  "NonlinearGradientCorrection": false,
  "ParallelReductionFactorInPlane": 2,
  "PartialFourier": 1,
  "PatientPosition": "HFS",
  "PercentPhaseFOV": 100,
  "PercentSampling": 100,
  "PhaseEncodingDirection": "j-",
  "PhaseEncodingSteps": 79,
  "PhaseResolution": 1,
  "PixelBandwidth": 2315,
  "ProcedureStepDescription": "dbic^QA",
  "ProtocolName": "func-bold_task-rest_acq-p2-s4-3.5mm",
  "PulseSequenceDetails": "%SiemensSeq%\\ep2d_bold",
  "ReceiveCoilActiveElements": "HEA;HEP",
  "ReceiveCoilName": "Head_32",
  "ReconMatrixPE": 80,
  "RefLinesPE": 24,
  "RepetitionTime": 2,
  "SAR": 0.0305814,
  "ScanOptions": "FS",
  "ScanningSequence": "EP",
  "SequenceName": "*epfid2d1_80",
  "SequenceVariant": "SK",
  "SeriesDescription": "func-bold_task-rest_acq-p2-s4-3.5mm",
  "SeriesNumber": 6,
  "ShimSetting": [4224, -7740, -7480, -12, -132, -51, 18, 58],
  "SliceThickness": 3.5,
  "SliceTiming": [1.485, 0, 0.99, 0.2475, 1.2375, 0.7425, 1.7325, 0.495, 1.485, 0, 0.99, 0.2475, 1.2375, 0.7425, 1.7325, 0.495, 1.485, 0, 0.99, 0.2475, 1.2375, 0.7425, 1.7325, 0.495, 1.485, 0, 0.99, 0.2475, 1.2375, 0.7425, 1.7325, 0.495],
  "SoftwareVersions": "syngo MR E11",
  "SpacingBetweenSlices": 3.99,
  "StationName": "AWP66112",
  "TaskName": "rest",
  "TotalReadoutTime": 0.0213301,
  "TxRefAmp": 227.55,
  "dcmmeta_affine": [
    [-2.9809494018554688, -0.324361115694046, -0.12427479773759842, 133.1770477294922],
    [-0.3374287486076355, 2.841014862060547, 1.2005237340927124, -111.63565063476562],
    [0.009106926620006561, -0.9074271321296692, 3.803077459335327, -16.604049682617188],
    [0.0, 0.0, 0.0, 1.0]
],
  "dcmmeta_reorient_transform": [
    [0.0, -1.0, 0.0, 79.0],
    [1.0, 0.0, 0.0, 0.0],
    [0.0, 0.0, 1.0, 0.0],
    [0.0, 0.0, 0.0, 1.0]
],
  "dcmmeta_shape": [80, 80, 32, 200],
  "dcmmeta_slice_dim": 2,
  "dcmmeta_version": 0.6,
  "global": {
    "const": {
      "AccessionNumber": "qa",
      "AcquisitionMatrix": [80, 0, 0, 80],
      "AngioFlag": "N",
      "BitsAllocated": 16,
      "BitsStored": 12,
      "BodyPartExamined": "BRAIN",
      "Columns": 480,
      "EchoNumbers": 1,
      "EchoTime": 35.0,
      "EchoTrainLength": 39,
      "FlipAngle": 90.0,
      "HighBit": 11,
      "ImageOrientationPatient": [0.99364977592937, 0.11247625381513, 0.00303564214526, -0.108120369255, 0.9470049817815, 0.30247570188891],
      "ImagePositionPatient": [-638.87016997887, -748.49327200872, -271.59759656813],
      "ImageType": [
        "ORIGINAL",
        "PRIMARY",
        "M",
        "ND",
        "NORM",
        "MOSAIC"
],
      "ImagedNucleus": "1H",
      "ImagingFrequency": 123.259245,
      "InPlanePhaseEncodingDirection": "COL",
      "MRAcquisitionType": "2D",
      "MagneticFieldStrength": 3.0,
      "Manufacturer": "SIEMENS",
      "ManufacturerModelName": "Prisma",
      "Modality": "MR",
      "NumberOfAverages": 1.0,
      "NumberOfPhaseEncodingSteps": 79,
      "PercentPhaseFieldOfView": 100.0,
      "PercentSampling": 100.0,
      "PerformedProcedureStepStartTime": "093534.317000",
      "PhotometricInterpretation": "MONOCHROME2",
      "PixelBandwidth": 2315.0,
      "PixelRepresentation": 0,
      "PixelSpacing": [3.0, 3.0],
      "ProtocolName": "func-bold_task-rest_acq-p2-s4-3.5mm",
      "RepetitionTime": 2000.0,
      "Rows": 480,
      "SAR": 0.03058139301281,
      "SamplesPerPixel": 1,
      "ScanOptions": "FS",
      "ScanningSequence": "EP",
      "SequenceName": "*epfid2d1_80",
      "SequenceVariant": "SK",
      "SeriesDescription": "func-bold_task-rest_acq-p2-s4-3.5mm",
      "SeriesNumber": 6,
      "SeriesTime": "095113.154000",
      "SliceLocation": -53.56347809871,
      "SliceThickness": 3.5,
      "SmallestImagePixelValue": 0,
      "SoftwareVersions": "syngo MR E11",
      "SpacingBetweenSlices": 3.9900000487225,
      "SpecificCharacterSet": "ISO_IR 100",
      "StudyID": "23",
      "StudyTime": "093534.248000",
      "TransmitCoilName": "Body",
      "VariableFlipAngleFlag": "N",
      "WindowCenterWidthExplanation": "Algo1"
    },
    "slices": {}
  },
  "time": {
    "samples": {
      "AcquisitionNumber": [1, 2, 3, 4, 5, 6, 7, 8, 9, 10, 11, 12, 13, 14, 15, 16, 17, 18, 19, 20, 21, 22, 23, 24, 25, 26, 27, 28, 29, 30, 31, 32, 33, 34, 35, 36, 37, 38, 39, 40, 41, 42, 43, 44, 45, 46, 47, 48, 49, 50, 51, 52, 53, 54, 55, 56, 57, 58, 59, 60, 61, 62, 63, 64, 65, 66, 67, 68, 69, 70, 71, 72, 73, 74, 75, 76, 77, 78, 79, 80, 81, 82, 83, 84, 85, 86, 87, 88, 89, 90, 91, 92, 93, 94, 95, 96, 97, 98, 99, 100, 101, 102, 103, 104, 105, 106, 107, 108, 109, 110, 111, 112, 113, 114, 115, 116, 117, 118, 119, 120, 121, 122, 123, 124, 125, 126, 127, 128, 129, 130, 131, 132, 133, 134, 135, 136, 137, 138, 139, 140, 141, 142, 143, 144, 145, 146, 147, 148, 149, 150, 151, 152, 153, 154, 155, 156, 157, 158, 159, 160, 161, 162, 163, 164, 165, 166, 167, 168, 169, 170, 171, 172, 173, 174, 175, 176, 177, 178, 179, 180, 181, 182, 183, 184, 185, 186, 187, 188, 189, 190, 191, 192, 193, 194, 195, 196, 197, 198, 199, 200],
      "AcquisitionTime": ["095043.072500", "095045.072500", "095047.072500", "095049.072500", "095051.072500", "095053.072500", "095055.072500", "095057.072500", "095059.072500", "095101.072500", "095103.072500", "095105.072500", "095107.072500", "095109.072500", "095111.072500", "095113.072500", "095115.072500", "095117.072500", "095119.072500", "095121.072500", "095123.072500", "095125.072500", "095127.072500", "095129.072500", "095131.072500", "095133.072500", "095135.072500", "095137.072500", "095139.072500", "095141.072500", "095143.072500", "095145.072500", "095147.072500", "095149.072500", "095151.072500", "095153.072500", "095155.072500", "095157.072500", "095159.072500", "095201.072500", "095203.072500", "095205.072500", "095207.072500", "095209.072500", "095211.072500", "095213.072500", "095215.072500", "095217.072500", "095219.072500", "095221.072500", "095223.072500", "095225.072500", "095227.072500", "095229.072500", "095231.072500", "095233.072500", "095235.072500", "095237.072500", "095239.072500", "095241.072500", "095243.072500", "095245.072500", "095247.072500", "095249.072500", "095251.072500", "095253.072500", "095255.072500", "095257.072500", "095259.072500", "095301.072500", "095303.072500", "095305.072500", "095307.072500", "095309.072500", "095311.072500", "095313.072500", "095315.072500", "095317.072500", "095319.072500", "095321.072500", "095323.072500", "095325.072500", "095327.072500", "095329.072500", "095331.072500", "095333.072500", "095335.072500", "095337.072500", "095339.072500", "095341.072500", "095343.072500", "095345.072500", "095347.072500", "095349.072500", "095351.072500", "095353.072500", "095355.072500", "095357.072500", "095359.072500", "095401.072500", "095403.072500", "095405.072500", "095407.072500", "095409.072500", "095411.072500", "095413.072500", "095415.072500", "095417.072500", "095419.072500", "095421.072500", "095423.072500", "095425.072500", "095427.072500", "095429.072500", "095431.072500", "095433.072500", "095435.072500", "095437.072500", "095439.072500", "095441.072500", "095443.072500", "095445.072500", "095447.072500", "095449.072500", "095451.072500", "095453.072500", "095455.072500", "095457.072500", "095459.072500", "095501.072500", "095503.072500", "095505.072500", "095507.072500", "095509.072500", "095511.072500", "095513.072500", "095515.072500", "095517.072500", "095519.072500", "095521.072500", "095523.072500", "095525.072500", "095527.072500", "095529.072500", "095531.072500", "095533.072500", "095535.072500", "095537.072500", "095539.072500", "095541.072500", "095543.072500", "095545.072500", "095547.072500", "095549.072500", "095551.072500", "095553.072500", "095555.072500", "095557.072500", "095559.072500", "095601.072500", "095603.072500", "095605.072500", "095607.072500", "095609.072500", "095611.072500", "095613.072500", "095615.072500", "095617.072500", "095619.072500", "095621.072500", "095623.072500", "095625.072500", "095627.072500", "095629.072500", "095631.072500", "095633.072500", "095635.072500", "095637.072500", "095639.072500", "095641.072500", "095643.072500", "095645.072500", "095647.072500", "095649.072500", "095651.072500", "095653.072500", "095655.072500", "095657.072500", "095659.072500", "095701.072500", "095703.072500", "095705.072500", "095707.072500", "095709.072500", "095711.072500", "095713.072500", "095715.072500", "095717.072500", "095719.072500", "095721.072500"],
      "ContentTime": ["095113.157000", "095113.160000", "095113.162000", "095113.165000", "095113.167000", "095113.169000", "095113.172000", "095113.174000", "095113.181000", "095113.183000", "095113.185000", "095113.188000", "095113.190000", "095113.192000", "095113.195000", "095153.152000", "095153.155000", "095153.157000", "095153.160000", "095153.162000", "095153.164000", "095153.166000", "095153.169000", "095153.171000", "095153.178000", "095153.180000", "095153.183000", "095153.185000", "095153.187000", "095153.190000", "095153.192000", "095153.194000", "095153.197000", "095153.199000", "095153.201000", "095233.152000", "095233.155000", "095233.157000", "095233.159000", "095233.162000", "095233.164000", "095233.166000", "095233.169000", "095233.171000", "095233.173000", "095233.182000", "095233.184000", "095233.186000", "095233.189000", "095233.191000", "095233.193000", "095233.196000", "095233.198000", "095233.200000", "095233.203000", "095313.152000", "095313.155000", "095313.157000", "095313.159000", "095313.162000", "095313.164000", "095313.166000", "095313.169000", "095313.171000", "095313.173000", "095313.176000", "095313.178000", "095313.180000", "095313.183000", "095313.185000", "095313.187000", "095313.190000", "095313.192000", "095313.194000", "095313.196000", "095353.151000", "095353.153000", "095353.156000", "095353.158000", "095353.161000", "095353.163000", "095353.165000", "095353.168000", "095353.170000", "095353.172000", "095353.175000", "095353.181000", "095353.184000", "095353.186000", "095353.188000", "095353.191000", "095353.193000", "095353.195000", "095353.197000", "095353.200000", "095433.152000", "095433.155000", "095433.157000", "095433.159000", "095433.162000", "095433.164000", "095433.166000", "095433.168000", "095433.171000", "095433.173000", "095433.182000", "095433.185000", "095433.187000", "095433.189000", "095433.192000", "095433.194000", "095433.196000", "095433.199000", "095433.201000", "095433.203000", "095513.152000", "095513.155000", "095513.157000", "095513.160000", "095513.162000", "095513.164000", "095513.167000", "095513.169000", "095513.171000", "095513.174000", "095513.176000", "095513.178000", "095513.181000", "095513.183000", "095513.185000", "095513.188000", "095513.190000", "095513.192000", "095513.195000", "095513.197000", "095553.152000", "095553.155000", "095553.157000", "095553.159000", "095553.162000", "095553.164000", "095553.166000", "095553.169000", "095553.171000", "095553.173000", "095553.175000", "095553.178000", "095553.180000", "095553.195000", "095553.197000", "095553.200000", "095553.202000", "095553.204000", "095553.207000", "095553.209000", "095633.152000", "095633.155000", "095633.157000", "095633.159000", "095633.162000", "095633.173000", "095633.175000", "095633.177000", "095633.180000", "095633.182000", "095633.184000", "095633.186000", "095633.189000", "095633.191000", "095633.193000", "095633.196000", "095633.198000", "095633.200000", "095633.203000", "095633.205000", "095713.152000", "095713.155000", "095713.157000", "095713.159000", "095713.162000", "095713.164000", "095713.166000", "095713.168000", "095713.171000", "095713.173000", "095713.175000", "095713.178000", "095713.180000", "095713.182000", "095713.185000", "095713.187000", "095713.190000", "095713.192000", "095713.194000", "095713.196000", "095721.872000", "095721.874000", "095721.877000", "095721.879000", "095721.881000"],
      "InstanceCreationTime": ["095113.157000", "095113.160000", "095113.162000", "095113.165000", "095113.167000", "095113.169000", "095113.172000", "095113.174000", "095113.181000", "095113.183000", "095113.185000", "095113.188000", "095113.190000", "095113.192000", "095113.195000", "095153.152000", "095153.155000", "095153.157000", "095153.160000", "095153.162000", "095153.164000", "095153.166000", "095153.169000", "095153.171000", "095153.178000", "095153.180000", "095153.183000", "095153.185000", "095153.187000", "095153.190000", "095153.192000", "095153.194000", "095153.197000", "095153.199000", "095153.201000", "095233.152000", "095233.155000", "095233.157000", "095233.159000", "095233.162000", "095233.164000", "095233.166000", "095233.169000", "095233.171000", "095233.173000", "095233.182000", "095233.184000", "095233.186000", "095233.189000", "095233.191000", "095233.193000", "095233.196000", "095233.198000", "095233.200000", "095233.203000", "095313.152000", "095313.155000", "095313.157000", "095313.159000", "095313.162000", "095313.164000", "095313.166000", "095313.169000", "095313.171000", "095313.173000", "095313.176000", "095313.178000", "095313.180000", "095313.183000", "095313.185000", "095313.187000", "095313.190000", "095313.192000", "095313.194000", "095313.196000", "095353.151000", "095353.153000", "095353.156000", "095353.158000", "095353.161000", "095353.163000", "095353.165000", "095353.168000", "095353.170000", "095353.172000", "095353.175000", "095353.181000", "095353.184000", "095353.186000", "095353.188000", "095353.191000", "095353.193000", "095353.195000", "095353.197000", "095353.200000", "095433.152000", "095433.155000", "095433.157000", "095433.159000", "095433.162000", "095433.164000", "095433.166000", "095433.168000", "095433.171000", "095433.173000", "095433.182000", "095433.185000", "095433.187000", "095433.189000", "095433.192000", "095433.194000", "095433.196000", "095433.199000", "095433.201000", "095433.203000", "095513.152000", "095513.155000", "095513.157000", "095513.160000", "095513.162000", "095513.164000", "095513.167000", "095513.169000", "095513.171000", "095513.174000", "095513.176000", "095513.178000", "095513.181000", "095513.183000", "095513.185000", "095513.188000", "095513.190000", "095513.192000", "095513.195000", "095513.197000", "095553.152000", "095553.155000", "095553.157000", "095553.159000", "095553.162000", "095553.164000", "095553.166000", "095553.169000", "095553.171000", "095553.173000", "095553.175000", "095553.178000", "095553.180000", "095553.195000", "095553.197000", "095553.200000", "095553.202000", "095553.204000", "095553.207000", "095553.209000", "095633.152000", "095633.155000", "095633.157000", "095633.159000", "095633.162000", "095633.173000", "095633.175000", "095633.177000", "095633.180000", "095633.182000", "095633.184000", "095633.186000", "095633.189000", "095633.191000", "095633.193000", "095633.196000", "095633.198000", "095633.200000", "095633.203000", "095633.205000", "095713.152000", "095713.155000", "095713.157000", "095713.159000", "095713.162000", "095713.164000", "095713.166000", "095713.168000", "095713.171000", "095713.173000", "095713.175000", "095713.178000", "095713.180000", "095713.182000", "095713.185000", "095713.187000", "095713.190000", "095713.192000", "095713.194000", "095713.196000", "095721.872000", "095721.874000", "095721.877000", "095721.879000", "095721.881000"],
      "InstanceNumber": [1, 2, 3, 4, 5, 6, 7, 8, 9, 10, 11, 12, 13, 14, 15, 16, 17, 18, 19, 20, 21, 22, 23, 24, 25, 26, 27, 28, 29, 30, 31, 32, 33, 34, 35, 36, 37, 38, 39, 40, 41, 42, 43, 44, 45, 46, 47, 48, 49, 50, 51, 52, 53, 54, 55, 56, 57, 58, 59, 60, 61, 62, 63, 64, 65, 66, 67, 68, 69, 70, 71, 72, 73, 74, 75, 76, 77, 78, 79, 80, 81, 82, 83, 84, 85, 86, 87, 88, 89, 90, 91, 92, 93, 94, 95, 96, 97, 98, 99, 100, 101, 102, 103, 104, 105, 106, 107, 108, 109, 110, 111, 112, 113, 114, 115, 116, 117, 118, 119, 120, 121, 122, 123, 124, 125, 126, 127, 128, 129, 130, 131, 132, 133, 134, 135, 136, 137, 138, 139, 140, 141, 142, 143, 144, 145, 146, 147, 148, 149, 150, 151, 152, 153, 154, 155, 156, 157, 158, 159, 160, 161, 162, 163, 164, 165, 166, 167, 168, 169, 170, 171, 172, 173, 174, 175, 176, 177, 178, 179, 180, 181, 182, 183, 184, 185, 186, 187, 188, 189, 190, 191, 192, 193, 194, 195, 196, 197, 198, 199, 200],
      "LargestImagePixelValue": [2253, 2255, 2253, 2252, 2253, 2254, 2255, 2251, 2252, 2254, 2256, 2255, 2247, 2252, 2254, 2254, 2250, 2252, 2254, 2250, 2256, 2252, 2249, 2255, 2257, 2253, 2255, 2257, 2253, 2255, 2254, 2252, 2248, 2253, 2249, 2250, 2255, 2254, 2251, 2251, 2256, 2256, 2249, 2250, 2253, 2252, 2250, 2247, 2249, 2251, 2249, 2254, 2252, 2251, 2253, 2255, 2251, 2255, 2256, 2255, 2256, 2254, 2253, 2254, 2249, 2251, 2251, 2252, 2253, 2254, 2253, 2251, 2255, 2251, 2251, 2248, 2255, 2252, 2250, 2250, 2248, 2252, 2249, 2249, 2252, 2253, 2252, 2249, 2251, 2256, 2251, 2251, 2253, 2254, 2250, 2251, 2253, 2252, 2250, 2249, 2252, 2250, 2256, 2255, 2250, 2252, 2255, 2250, 2249, 2249, 2250, 2254, 2249, 2248, 2258, 2254, 2255, 2251, 2250, 2253, 2256, 2249, 2248, 2247, 2253, 2252, 2252, 2255, 2255, 2251, 2249, 2252, 2254, 2251, 2246, 2248, 2249, 2250, 2248, 2252, 2253, 2250, 2249, 2245, 2247, 2252, 2256, 2249, 2256, 2255, 2255, 2252, 2249, 2249, 2253, 2253, 2248, 2252, 2251, 2249, 2248, 2251, 2255, 2249, 2256, 2251, 2253, 2252, 2248, 2250, 2253, 2252, 2249, 2248, 2256, 2254, 2252, 2254, 2249, 2247, 2256, 2254, 2253, 2249, 2251, 2256, 2249, 2250, 2251, 2250, 2255, 2252, 2251, 2255, 2255, 2251, 2254, 2252, 2249, 2247],
      "WindowCenter": [969.0, 970.0, 970.0, 970.0, 969.0, 969.0, 968.0, 969.0, 968.0, 970.0, 971.0, 970.0, 968.0, 969.0, 970.0, 968.0, 970.0, 969.0, 970.0, 968.0, 970.0, 968.0, 969.0, 968.0, 969.0, 969.0, 969.0, 969.0, 971.0, 968.0, 970.0, 970.0, 968.0, 969.0, 969.0, 968.0, 970.0, 969.0, 969.0, 968.0, 967.0, 969.0, 970.0, 969.0, 969.0, 969.0, 969.0, 969.0, 970.0, 970.0, 970.0, 970.0, 968.0, 970.0, 969.0, 970.0, 970.0, 970.0, 970.0, 969.0, 970.0, 970.0, 969.0, 969.0, 969.0, 969.0, 969.0, 971.0, 968.0, 969.0, 970.0, 970.0, 969.0, 971.0, 969.0, 970.0, 970.0, 969.0, 970.0, 970.0, 970.0, 970.0, 969.0, 970.0, 970.0, 968.0, 968.0, 969.0, 970.0, 970.0, 970.0, 969.0, 970.0, 970.0, 969.0, 969.0, 969.0, 969.0, 969.0, 969.0, 969.0, 969.0, 969.0, 969.0, 970.0, 969.0, 968.0, 970.0, 970.0, 969.0, 970.0, 967.0, 969.0, 970.0, 969.0, 969.0, 968.0, 969.0, 968.0, 969.0, 970.0, 969.0, 969.0, 970.0, 970.0, 970.0, 967.0, 969.0, 968.0, 969.0, 970.0, 969.0, 969.0, 970.0, 970.0, 969.0, 967.0, 970.0, 969.0, 969.0, 970.0, 969.0, 970.0, 970.0, 970.0, 970.0, 968.0, 969.0, 969.0, 969.0, 969.0, 970.0, 971.0, 970.0, 969.0, 970.0, 968.0, 970.0, 970.0, 969.0, 968.0, 969.0, 971.0, 968.0, 969.0, 970.0, 970.0, 970.0, 968.0, 971.0, 969.0, 969.0, 970.0, 970.0, 968.0, 968.0, 970.0, 970.0, 969.0, 969.0, 969.0, 969.0, 970.0, 970.0, 969.0, 969.0, 970.0, 969.0, 969.0, 969.0, 969.0, 970.0, 970.0, 970.0, 971.0, 968.0, 970.0, 968.0, 970.0, 967.0],
      "WindowWidth": [2285.0, 2286.0, 2286.0, 2286.0, 2286.0, 2285.0, 2285.0, 2287.0, 2285.0, 2286.0, 2287.0, 2286.0, 2285.0, 2286.0, 2286.0, 2285.0, 2287.0, 2286.0, 2287.0, 2285.0, 2286.0, 2285.0, 2286.0, 2285.0, 2286.0, 2286.0, 2286.0, 2287.0, 2288.0, 2285.0, 2287.0, 2286.0, 2285.0, 2286.0, 2285.0, 2285.0, 2287.0, 2286.0, 2286.0, 2285.0, 2284.0, 2286.0, 2286.0, 2286.0, 2286.0, 2286.0, 2286.0, 2286.0, 2288.0, 2286.0, 2286.0, 2287.0, 2285.0, 2286.0, 2286.0, 2287.0, 2287.0, 2287.0, 2287.0, 2286.0, 2286.0, 2287.0, 2286.0, 2286.0, 2286.0, 2286.0, 2286.0, 2287.0, 2285.0, 2286.0, 2287.0, 2287.0, 2286.0, 2287.0, 2286.0, 2287.0, 2287.0, 2286.0, 2287.0, 2286.0, 2286.0, 2288.0, 2286.0, 2287.0, 2288.0, 2285.0, 2285.0, 2286.0, 2287.0, 2288.0, 2287.0, 2286.0, 2287.0, 2287.0, 2286.0, 2286.0, 2287.0, 2286.0, 2286.0, 2286.0, 2286.0, 2286.0, 2286.0, 2286.0, 2287.0, 2286.0, 2285.0, 2287.0, 2287.0, 2286.0, 2287.0, 2285.0, 2286.0, 2287.0, 2286.0, 2286.0, 2285.0, 2286.0, 2285.0, 2286.0, 2287.0, 2286.0, 2286.0, 2287.0, 2286.0, 2288.0, 2284.0, 2286.0, 2285.0, 2286.0, 2287.0, 2285.0, 2286.0, 2286.0, 2288.0, 2286.0, 2284.0, 2287.0, 2286.0, 2286.0, 2286.0, 2286.0, 2287.0, 2286.0, 2286.0, 2287.0, 2285.0, 2286.0, 2286.0, 2286.0, 2286.0, 2287.0, 2287.0, 2287.0, 2286.0, 2288.0, 2285.0, 2287.0, 2286.0, 2286.0, 2285.0, 2286.0, 2288.0, 2285.0, 2286.0, 2288.0, 2286.0, 2286.0, 2285.0, 2287.0, 2285.0, 2285.0, 2286.0, 2286.0, 2285.0, 2285.0, 2286.0, 2286.0, 2285.0, 2286.0, 2286.0, 2286.0, 2286.0, 2286.0, 2286.0, 2286.0, 2287.0, 2286.0, 2286.0, 2286.0, 2286.0, 2286.0, 2287.0, 2286.0, 2288.0, 2285.0, 2286.0, 2285.0, 2286.0, 2284.0]
    },
    "slices": {}
  }
}