{
  "AcquisitionMatrixPE": 80,
  "AcquisitionNumber": 1,
  "AcquisitionTime": "09:25:22.507500",
  "BandwidthPerPixelPhaseEncode": 25,
  "BaseResolution": 80,
  "BodyPartExamined": "BRAIN",
  "CoilCombinationMethod": "Sum of Squares",
  "ConsistencyInfo": "N4_VE11C_LATEST_20160120",
  "ConversionSoftware": "dcm2niix",
  "ConversionSoftwareVersion": "v1.0.20220720",
  "DerivedVendorReportedEchoSpacing": 0.0005,
  "DeviceSerialNumber": "66112",
  "DwellTime": 2.7e-06,
  "EchoTime": 0.03,
  "EchoTrainLength": 80,
  "EffectiveEchoSpacing": 0.0005,
  "FlipAngle": 77,
  "HeudiconvVersion": "0.13.1",
  "ImageOrientationPatientDICOM": [0.999949, 0.00956275, 0.00333519, -0.0101227, 0.954019, 0.299576],
  "ImageOrientationText": "Tra>Cor(17.4)>Sag(0.0)",
  "ImageType": [
    "ORIGINAL",
    "PRIMARY",
    "M",
    "ND",
    "NORM",
    "MOSAIC"
],
  "ImagingFrequency": 123.252,
  "InPlanePhaseEncodingDirectionDICOM": "COL",
  "InstitutionAddress": "Maynard 3,Hanover,NH,US,03755",
  "InstitutionName": "Dartmouth College - PBS",
  "InstitutionalDepartmentName": "Department",
  "MRAcquisitionType": "2D",
  "MagneticFieldStrength": 3,
  "Manufacturer": "Siemens",
  "ManufacturersModelName": "Prisma",
  "MatrixCoilMode": "SENSE",
  "Modality": "MR",
  "NonlinearGradientCorrection": false,
  "PartialFourier": 1,
  "PatientPosition": "HFS",
  "PercentPhaseFOV": 100,
  "PercentSampling": 100,
  "PhaseEncodingDirection": "j-",
  "PhaseEncodingSteps": 80,
  "PhaseResolution": 1,
  "PixelBandwidth": 2315,
  "ProcedureStepDescription": "dbic^QA",
  "ProtocolName": "func-bold_fa-77",
  "PulseSequenceDetails": "%SiemensSeq%\\ep2d_bold",
  "ReceiveCoilActiveElements": "HEA;HEP",
  "ReceiveCoilName": "Head_32",
  "ReconMatrixPE": 80,
  "RepetitionTime": 2,
  "SAR": 0.0373238,
  "ScanOptions": "FS",
  "ScanningSequence": "EP",
  "SequenceName": "*epfid2d1_80",
  "SequenceVariant": "SK",
  "SeriesDescription": "func-bold_fa-77",
  "SeriesNumber": 8,
  "ShimSetting": [4144, -7698, -7524, 262, -85, -106, 24, 60],
  "SliceThickness": 3.5,
  "SliceTiming": [0.99, 0, 1.055, 0.065, 1.1225, 0.1325, 1.1875, 0.1975, 1.255, 0.265, 1.32, 0.33, 1.385, 0.395, 1.4525, 0.4625, 1.5175, 0.5275, 1.585, 0.595, 1.65, 0.66, 1.715, 0.725, 1.7825, 0.7925, 1.8475, 0.8575, 1.915, 0.925],
  "SoftwareVersions": "syngo MR E11",
  "SpacingBetweenSlices": 3.99,
  "StationName": "AWP66112",
  "TotalReadoutTime": 0.0395,
  "TxRefAmp": 222.168,
  "dcmmeta_affine": [
    [-2.9998462200164795, -0.03036811761558056, 0.0012650646967813373, 121.02933502197266],
    [-0.028688253834843636, 2.862055778503418, 1.195383071899414, -114.67659759521484],
    [0.010005569085478783, -0.898729145526886, 3.806725263595581, -20.08562660217285],
    [0.0, 0.0, 0.0, 1.0]
],
  "dcmmeta_reorient_transform": [
    [0.0, -1.0, 0.0, 79.0],
    [1.0, 0.0, 0.0, 0.0],
    [0.0, 0.0, 1.0, 0.0],
    [0.0, 0.0, 0.0, 1.0]
],
  "dcmmeta_shape": [80, 80, 30, 200],
  "dcmmeta_slice_dim": 2,
  "dcmmeta_version": 0.6,
  "global": {
    "const": {
      "AccessionNumber": "qa",
      "AcquisitionMatrix": [80, 0, 0, 80],
      "AngioFlag": "N",
      "BitsAllocated": 16,
      "BitsStored": 12,
      "BodyPartExamined": "BRAIN",
      "Columns": 480,
      "EchoNumbers": 1,
      "EchoTime": 30.0,
      "EchoTrainLength": 80,
      "FlipAngle": 77.0,
      "HighBit": 11,
      "ImageOrientationPatient": [0.99994871383627, 0.00956275100624, 0.00333518970784, -0.0101227057102, 0.95401862033913, 0.29957637235826],
      "ImagePositionPatient": [-712.52585621712, -689.57463457936, -272.83216453134],
      "ImageType": [
        "ORIGINAL",
        "PRIMARY",
        "M",
        "ND",
        "NORM",
        "MOSAIC"
],
      "ImagedNucleus": "1H",
      "ImagingFrequency": 123.252321,
      "InPlanePhaseEncodingDirection": "COL",
      "MRAcquisitionType": "2D",
      "MagneticFieldStrength": 3.0,
      "Manufacturer": "SIEMENS",
      "ManufacturerModelName": "Prisma",
      "Modality": "MR",
      "NumberOfAverages": 1.0,
      "NumberOfPhaseEncodingSteps": 80,
      "PercentPhaseFieldOfView": 100.0,
      "PercentSampling": 100.0,
      "PerformedProcedureStepStartTime": "090719.249000",
      "PhotometricInterpretation": "MONOCHROME2",
      "PixelBandwidth": 2315.0,
      "PixelRepresentation": 0,
      "PixelSpacing": [3.0, 3.0],
      "ProtocolName": "func-bold_fa-77",
      "RepetitionTime": 2000.0,
      "Rows": 480,
      "SAR": 0.03732375100601,
      "SamplesPerPixel": 1,
      "ScanOptions": "FS",
      "ScanningSequence": "EP",
      "SequenceName": "*epfid2d1_80",
      "SequenceVariant": "SK",
      "SeriesDescription": "func-bold_fa-77",
      "SeriesNumber": 8,
      "SeriesTime": "092606.524000",
      "SliceLocation": -53.481160244282,
      "SliceThickness": 3.5,
      "SmallestImagePixelValue": 0,
      "SoftwareVersions": "syngo MR E11",
      "SpacingBetweenSlices": 3.9899999048298,
      "SpecificCharacterSet": "ISO_IR 100",
      "StudyID": "65",
      "StudyTime": "090719.198000",
      "TransmitCoilName": "Body",
      "VariableFlipAngleFlag": "N",
      "WindowCenterWidthExplanation": "Algo1",
      "dBdt": 0.0},
    "slices": {}
  },
  "time": {
    "samples": {
      "AcquisitionNumber": [1, 2, 3, 4, 5, 6, 7, 8, 9, 10, 11, 12, 13, 14, 15, 16, 17, 18, 19, 20, 21, 22, 23, 24, 25, 26, 27, 28, 29, 30, 31, 32, 33, 34, 35, 36, 37, 38, 39, 40, 41, 42, 43, 44, 45, 46, 47, 48, 49, 50, 51, 52, 53, 54, 55, 56, 57, 58, 59, 60, 61, 62, 63, 64, 65, 66, 67, 68, 69, 70, 71, 72, 73, 74, 75, 76, 77, 78, 79, 80, 81, 82, 83, 84, 85, 86, 87, 88, 89, 90, 91, 92, 93, 94, 95, 96, 97, 98, 99, 100, 101, 102, 103, 104, 105, 106, 107, 108, 109, 110, 111, 112, 113, 114, 115, 116, 117, 118, 119, 120, 121, 122, 123, 124, 125, 126, 127, 128, 129, 130, 131, 132, 133, 134, 135, 136, 137, 138, 139, 140, 141, 142, 143, 144, 145, 146, 147, 148, 149, 150, 151, 152, 153, 154, 155, 156, 157, 158, 159, 160, 161, 162, 163, 164, 165, 166, 167, 168, 169, 170, 171, 172, 173, 174, 175, 176, 177, 178, 179, 180, 181, 182, 183, 184, 185, 186, 187, 188, 189, 190, 191, 192, 193, 194, 195, 196, 197, 198, 199, 200],
      "AcquisitionTime": ["092522.507500", "092524.507500", "092526.507500", "092528.507500", "092530.507500", "092532.507500", "092534.507500", "092536.507500", "092538.507500", "092540.507500", "092542.507500", "092544.507500", "092546.507500", "092548.507500", "092550.507500", "092552.507500", "092554.507500", "092556.507500", "092558.507500", "092600.507500", "092602.507500", "092604.507500", "092606.507500", "092608.507500", "092610.507500", "092612.507500", "092614.507500", "092616.507500", "092618.507500", "092620.507500", "092622.507500", "092624.507500", "092626.507500", "092628.507500", "092630.507500", "092632.507500", "092634.507500", "092636.507500", "092638.507500", "092640.507500", "092642.507500", "092644.507500", "092646.507500", "092648.507500", "092650.507500", "092652.507500", "092654.507500", "092656.507500", "092658.507500", "092700.507500", "092702.507500", "092704.507500", "092706.507500", "092708.507500", "092710.507500", "092712.507500", "092714.507500", "092716.507500", "092718.507500", "092720.507500", "092722.507500", "092724.507500", "092726.507500", "092728.507500", "092730.507500", "092732.507500", "092734.507500", "092736.507500", "092738.507500", "092740.507500", "092742.507500", "092744.507500", "092746.507500", "092748.507500", "092750.507500", "092752.507500", "092754.507500", "092756.507500", "092758.507500", "092800.507500", "092802.507500", "092804.507500", "092806.507500", "092808.507500", "092810.507500", "092812.507500", "092814.507500", "092816.507500", "092818.507500", "092820.507500", "092822.507500", "092824.507500", "092826.507500", "092828.507500", "092830.507500", "092832.507500", "092834.507500", "092836.507500", "092838.507500", "092840.507500", "092842.507500", "092844.507500", "092846.507500", "092848.507500", "092850.507500", "092852.507500", "092854.507500", "092856.507500", "092858.507500", "092900.507500", "092902.507500", "092904.507500", "092906.507500", "092908.507500", "092910.507500", "092912.507500", "092914.507500", "092916.507500", "092918.507500", "092920.507500", "092922.507500", "092924.507500", "092926.507500", "092928.507500", "092930.507500", "092932.507500", "092934.507500", "092936.507500", "092938.507500", "092940.507500", "092942.507500", "092944.507500", "092946.507500", "092948.507500", "092950.507500", "092952.507500", "092954.507500", "092956.507500", "092958.507500", "093000.507500", "093002.507500", "093004.507500", "093006.507500", "093008.507500", "093010.507500", "093012.507500", "093014.507500", "093016.507500", "093018.507500", "093020.507500", "093022.507500", "093024.507500", "093026.507500", "093028.507500", "093030.507500", "093032.507500", "093034.507500", "093036.507500", "093038.507500", "093040.507500", "093042.507500", "093044.507500", "093046.507500", "093048.507500", "093050.507500", "093052.507500", "093054.507500", "093056.507500", "093058.507500", "093100.507500", "093102.507500", "093104.507500", "093106.507500", "093108.507500", "093110.507500", "093112.507500", "093114.507500", "093116.507500", "093118.507500", "093120.507500", "093122.507500", "093124.507500", "093126.507500", "093128.507500", "093130.507500", "093132.507500", "093134.507500", "093136.507500", "093138.507500", "093140.507500", "093142.507500", "093144.507500", "093146.507500", "093148.507500", "093150.507500", "093152.507500", "093154.507500", "093156.507500", "093158.507500", "093200.507500"],
      "ContentTime": ["092606.527000", "092606.531000", "092606.533000", "092606.536000", "092606.538000", "092606.540000", "092606.543000", "092606.545000", "092606.548000", "092606.550000", "092606.553000", "092606.555000", "092606.558000", "092606.560000", "092606.563000", "092606.565000", "092606.568000", "092606.570000", "092606.573000", "092606.575000", "092606.578000", "092606.580000", "092646.522000", "092646.525000", "092646.528000", "092646.530000", "092646.533000", "092646.535000", "092646.538000", "092646.540000", "092646.543000", "092646.545000", "092646.548000", "092646.550000", "092646.553000", "092646.555000", "092646.558000", "092646.560000", "092646.563000", "092646.565000", "092646.568000", "092646.570000", "092726.521000", "092726.524000", "092726.527000", "092726.530000", "092726.532000", "092726.535000", "092726.537000", "092726.540000", "092726.542000", "092726.545000", "092726.547000", "092726.550000", "092726.552000", "092726.555000", "092726.557000", "092726.560000", "092726.562000", "092726.565000", "092726.567000", "092726.570000", "092806.523000", "092806.525000", "092806.528000", "092806.530000", "092806.533000", "092806.535000", "092806.538000", "092806.540000", "092806.543000", "092806.545000", "092806.548000", "092806.550000", "092806.552000", "092806.555000", "092806.557000", "092806.560000", "092806.562000", "092806.565000", "092806.568000", "092806.570000", "092846.522000", "092846.525000", "092846.528000", "092846.530000", "092846.533000", "092846.535000", "092846.538000", "092846.540000", "092846.543000", "092846.545000", "092846.548000", "092846.550000", "092846.553000", "092846.555000", "092846.558000", "092846.560000", "092846.563000", "092846.565000", "092846.568000", "092846.570000", "092926.522000", "092926.525000", "092926.528000", "092926.530000", "092926.533000", "092926.535000", "092926.538000", "092926.541000", "092926.543000", "092926.546000", "092926.548000", "092926.551000", "092926.553000", "092926.556000", "092926.558000", "092926.561000", "092926.563000", "092926.566000", "092926.568000", "092926.571000", "093006.522000", "093006.525000", "093006.528000", "093006.531000", "093006.533000", "093006.536000", "093006.538000", "093006.541000", "093006.543000", "093006.546000", "093006.548000", "093006.551000", "093006.553000", "093006.556000", "093006.558000", "093006.561000", "093006.563000", "093006.566000", "093006.569000", "093006.571000", "093046.522000", "093046.525000", "093046.528000", "093046.530000", "093046.533000", "093046.535000", "093046.538000", "093046.540000", "093046.543000", "093046.545000", "093046.547000", "093046.550000", "093046.552000", "093046.555000", "093046.558000", "093046.560000", "093046.562000", "093046.565000", "093046.568000", "093046.570000", "093106.523000", "093106.525000", "093106.528000", "093106.530000", "093106.533000", "093106.535000", "093106.538000", "093106.540000", "093106.543000", "093106.545000", "093146.523000", "093146.526000", "093146.528000", "093146.531000", "093146.533000", "093146.536000", "093146.538000", "093146.541000", "093146.543000", "093146.546000", "093146.548000", "093146.551000", "093146.553000", "093146.556000", "093146.558000", "093146.561000", "093146.563000", "093146.566000", "093146.568000", "093146.571000", "093201.953000", "093201.956000", "093201.958000", "093201.961000", "093201.964000", "093201.966000", "093201.969000", "093201.971000"],
      "InstanceCreationTime": ["092606.527000", "092606.531000", "092606.533000", "092606.536000", "092606.538000", "092606.540000", "092606.543000", "092606.545000", "092606.548000", "092606.550000", "092606.553000", "092606.555000", "092606.558000", "092606.560000", "092606.563000", "092606.565000", "092606.568000", "092606.570000", "092606.573000", "092606.575000", "092606.578000", "092606.580000", "092646.522000", "092646.525000", "092646.528000", "092646.530000", "092646.533000", "092646.535000", "092646.538000", "092646.540000", "092646.543000", "092646.545000", "092646.548000", "092646.550000", "092646.553000", "092646.555000", "092646.558000", "092646.560000", "092646.563000", "092646.565000", "092646.568000", "092646.570000", "092726.521000", "092726.524000", "092726.527000", "092726.530000", "092726.532000", "092726.535000", "092726.537000", "092726.540000", "092726.542000", "092726.545000", "092726.547000", "092726.550000", "092726.552000", "092726.555000", "092726.557000", "092726.560000", "092726.562000", "092726.565000", "092726.567000", "092726.570000", "092806.523000", "092806.525000", "092806.528000", "092806.530000", "092806.533000", "092806.535000", "092806.538000", "092806.540000", "092806.543000", "092806.545000", "092806.548000", "092806.550000", "092806.552000", "092806.555000", "092806.557000", "092806.560000", "092806.562000", "092806.565000", "092806.568000", "092806.570000", "092846.522000", "092846.525000", "092846.528000", "092846.530000", "092846.533000", "092846.535000", "092846.538000", "092846.540000", "092846.543000", "092846.545000", "092846.548000", "092846.550000", "092846.553000", "092846.555000", "092846.558000", "092846.560000", "092846.563000", "092846.565000", "092846.568000", "092846.570000", "092926.522000", "092926.525000", "092926.528000", "092926.530000", "092926.533000", "092926.535000", "092926.538000", "092926.541000", "092926.543000", "092926.546000", "092926.548000", "092926.551000", "092926.553000", "092926.556000", "092926.558000", "092926.561000", "092926.563000", "092926.566000", "092926.568000", "092926.571000", "093006.522000", "093006.525000", "093006.528000", "093006.531000", "093006.533000", "093006.536000", "093006.538000", "093006.541000", "093006.543000", "093006.546000", "093006.548000", "093006.551000", "093006.553000", "093006.556000", "093006.558000", "093006.561000", "093006.563000", "093006.566000", "093006.569000", "093006.571000", "093046.522000", "093046.525000", "093046.528000", "093046.530000", "093046.533000", "093046.535000", "093046.538000", "093046.540000", "093046.543000", "093046.545000", "093046.547000", "093046.550000", "093046.552000", "093046.555000", "093046.558000", "093046.560000", "093046.562000", "093046.565000", "093046.568000", "093046.570000", "093106.523000", "093106.525000", "093106.528000", "093106.530000", "093106.533000", "093106.535000", "093106.538000", "093106.540000", "093106.543000", "093106.545000", "093146.523000", "093146.526000", "093146.528000", "093146.531000", "093146.533000", "093146.536000", "093146.538000", "093146.541000", "093146.543000", "093146.546000", "093146.548000", "093146.551000", "093146.553000", "093146.556000", "093146.558000", "093146.561000", "093146.563000", "093146.566000", "093146.568000", "093146.571000", "093201.953000", "093201.956000", "093201.958000", "093201.961000", "093201.964000", "093201.966000", "093201.969000", "093201.971000"],
      "InstanceNumber": [1, 2, 3, 4, 5, 6, 7, 8, 9, 10, 11, 12, 13, 14, 15, 16, 17, 18, 19, 20, 21, 22, 23, 24, 25, 26, 27, 28, 29, 30, 31, 32, 33, 34, 35, 36, 37, 38, 39, 40, 41, 42, 43, 44, 45, 46, 47, 48, 49, 50, 51, 52, 53, 54, 55, 56, 57, 58, 59, 60, 61, 62, 63, 64, 65, 66, 67, 68, 69, 70, 71, 72, 73, 74, 75, 76, 77, 78, 79, 80, 81, 82, 83, 84, 85, 86, 87, 88, 89, 90, 91, 92, 93, 94, 95, 96, 97, 98, 99, 100, 101, 102, 103, 104, 105, 106, 107, 108, 109, 110, 111, 112, 113, 114, 115, 116, 117, 118, 119, 120, 121, 122, 123, 124, 125, 126, 127, 128, 129, 130, 131, 132, 133, 134, 135, 136, 137, 138, 139, 140, 141, 142, 143, 144, 145, 146, 147, 148, 149, 150, 151, 152, 153, 154, 155, 156, 157, 158, 159, 160, 161, 162, 163, 164, 165, 166, 167, 168, 169, 170, 171, 172, 173, 174, 175, 176, 177, 178, 179, 180, 181, 182, 183, 184, 185, 186, 187, 188, 189, 190, 191, 192, 193, 194, 195, 196, 197, 198, 199, 200],
      "LargestImagePixelValue": [2038, 2039, 2037, 2036, 2035, 2032, 2034, 2036, 2039, 2036, 2037, 2035, 2034, 2036, 2036, 2035, 2037, 2036, 2036, 2047, 2055, 2057, 2060, 2060, 2058, 2055, 2048, 2048, 2053, 2049, 2052, 2051, 2052, 2054, 2055, 2051, 2045, 2043, 2036, 2033, 2033, 2035, 2037, 2036, 2035, 2036, 2030, 2030, 2032, 2034, 2040, 2048, 2051, 2055, 2057, 2054, 2044, 2037, 2029, 2027, 2028, 2028, 2032, 2036, 2042, 2051, 2056, 2053, 2044, 2044, 2045, 2045, 2052, 2051, 2046, 2038, 2037, 2034, 2038, 2043, 2042, 2043, 2046, 2041, 2036, 2029, 2028, 2027, 2031, 2038, 2042, 2046, 2051, 2051, 2046, 2043, 2035, 2034, 2035, 2038, 2045, 2043, 2042, 2041, 2037, 2038, 2037, 2037, 2037, 2036, 2035, 2039, 2046, 2043, 2043, 2042, 2043, 2035, 2032, 2037, 2041, 2044, 2043, 2046, 2042, 2043, 2037, 2036, 2033, 2033, 2033, 2036, 2039, 2043, 2038, 2032, 2041, 2042, 2042, 2040, 2036, 2037, 2034, 2032, 2033, 2039, 2042, 2043, 2043, 2034, 2035, 2038, 2044, 2045, 2045, 2045, 2044, 2036, 2037, 2041, 2039, 2037, 2038, 2037, 2040, 2036, 2042, 2039, 2040, 2043, 2042, 2044, 2042, 2041, 2041, 2043, 2042, 2044, 2036, 2030, 2025, 2028, 2035, 2043, 2047, 2046, 2042, 2039, 2033, 2030, 2029, 2030, 2035, 2035, 2039, 2041, 2034, 2035, 2036, 2032],
      "WindowCenter": [996.0, 996.0, 996.0, 995.0, 996.0, 996.0, 996.0, 997.0, 995.0, 995.0, 995.0, 997.0, 995.0, 996.0, 994.0, 995.0, 994.0, 996.0, 995.0, 996.0, 996.0, 995.0, 995.0, 996.0, 996.0, 995.0, 995.0, 996.0, 995.0, 996.0, 996.0, 996.0, 996.0, 994.0, 995.0, 995.0, 995.0, 994.0, 994.0, 996.0, 996.0, 996.0, 995.0, 995.0, 996.0, 996.0, 996.0, 995.0, 995.0, 996.0, 996.0, 996.0, 995.0, 996.0, 996.0, 996.0, 995.0, 996.0, 994.0, 996.0, 994.0, 996.0, 994.0, 996.0, 996.0, 996.0, 995.0, 996.0, 996.0, 995.0, 997.0, 996.0, 996.0, 996.0, 996.0, 994.0, 996.0, 996.0, 996.0, 996.0, 996.0, 996.0, 995.0, 995.0, 994.0, 996.0, 995.0, 995.0, 996.0, 996.0, 996.0, 995.0, 997.0, 996.0, 994.0, 996.0, 996.0, 995.0, 996.0, 995.0, 994.0, 995.0, 994.0, 996.0, 996.0, 997.0, 996.0, 996.0, 994.0, 993.0, 996.0, 995.0, 996.0, 997.0, 997.0, 995.0, 997.0, 994.0, 996.0, 996.0, 996.0, 995.0, 996.0, 995.0, 996.0, 996.0, 996.0, 995.0, 995.0, 996.0, 994.0, 997.0, 994.0, 995.0, 996.0, 996.0, 996.0, 995.0, 996.0, 996.0, 995.0, 996.0, 995.0, 996.0, 995.0, 995.0, 995.0, 995.0, 996.0, 996.0, 994.0, 996.0, 995.0, 995.0, 996.0, 996.0, 996.0, 995.0, 995.0, 995.0, 995.0, 994.0, 996.0, 996.0, 993.0, 996.0, 995.0, 995.0, 995.0, 995.0, 995.0, 996.0, 995.0, 995.0, 995.0, 995.0, 995.0, 995.0, 996.0, 993.0, 996.0, 996.0, 994.0, 994.0, 994.0, 995.0, 996.0, 994.0, 996.0, 995.0, 993.0, 994.0, 994.0, 996.0, 995.0, 995.0, 994.0, 995.0, 994.0, 994.0],
      "WindowWidth": [2198.0, 2198.0, 2198.0, 2196.0, 2198.0, 2198.0, 2198.0, 2198.0, 2197.0, 2197.0, 2197.0, 2198.0, 2197.0, 2197.0, 2196.0, 2197.0, 2196.0, 2197.0, 2197.0, 2197.0, 2197.0, 2197.0, 2198.0, 2198.0, 2198.0, 2198.0, 2198.0, 2198.0, 2198.0, 2198.0, 2198.0, 2198.0, 2198.0, 2197.0, 2196.0, 2197.0, 2197.0, 2196.0, 2196.0, 2197.0, 2197.0, 2197.0, 2197.0, 2198.0, 2198.0, 2198.0, 2198.0, 2197.0, 2197.0, 2198.0, 2197.0, 2197.0, 2196.0, 2197.0, 2197.0, 2197.0, 2196.0, 2197.0, 2196.0, 2198.0, 2195.0, 2198.0, 2196.0, 2198.0, 2198.0, 2198.0, 2197.0, 2198.0, 2198.0, 2197.0, 2198.0, 2197.0, 2197.0, 2197.0, 2197.0, 2196.0, 2197.0, 2197.0, 2197.0, 2197.0, 2197.0, 2197.0, 2197.0, 2197.0, 2196.0, 2197.0, 2197.0, 2197.0, 2197.0, 2197.0, 2197.0, 2197.0, 2198.0, 2197.0, 2196.0, 2197.0, 2197.0, 2197.0, 2197.0, 2197.0, 2196.0, 2197.0, 2195.0, 2197.0, 2197.0, 2198.0, 2197.0, 2197.0, 2196.0, 2195.0, 2197.0, 2196.0, 2197.0, 2198.0, 2198.0, 2196.0, 2197.0, 2195.0, 2197.0, 2197.0, 2197.0, 2196.0, 2197.0, 2196.0, 2197.0, 2197.0, 2197.0, 2196.0, 2196.0, 2197.0, 2195.0, 2197.0, 2195.0, 2196.0, 2197.0, 2197.0, 2197.0, 2196.0, 2196.0, 2196.0, 2196.0, 2196.0, 2196.0, 2196.0, 2196.0, 2196.0, 2196.0, 2196.0, 2196.0, 2196.0, 2195.0, 2196.0, 2196.0, 2196.0, 2196.0, 2196.0, 2196.0, 2196.0, 2196.0, 2196.0, 2196.0, 2195.0, 2196.0, 2196.0, 2194.0, 2197.0, 2196.0, 2195.0, 2196.0, 2196.0, 2196.0, 2197.0, 2195.0, 2196.0, 2195.0, 2195.0, 2196.0, 2196.0, 2196.0, 2194.0, 2197.0, 2197.0, 2195.0, 2195.0, 2195.0, 2196.0, 2197.0, 2195.0, 2196.0, 2195.0, 2194.0, 2194.0, 2194.0, 2196.0, 2195.0, 2195.0, 2195.0, 2196.0, 2195.0, 2195.0]
    },
    "slices": {}
  }
}