{
  "AcquisitionMatrixPE": 80,
  "AcquisitionNumber": 1,
  "AcquisitionTime": "09:11:37.765000",
  "BandwidthPerPixelPhaseEncode": 48.077,
  "BaseResolution": 80,
  "BodyPartExamined": "BRAIN",
  "CoilCombinationMethod": "Sum of Squares",
  "ConsistencyInfo": "N4_VE11C_LATEST_20160120",
  "ConversionSoftware": "dcm2niix",
  "ConversionSoftwareVersion": "v1.0.20220720",
  "DerivedVendorReportedEchoSpacing": 0.000519999,
  "DeviceSerialNumber": "66112",
  "DwellTime": 2.7e-06,
  "EchoTime": 0.035,
  "EchoTrainLength": 39,
  "EffectiveEchoSpacing": 0.00026,
  "FlipAngle": 90,
  "HeudiconvVersion": "0.13.1",
  "ImageOrientationPatientDICOM": [0.999949, 0.00956275, 0.00333519, -0.0101227, 0.954019, 0.299576],
  "ImageOrientationText": "Tra>Cor(17.4)>Sag(0.0)",
  "ImageType": [
    "ORIGINAL",
    "PRIMARY",
    "M",
    "ND",
    "NORM",
    "MOSAIC"
],
  "ImagingFrequency": 123.252,
  "InPlanePhaseEncodingDirectionDICOM": "COL",
  "InstitutionAddress": "Maynard 3,Hanover,NH,US,03755",
  "InstitutionName": "Dartmouth College - PBS",
  "InstitutionalDepartmentName": "Department",
  "MRAcquisitionType": "2D",
  "MagneticFieldStrength": 3,
  "Manufacturer": "Siemens",
  "ManufacturersModelName": "Prisma",
  "MatrixCoilMode": "GRAPPA",
  "Modality": "MR",
  "NonlinearGradientCorrection": false,
  "ParallelReductionFactorInPlane": 2,
  "PartialFourier": 1,
  "PatientPosition": "HFS",
  "PercentPhaseFOV": 100,
  "PercentSampling": 100,
  "PhaseEncodingDirection": "j-",
  "PhaseEncodingSteps": 79,
  "PhaseResolution": 1,
  "PixelBandwidth": 2315,
  "ProcedureStepDescription": "dbic^QA",
  "ProtocolName": "func-bold_task-rest_acq-p2",
  "PulseSequenceDetails": "%SiemensSeq%\\ep2d_bold",
  "ReceiveCoilActiveElements": "HEA;HEP",
  "ReceiveCoilName": "Head_32",
  "ReconMatrixPE": 80,
  "RefLinesPE": 24,
  "RepetitionTime": 2,
  "SAR": 0.0474948,
  "ScanOptions": "FS",
  "ScanningSequence": "EP",
  "SequenceName": "*epfid2d1_80",
  "SequenceVariant": "SK",
  "SeriesDescription": "func-bold_task-rest_acq-p2",
  "SeriesNumber": 5,
  "ShimSetting": [4144, -7698, -7524, 262, -83, -112, 21, 59],
  "SliceThickness": 3.5,
  "SliceTiming": [0.99, 0, 1.055, 0.065, 1.1225, 0.1325, 1.1875, 0.1975, 1.255, 0.265, 1.32, 0.33, 1.385, 0.395, 1.4525, 0.4625, 1.5175, 0.5275, 1.585, 0.595, 1.65, 0.66, 1.715, 0.725, 1.7825, 0.7925, 1.8475, 0.8575, 1.915, 0.925],
  "SoftwareVersions": "syngo MR E11",
  "SpacingBetweenSlices": 3.99,
  "StationName": "AWP66112",
  "TaskName": "rest",
  "TotalReadoutTime": 0.02054,
  "TxRefAmp": 222.168,
  "dcmmeta_affine": [
    [-2.9998462200164795, -0.03036811761558056, 0.0012650646967813373, 121.06732177734375],
    [-0.028688253834843636, 2.862055778503418, 1.1953831911087036, -119.2981948852539],
    [0.010005569085478783, -0.898729145526886, 3.806725263595581, -21.992979049682617],
    [0.0, 0.0, 0.0, 1.0]
],
  "dcmmeta_reorient_transform": [
    [0.0, -1.0, 0.0, 79.0],
    [1.0, 0.0, 0.0, 0.0],
    [0.0, 0.0, 1.0, 0.0],
    [0.0, 0.0, 0.0, 1.0]
],
  "dcmmeta_shape": [80, 80, 30, 200],
  "dcmmeta_slice_dim": 2,
  "dcmmeta_version": 0.6,
  "global": {
    "const": {
      "AccessionNumber": "qa",
      "AcquisitionMatrix": [80, 0, 0, 80],
      "AngioFlag": "N",
      "BitsAllocated": 16,
      "BitsStored": 12,
      "BodyPartExamined": "BRAIN",
      "Columns": 480,
      "EchoNumbers": 1,
      "EchoTime": 35.0,
      "EchoTrainLength": 39,
      "FlipAngle": 90.0,
      "HighBit": 11,
      "ImageOrientationPatient": [0.99994871383627, 0.00956275100624, 0.00333518970784, -0.0101227057102, 0.95401862033913, 0.29957637235826],
      "ImagePositionPatient": [-712.56384254781, -684.95304015034, -274.73951697885],
      "ImageType": [
        "ORIGINAL",
        "PRIMARY",
        "M",
        "ND",
        "NORM",
        "MOSAIC"
],
      "ImagedNucleus": "1H",
      "ImagingFrequency": 123.252322,
      "InPlanePhaseEncodingDirection": "COL",
      "MRAcquisitionType": "2D",
      "MagneticFieldStrength": 3.0,
      "Manufacturer": "SIEMENS",
      "ManufacturerModelName": "Prisma",
      "Modality": "MR",
      "NumberOfAverages": 1.0,
      "NumberOfPhaseEncodingSteps": 79,
      "PercentPhaseFieldOfView": 100.0,
      "PercentSampling": 100.0,
      "PerformedProcedureStepStartTime": "090719.249000",
      "PhotometricInterpretation": "MONOCHROME2",
      "PixelBandwidth": 2315.0,
      "PixelRepresentation": 0,
      "PixelSpacing": [3.0, 3.0],
      "ProtocolName": "func-bold_task-rest_acq-p2",
      "RepetitionTime": 2000.0,
      "Rows": 480,
      "SAR": 0.04749475927114,
      "SamplesPerPixel": 1,
      "ScanOptions": "FS",
      "ScanningSequence": "EP",
      "SequenceName": "*epfid2d1_80",
      "SequenceVariant": "SK",
      "SeriesDescription": "func-bold_task-rest_acq-p2",
      "SeriesNumber": 5,
      "SeriesTime": "091226.383000",
      "SliceLocation": -56.685494778586,
      "SliceThickness": 3.5,
      "SmallestImagePixelValue": 0,
      "SoftwareVersions": "syngo MR E11",
      "SpacingBetweenSlices": 3.9900000204767,
      "SpecificCharacterSet": "ISO_IR 100",
      "StudyID": "65",
      "StudyTime": "090719.198000",
      "TransmitCoilName": "Body",
      "VariableFlipAngleFlag": "N",
      "WindowCenterWidthExplanation": "Algo1",
      "dBdt": 0.0},
    "slices": {}
  },
  "time": {
    "samples": {
      "AcquisitionNumber": [1, 2, 3, 4, 5, 6, 7, 8, 9, 10, 11, 12, 13, 14, 15, 16, 17, 18, 19, 20, 21, 22, 23, 24, 25, 26, 27, 28, 29, 30, 31, 32, 33, 34, 35, 36, 37, 38, 39, 40, 41, 42, 43, 44, 45, 46, 47, 48, 49, 50, 51, 52, 53, 54, 55, 56, 57, 58, 59, 60, 61, 62, 63, 64, 65, 66, 67, 68, 69, 70, 71, 72, 73, 74, 75, 76, 77, 78, 79, 80, 81, 82, 83, 84, 85, 86, 87, 88, 89, 90, 91, 92, 93, 94, 95, 96, 97, 98, 99, 100, 101, 102, 103, 104, 105, 106, 107, 108, 109, 110, 111, 112, 113, 114, 115, 116, 117, 118, 119, 120, 121, 122, 123, 124, 125, 126, 127, 128, 129, 130, 131, 132, 133, 134, 135, 136, 137, 138, 139, 140, 141, 142, 143, 144, 145, 146, 147, 148, 149, 150, 151, 152, 153, 154, 155, 156, 157, 158, 159, 160, 161, 162, 163, 164, 165, 166, 167, 168, 169, 170, 171, 172, 173, 174, 175, 176, 177, 178, 179, 180, 181, 182, 183, 184, 185, 186, 187, 188, 189, 190, 191, 192, 193, 194, 195, 196, 197, 198, 199, 200],
      "AcquisitionTime": ["091137.765000", "091139.765000", "091141.765000", "091143.765000", "091145.765000", "091147.765000", "091149.765000", "091151.765000", "091153.765000", "091155.765000", "091157.765000", "091159.765000", "091201.765000", "091203.765000", "091205.765000", "091207.765000", "091209.765000", "091211.765000", "091213.765000", "091215.765000", "091217.765000", "091219.765000", "091221.765000", "091223.765000", "091225.765000", "091227.765000", "091229.765000", "091231.765000", "091233.765000", "091235.765000", "091237.765000", "091239.765000", "091241.765000", "091243.765000", "091245.765000", "091247.765000", "091249.765000", "091251.765000", "091253.765000", "091255.765000", "091257.765000", "091259.765000", "091301.765000", "091303.765000", "091305.765000", "091307.765000", "091309.765000", "091311.765000", "091313.765000", "091315.765000", "091317.765000", "091319.765000", "091321.765000", "091323.765000", "091325.765000", "091327.765000", "091329.765000", "091331.765000", "091333.765000", "091335.765000", "091337.765000", "091339.765000", "091341.765000", "091343.765000", "091345.765000", "091347.765000", "091349.765000", "091351.765000", "091353.765000", "091355.765000", "091357.765000", "091359.765000", "091401.765000", "091403.765000", "091405.765000", "091407.765000", "091409.765000", "091411.765000", "091413.765000", "091415.765000", "091417.765000", "091419.765000", "091421.765000", "091423.765000", "091425.765000", "091427.765000", "091429.765000", "091431.765000", "091433.765000", "091435.765000", "091437.765000", "091439.765000", "091441.765000", "091443.765000", "091445.765000", "091447.765000", "091449.765000", "091451.765000", "091453.765000", "091455.765000", "091457.765000", "091459.765000", "091501.765000", "091503.765000", "091505.765000", "091507.765000", "091509.765000", "091511.765000", "091513.765000", "091515.765000", "091517.765000", "091519.765000", "091521.765000", "091523.765000", "091525.765000", "091527.765000", "091529.765000", "091531.765000", "091533.765000", "091535.765000", "091537.765000", "091539.765000", "091541.765000", "091543.765000", "091545.765000", "091547.765000", "091549.765000", "091551.765000", "091553.765000", "091555.765000", "091557.765000", "091559.765000", "091601.765000", "091603.765000", "091605.765000", "091607.765000", "091609.765000", "091611.765000", "091613.765000", "091615.765000", "091617.765000", "091619.765000", "091621.765000", "091623.765000", "091625.765000", "091627.765000", "091629.765000", "091631.765000", "091633.765000", "091635.765000", "091637.765000", "091639.765000", "091641.765000", "091643.765000", "091645.765000", "091647.765000", "091649.765000", "091651.765000", "091653.765000", "091655.765000", "091657.765000", "091659.765000", "091701.765000", "091703.765000", "091705.765000", "091707.765000", "091709.765000", "091711.765000", "091713.765000", "091715.765000", "091717.765000", "091719.765000", "091721.765000", "091723.765000", "091725.765000", "091727.765000", "091729.765000", "091731.765000", "091733.765000", "091735.765000", "091737.765000", "091739.765000", "091741.765000", "091743.765000", "091745.765000", "091747.765000", "091749.765000", "091751.765000", "091753.765000", "091755.765000", "091757.765000", "091759.765000", "091801.765000", "091803.765000", "091805.765000", "091807.765000", "091809.765000", "091811.765000", "091813.765000", "091815.765000"],
      "ContentTime": ["091226.386000", "091226.390000", "091226.392000", "091226.395000", "091226.397000", "091226.400000", "091226.402000", "091226.405000", "091226.407000", "091226.410000", "091226.412000", "091226.415000", "091226.417000", "091226.428000", "091226.430000", "091226.433000", "091226.435000", "091226.438000", "091226.440000", "091226.443000", "091226.445000", "091226.448000", "091226.451000", "091226.453000", "091306.381000", "091306.384000", "091306.387000", "091306.389000", "091306.392000", "091306.394000", "091306.397000", "091306.399000", "091306.402000", "091306.404000", "091306.407000", "091306.409000", "091306.412000", "091306.414000", "091306.417000", "091306.419000", "091306.422000", "091306.425000", "091306.427000", "091306.430000", "091346.381000", "091346.384000", "091346.387000", "091346.389000", "091346.392000", "091346.394000", "091346.397000", "091346.399000", "091346.402000", "091346.404000", "091346.407000", "091346.409000", "091346.412000", "091346.414000", "091346.417000", "091346.419000", "091346.422000", "091346.424000", "091346.427000", "091346.430000", "091426.381000", "091426.384000", "091426.387000", "091426.389000", "091426.392000", "091426.394000", "091426.397000", "091426.399000", "091426.402000", "091426.404000", "091426.407000", "091426.409000", "091426.412000", "091426.414000", "091426.417000", "091426.419000", "091426.422000", "091426.424000", "091426.427000", "091426.429000", "091506.381000", "091506.384000", "091506.387000", "091506.389000", "091506.392000", "091506.394000", "091506.397000", "091506.399000", "091506.402000", "091506.404000", "091506.407000", "091506.409000", "091506.412000", "091506.414000", "091506.417000", "091506.419000", "091506.422000", "091506.425000", "091506.427000", "091506.430000", "091546.381000", "091546.383000", "091546.386000", "091546.388000", "091546.391000", "091546.393000", "091546.396000", "091546.398000", "091546.401000", "091546.404000", "091546.406000", "091546.409000", "091546.411000", "091546.414000", "091546.416000", "091546.419000", "091546.421000", "091546.424000", "091546.426000", "091546.429000", "091626.381000", "091626.384000", "091626.387000", "091626.389000", "091626.392000", "091626.394000", "091626.397000", "091626.399000", "091626.402000", "091626.404000", "091626.407000", "091626.409000", "091626.412000", "091626.414000", "091626.417000", "091626.420000", "091626.422000", "091626.425000", "091626.427000", "091626.430000", "091706.381000", "091706.384000", "091706.387000", "091706.389000", "091706.392000", "091706.394000", "091706.397000", "091706.399000", "091706.402000", "091706.405000", "091706.407000", "091706.410000", "091706.412000", "091706.415000", "091706.417000", "091706.420000", "091706.422000", "091706.425000", "091706.427000", "091706.430000", "091746.381000", "091746.396000", "091746.398000", "091746.401000", "091746.403000", "091746.406000", "091746.408000", "091746.411000", "091746.414000", "091746.416000", "091746.419000", "091746.421000", "091746.424000", "091746.426000", "091746.429000", "091746.431000", "091746.434000", "091746.436000", "091746.439000", "091746.441000", "091817.532000", "091817.535000", "091817.538000", "091817.541000", "091817.543000", "091817.546000", "091817.548000", "091817.551000", "091817.553000", "091817.556000", "091817.558000", "091817.562000", "091817.568000", "091817.573000", "091817.576000", "091817.580000"],
      "InstanceCreationTime": ["091226.386000", "091226.390000", "091226.392000", "091226.395000", "091226.397000", "091226.400000", "091226.402000", "091226.405000", "091226.407000", "091226.410000", "091226.412000", "091226.415000", "091226.417000", "091226.428000", "091226.430000", "091226.433000", "091226.435000", "091226.438000", "091226.440000", "091226.443000", "091226.445000", "091226.448000", "091226.451000", "091226.453000", "091306.381000", "091306.384000", "091306.387000", "091306.389000", "091306.392000", "091306.394000", "091306.397000", "091306.399000", "091306.402000", "091306.404000", "091306.407000", "091306.409000", "091306.412000", "091306.414000", "091306.417000", "091306.419000", "091306.422000", "091306.425000", "091306.427000", "091306.430000", "091346.381000", "091346.384000", "091346.387000", "091346.389000", "091346.392000", "091346.394000", "091346.397000", "091346.399000", "091346.402000", "091346.404000", "091346.407000", "091346.409000", "091346.412000", "091346.414000", "091346.417000", "091346.419000", "091346.422000", "091346.424000", "091346.427000", "091346.430000", "091426.381000", "091426.384000", "091426.387000", "091426.389000", "091426.392000", "091426.394000", "091426.397000", "091426.399000", "091426.402000", "091426.404000", "091426.407000", "091426.409000", "091426.412000", "091426.414000", "091426.417000", "091426.419000", "091426.422000", "091426.424000", "091426.427000", "091426.429000", "091506.381000", "091506.384000", "091506.387000", "091506.389000", "091506.392000", "091506.394000", "091506.397000", "091506.399000", "091506.402000", "091506.404000", "091506.407000", "091506.409000", "091506.412000", "091506.414000", "091506.417000", "091506.419000", "091506.422000", "091506.425000", "091506.427000", "091506.430000", "091546.381000", "091546.383000", "091546.386000", "091546.388000", "091546.391000", "091546.393000", "091546.396000", "091546.398000", "091546.401000", "091546.404000", "091546.406000", "091546.409000", "091546.411000", "091546.414000", "091546.416000", "091546.419000", "091546.421000", "091546.424000", "091546.426000", "091546.429000", "091626.381000", "091626.384000", "091626.387000", "091626.389000", "091626.392000", "091626.394000", "091626.397000", "091626.399000", "091626.402000", "091626.404000", "091626.407000", "091626.409000", "091626.412000", "091626.414000", "091626.417000", "091626.420000", "091626.422000", "091626.425000", "091626.427000", "091626.430000", "091706.381000", "091706.384000", "091706.387000", "091706.389000", "091706.392000", "091706.394000", "091706.397000", "091706.399000", "091706.402000", "091706.405000", "091706.407000", "091706.410000", "091706.412000", "091706.415000", "091706.417000", "091706.420000", "091706.422000", "091706.425000", "091706.427000", "091706.430000", "091746.381000", "091746.396000", "091746.398000", "091746.401000", "091746.403000", "091746.406000", "091746.408000", "091746.411000", "091746.414000", "091746.416000", "091746.419000", "091746.421000", "091746.424000", "091746.426000", "091746.429000", "091746.431000", "091746.434000", "091746.436000", "091746.439000", "091746.441000", "091817.532000", "091817.535000", "091817.538000", "091817.541000", "091817.543000", "091817.546000", "091817.548000", "091817.551000", "091817.553000", "091817.556000", "091817.558000", "091817.562000", "091817.568000", "091817.573000", "091817.576000", "091817.580000"],
      "InstanceNumber": [1, 2, 3, 4, 5, 6, 7, 8, 9, 10, 11, 12, 13, 14, 15, 16, 17, 18, 19, 20, 21, 22, 23, 24, 25, 26, 27, 28, 29, 30, 31, 32, 33, 34, 35, 36, 37, 38, 39, 40, 41, 42, 43, 44, 45, 46, 47, 48, 49, 50, 51, 52, 53, 54, 55, 56, 57, 58, 59, 60, 61, 62, 63, 64, 65, 66, 67, 68, 69, 70, 71, 72, 73, 74, 75, 76, 77, 78, 79, 80, 81, 82, 83, 84, 85, 86, 87, 88, 89, 90, 91, 92, 93, 94, 95, 96, 97, 98, 99, 100, 101, 102, 103, 104, 105, 106, 107, 108, 109, 110, 111, 112, 113, 114, 115, 116, 117, 118, 119, 120, 121, 122, 123, 124, 125, 126, 127, 128, 129, 130, 131, 132, 133, 134, 135, 136, 137, 138, 139, 140, 141, 142, 143, 144, 145, 146, 147, 148, 149, 150, 151, 152, 153, 154, 155, 156, 157, 158, 159, 160, 161, 162, 163, 164, 165, 166, 167, 168, 169, 170, 171, 172, 173, 174, 175, 176, 177, 178, 179, 180, 181, 182, 183, 184, 185, 186, 187, 188, 189, 190, 191, 192, 193, 194, 195, 196, 197, 198, 199, 200],
      "LargestImagePixelValue": [2063, 2055, 2061, 2059, 2056, 2060, 2061, 2066, 2073, 2065, 2069, 2072, 2081, 2084, 2076, 2079, 2083, 2089, 2089, 2088, 2081, 2080, 2087, 2081, 2079, 2069, 2075, 2070, 2079, 2082, 2077, 2071, 2078, 2079, 2080, 2081, 2075, 2086, 2079, 2075, 2071, 2071, 2071, 2072, 2063, 2060, 2065, 2066, 2072, 2069, 2071, 2066, 2065, 2069, 2074, 2073, 2074, 2068, 2066, 2075, 2073, 2072, 2074, 2080, 2078, 2075, 2071, 2069, 2073, 2064, 2060, 2061, 2060, 2060, 2056, 2060, 2060, 2064, 2066, 2061, 2063, 2060, 2063, 2067, 2071, 2069, 2067, 2068, 2073, 2078, 2069, 2070, 2077, 2074, 2078, 2078, 2075, 2078, 2074, 2076, 2077, 2073, 2083, 2079, 2075, 2064, 2079, 2071, 2080, 2071, 2076, 2075, 2077, 2078, 2075, 2075, 2069, 2069, 2065, 2069, 2068, 2071, 2075, 2071, 2070, 2072, 2081, 2070, 2073, 2082, 2077, 2080, 2074, 2081, 2076, 2074, 2073, 2072, 2077, 2081, 2082, 2085, 2090, 2088, 2087, 2082, 2078, 2083, 2080, 2079, 2079, 2086, 2086, 2098, 2080, 2084, 2088, 2082, 2082, 2081, 2095, 2088, 2093, 2084, 2088, 2085, 2096, 2091, 2096, 2095, 2096, 2086, 2087, 2091, 2090, 2085, 2089, 2087, 2091, 2093, 2097, 2100, 2101, 2092, 2096, 2088, 2094, 2090, 2089, 2085, 2084, 2077, 2074, 2078, 2074, 2070, 2069, 2071, 2073, 2078],
      "WindowCenter": [1008.0, 1008.0, 1008.0, 1008.0, 1008.0, 1009.0, 1008.0, 1008.0, 1008.0, 1009.0, 1009.0, 1008.0, 1008.0, 1009.0, 1008.0, 1008.0, 1010.0, 1009.0, 1008.0, 1008.0, 1008.0, 1008.0, 1008.0, 1008.0, 1008.0, 1008.0, 1008.0, 1008.0, 1008.0, 1008.0, 1008.0, 1008.0, 1008.0, 1008.0, 1008.0, 1008.0, 1008.0, 1008.0, 1008.0, 1007.0, 1008.0, 1007.0, 1008.0, 1008.0, 1008.0, 1009.0, 1008.0, 1008.0, 1008.0, 1007.0, 1009.0, 1008.0, 1007.0, 1007.0, 1008.0, 1008.0, 1007.0, 1007.0, 1008.0, 1007.0, 1007.0, 1007.0, 1008.0, 1007.0, 1008.0, 1008.0, 1007.0, 1008.0, 1008.0, 1007.0, 1007.0, 1007.0, 1008.0, 1007.0, 1007.0, 1007.0, 1007.0, 1008.0, 1008.0, 1007.0, 1007.0, 1007.0, 1008.0, 1007.0, 1007.0, 1008.0, 1008.0, 1007.0, 1008.0, 1007.0, 1008.0, 1007.0, 1008.0, 1007.0, 1007.0, 1008.0, 1007.0, 1007.0, 1007.0, 1007.0, 1008.0, 1007.0, 1007.0, 1008.0, 1007.0, 1007.0, 1007.0, 1007.0, 1007.0, 1007.0, 1007.0, 1007.0, 1007.0, 1007.0, 1007.0, 1007.0, 1007.0, 1007.0, 1008.0, 1007.0, 1007.0, 1008.0, 1007.0, 1007.0, 1007.0, 1007.0, 1007.0, 1007.0, 1007.0, 1007.0, 1007.0, 1008.0, 1007.0, 1007.0, 1007.0, 1007.0, 1007.0, 1007.0, 1008.0, 1007.0, 1008.0, 1008.0, 1007.0, 1007.0, 1008.0, 1008.0, 1007.0, 1009.0, 1008.0, 1008.0, 1008.0, 1007.0, 1008.0, 1007.0, 1007.0, 1008.0, 1008.0, 1007.0, 1007.0, 1008.0, 1007.0, 1007.0, 1007.0, 1009.0, 1008.0, 1008.0, 1007.0, 1008.0, 1008.0, 1007.0, 1007.0, 1007.0, 1007.0, 1007.0, 1007.0, 1008.0, 1009.0, 1007.0, 1008.0, 1008.0, 1008.0, 1007.0, 1008.0, 1007.0, 1008.0, 1008.0, 1007.0, 1007.0, 1009.0, 1007.0, 1007.0, 1007.0, 1007.0, 1007.0, 1008.0, 1009.0, 1007.0, 1007.0, 1007.0, 1007.0],
      "WindowWidth": [2225.0, 2224.0, 2224.0, 2224.0, 2224.0, 2225.0, 2224.0, 2224.0, 2224.0, 2225.0, 2225.0, 2224.0, 2224.0, 2225.0, 2224.0, 2224.0, 2226.0, 2225.0, 2224.0, 2224.0, 2224.0, 2224.0, 2224.0, 2224.0, 2224.0, 2224.0, 2224.0, 2224.0, 2224.0, 2224.0, 2224.0, 2224.0, 2225.0, 2224.0, 2224.0, 2224.0, 2224.0, 2224.0, 2223.0, 2224.0, 2224.0, 2224.0, 2224.0, 2224.0, 2224.0, 2224.0, 2224.0, 2224.0, 2224.0, 2224.0, 2225.0, 2224.0, 2224.0, 2224.0, 2224.0, 2224.0, 2224.0, 2224.0, 2224.0, 2224.0, 2224.0, 2224.0, 2224.0, 2223.0, 2224.0, 2224.0, 2223.0, 2224.0, 2224.0, 2223.0, 2223.0, 2223.0, 2224.0, 2223.0, 2223.0, 2223.0, 2223.0, 2224.0, 2224.0, 2223.0, 2223.0, 2223.0, 2224.0, 2223.0, 2223.0, 2224.0, 2224.0, 2223.0, 2224.0, 2223.0, 2224.0, 2223.0, 2223.0, 2223.0, 2223.0, 2224.0, 2223.0, 2223.0, 2223.0, 2223.0, 2223.0, 2223.0, 2223.0, 2223.0, 2223.0, 2223.0, 2223.0, 2223.0, 2223.0, 2223.0, 2223.0, 2223.0, 2223.0, 2223.0, 2223.0, 2223.0, 2223.0, 2223.0, 2223.0, 2223.0, 2223.0, 2223.0, 2223.0, 2223.0, 2222.0, 2223.0, 2223.0, 2223.0, 2223.0, 2223.0, 2223.0, 2223.0, 2223.0, 2222.0, 2222.0, 2222.0, 2222.0, 2223.0, 2223.0, 2222.0, 2223.0, 2223.0, 2223.0, 2222.0, 2223.0, 2223.0, 2222.0, 2224.0, 2223.0, 2223.0, 2223.0, 2223.0, 2223.0, 2222.0, 2222.0, 2223.0, 2223.0, 2222.0, 2222.0, 2223.0, 2222.0, 2222.0, 2222.0, 2224.0, 2223.0, 2223.0, 2222.0, 2223.0, 2223.0, 2222.0, 2222.0, 2222.0, 2222.0, 2222.0, 2222.0, 2223.0, 2224.0, 2222.0, 2223.0, 2223.0, 2223.0, 2222.0, 2223.0, 2222.0, 2223.0, 2223.0, 2222.0, 2222.0, 2224.0, 2222.0, 2222.0, 2222.0, 2222.0, 2222.0, 2223.0, 2224.0, 2222.0, 2222.0, 2222.0, 2222.0]
    },
    "slices": {}
  }
}