{
  "AcquisitionMatrixPE": 122,
  "AcquisitionNumber": 1,
  "AcquisitionTime": "10:51:47.067500",
  "BandwidthPerPixelPhaseEncode": 28.76,
  "BaseResolution": 122,
  "BodyPartExamined": "BRAIN",
  "CoilCombinationMethod": "Adaptive Combine",
  "ConsistencyInfo": "N4_VE11C_LATEST_20160120",
  "ConversionSoftware": "dcm2niix",
  "ConversionSoftwareVersion": "v1.0.20220720",
  "DerivedVendorReportedEchoSpacing": 0.000570008,
  "DeviceSerialNumber": "66112",
  "DiffusionScheme": "Monopolar",
  "DwellTime": 2e-06,
  "EchoTime": 0.075,
  "EchoTrainLength": 61,
  "EffectiveEchoSpacing": 0.000285004,
  "FlipAngle": 90,
  "HeudiconvVersion": "0.13.1",
  "ImageOrientationPatientDICOM": [0.988362, 0.151881, 0.00856186, -0.147359, 0.941919, 0.301784],
  "ImageOrientationText": "Tra>Cor(17.4)>Sag(-2.2)",
  "ImageType": [
    "ORIGINAL",
    "PRIMARY",
    "DIFFUSION",
    "NONE",
    "ND",
    "NORM"
],
  "ImagingFrequency": 123.252,
  "InPlanePhaseEncodingDirectionDICOM": "COL",
  "InstitutionAddress": "Maynard 3,Hanover,NH,US,03755",
  "InstitutionName": "Dartmouth College - PBS",
  "InstitutionalDepartmentName": "Department",
  "MRAcquisitionType": "2D",
  "MagneticFieldStrength": 3,
  "Manufacturer": "Siemens",
  "ManufacturersModelName": "Prisma",
  "MatrixCoilMode": "GRAPPA",
  "Modality": "MR",
  "NonlinearGradientCorrection": false,
  "ParallelReductionFactorInPlane": 2,
  "PartialFourier": 1,
  "PatientPosition": "HFS",
  "PercentPhaseFOV": 100,
  "PercentSampling": 100,
  "PhaseEncodingDirection": "j-",
  "PhaseEncodingSteps": 122,
  "PhaseResolution": 1,
  "PixelBandwidth": 2050,
  "ProcedureStepDescription": "dbic^QA",
  "ProtocolName": "dwi_acq-DTI-30-p2",
  "PulseSequenceDetails": "%SiemensSeq%\\ep2d_diff",
  "ReceiveCoilActiveElements": "HEA;HEP",
  "ReceiveCoilName": "Head_32",
  "ReconMatrixPE": 122,
  "RefLinesPE": 38,
  "RepetitionTime": 7.7,
  "SAR": 0.101617,
  "ScanOptions": "FS",
  "ScanningSequence": "EP",
  "SequenceName": "*ep_b0",
  "SequenceVariant": "SK\\SP",
  "SeriesDescription": "dwi_acq-DTI-30-p2",
  "SeriesNumber": 8,
  "ShimSetting": [4143, -7684, -7518, 330, -51, -252, -82, 56],
  "SliceThickness": 2,
  "SliceTiming": [3.84375, 0, 3.95312, 0.10938, 4.0625, 0.21875, 4.17188, 0.32812, 4.28125, 0.4375, 4.39062, 0.54688, 4.5, 0.65625, 4.60938, 0.76562, 4.71875, 0.875, 4.82812, 0.99219, 4.9375, 1.10156, 5.04688, 1.21094, 5.15625, 1.3125, 5.26562, 1.42969, 5.375, 1.53906, 5.48438, 1.64844, 5.59375, 1.75781, 5.70312, 1.86719, 5.8125, 1.97656, 5.92969, 2.08594, 6.03125, 2.19531, 6.14062, 2.30469, 6.25, 2.41406, 6.36719, 2.52344, 6.47656, 2.63281, 6.58594, 2.74219, 6.69531, 2.85156, 6.80469, 2.96094, 6.91406, 3.07031, 7.02344, 3.17969, 7.13281, 3.28906, 7.24219, 3.39844, 7.35156, 3.50781, 7.46094, 3.61719, 7.57031, 3.73438],
  "SoftwareVersions": "syngo MR E11",
  "SpacingBetweenSlices": 2,
  "SpoilingState": true,
  "StationName": "AWP66112",
  "TotalReadoutTime": 0.0344855,
  "TxRefAmp": 235.423,
  "dcmmeta_affine": [
    [-1.9443180561065674, -0.28988638520240784, -0.07554173469543457, 139.6416473388672],
    [-0.29878321290016174, 1.85295569896698, 0.5990676879882812, -114.2784652709961],
    [0.016842996701598167, -0.593673825263977, 1.90667724609375, -32.92654800415039],
    [0.0, 0.0, 0.0, 1.0]
],
  "dcmmeta_reorient_transform": [
    [0.0, -1.0, 0.0, 121.0],
    [1.0, 0.0, 0.0, 0.0],
    [0.0, 0.0, -1.0, 69.0],
    [0.0, 0.0, 0.0, 1.0]
],
  "dcmmeta_shape": [122, 122, 70, 31],
  "dcmmeta_slice_dim": 2,
  "dcmmeta_version": 0.6,
  "global": {
    "const": {
      "AccessionNumber": "qa",
      "AcquisitionMatrix": [122, 0, 0, 122],
      "AngioFlag": "N",
      "BitsAllocated": 16,
      "BitsStored": 12,
      "BodyPartExamined": "BRAIN",
      "Columns": 122,
      "EchoNumbers": 1,
      "EchoTime": 75.0,
      "EchoTrainLength": 61,
      "FlipAngle": 90.0,
      "HighBit": 11,
      "ImageOrientationPatient": [0.98836163261415, 0.1518814596807, 0.00856185619793, -0.1473589029673, 0.94191913469202, 0.3017841901381],
      "ImageType": [
        "ORIGINAL",
        "PRIMARY",
        "DIFFUSION",
        "NONE",
        "ND",
        "NORM"
],
      "ImagedNucleus": "1H",
      "ImagingFrequency": 123.25245,
      "InPlanePhaseEncodingDirection": "COL",
      "MRAcquisitionType": "2D",
      "MagneticFieldStrength": 3.0,
      "Manufacturer": "SIEMENS",
      "ManufacturerModelName": "Prisma",
      "Modality": "MR",
      "NumberOfAverages": 1.0,
      "NumberOfPhaseEncodingSteps": 122,
      "PercentPhaseFieldOfView": 100.0,
      "PercentSampling": 100.0,
      "PerformedProcedureStepStartTime": "102224.195000",
      "PhotometricInterpretation": "MONOCHROME2",
      "PixelBandwidth": 2050.0,
      "PixelRepresentation": 0,
      "PixelSpacing": [1.9672131538391, 1.9672131538391],
      "ProtocolName": "dwi_acq-DTI-30-p2",
      "RepetitionTime": 7700.0,
      "Rows": 122,
      "SAR": 0.1016168779738,
      "SamplesPerPixel": 1,
      "ScanOptions": "FS",
      "ScanningSequence": "EP",
      "SequenceVariant": [
        "SK",
        "SP"
],
      "SeriesDescription": "dwi_acq-DTI-30-p2",
      "SeriesNumber": 8,
      "SeriesTime": "105204.618000",
      "SliceThickness": 2.0,
      "SmallestImagePixelValue": 0,
      "SoftwareVersions": "syngo MR E11",
      "SpacingBetweenSlices": 2.0,
      "SpecificCharacterSet": "ISO_IR 100",
      "StudyID": "50",
      "StudyTime": "102224.130000",
      "TransmitCoilName": "Body",
      "VariableFlipAngleFlag": "N",
      "WindowCenterWidthExplanation": "Algo1",
      "dBdt": 0.0},
    "slices": {
      "AcquisitionTime": ["105147.067500", "105143.227500", "105147.177500", "105143.337500", "105147.287500", "105143.447500", "105147.395000", "105143.557500", "105147.505000", "105143.665000", "105147.615000", "105143.775000", "105147.725000", "105143.885000", "105147.835000", "105143.995000", "105147.945000", "105144.105000", "105148.055000", "105144.215000", "105148.165000", "105144.325000", "105148.275000", "105144.435000", "105148.382500", "105144.542500", "105148.492500", "105144.652500", "105148.602500", "105144.762500", "105148.712500", "105144.872500", "105148.822500", "105144.982500", "105148.932500", "105145.092500", "105149.042500", "105145.202500", "105149.152500", "105145.312500", "105149.260000", "105145.422500", "105149.370000", "105145.530000", "105149.480000", "105145.640000", "105149.590000", "105145.750000", "105149.700000", "105145.860000", "105149.810000", "105145.970000", "105149.920000", "105146.080000", "105150.030000", "105146.190000", "105150.140000", "105146.300000", "105150.247500", "105146.410000", "105150.357500", "105146.517500", "105150.467500", "105146.627500", "105150.577500", "105146.737500", "105150.687500", "105146.847500", "105150.797500", "105146.957500", "105154.767500", "105150.927500", "105154.877500", "105151.037500", "105154.987500", "105151.147500", "105155.095000", "105151.257500", "105155.205000", "105151.365000", "105155.315000", "105151.475000", "105155.425000", "105151.585000", "105155.535000", "105151.695000", "105155.645000", "105151.805000", "105155.755000", "105151.915000", "105155.865000", "105152.025000", "105155.975000", "105152.135000", "105156.082500", "105152.242500", "105156.192500", "105152.352500", "105156.302500", "105152.462500", "105156.412500", "105152.572500", "105156.522500", "105152.682500", "105156.632500", "105152.792500", "105156.742500", "105152.902500", "105156.852500", "105153.012500", "105156.960000", "105153.122500", "105157.070000", "105153.230000", "105157.180000", "105153.340000", "105157.290000", "105153.450000", "105157.400000", "105153.560000", "105157.510000", "105153.670000", "105157.620000", "105153.780000", "105157.730000", "105153.890000", "105157.840000", "105154.000000", "105157.947500", "105154.110000", "105158.057500", "105154.217500", "105158.167500", "105154.327500", "105158.277500", "105154.437500", "105158.387500", "105154.547500", "105158.497500", "105154.657500", "105202.467500", "105158.627500", "105202.577500", "105158.737500", "105202.687500", "105158.847500", "105202.795000", "105158.957500", "105202.905000", "105159.065000", "105203.015000", "105159.175000", "105203.125000", "105159.285000", "105203.235000", "105159.395000", "105203.345000", "105159.505000", "105203.455000", "105159.615000", "105203.565000", "105159.725000", "105203.675000", "105159.835000", "105203.782500", "105159.942500", "105203.892500", "105200.052500", "105204.002500", "105200.162500", "105204.112500", "105200.272500", "105204.222500", "105200.382500", "105204.332500", "105200.492500", "105204.442500", "105200.602500", "105204.552500", "105200.712500", "105204.660000", "105200.822500", "105204.770000", "105200.930000", "105204.880000", "105201.040000", "105204.990000", "105201.150000", "105205.100000", "105201.260000", "105205.210000", "105201.370000", "105205.320000", "105201.480000", "105205.430000", "105201.590000", "105205.540000", "105201.700000", "105205.647500", "105201.810000", "105205.757500", "105201.917500", "105205.867500", "105202.027500", "105205.977500", "105202.137500", "105206.087500", "105202.247500", "105206.197500", "105202.357500", "105210.167500", "105206.327500", "105210.277500", "105206.437500", "105210.387500", "105206.547500", "105210.495000", "105206.657500", "105210.605000", "105206.765000", "105210.715000", "105206.875000", "105210.825000", "105206.985000", "105210.935000", "105207.095000", "105211.045000", "105207.205000", "105211.155000", "105207.315000", "105211.265000", "105207.425000", "105211.375000", "105207.535000", "105211.482500", "105207.642500", "105211.592500", "105207.752500", "105211.702500", "105207.862500", "105211.812500", "105207.972500", "105211.922500", "105208.082500", "105212.032500", "105208.192500", "105212.142500", "105208.302500", "105212.252500", "105208.412500", "105212.360000", "105208.522500", "105212.470000", "105208.630000", "105212.580000", "105208.740000", "105212.690000", "105208.850000", "105212.800000", "105208.960000", "105212.910000", "105209.070000", "105213.020000", "105209.180000", "105213.130000", "105209.290000", "105213.240000", "105209.400000", "105213.347500", "105209.510000", "105213.457500", "105209.617500", "105213.567500", "105209.727500", "105213.677500", "105209.837500", "105213.787500", "105209.947500", "105213.897500", "105210.057500", "105217.867500", "105214.027500", "105217.977500", "105214.137500", "105218.087500", "105214.247500", "105218.195000", "105214.357500", "105218.305000", "105214.465000", "105218.415000", "105214.575000", "105218.525000", "105214.685000", "105218.635000", "105214.795000", "105218.745000", "105214.905000", "105218.855000", "105215.015000", "105218.965000", "105215.125000", "105219.075000", "105215.235000", "105219.182500", "105215.342500", "105219.292500", "105215.452500", "105219.402500", "105215.562500", "105219.512500", "105215.672500", "105219.622500", "105215.782500", "105219.732500", "105215.892500", "105219.842500", "105216.002500", "105219.952500", "105216.112500", "105220.060000", "105216.222500", "105220.170000", "105216.330000", "105220.280000", "105216.440000", "105220.390000", "105216.550000", "105220.500000", "105216.660000", "105220.610000", "105216.770000", "105220.720000", "105216.880000", "105220.830000", "105216.990000", "105220.940000", "105217.100000", "105221.047500", "105217.210000", "105221.157500", "105217.317500", "105221.267500", "105217.427500", "105221.377500", "105217.537500", "105221.487500", "105217.647500", "105221.597500", "105217.757500", "105225.567500", "105221.727500", "105225.677500", "105221.837500", "105225.787500", "105221.947500", "105225.895000", "105222.057500", "105226.005000", "105222.165000", "105226.115000", "105222.275000", "105226.225000", "105222.385000", "105226.335000", "105222.495000", "105226.445000", "105222.605000", "105226.555000", "105222.715000", "105226.665000", "105222.825000", "105226.775000", "105222.935000", "105226.882500", "105223.042500", "105226.992500", "105223.152500", "105227.102500", "105223.262500", "105227.212500", "105223.372500", "105227.322500", "105223.482500", "105227.432500", "105223.592500", "105227.542500", "105223.702500", "105227.652500", "105223.812500", "105227.760000", "105223.922500", "105227.870000", "105224.030000", "105227.980000", "105224.140000", "105228.090000", "105224.250000", "105228.200000", "105224.360000", "105228.310000", "105224.470000", "105228.420000", "105224.580000", "105228.530000", "105224.690000", "105228.640000", "105224.800000", "105228.747500", "105224.910000", "105228.857500", "105225.017500", "105228.967500", "105225.127500", "105229.077500", "105225.237500", "105229.187500", "105225.347500", "105229.297500", "105225.457500", "105233.267500", "105229.427500", "105233.377500", "105229.537500", "105233.487500", "105229.647500", "105233.595000", "105229.757500", "105233.705000", "105229.865000", "105233.815000", "105229.975000", "105233.925000", "105230.085000", "105234.035000", "105230.195000", "105234.145000", "105230.305000", "105234.255000", "105230.415000", "105234.365000", "105230.525000", "105234.475000", "105230.635000", "105234.582500", "105230.742500", "105234.692500", "105230.852500", "105234.802500", "105230.962500", "105234.912500", "105231.072500", "105235.022500", "105231.182500", "105235.132500", "105231.292500", "105235.242500", "105231.402500", "105235.352500", "105231.512500", "105235.460000", "105231.622500", "105235.570000", "105231.730000", "105235.680000", "105231.840000", "105235.790000", "105231.950000", "105235.900000", "105232.060000", "105236.010000", "105232.170000", "105236.120000", "105232.280000", "105236.230000", "105232.390000", "105236.340000", "105232.500000", "105236.447500", "105232.610000", "105236.557500", "105232.717500", "105236.667500", "105232.827500", "105236.777500", "105232.937500", "105236.887500", "105233.047500", "105236.997500", "105233.157500", "105240.967500", "105237.127500", "105241.077500", "105237.237500", "105241.187500", "105237.347500", "105241.295000", "105237.457500", "105241.405000", "105237.565000", "105241.515000", "105237.675000", "105241.625000", "105237.785000", "105241.735000", "105237.895000", "105241.845000", "105238.005000", "105241.955000", "105238.115000", "105242.065000", "105238.225000", "105242.175000", "105238.335000", "105242.282500", "105238.442500", "105242.392500", "105238.552500", "105242.502500", "105238.662500", "105242.612500", "105238.772500", "105242.722500", "105238.882500", "105242.832500", "105238.992500", "105242.942500", "105239.102500", "105243.052500", "105239.212500", "105243.160000", "105239.322500", "105243.270000", "105239.430000", "105243.380000", "105239.540000", "105243.490000", "105239.650000", "105243.600000", "105239.760000", "105243.710000", "105239.870000", "105243.820000", "105239.980000", "105243.930000", "105240.090000", "105244.040000", "105240.200000", "105244.147500", "105240.310000", "105244.257500", "105240.417500", "105244.367500", "105240.527500", "105244.477500", "105240.637500", "105244.587500", "105240.747500", "105244.697500", "105240.857500", "105248.667500", "105244.827500", "105248.777500", "105244.937500", "105248.887500", "105245.047500", "105248.995000", "105245.157500", "105249.105000", "105245.265000", "105249.215000", "105245.375000", "105249.325000", "105245.485000", "105249.435000", "105245.595000", "105249.545000", "105245.705000", "105249.655000", "105245.815000", "105249.765000", "105245.925000", "105249.875000", "105246.035000", "105249.982500", "105246.142500", "105250.092500", "105246.252500", "105250.202500", "105246.362500", "105250.312500", "105246.472500", "105250.422500", "105246.582500", "105250.532500", "105246.692500", "105250.642500", "105246.802500", "105250.752500", "105246.912500", "105250.860000", "105247.022500", "105250.970000", "105247.130000", "105251.080000", "105247.240000", "105251.190000", "105247.350000", "105251.300000", "105247.460000", "105251.410000", "105247.570000", "105251.520000", "105247.680000", "105251.630000", "105247.790000", "105251.740000", "105247.900000", "105251.847500", "105248.010000", "105251.957500", "105248.117500", "105252.067500", "105248.227500", "105252.177500", "105248.337500", "105252.287500", "105248.447500", "105252.397500", "105248.557500", "105256.367500", "105252.527500", "105256.477500", "105252.637500", "105256.587500", "105252.747500", "105256.695000", "105252.857500", "105256.805000", "105252.965000", "105256.915000", "105253.075000", "105257.025000", "105253.185000", "105257.135000", "105253.295000", "105257.245000", "105253.405000", "105257.355000", "105253.515000", "105257.465000", "105253.625000", "105257.575000", "105253.735000", "105257.682500", "105253.842500", "105257.792500", "105253.952500", "105257.902500", "105254.062500", "105258.012500", "105254.172500", "105258.122500", "105254.282500", "105258.232500", "105254.392500", "105258.342500", "105254.502500", "105258.452500", "105254.612500", "105258.560000", "105254.722500", "105258.670000", "105254.830000", "105258.780000", "105254.940000", "105258.890000", "105255.050000", "105259.000000", "105255.160000", "105259.110000", "105255.270000", "105259.220000", "105255.380000", "105259.330000", "105255.490000", "105259.440000", "105255.600000", "105259.547500", "105255.710000", "105259.657500", "105255.817500", "105259.767500", "105255.927500", "105259.877500", "105256.037500", "105259.987500", "105256.147500", "105300.097500", "105256.257500", "105304.067500", "105300.227500", "105304.177500", "105300.337500", "105304.287500", "105300.447500", "105304.395000", "105300.557500", "105304.505000", "105300.665000", "105304.615000", "105300.775000", "105304.725000", "105300.885000", "105304.835000", "105300.995000", "105304.945000", "105301.105000", "105305.055000", "105301.215000", "105305.165000", "105301.325000", "105305.275000", "105301.435000", "105305.382500", "105301.542500", "105305.492500", "105301.652500", "105305.602500", "105301.762500", "105305.712500", "105301.872500", "105305.822500", "105301.982500", "105305.932500", "105302.092500", "105306.042500", "105302.202500", "105306.152500", "105302.312500", "105306.260000", "105302.422500", "105306.370000", "105302.530000", "105306.480000", "105302.640000", "105306.590000", "105302.750000", "105306.700000", "105302.860000", "105306.810000", "105302.970000", "105306.920000", "105303.080000", "105307.030000", "105303.190000", "105307.140000", "105303.300000", "105307.247500", "105303.410000", "105307.357500", "105303.517500", "105307.467500", "105303.627500", "105307.577500", "105303.737500", "105307.687500", "105303.847500", "105307.797500", "105303.957500", "105311.767500", "105307.927500", "105311.877500", "105308.037500", "105311.987500", "105308.147500", "105312.095000", "105308.257500", "105312.205000", "105308.365000", "105312.315000", "105308.475000", "105312.425000", "105308.585000", "105312.535000", "105308.695000", "105312.645000", "105308.805000", "105312.755000", "105308.915000", "105312.865000", "105309.025000", "105312.975000", "105309.135000", "105313.082500", "105309.242500", "105313.192500", "105309.352500", "105313.302500", "105309.462500", "105313.412500", "105309.572500", "105313.522500", "105309.682500", "105313.632500", "105309.792500", "105313.742500", "105309.902500", "105313.852500", "105310.012500", "105313.960000", "105310.122500", "105314.070000", "105310.230000", "105314.180000", "105310.340000", "105314.290000", "105310.450000", "105314.400000", "105310.560000", "105314.510000", "105310.670000", "105314.620000", "105310.780000", "105314.730000", "105310.890000", "105314.840000", "105311.000000", "105314.947500", "105311.110000", "105315.057500", "105311.217500", "105315.167500", "105311.327500", "105315.277500", "105311.437500", "105315.387500", "105311.547500", "105315.497500", "105311.657500", "105319.467500", "105315.627500", "105319.577500", "105315.737500", "105319.687500", "105315.847500", "105319.795000", "105315.957500", "105319.905000", "105316.065000", "105320.015000", "105316.175000", "105320.125000", "105316.285000", "105320.235000", "105316.395000", "105320.345000", "105316.505000", "105320.455000", "105316.615000", "105320.565000", "105316.725000", "105320.675000", "105316.835000", "105320.782500", "105316.942500", "105320.892500", "105317.052500", "105321.002500", "105317.162500", "105321.112500", "105317.272500", "105321.222500", "105317.382500", "105321.332500", "105317.492500", "105321.442500", "105317.602500", "105321.552500", "105317.712500", "105321.660000", "105317.822500", "105321.770000", "105317.930000", "105321.880000", "105318.040000", "105321.990000", "105318.150000", "105322.100000", "105318.260000", "105322.210000", "105318.370000", "105322.320000", "105318.480000", "105322.430000", "105318.590000", "105322.540000", "105318.700000", "105322.647500", "105318.810000", "105322.757500", "105318.917500", "105322.867500", "105319.027500", "105322.977500", "105319.137500", "105323.087500", "105319.247500", "105323.197500", "105319.357500", "105327.167500", "105323.327500", "105327.277500", "105323.437500", "105327.387500", "105323.547500", "105327.495000", "105323.657500", "105327.605000", "105323.765000", "105327.715000", "105323.875000", "105327.825000", "105323.985000", "105327.935000", "105324.095000", "105328.045000", "105324.205000", "105328.155000", "105324.315000", "105328.265000", "105324.425000", "105328.375000", "105324.535000", "105328.482500", "105324.642500", "105328.592500", "105324.752500", "105328.702500", "105324.862500", "105328.812500", "105324.972500", "105328.922500", "105325.082500", "105329.032500", "105325.192500", "105329.142500", "105325.302500", "105329.252500", "105325.412500", "105329.360000", "105325.522500", "105329.470000", "105325.630000", "105329.580000", "105325.740000", "105329.690000", "105325.850000", "105329.800000", "105325.960000", "105329.910000", "105326.070000", "105330.020000", "105326.180000", "105330.130000", "105326.290000", "105330.240000", "105326.400000", "105330.347500", "105326.510000", "105330.457500", "105326.617500", "105330.567500", "105326.727500", "105330.677500", "105326.837500", "105330.787500", "105326.947500", "105330.897500", "105327.057500", "105334.867500", "105331.027500", "105334.977500", "105331.137500", "105335.087500", "105331.247500", "105335.195000", "105331.357500", "105335.305000", "105331.465000", "105335.415000", "105331.575000", "105335.525000", "105331.685000", "105335.635000", "105331.795000", "105335.745000", "105331.905000", "105335.855000", "105332.015000", "105335.965000", "105332.125000", "105336.075000", "105332.235000", "105336.182500", "105332.342500", "105336.292500", "105332.452500", "105336.402500", "105332.562500", "105336.512500", "105332.672500", "105336.622500", "105332.782500", "105336.732500", "105332.892500", "105336.842500", "105333.002500", "105336.952500", "105333.112500", "105337.060000", "105333.222500", "105337.170000", "105333.330000", "105337.280000", "105333.440000", "105337.390000", "105333.550000", "105337.500000", "105333.660000", "105337.610000", "105333.770000", "105337.720000", "105333.880000", "105337.830000", "105333.990000", "105337.940000", "105334.100000", "105338.047500", "105334.210000", "105338.157500", "105334.317500", "105338.267500", "105334.427500", "105338.377500", "105334.537500", "105338.487500", "105334.647500", "105338.597500", "105334.757500", "105342.567500", "105338.727500", "105342.677500", "105338.837500", "105342.787500", "105338.947500", "105342.895000", "105339.057500", "105343.005000", "105339.165000", "105343.115000", "105339.275000", "105343.225000", "105339.385000", "105343.335000", "105339.495000", "105343.445000", "105339.605000", "105343.555000", "105339.715000", "105343.665000", "105339.825000", "105343.775000", "105339.935000", "105343.882500", "105340.042500", "105343.992500", "105340.152500", "105344.102500", "105340.262500", "105344.212500", "105340.372500", "105344.322500", "105340.482500", "105344.432500", "105340.592500", "105344.542500", "105340.702500", "105344.652500", "105340.812500", "105344.760000", "105340.922500", "105344.870000", "105341.030000", "105344.980000", "105341.140000", "105345.090000", "105341.250000", "105345.200000", "105341.360000", "105345.310000", "105341.470000", "105345.420000", "105341.580000", "105345.530000", "105341.690000", "105345.640000", "105341.800000", "105345.747500", "105341.910000", "105345.857500", "105342.017500", "105345.967500", "105342.127500", "105346.077500", "105342.237500", "105346.187500", "105342.347500", "105346.297500", "105342.457500", "105350.267500", "105346.427500", "105350.377500", "105346.537500", "105350.487500", "105346.647500", "105350.595000", "105346.757500", "105350.705000", "105346.865000", "105350.815000", "105346.975000", "105350.925000", "105347.085000", "105351.035000", "105347.195000", "105351.145000", "105347.305000", "105351.255000", "105347.415000", "105351.365000", "105347.525000", "105351.475000", "105347.635000", "105351.582500", "105347.742500", "105351.692500", "105347.852500", "105351.802500", "105347.962500", "105351.912500", "105348.072500", "105352.022500", "105348.182500", "105352.132500", "105348.292500", "105352.242500", "105348.402500", "105352.352500", "105348.512500", "105352.460000", "105348.622500", "105352.570000", "105348.730000", "105352.680000", "105348.840000", "105352.790000", "105348.950000", "105352.900000", "105349.060000", "105353.010000", "105349.170000", "105353.120000", "105349.280000", "105353.230000", "105349.390000", "105353.340000", "105349.500000", "105353.447500", "105349.610000", "105353.557500", "105349.717500", "105353.667500", "105349.827500", "105353.777500", "105349.937500", "105353.887500", "105350.047500", "105353.997500", "105350.157500", "105357.967500", "105354.127500", "105358.077500", "105354.237500", "105358.187500", "105354.347500", "105358.295000", "105354.457500", "105358.405000", "105354.565000", "105358.515000", "105354.675000", "105358.625000", "105354.785000", "105358.735000", "105354.895000", "105358.845000", "105355.005000", "105358.955000", "105355.115000", "105359.065000", "105355.225000", "105359.175000", "105355.335000", "105359.282500", "105355.442500", "105359.392500", "105355.552500", "105359.502500", "105355.662500", "105359.612500", "105355.772500", "105359.722500", "105355.882500", "105359.832500", "105355.992500", "105359.942500", "105356.102500", "105400.052500", "105356.212500", "105400.160000", "105356.322500", "105400.270000", "105356.430000", "105400.380000", "105356.540000", "105400.490000", "105356.650000", "105400.600000", "105356.760000", "105400.710000", "105356.870000", "105400.820000", "105356.980000", "105400.930000", "105357.090000", "105401.040000", "105357.200000", "105401.147500", "105357.310000", "105401.257500", "105357.417500", "105401.367500", "105357.527500", "105401.477500", "105357.637500", "105401.587500", "105357.747500", "105401.697500", "105357.857500", "105405.667500", "105401.827500", "105405.777500", "105401.937500", "105405.887500", "105402.047500", "105405.995000", "105402.157500", "105406.105000", "105402.265000", "105406.215000", "105402.375000", "105406.325000", "105402.485000", "105406.435000", "105402.595000", "105406.545000", "105402.705000", "105406.655000", "105402.815000", "105406.765000", "105402.925000", "105406.875000", "105403.035000", "105406.982500", "105403.142500", "105407.092500", "105403.252500", "105407.202500", "105403.362500", "105407.312500", "105403.472500", "105407.422500", "105403.582500", "105407.532500", "105403.692500", "105407.642500", "105403.802500", "105407.752500", "105403.912500", "105407.860000", "105404.022500", "105407.970000", "105404.130000", "105408.080000", "105404.240000", "105408.190000", "105404.350000", "105408.300000", "105404.460000", "105408.410000", "105404.570000", "105408.520000", "105404.680000", "105408.630000", "105404.790000", "105408.740000", "105404.900000", "105408.847500", "105405.010000", "105408.957500", "105405.117500", "105409.067500", "105405.227500", "105409.177500", "105405.337500", "105409.287500", "105405.447500", "105409.397500", "105405.557500", "105413.367500", "105409.527500", "105413.477500", "105409.637500", "105413.587500", "105409.747500", "105413.695000", "105409.857500", "105413.805000", "105409.965000", "105413.915000", "105410.075000", "105414.025000", "105410.185000", "105414.135000", "105410.295000", "105414.245000", "105410.405000", "105414.355000", "105410.515000", "105414.465000", "105410.625000", "105414.575000", "105410.735000", "105414.682500", "105410.842500", "105414.792500", "105410.952500", "105414.902500", "105411.062500", "105415.012500", "105411.172500", "105415.122500", "105411.282500", "105415.232500", "105411.392500", "105415.342500", "105411.502500", "105415.452500", "105411.612500", "105415.560000", "105411.722500", "105415.670000", "105411.830000", "105415.780000", "105411.940000", "105415.890000", "105412.050000", "105416.000000", "105412.160000", "105416.110000", "105412.270000", "105416.220000", "105412.380000", "105416.330000", "105412.490000", "105416.440000", "105412.600000", "105416.547500", "105412.710000", "105416.657500", "105412.817500", "105416.767500", "105412.927500", "105416.877500", "105413.037500", "105416.987500", "105413.147500", "105417.097500", "105413.257500", "105421.067500", "105417.227500", "105421.177500", "105417.337500", "105421.287500", "105417.447500", "105421.395000", "105417.557500", "105421.505000", "105417.665000", "105421.615000", "105417.775000", "105421.725000", "105417.885000", "105421.835000", "105417.995000", "105421.945000", "105418.105000", "105422.055000", "105418.215000", "105422.165000", "105418.325000", "105422.275000", "105418.435000", "105422.382500", "105418.542500", "105422.492500", "105418.652500", "105422.602500", "105418.762500", "105422.712500", "105418.872500", "105422.822500", "105418.982500", "105422.932500", "10541