{
  "AcquisitionMatrixPE": 122,
  "AcquisitionNumber": 1,
  "AcquisitionTime": "10:56:9.477500",
  "BandwidthPerPixelPhaseEncode": 27.785,
  "BaseResolution": 122,
  "BodyPartExamined": "BRAIN",
  "CoilCombinationMethod": "Adaptive Combine",
  "ConsistencyInfo": "N4_VE11C_LATEST_20160120",
  "ConversionSoftware": "dcm2niix",
  "ConversionSoftwareVersion": "v1.0.20220720",
  "DerivedVendorReportedEchoSpacing": 0.000590011,
  "DeviceSerialNumber": "66112",
  "DiffusionScheme": "Monopolar",
  "DwellTime": 2e-06,
  "EchoTime": 0.068,
  "EchoTrainLength": 61,
  "EffectiveEchoSpacing": 0.000295005,
  "FlipAngle": 90,
  "HeudiconvVersion": "0.13.1",
  "ImageOrientationPatientDICOM": [0.988362, 0.151881, 0.00856186, -0.147359, 0.941919, 0.301784],
  "ImageOrientationText": "Tra>Cor(17.4)>Sag(-2.2)",
  "ImageType": [
    "ORIGINAL",
    "PRIMARY",
    "DIFFUSION",
    "NONE",
    "ND",
    "NORM"
],
  "ImagingFrequency": 123.252,
  "InPlanePhaseEncodingDirectionDICOM": "COL",
  "InstitutionAddress": "Maynard 3,Hanover,NH,US,03755",
  "InstitutionName": "Dartmouth College - PBS",
  "InstitutionalDepartmentName": "Department",
  "MRAcquisitionType": "2D",
  "MagneticFieldStrength": 3,
  "Manufacturer": "Siemens",
  "ManufacturersModelName": "Prisma",
  "Modality": "MR",
  "MultibandAccelerationFactor": 4,
  "NonlinearGradientCorrection": false,
  "ParallelReductionFactorInPlane": 2,
  "PartialFourier": 1,
  "PatientPosition": "HFS",
  "PercentPhaseFOV": 100,
  "PercentSampling": 100,
  "PhaseEncodingDirection": "j-",
  "PhaseEncodingSteps": 122,
  "PhaseResolution": 1,
  "PixelBandwidth": 2050,
  "ProcedureStepDescription": "dbic^QA",
  "ProtocolName": "dwi_acq-DTI-30-p2-s4",
  "PulseSequenceDetails": "%SiemensSeq%\\ep2d_diff",
  "ReceiveCoilActiveElements": "HEA;HEP",
  "ReceiveCoilName": "Head_32",
  "ReconMatrixPE": 122,
  "RefLinesPE": 38,
  "RepetitionTime": 3.6,
  "SAR": 0.160414,
  "ScanOptions": "FS",
  "ScanningSequence": "EP",
  "SequenceName": "*ep_b0",
  "SequenceVariant": "SK\\SP",
  "SeriesDescription": "dwi_acq-DTI-30-p2-s4",
  "SeriesNumber": 9,
  "ShimSetting": [4143, -7684, -7518, 332, -52, -257, -83, 56],
  "SliceThickness": 2,
  "SliceTiming": [2.58594, 0, 1.78906, 0.20312, 1.99219, 0.39844, 2.1875, 0.59375, 2.39062, 0.99219, 2.78125, 1.19531, 2.98438, 1.39062, 3.17969, 1.59375, 3.38281, 0.79688, 2.58594, 0, 1.78906, 0.20312, 1.99219, 0.39844, 2.1875, 0.59375, 2.39062, 0.99219, 2.78125, 1.19531, 2.98438, 1.39062, 3.17969, 1.59375, 3.38281, 0.79688, 2.58594, 0, 1.78906, 0.20312, 1.99219, 0.39844, 2.1875, 0.59375, 2.39062, 0.99219, 2.78125, 1.19531, 2.98438, 1.39062, 3.17969, 1.59375, 3.38281, 0.79688, 2.58594, 0, 1.78906, 0.20312, 1.99219, 0.39844, 2.1875, 0.59375, 2.39062, 0.99219, 2.78125, 1.19531, 2.98438, 1.39062, 3.17969, 1.59375, 3.38281, 0.79688],
  "SoftwareVersions": "syngo MR E11",
  "SpacingBetweenSlices": 2,
  "SpoilingState": true,
  "StationName": "AWP66112",
  "TotalReadoutTime": 0.0356956,
  "TxRefAmp": 235.423,
  "dcmmeta_affine": [
    [-1.9443180561065674, -0.28988638520240784, -0.07554173469543457, 139.71717834472656],
    [-0.29878321290016174, 1.85295569896698, 0.5990676879882812, -114.87753295898438],
    [0.016842996701598167, -0.593673825263977, 1.90667724609375, -34.83322525024414],
    [0.0, 0.0, 0.0, 1.0]
],
  "dcmmeta_reorient_transform": [
    [0.0, -1.0, 0.0, 121.0],
    [1.0, 0.0, 0.0, 0.0],
    [0.0, 0.0, -1.0, 71.0],
    [0.0, 0.0, 0.0, 1.0]
],
  "dcmmeta_shape": [122, 122, 72, 31],
  "dcmmeta_slice_dim": 2,
  "dcmmeta_version": 0.6,
  "global": {
    "const": {
      "AccessionNumber": "qa",
      "AcquisitionMatrix": [122, 0, 0, 122],
      "AngioFlag": "N",
      "BitsAllocated": 16,
      "BitsStored": 12,
      "BodyPartExamined": "BRAIN",
      "Columns": 122,
      "EchoNumbers": 1,
      "EchoTime": 68.0,
      "EchoTrainLength": 61,
      "FlipAngle": 90.0,
      "HighBit": 11,
      "ImageOrientationPatient": [0.98836163261415, 0.1518814596807, 0.00856185619793, -0.1473589029673, 0.94191913469202, 0.3017841901381],
      "ImageType": [
        "ORIGINAL",
        "PRIMARY",
        "DIFFUSION",
        "NONE",
        "ND",
        "NORM"
],
      "ImagedNucleus": "1H",
      "ImagingFrequency": 123.252456,
      "InPlanePhaseEncodingDirection": "COL",
      "MRAcquisitionType": "2D",
      "MagneticFieldStrength": 3.0,
      "Manufacturer": "SIEMENS",
      "ManufacturerModelName": "Prisma",
      "Modality": "MR",
      "NumberOfAverages": 1.0,
      "NumberOfPhaseEncodingSteps": 122,
      "PercentPhaseFieldOfView": 100.0,
      "PercentSampling": 100.0,
      "PerformedProcedureStepStartTime": "102224.195000",
      "PhotometricInterpretation": "MONOCHROME2",
      "PixelBandwidth": 2050.0,
      "PixelRepresentation": 0,
      "PixelSpacing": [1.9672131538391, 1.9672131538391],
      "ProtocolName": "dwi_acq-DTI-30-p2-s4",
      "RepetitionTime": 3600.0,
      "Rows": 122,
      "SAR": 0.16041360402144,
      "SamplesPerPixel": 1,
      "ScanOptions": "FS",
      "ScanningSequence": "EP",
      "SequenceVariant": [
        "SK",
        "SP"
],
      "SeriesDescription": "dwi_acq-DTI-30-p2-s4",
      "SeriesNumber": 9,
      "SeriesTime": "105618.294000",
      "SliceThickness": 2.0,
      "SmallestImagePixelValue": 0,
      "SoftwareVersions": "syngo MR E11",
      "SpacingBetweenSlices": 2.0,
      "SpecificCharacterSet": "ISO_IR 100",
      "StudyID": "50",
      "StudyTime": "102224.130000",
      "TransmitCoilName": "Body",
      "VariableFlipAngleFlag": "N",
      "WindowCenterWidthExplanation": "Algo1",
      "dBdt": 0.0},
    "slices": {
      "AcquisitionTime": ["105609.477500", "105606.890000", "105608.680000", "105607.090000", "105608.880000", "105607.290000", "105609.077500", "105607.487500", "105609.277500", "105607.885000", "105609.675000", "105608.085000", "105609.875000", "105608.282500", "105610.072500", "105608.482500", "105610.272500", "105607.687500", "105609.477500", "105606.890000", "105608.680000", "105607.090000", "105608.880000", "105607.290000", "105609.077500", "105607.487500", "105609.277500", "105607.885000", "105609.675000", "105608.085000", "105609.875000", "105608.282500", "105610.072500", "105608.482500", "105610.272500", "105607.687500", "105609.477500", "105606.890000", "105608.680000", "105607.090000", "105608.880000", "105607.290000", "105609.077500", "105607.487500", "105609.277500", "105607.885000", "105609.675000", "105608.085000", "105609.875000", "105608.282500", "105610.072500", "105608.482500", "105610.272500", "105607.687500", "105609.477500", "105606.890000", "105608.680000", "105607.090000", "105608.880000", "105607.290000", "105609.077500", "105607.487500", "105609.277500", "105607.885000", "105609.675000", "105608.085000", "105609.875000", "105608.282500", "105610.072500", "105608.482500", "105610.272500", "105607.687500", "105613.077500", "105610.490000", "105612.280000", "105610.690000", "105612.480000", "105610.890000", "105612.677500", "105611.087500", "105612.877500", "105611.485000", "105613.275000", "105611.685000", "105613.475000", "105611.882500", "105613.672500", "105612.082500", "105613.872500", "105611.287500", "105613.077500", "105610.490000", "105612.280000", "105610.690000", "105612.480000", "105610.890000", "105612.677500", "105611.087500", "105612.877500", "105611.485000", "105613.275000", "105611.685000", "105613.475000", "105611.882500", "105613.672500", "105612.082500", "105613.872500", "105611.287500", "105613.077500", "105610.490000", "105612.280000", "105610.690000", "105612.480000", "105610.890000", "105612.677500", "105611.087500", "105612.877500", "105611.485000", "105613.275000", "105611.685000", "105613.475000", "105611.882500", "105613.672500", "105612.082500", "105613.872500", "105611.287500", "105613.077500", "105610.490000", "105612.280000", "105610.690000", "105612.480000", "105610.890000", "105612.677500", "105611.087500", "105612.877500", "105611.485000", "105613.275000", "105611.685000", "105613.475000", "105611.882500", "105613.672500", "105612.082500", "105613.872500", "105611.287500", "105616.677500", "105614.090000", "105615.880000", "105614.290000", "105616.080000", "105614.490000", "105616.277500", "105614.687500", "105616.477500", "105615.085000", "105616.875000", "105615.285000", "105617.075000", "105615.482500", "105617.272500", "105615.682500", "105617.472500", "105614.887500", "105616.677500", "105614.090000", "105615.880000", "105614.290000", "105616.080000", "105614.490000", "105616.277500", "105614.687500", "105616.477500", "105615.085000", "105616.875000", "105615.285000", "105617.075000", "105615.482500", "105617.272500", "105615.682500", "105617.472500", "105614.887500", "105616.677500", "105614.090000", "105615.880000", "105614.290000", "105616.080000", "105614.490000", "105616.277500", "105614.687500", "105616.477500", "105615.085000", "105616.875000", "105615.285000", "105617.075000", "105615.482500", "105617.272500", "105615.682500", "105617.472500", "105614.887500", "105616.677500", "105614.090000", "105615.880000", "105614.290000", "105616.080000", "105614.490000", "105616.277500", "105614.687500", "105616.477500", "105615.085000", "105616.875000", "105615.285000", "105617.075000", "105615.482500", "105617.272500", "105615.682500", "105617.472500", "105614.887500", "105620.277500", "105617.690000", "105619.480000", "105617.890000", "105619.680000", "105618.090000", "105619.877500", "105618.287500", "105620.077500", "105618.685000", "105620.475000", "105618.885000", "105620.675000", "105619.082500", "105620.872500", "105619.282500", "105621.072500", "105618.487500", "105620.277500", "105617.690000", "105619.480000", "105617.890000", "105619.680000", "105618.090000", "105619.877500", "105618.287500", "105620.077500", "105618.685000", "105620.475000", "105618.885000", "105620.675000", "105619.082500", "105620.872500", "105619.282500", "105621.072500", "105618.487500", "105620.277500", "105617.690000", "105619.480000", "105617.890000", "105619.680000", "105618.090000", "105619.877500", "105618.287500", "105620.077500", "105618.685000", "105620.475000", "105618.885000", "105620.675000", "105619.082500", "105620.872500", "105619.282500", "105621.072500", "105618.487500", "105620.277500", "105617.690000", "105619.480000", "105617.890000", "105619.680000", "105618.090000", "105619.877500", "105618.287500", "105620.077500", "105618.685000", "105620.475000", "105618.885000", "105620.675000", "105619.082500", "105620.872500", "105619.282500", "105621.072500", "105618.487500", "105623.877500", "105621.290000", "105623.080000", "105621.490000", "105623.280000", "105621.690000", "105623.477500", "105621.887500", "105623.677500", "105622.285000", "105624.075000", "105622.485000", "105624.275000", "105622.682500", "105624.472500", "105622.882500", "105624.672500", "105622.087500", "105623.877500", "105621.290000", "105623.080000", "105621.490000", "105623.280000", "105621.690000", "105623.477500", "105621.887500", "105623.677500", "105622.285000", "105624.075000", "105622.485000", "105624.275000", "105622.682500", "105624.472500", "105622.882500", "105624.672500", "105622.087500", "105623.877500", "105621.290000", "105623.080000", "105621.490000", "105623.280000", "105621.690000", "105623.477500", "105621.887500", "105623.677500", "105622.285000", "105624.075000", "105622.485000", "105624.275000", "105622.682500", "105624.472500", "105622.882500", "105624.672500", "105622.087500", "105623.877500", "105621.290000", "105623.080000", "105621.490000", "105623.280000", "105621.690000", "105623.477500", "105621.887500", "105623.677500", "105622.285000", "105624.075000", "105622.485000", "105624.275000", "105622.682500", "105624.472500", "105622.882500", "105624.672500", "105622.087500", "105627.477500", "105624.890000", "105626.680000", "105625.090000", "105626.880000", "105625.290000", "105627.077500", "105625.487500", "105627.277500", "105625.885000", "105627.675000", "105626.085000", "105627.875000", "105626.282500", "105628.072500", "105626.482500", "105628.272500", "105625.687500", "105627.477500", "105624.890000", "105626.680000", "105625.090000", "105626.880000", "105625.290000", "105627.077500", "105625.487500", "105627.277500", "105625.885000", "105627.675000", "105626.085000", "105627.875000", "105626.282500", "105628.072500", "105626.482500", "105628.272500", "105625.687500", "105627.477500", "105624.890000", "105626.680000", "105625.090000", "105626.880000", "105625.290000", "105627.077500", "105625.487500", "105627.277500", "105625.885000", "105627.675000", "105626.085000", "105627.875000", "105626.282500", "105628.072500", "105626.482500", "105628.272500", "105625.687500", "105627.477500", "105624.890000", "105626.680000", "105625.090000", "105626.880000", "105625.290000", "105627.077500", "105625.487500", "105627.277500", "105625.885000", "105627.675000", "105626.085000", "105627.875000", "105626.282500", "105628.072500", "105626.482500", "105628.272500", "105625.687500", "105631.077500", "105628.490000", "105630.280000", "105628.690000", "105630.480000", "105628.890000", "105630.677500", "105629.087500", "105630.877500", "105629.485000", "105631.275000", "105629.685000", "105631.475000", "105629.882500", "105631.672500", "105630.082500", "105631.872500", "105629.287500", "105631.077500", "105628.490000", "105630.280000", "105628.690000", "105630.480000", "105628.890000", "105630.677500", "105629.087500", "105630.877500", "105629.485000", "105631.275000", "105629.685000", "105631.475000", "105629.882500", "105631.672500", "105630.082500", "105631.872500", "105629.287500", "105631.077500", "105628.490000", "105630.280000", "105628.690000", "105630.480000", "105628.890000", "105630.677500", "105629.087500", "105630.877500", "105629.485000", "105631.275000", "105629.685000", "105631.475000", "105629.882500", "105631.672500", "105630.082500", "105631.872500", "105629.287500", "105631.077500", "105628.490000", "105630.280000", "105628.690000", "105630.480000", "105628.890000", "105630.677500", "105629.087500", "105630.877500", "105629.485000", "105631.275000", "105629.685000", "105631.475000", "105629.882500", "105631.672500", "105630.082500", "105631.872500", "105629.287500", "105634.677500", "105632.090000", "105633.880000", "105632.290000", "105634.080000", "105632.490000", "105634.277500", "105632.687500", "105634.477500", "105633.085000", "105634.875000", "105633.285000", "105635.075000", "105633.482500", "105635.272500", "105633.682500", "105635.472500", "105632.887500", "105634.677500", "105632.090000", "105633.880000", "105632.290000", "105634.080000", "105632.490000", "105634.277500", "105632.687500", "105634.477500", "105633.085000", "105634.875000", "105633.285000", "105635.075000", "105633.482500", "105635.272500", "105633.682500", "105635.472500", "105632.887500", "105634.677500", "105632.090000", "105633.880000", "105632.290000", "105634.080000", "105632.490000", "105634.277500", "105632.687500", "105634.477500", "105633.085000", "105634.875000", "105633.285000", "105635.075000", "105633.482500", "105635.272500", "105633.682500", "105635.472500", "105632.887500", "105634.677500", "105632.090000", "105633.880000", "105632.290000", "105634.080000", "105632.490000", "105634.277500", "105632.687500", "105634.477500", "105633.085000", "105634.875000", "105633.285000", "105635.075000", "105633.482500", "105635.272500", "105633.682500", "105635.472500", "105632.887500", "105638.277500", "105635.690000", "105637.480000", "105635.890000", "105637.680000", "105636.090000", "105637.877500", "105636.287500", "105638.077500", "105636.685000", "105638.475000", "105636.885000", "105638.675000", "105637.082500", "105638.872500", "105637.282500", "105639.072500", "105636.487500", "105638.277500", "105635.690000", "105637.480000", "105635.890000", "105637.680000", "105636.090000", "105637.877500", "105636.287500", "105638.077500", "105636.685000", "105638.475000", "105636.885000", "105638.675000", "105637.082500", "105638.872500", "105637.282500", "105639.072500", "105636.487500", "105638.277500", "105635.690000", "105637.480000", "105635.890000", "105637.680000", "105636.090000", "105637.877500", "105636.287500", "105638.077500", "105636.685000", "105638.475000", "105636.885000", "105638.675000", "105637.082500", "105638.872500", "105637.282500", "105639.072500", "105636.487500", "105638.277500", "105635.690000", "105637.480000", "105635.890000", "105637.680000", "105636.090000", "105637.877500", "105636.287500", "105638.077500", "105636.685000", "105638.475000", "105636.885000", "105638.675000", "105637.082500", "105638.872500", "105637.282500", "105639.072500", "105636.487500", "105641.877500", "105639.290000", "105641.080000", "105639.490000", "105641.280000", "105639.690000", "105641.477500", "105639.887500", "105641.677500", "105640.285000", "105642.075000", "105640.485000", "105642.275000", "105640.682500", "105642.472500", "105640.882500", "105642.672500", "105640.087500", "105641.877500", "105639.290000", "105641.080000", "105639.490000", "105641.280000", "105639.690000", "105641.477500", "105639.887500", "105641.677500", "105640.285000", "105642.075000", "105640.485000", "105642.275000", "105640.682500", "105642.472500", "105640.882500", "105642.672500", "105640.087500", "105641.877500", "105639.290000", "105641.080000", "105639.490000", "105641.280000", "105639.690000", "105641.477500", "105639.887500", "105641.677500", "105640.285000", "105642.075000", "105640.485000", "105642.275000", "105640.682500", "105642.472500", "105640.882500", "105642.672500", "105640.087500", "105641.877500", "105639.290000", "105641.080000", "105639.490000", "105641.280000", "105639.690000", "105641.477500", "105639.887500", "105641.677500", "105640.285000", "105642.075000", "105640.485000", "105642.275000", "105640.682500", "105642.472500", "105640.882500", "105642.672500", "105640.087500", "105645.477500", "105642.890000", "105644.680000", "105643.090000", "105644.880000", "105643.290000", "105645.077500", "105643.487500", "105645.277500", "105643.885000", "105645.675000", "105644.085000", "105645.875000", "105644.282500", "105646.072500", "105644.482500", "105646.272500", "105643.687500", "105645.477500", "105642.890000", "105644.680000", "105643.090000", "105644.880000", "105643.290000", "105645.077500", "105643.487500", "105645.277500", "105643.885000", "105645.675000", "105644.085000", "105645.875000", "105644.282500", "105646.072500", "105644.482500", "105646.272500", "105643.687500", "105645.477500", "105642.890000", "105644.680000", "105643.090000", "105644.880000", "105643.290000", "105645.077500", "105643.487500", "105645.277500", "105643.885000", "105645.675000", "105644.085000", "105645.875000", "105644.282500", "105646.072500", "105644.482500", "105646.272500", "105643.687500", "105645.477500", "105642.890000", "105644.680000", "105643.090000", "105644.880000", "105643.290000", "105645.077500", "105643.487500", "105645.277500", "105643.885000", "105645.675000", "105644.085000", "105645.875000", "105644.282500", "105646.072500", "105644.482500", "105646.272500", "105643.687500", "105649.077500", "105646.490000", "105648.280000", "105646.690000", "105648.480000", "105646.890000", "105648.677500", "105647.087500", "105648.877500", "105647.485000", "105649.275000", "105647.685000", "105649.475000", "105647.882500", "105649.672500", "105648.082500", "105649.872500", "105647.287500", "105649.077500", "105646.490000", "105648.280000", "105646.690000", "105648.480000", "105646.890000", "105648.677500", "105647.087500", "105648.877500", "105647.485000", "105649.275000", "105647.685000", "105649.475000", "105647.882500", "105649.672500", "105648.082500", "105649.872500", "105647.287500", "105649.077500", "105646.490000", "105648.280000", "105646.690000", "105648.480000", "105646.890000", "105648.677500", "105647.087500", "105648.877500", "105647.485000", "105649.275000", "105647.685000", "105649.475000", "105647.882500", "105649.672500", "105648.082500", "105649.872500", "105647.287500", "105649.077500", "105646.490000", "105648.280000", "105646.690000", "105648.480000", "105646.890000", "105648.677500", "105647.087500", "105648.877500", "105647.485000", "105649.275000", "105647.685000", "105649.475000", "105647.882500", "105649.672500", "105648.082500", "105649.872500", "105647.287500", "105652.677500", "105650.090000", "105651.880000", "105650.290000", "105652.080000", "105650.490000", "105652.277500", "105650.687500", "105652.477500", "105651.085000", "105652.875000", "105651.285000", "105653.075000", "105651.482500", "105653.272500", "105651.682500", "105653.472500", "105650.887500", "105652.677500", "105650.090000", "105651.880000", "105650.290000", "105652.080000", "105650.490000", "105652.277500", "105650.687500", "105652.477500", "105651.085000", "105652.875000", "105651.285000", "105653.075000", "105651.482500", "105653.272500", "105651.682500", "105653.472500", "105650.887500", "105652.677500", "105650.090000", "105651.880000", "105650.290000", "105652.080000", "105650.490000", "105652.277500", "105650.687500", "105652.477500", "105651.085000", "105652.875000", "105651.285000", "105653.075000", "105651.482500", "105653.272500", "105651.682500", "105653.472500", "105650.887500", "105652.677500", "105650.090000", "105651.880000", "105650.290000", "105652.080000", "105650.490000", "105652.277500", "105650.687500", "105652.477500", "105651.085000", "105652.875000", "105651.285000", "105653.075000", "105651.482500", "105653.272500", "105651.682500", "105653.472500", "105650.887500", "105656.277500", "105653.690000", "105655.480000", "105653.890000", "105655.680000", "105654.090000", "105655.877500", "105654.287500", "105656.077500", "105654.685000", "105656.475000", "105654.885000", "105656.675000", "105655.082500", "105656.872500", "105655.282500", "105657.072500", "105654.487500", "105656.277500", "105653.690000", "105655.480000", "105653.890000", "105655.680000", "105654.090000", "105655.877500", "105654.287500", "105656.077500", "105654.685000", "105656.475000", "105654.885000", "105656.675000", "105655.082500", "105656.872500", "105655.282500", "105657.072500", "105654.487500", "105656.277500", "105653.690000", "105655.480000", "105653.890000", "105655.680000", "105654.090000", "105655.877500", "105654.287500", "105656.077500", "105654.685000", "105656.475000", "105654.885000", "105656.675000", "105655.082500", "105656.872500", "105655.282500", "105657.072500", "105654.487500", "105656.277500", "105653.690000", "105655.480000", "105653.890000", "105655.680000", "105654.090000", "105655.877500", "105654.287500", "105656.077500", "105654.685000", "105656.475000", "105654.885000", "105656.675000", "105655.082500", "105656.872500", "105655.282500", "105657.072500", "105654.487500", "105659.877500", "105657.290000", "105659.080000", "105657.490000", "105659.280000", "105657.690000", "105659.477500", "105657.887500", "105659.677500", "105658.285000", "105700.075000", "105658.485000", "105700.275000", "105658.682500", "105700.472500", "105658.882500", "105700.672500", "105658.087500", "105659.877500", "105657.290000", "105659.080000", "105657.490000", "105659.280000", "105657.690000", "105659.477500", "105657.887500", "105659.677500", "105658.285000", "105700.075000", "105658.485000", "105700.275000", "105658.682500", "105700.472500", "105658.882500", "105700.672500", "105658.087500", "105659.877500", "105657.290000", "105659.080000", "105657.490000", "105659.280000", "105657.690000", "105659.477500", "105657.887500", "105659.677500", "105658.285000", "105700.075000", "105658.485000", "105700.275000", "105658.682500", "105700.472500", "105658.882500", "105700.672500", "105658.087500", "105659.877500", "105657.290000", "105659.080000", "105657.490000", "105659.280000", "105657.690000", "105659.477500", "105657.887500", "105659.677500", "105658.285000", "105700.075000", "105658.485000", "105700.275000", "105658.682500", "105700.472500", "105658.882500", "105700.672500", "105658.087500", "105703.477500", "105700.890000", "105702.680000", "105701.090000", "105702.880000", "105701.290000", "105703.077500", "105701.487500", "105703.277500", "105701.885000", "105703.675000", "105702.085000", "105703.875000", "105702.282500", "105704.072500", "105702.482500", "105704.272500", "105701.687500", "105703.477500", "105700.890000", "105702.680000", "105701.090000", "105702.880000", "105701.290000", "105703.077500", "105701.487500", "105703.277500", "105701.885000", "105703.675000", "105702.085000", "105703.875000", "105702.282500", "105704.072500", "105702.482500", "105704.272500", "105701.687500", "105703.477500", "105700.890000", "105702.680000", "105701.090000", "105702.880000", "105701.290000", "105703.077500", "105701.487500", "105703.277500", "105701.885000", "105703.675000", "105702.085000", "105703.875000", "105702.282500", "105704.072500", "105702.482500", "105704.272500", "105701.687500", "105703.477500", "105700.890000", "105702.680000", "105701.090000", "105702.880000", "105701.290000", "105703.077500", "105701.487500", "105703.277500", "105701.885000", "105703.675000", "105702.085000", "105703.875000", "105702.282500", "105704.072500", "105702.482500", "105704.272500", "105701.687500", "105707.077500", "105704.490000", "105706.280000", "105704.690000", "105706.480000", "105704.890000", "105706.677500", "105705.087500", "105706.877500", "105705.485000", "105707.275000", "105705.685000", "105707.475000", "105705.882500", "105707.672500", "105706.082500", "105707.872500", "105705.287500", "105707.077500", "105704.490000", "105706.280000", "105704.690000", "105706.480000", "105704.890000", "105706.677500", "105705.087500", "105706.877500", "105705.485000", "105707.275000", "105705.685000", "105707.475000", "105705.882500", "105707.672500", "105706.082500", "105707.872500", "105705.287500", "105707.077500", "105704.490000", "105706.280000", "105704.690000", "105706.480000", "105704.890000", "105706.677500", "105705.087500", "105706.877500", "105705.485000", "105707.275000", "105705.685000", "105707.475000", "105705.882500", "105707.672500", "105706.082500", "105707.872500", "105705.287500", "105707.077500", "105704.490000", "105706.280000", "105704.690000", "105706.480000", "105704.890000", "105706.677500", "105705.087500", "105706.877500", "105705.485000", "105707.275000", "105705.685000", "105707.475000", "105705.882500", "105707.672500", "105706.082500", "105707.872500", "105705.287500", "105710.677500", "105708.090000", "105709.880000", "105708.290000", "105710.080000", "105708.490000", "105710.277500", "105708.687500", "105710.477500", "105709.085000", "105710.875000", "105709.285000", "105711.075000", "105709.482500", "105711.272500", "105709.682500", "105711.472500", "105708.887500", "105710.677500", "105708.090000", "105709.880000", "105708.290000", "105710.080000", "105708.490000", "105710.277500", "105708.687500", "105710.477500", "105709.085000", "105710.875000", "105709.285000", "105711.075000", "105709.482500", "105711.272500", "105709.682500", "105711.472500", "105708.887500", "105710.677500", "105708.090000", "105709.880000", "105708.290000", "105710.080000", "105708.490000", "105710.277500", "105708.687500", "105710.477500", "105709.085000", "105710.875000", "105709.285000", "105711.075000", "105709.482500", "105711.272500", "105709.682500", "105711.472500", "105708.887500", "105710.677500", "105708.090000", "105709.880000", "105708.290000", "105710.080000", "105708.490000", "105710.277500", "105708.687500", "105710.477500", "105709.085000", "105710.875000", "105709.285000", "105711.075000", "105709.482500", "105711.272500", "105709.682500", "105711.472500", "105708.887500", "105714.277500", "105711.690000", "105713.480000", "105711.890000", "105713.680000", "105712.090000", "105713.877500", "105712.287500", "105714.077500", "105712.685000", "105714.475000", "105712.885000", "105714.675000", "105713.082500", "105714.872500", "105713.282500", "105715.072500", "105712.487500", "105714.277500", "105711.690000", "105713.480000", "105711.890000", "105713.680000", "105712.090000", "105713.877500", "105712.287500", "105714.077500", "105712.685000", "105714.475000", "105712.885000", "105714.675000", "105713.082500", "105714.872500", "105713.282500", "105715.072500", "105712.487500", "105714.277500", "105711.690000", "105713.480000", "105711.890000", "105713.680000", "105712.090000", "105713.877500", "105712.287500", "105714.077500", "105712.685000", "105714.475000", "105712.885000", "105714.675000", "105713.082500", "105714.872500", "105713.282500", "105715.072500", "105712.487500", "105714.277500", "105711.690000", "105713.480000", "105711.890000", "105713.680000", "105712.090000", "105713.877500", "105712.287500", "105714.077500", "105712.685000", "105714.475000", "105712.885000", "105714.675000", "105713.082500", "105714.872500", "105713.282500", "105715.072500", "105712.487500", "105717.877500", "105715.290000", "105717.080000", "105715.490000", "105717.280000", "105715.690000", "105717.477500", "105715.887500", "105717.677500", "105716.285000", "105718.075000", "105716.485000", "105718.275000", "105716.682500", "105718.472500", "105716.882500", "105718.672500", "105716.087500", "105717.877500", "105715.290000", "105717.080000", "105715.490000", "105717.280000", "105715.690000", "105717.477500", "105715.887500", "105717.677500", "105716.285000", "105718.075000", "105716.485000", "105718.275000", "105716.682500", "105718.472500", "105716.882500", "105718.672500", "105716.087500", "105717.877500", "105715.290000", "105717.080000", "105715.490000", "105717.280000", "105715.690000", "105717.477500", "105715.887500", "105717.677500", "105716.285000", "105718.075000", "105716.485000", "105718.275000", "105716.682500", "105718.472500", "105716.882500", "105718.672500", "105716.087500", "105717.877500", "105715.290000", "105717.080000", "105715.490000", "105717.280000", "105715.690000", "105717.477500", "105715.887500", "105717.677500", "105716.285000", "105718.075000", "10571