{
  "AcquisitionMatrixPE": 122,
  "AcquisitionNumber": 1,
  "AcquisitionTime": "09:49:43.087500",
  "BandwidthPerPixelPhaseEncode": 28.76,
  "BaseResolution": 122,
  "BodyPartExamined": "BRAIN",
  "CoilCombinationMethod": "Adaptive Combine",
  "ConsistencyInfo": "N4_VE11C_LATEST_20160120",
  "ConversionSoftware": "dcm2niix",
  "ConversionSoftwareVersion": "v1.0.20220720",
  "DerivedVendorReportedEchoSpacing": 0.000570008,
  "DeviceSerialNumber": "66112",
  "DiffusionScheme": "Monopolar",
  "DwellTime": 2e-06,
  "EchoTime": 0.075,
  "EchoTrainLength": 61,
  "EffectiveEchoSpacing": 0.000285004,
  "FlipAngle": 90,
  "HeudiconvVersion": "0.13.1",
  "ImageOrientationPatientDICOM": [0.988379, 0.151847, 0.00702088, -0.146656, 0.940405, 0.306808],
  "ImageOrientationText": "Tra>Cor(17.7)>Sag(-2.3)",
  "ImageType": [
    "ORIGINAL",
    "PRIMARY",
    "DIFFUSION",
    "NONE",
    "ND",
    "NORM"
],
  "ImagingFrequency": 123.252,
  "InPlanePhaseEncodingDirectionDICOM": "COL",
  "InstitutionAddress": "Maynard 3,Hanover,NH,US,03755",
  "InstitutionName": "Dartmouth College - PBS",
  "InstitutionalDepartmentName": "Department",
  "MRAcquisitionType": "2D",
  "MagneticFieldStrength": 3,
  "Manufacturer": "Siemens",
  "ManufacturersModelName": "Prisma",
  "MatrixCoilMode": "GRAPPA",
  "Modality": "MR",
  "NonlinearGradientCorrection": false,
  "ParallelReductionFactorInPlane": 2,
  "PartialFourier": 1,
  "PatientPosition": "HFS",
  "PercentPhaseFOV": 100,
  "PercentSampling": 100,
  "PhaseEncodingDirection": "j-",
  "PhaseEncodingSteps": 122,
  "PhaseResolution": 1,
  "PixelBandwidth": 2050,
  "ProcedureStepDescription": "dbic^QA",
  "ProtocolName": "dwi_acq-DTI-30-p2",
  "PulseSequenceDetails": "%SiemensSeq%\\ep2d_diff",
  "ReceiveCoilActiveElements": "HEA;HEP",
  "ReceiveCoilName": "Head_32",
  "ReconMatrixPE": 122,
  "RefLinesPE": 38,
  "RepetitionTime": 7.7,
  "SAR": 0.1017,
  "ScanOptions": "FS",
  "ScanningSequence": "EP",
  "SequenceName": "*ep_b0",
  "SequenceVariant": "SK\\SP",
  "SeriesDescription": "dwi_acq-DTI-30-p2",
  "SeriesNumber": 12,
  "ShimSetting": [4144, -7707, -7508, 251, -77, -136, -24, 67],
  "SliceThickness": 2,
  "SliceTiming": [3.83594, 0, 3.94531, 0.10938, 4.05469, 0.21875, 4.16406, 0.32812, 4.28125, 0.4375, 4.39062, 0.54688, 4.49219, 0.65625, 4.60156, 0.76562, 4.71875, 0.875, 4.82812, 0.98438, 4.9375, 1.09375, 5.04688, 1.20312, 5.15625, 1.3125, 5.26562, 1.42188, 5.375, 1.53125, 5.48438, 1.64062, 5.59375, 1.75, 5.70312, 1.85938, 5.8125, 1.96875, 5.92188, 2.08594, 6.03125, 2.19531, 6.14062, 2.30469, 6.25, 2.41406, 6.35938, 2.52344, 6.46875, 2.63281, 6.57812, 2.74219, 6.6875, 2.85156, 6.79688, 2.96094, 6.90625, 3.07031, 7.02344, 3.17969, 7.13281, 3.28906, 7.23438, 3.39844, 7.34375, 3.50781, 7.46094, 3.61719, 7.57031, 3.72656],
  "SoftwareVersions": "syngo MR E11",
  "SpacingBetweenSlices": 2,
  "SpoilingState": true,
  "StationName": "AWP66112",
  "TotalReadoutTime": 0.0344855,
  "TxRefAmp": 235.792,
  "dcmmeta_affine": [
    [-1.9443522691726685, -0.28850415349006653, -0.07997095584869385, 139.80557250976562],
    [-0.29871606826782227, 1.8499763011932373, 0.6085453033447266, -104.83982849121094],
    [0.0138115668669343, -0.6035566926002502, 1.9034881591796875, -20.213096618652344],
    [0.0, 0.0, 0.0, 1.0]
],
  "dcmmeta_reorient_transform": [
    [0.0, -1.0, 0.0, 121.0],
    [1.0, 0.0, 0.0, 0.0],
    [0.0, 0.0, -1.0, 69.0],
    [0.0, 0.0, 0.0, 1.0]
],
  "dcmmeta_shape": [122, 122, 70, 31],
  "dcmmeta_slice_dim": 2,
  "dcmmeta_version": 0.6,
  "global": {
    "const": {
      "AccessionNumber": "qa",
      "AcquisitionMatrix": [122, 0, 0, 122],
      "AngioFlag": "N",
      "BitsAllocated": 16,
      "BitsStored": 12,
      "BodyPartExamined": "BRAIN",
      "Columns": 122,
      "EchoNumbers": 1,
      "EchoTime": 75.0,
      "EchoTrainLength": 61,
      "FlipAngle": 90.0,
      "HighBit": 11,
      "ImageOrientationPatient": [0.98837902510826, 0.15184732456256, 0.00702087952079, -0.146656272686, 0.94040459666162, 0.30680797293998],
      "ImageType": [
        "ORIGINAL",
        "PRIMARY",
        "DIFFUSION",
        "NONE",
        "ND",
        "NORM"
],
      "ImagedNucleus": "1H",
      "ImagingFrequency": 123.252383,
      "InPlanePhaseEncodingDirection": "COL",
      "MRAcquisitionType": "2D",
      "MagneticFieldStrength": 3.0,
      "Manufacturer": "SIEMENS",
      "ManufacturerModelName": "Prisma",
      "Modality": "MR",
      "NumberOfAverages": 1.0,
      "NumberOfPhaseEncodingSteps": 122,
      "PercentPhaseFieldOfView": 100.0,
      "PercentSampling": 100.0,
      "PerformedProcedureStepStartTime": "091618.052000",
      "PhotometricInterpretation": "MONOCHROME2",
      "PixelBandwidth": 2050.0,
      "PixelRepresentation": 0,
      "PixelSpacing": [1.9672131538391, 1.9672131538391],
      "ProtocolName": "dwi_acq-DTI-30-p2",
      "RepetitionTime": 7700.0,
      "Rows": 122,
      "SAR": 0.10169953468488,
      "SamplesPerPixel": 1,
      "ScanOptions": "FS",
      "ScanningSequence": "EP",
      "SequenceVariant": [
        "SK",
        "SP"
],
      "SeriesDescription": "dwi_acq-DTI-30-p2",
      "SeriesNumber": 12,
      "SeriesTime": "095000.448000",
      "SliceThickness": 2.0,
      "SmallestImagePixelValue": 0,
      "SoftwareVersions": "syngo MR E11",
      "SpacingBetweenSlices": 2.0,
      "SpecificCharacterSet": "ISO_IR 100",
      "StudyID": "7",
      "StudyTime": "091617.980000",
      "TransmitCoilName": "Body",
      "VariableFlipAngleFlag": "N",
      "WindowCenterWidthExplanation": "Algo1",
      "dBdt": 0.0},
    "slices": {
      "AcquisitionTime": ["094943.087500", "094939.247500", "094943.197500", "094939.357500", "094943.307500", "094939.467500", "094943.417500", "094939.577500", "094943.527500", "094939.687500", "094943.637500", "094939.797500", "094943.745000", "094939.905000", "094943.855000", "094940.015000", "094943.965000", "094940.125000", "094944.075000", "094940.235000", "094944.185000", "094940.345000", "094944.295000", "094940.455000", "094944.405000", "094940.565000", "094944.515000", "094940.675000", "094944.622500", "094940.785000", "094944.732500", "094940.892500", "094944.842500", "094941.002500", "094944.952500", "094941.112500", "094945.062500", "094941.222500", "094945.172500", "094941.332500", "094945.282500", "094941.442500", "094945.392500", "094941.552500", "094945.502500", "094941.662500", "094945.610000", "094941.770000", "094945.720000", "094941.880000", "094945.830000", "094941.990000", "094945.940000", "094942.100000", "094946.050000", "094942.210000", "094946.160000", "094942.320000", "094946.270000", "094942.430000", "094946.380000", "094942.540000", "094946.487500", "094942.650000", "094946.597500", "094942.757500", "094946.707500", "094942.867500", "094946.817500", "094942.977500", "094950.787500", "094946.947500", "094950.897500", "094947.057500", "094951.007500", "094947.167500", "094951.117500", "094947.277500", "094951.227500", "094947.387500", "094951.337500", "094947.497500", "094951.445000", "094947.605000", "094951.555000", "094947.715000", "094951.665000", "094947.825000", "094951.775000", "094947.935000", "094951.885000", "094948.045000", "094951.995000", "094948.155000", "094952.105000", "094948.265000", "094952.215000", "094948.375000", "094952.322500", "094948.485000", "094952.432500", "094948.592500", "094952.542500", "094948.702500", "094952.652500", "094948.812500", "094952.762500", "094948.922500", "094952.872500", "094949.032500", "094952.982500", "094949.142500", "094953.092500", "094949.252500", "094953.202500", "094949.362500", "094953.310000", "094949.470000", "094953.420000", "094949.580000", "094953.530000", "094949.690000", "094953.640000", "094949.800000", "094953.750000", "094949.910000", "094953.860000", "094950.020000", "094953.970000", "094950.130000", "094954.080000", "094950.240000", "094954.187500", "094950.350000", "094954.297500", "094950.457500", "094954.407500", "094950.567500", "094954.517500", "094950.677500", "094958.487500", "094954.647500", "094958.597500", "094954.757500", "094958.707500", "094954.867500", "094958.817500", "094954.977500", "094958.927500", "094955.087500", "094959.037500", "094955.197500", "094959.145000", "094955.305000", "094959.255000", "094955.415000", "094959.365000", "094955.525000", "094959.475000", "094955.635000", "094959.585000", "094955.745000", "094959.695000", "094955.855000", "094959.805000", "094955.965000", "094959.915000", "094956.075000", "095000.022500", "094956.185000", "095000.132500", "094956.292500", "095000.242500", "094956.402500", "095000.352500", "094956.512500", "095000.462500", "094956.622500", "095000.572500", "094956.732500", "095000.682500", "094956.842500", "095000.792500", "094956.952500", "095000.902500", "094957.062500", "095001.010000", "094957.170000", "095001.120000", "094957.280000", "095001.230000", "094957.390000", "095001.340000", "094957.500000", "095001.450000", "094957.610000", "095001.560000", "094957.720000", "095001.670000", "094957.830000", "095001.780000", "094957.940000", "095001.887500", "094958.050000", "095001.997500", "094958.157500", "095002.107500", "094958.267500", "095002.217500", "094958.377500", "095006.187500", "095002.347500", "095006.297500", "095002.457500", "095006.407500", "095002.567500", "095006.517500", "095002.677500", "095006.627500", "095002.787500", "095006.737500", "095002.897500", "095006.845000", "095003.005000", "095006.955000", "095003.115000", "095007.065000", "095003.225000", "095007.175000", "095003.335000", "095007.285000", "095003.445000", "095007.395000", "095003.555000", "095007.505000", "095003.665000", "095007.615000", "095003.775000", "095007.722500", "095003.885000", "095007.832500", "095003.992500", "095007.942500", "095004.102500", "095008.052500", "095004.212500", "095008.162500", "095004.322500", "095008.272500", "095004.432500", "095008.382500", "095004.542500", "095008.492500", "095004.652500", "095008.602500", "095004.762500", "095008.710000", "095004.870000", "095008.820000", "095004.980000", "095008.930000", "095005.090000", "095009.040000", "095005.200000", "095009.150000", "095005.310000", "095009.260000", "095005.420000", "095009.370000", "095005.530000", "095009.480000", "095005.640000", "095009.587500", "095005.750000", "095009.697500", "095005.857500", "095009.807500", "095005.967500", "095009.917500", "095006.077500", "095013.887500", "095010.047500", "095013.997500", "095010.157500", "095014.107500", "095010.267500", "095014.217500", "095010.377500", "095014.327500", "095010.487500", "095014.437500", "095010.597500", "095014.545000", "095010.705000", "095014.655000", "095010.815000", "095014.765000", "095010.925000", "095014.875000", "095011.035000", "095014.985000", "095011.145000", "095015.095000", "095011.255000", "095015.205000", "095011.365000", "095015.315000", "095011.475000", "095015.422500", "095011.585000", "095015.532500", "095011.692500", "095015.642500", "095011.802500", "095015.752500", "095011.912500", "095015.862500", "095012.022500", "095015.972500", "095012.132500", "095016.082500", "095012.242500", "095016.192500", "095012.352500", "095016.302500", "095012.462500", "095016.410000", "095012.570000", "095016.520000", "095012.680000", "095016.630000", "095012.790000", "095016.740000", "095012.900000", "095016.850000", "095013.010000", "095016.960000", "095013.120000", "095017.070000", "095013.230000", "095017.180000", "095013.340000", "095017.287500", "095013.450000", "095017.397500", "095013.557500", "095017.507500", "095013.667500", "095017.617500", "095013.777500", "095021.587500", "095017.747500", "095021.697500", "095017.857500", "095021.807500", "095017.967500", "095021.917500", "095018.077500", "095022.027500", "095018.187500", "095022.137500", "095018.297500", "095022.245000", "095018.405000", "095022.355000", "095018.515000", "095022.465000", "095018.625000", "095022.575000", "095018.735000", "095022.685000", "095018.845000", "095022.795000", "095018.955000", "095022.905000", "095019.065000", "095023.015000", "095019.175000", "095023.122500", "095019.285000", "095023.232500", "095019.392500", "095023.342500", "095019.502500", "095023.452500", "095019.612500", "095023.562500", "095019.722500", "095023.672500", "095019.832500", "095023.782500", "095019.942500", "095023.892500", "095020.052500", "095024.002500", "095020.162500", "095024.110000", "095020.270000", "095024.220000", "095020.380000", "095024.330000", "095020.490000", "095024.440000", "095020.600000", "095024.550000", "095020.710000", "095024.660000", "095020.820000", "095024.770000", "095020.930000", "095024.880000", "095021.040000", "095024.987500", "095021.150000", "095025.097500", "095021.257500", "095025.207500", "095021.367500", "095025.317500", "095021.477500", "095029.287500", "095025.447500", "095029.397500", "095025.557500", "095029.507500", "095025.667500", "095029.617500", "095025.777500", "095029.727500", "095025.887500", "095029.837500", "095025.997500", "095029.945000", "095026.105000", "095030.055000", "095026.215000", "095030.165000", "095026.325000", "095030.275000", "095026.435000", "095030.385000", "095026.545000", "095030.495000", "095026.655000", "095030.605000", "095026.765000", "095030.715000", "095026.875000", "095030.822500", "095026.985000", "095030.932500", "095027.092500", "095031.042500", "095027.202500", "095031.152500", "095027.312500", "095031.262500", "095027.422500", "095031.372500", "095027.532500", "095031.482500", "095027.642500", "095031.592500", "095027.752500", "095031.702500", "095027.862500", "095031.810000", "095027.970000", "095031.920000", "095028.080000", "095032.030000", "095028.190000", "095032.140000", "095028.300000", "095032.250000", "095028.410000", "095032.360000", "095028.520000", "095032.470000", "095028.630000", "095032.580000", "095028.740000", "095032.687500", "095028.850000", "095032.797500", "095028.957500", "095032.907500", "095029.067500", "095033.017500", "095029.177500", "095036.987500", "095033.147500", "095037.097500", "095033.257500", "095037.207500", "095033.367500", "095037.317500", "095033.477500", "095037.427500", "095033.587500", "095037.537500", "095033.697500", "095037.645000", "095033.805000", "095037.755000", "095033.915000", "095037.865000", "095034.025000", "095037.975000", "095034.135000", "095038.085000", "095034.245000", "095038.195000", "095034.355000", "095038.305000", "095034.465000", "095038.415000", "095034.575000", "095038.522500", "095034.685000", "095038.632500", "095034.792500", "095038.742500", "095034.902500", "095038.852500", "095035.012500", "095038.962500", "095035.122500", "095039.072500", "095035.232500", "095039.182500", "095035.342500", "095039.292500", "095035.452500", "095039.402500", "095035.562500", "095039.510000", "095035.670000", "095039.620000", "095035.780000", "095039.730000", "095035.890000", "095039.840000", "095036.000000", "095039.950000", "095036.110000", "095040.060000", "095036.220000", "095040.170000", "095036.330000", "095040.280000", "095036.440000", "095040.387500", "095036.550000", "095040.497500", "095036.657500", "095040.607500", "095036.767500", "095040.717500", "095036.877500", "095044.687500", "095040.847500", "095044.797500", "095040.957500", "095044.907500", "095041.067500", "095045.017500", "095041.177500", "095045.127500", "095041.287500", "095045.237500", "095041.397500", "095045.345000", "095041.505000", "095045.455000", "095041.615000", "095045.565000", "095041.725000", "095045.675000", "095041.835000", "095045.785000", "095041.945000", "095045.895000", "095042.055000", "095046.005000", "095042.165000", "095046.115000", "095042.275000", "095046.222500", "095042.385000", "095046.332500", "095042.492500", "095046.442500", "095042.602500", "095046.552500", "095042.712500", "095046.662500", "095042.822500", "095046.772500", "095042.932500", "095046.882500", "095043.042500", "095046.992500", "095043.152500", "095047.102500", "095043.262500", "095047.210000", "095043.370000", "095047.320000", "095043.480000", "095047.430000", "095043.590000", "095047.540000", "095043.700000", "095047.650000", "095043.810000", "095047.760000", "095043.920000", "095047.870000", "095044.030000", "095047.980000", "095044.140000", "095048.087500", "095044.250000", "095048.197500", "095044.357500", "095048.307500", "095044.467500", "095048.417500", "095044.577500", "095052.387500", "095048.547500", "095052.497500", "095048.657500", "095052.607500", "095048.767500", "095052.717500", "095048.877500", "095052.827500", "095048.987500", "095052.937500", "095049.097500", "095053.045000", "095049.205000", "095053.155000", "095049.315000", "095053.265000", "095049.425000", "095053.375000", "095049.535000", "095053.485000", "095049.645000", "095053.595000", "095049.755000", "095053.705000", "095049.865000", "095053.815000", "095049.975000", "095053.922500", "095050.085000", "095054.032500", "095050.192500", "095054.142500", "095050.302500", "095054.252500", "095050.412500", "095054.362500", "095050.522500", "095054.472500", "095050.632500", "095054.582500", "095050.742500", "095054.692500", "095050.852500", "095054.802500", "095050.962500", "095054.910000", "095051.070000", "095055.020000", "095051.180000", "095055.130000", "095051.290000", "095055.240000", "095051.400000", "095055.350000", "095051.510000", "095055.460000", "095051.620000", "095055.570000", "095051.730000", "095055.680000", "095051.840000", "095055.787500", "095051.950000", "095055.897500", "095052.057500", "095056.007500", "095052.167500", "095056.117500", "095052.277500", "095100.087500", "095056.247500", "095100.197500", "095056.357500", "095100.307500", "095056.467500", "095100.417500", "095056.577500", "095100.527500", "095056.687500", "095100.637500", "095056.797500", "095100.745000", "095056.905000", "095100.855000", "095057.015000", "095100.965000", "095057.125000", "095101.075000", "095057.235000", "095101.185000", "095057.345000", "095101.295000", "095057.455000", "095101.405000", "095057.565000", "095101.515000", "095057.675000", "095101.622500", "095057.785000", "095101.732500", "095057.892500", "095101.842500", "095058.002500", "095101.952500", "095058.112500", "095102.062500", "095058.222500", "095102.172500", "095058.332500", "095102.282500", "095058.442500", "095102.392500", "095058.552500", "095102.502500", "095058.662500", "095102.610000", "095058.770000", "095102.720000", "095058.880000", "095102.830000", "095058.990000", "095102.940000", "095059.100000", "095103.050000", "095059.210000", "095103.160000", "095059.320000", "095103.270000", "095059.430000", "095103.380000", "095059.540000", "095103.487500", "095059.650000", "095103.597500", "095059.757500", "095103.707500", "095059.867500", "095103.817500", "095059.977500", "095107.787500", "095103.947500", "095107.897500", "095104.057500", "095108.007500", "095104.167500", "095108.117500", "095104.277500", "095108.227500", "095104.387500", "095108.337500", "095104.497500", "095108.445000", "095104.605000", "095108.555000", "095104.715000", "095108.665000", "095104.825000", "095108.775000", "095104.935000", "095108.885000", "095105.045000", "095108.995000", "095105.155000", "095109.105000", "095105.265000", "095109.215000", "095105.375000", "095109.322500", "095105.485000", "095109.432500", "095105.592500", "095109.542500", "095105.702500", "095109.652500", "095105.812500", "095109.762500", "095105.922500", "095109.872500", "095106.032500", "095109.982500", "095106.142500", "095110.092500", "095106.252500", "095110.202500", "095106.362500", "095110.310000", "095106.470000", "095110.420000", "095106.580000", "095110.530000", "095106.690000", "095110.640000", "095106.800000", "095110.750000", "095106.910000", "095110.860000", "095107.020000", "095110.970000", "095107.130000", "095111.080000", "095107.240000", "095111.187500", "095107.350000", "095111.297500", "095107.457500", "095111.407500", "095107.567500", "095111.517500", "095107.677500", "095115.487500", "095111.647500", "095115.597500", "095111.757500", "095115.707500", "095111.867500", "095115.817500", "095111.977500", "095115.927500", "095112.087500", "095116.037500", "095112.197500", "095116.145000", "095112.305000", "095116.255000", "095112.415000", "095116.365000", "095112.525000", "095116.475000", "095112.635000", "095116.585000", "095112.745000", "095116.695000", "095112.855000", "095116.805000", "095112.965000", "095116.915000", "095113.075000", "095117.022500", "095113.185000", "095117.132500", "095113.292500", "095117.242500", "095113.402500", "095117.352500", "095113.512500", "095117.462500", "095113.622500", "095117.572500", "095113.732500", "095117.682500", "095113.842500", "095117.792500", "095113.952500", "095117.902500", "095114.062500", "095118.010000", "095114.170000", "095118.120000", "095114.280000", "095118.230000", "095114.390000", "095118.340000", "095114.500000", "095118.450000", "095114.610000", "095118.560000", "095114.720000", "095118.670000", "095114.830000", "095118.780000", "095114.940000", "095118.887500", "095115.050000", "095118.997500", "095115.157500", "095119.107500", "095115.267500", "095119.217500", "095115.377500", "095123.187500", "095119.347500", "095123.297500", "095119.457500", "095123.407500", "095119.567500", "095123.517500", "095119.677500", "095123.627500", "095119.787500", "095123.737500", "095119.897500", "095123.845000", "095120.005000", "095123.955000", "095120.115000", "095124.065000", "095120.225000", "095124.175000", "095120.335000", "095124.285000", "095120.445000", "095124.395000", "095120.555000", "095124.505000", "095120.665000", "095124.615000", "095120.775000", "095124.722500", "095120.885000", "095124.832500", "095120.992500", "095124.942500", "095121.102500", "095125.052500", "095121.212500", "095125.162500", "095121.322500", "095125.272500", "095121.432500", "095125.382500", "095121.542500", "095125.492500", "095121.652500", "095125.602500", "095121.762500", "095125.710000", "095121.870000", "095125.820000", "095121.980000", "095125.930000", "095122.090000", "095126.040000", "095122.200000", "095126.150000", "095122.310000", "095126.260000", "095122.420000", "095126.370000", "095122.530000", "095126.480000", "095122.640000", "095126.587500", "095122.750000", "095126.697500", "095122.857500", "095126.807500", "095122.967500", "095126.917500", "095123.077500", "095130.887500", "095127.047500", "095130.997500", "095127.157500", "095131.107500", "095127.267500", "095131.217500", "095127.377500", "095131.327500", "095127.487500", "095131.437500", "095127.597500", "095131.545000", "095127.705000", "095131.655000", "095127.815000", "095131.765000", "095127.925000", "095131.875000", "095128.035000", "095131.985000", "095128.145000", "095132.095000", "095128.255000", "095132.205000", "095128.365000", "095132.315000", "095128.475000", "095132.422500", "095128.585000", "095132.532500", "095128.692500", "095132.642500", "095128.802500", "095132.752500", "095128.912500", "095132.862500", "095129.022500", "095132.972500", "095129.132500", "095133.082500", "095129.242500", "095133.192500", "095129.352500", "095133.302500", "095129.462500", "095133.410000", "095129.570000", "095133.520000", "095129.680000", "095133.630000", "095129.790000", "095133.740000", "095129.900000", "095133.850000", "095130.010000", "095133.960000", "095130.120000", "095134.070000", "095130.230000", "095134.180000", "095130.340000", "095134.287500", "095130.450000", "095134.397500", "095130.557500", "095134.507500", "095130.667500", "095134.617500", "095130.777500", "095138.587500", "095134.747500", "095138.697500", "095134.857500", "095138.807500", "095134.967500", "095138.917500", "095135.077500", "095139.027500", "095135.187500", "095139.137500", "095135.297500", "095139.245000", "095135.405000", "095139.355000", "095135.515000", "095139.465000", "095135.625000", "095139.575000", "095135.735000", "095139.685000", "095135.845000", "095139.795000", "095135.955000", "095139.905000", "095136.065000", "095140.015000", "095136.175000", "095140.122500", "095136.285000", "095140.232500", "095136.392500", "095140.342500", "095136.502500", "095140.452500", "095136.612500", "095140.562500", "095136.722500", "095140.672500", "095136.832500", "095140.782500", "095136.942500", "095140.892500", "095137.052500", "095141.002500", "095137.162500", "095141.110000", "095137.270000", "095141.220000", "095137.380000", "095141.330000", "095137.490000", "095141.440000", "095137.600000", "095141.550000", "095137.710000", "095141.660000", "095137.820000", "095141.770000", "095137.930000", "095141.880000", "095138.040000", "095141.987500", "095138.150000", "095142.097500", "095138.257500", "095142.207500", "095138.367500", "095142.317500", "095138.477500", "095146.287500", "095142.447500", "095146.397500", "095142.557500", "095146.507500", "095142.667500", "095146.617500", "095142.777500", "095146.727500", "095142.887500", "095146.837500", "095142.997500", "095146.945000", "095143.105000", "095147.055000", "095143.215000", "095147.165000", "095143.325000", "095147.275000", "095143.435000", "095147.385000", "095143.545000", "095147.495000", "095143.655000", "095147.605000", "095143.765000", "095147.715000", "095143.875000", "095147.822500", "095143.985000", "095147.932500", "095144.092500", "095148.042500", "095144.202500", "095148.152500", "095144.312500", "095148.262500", "095144.422500", "095148.372500", "095144.532500", "095148.482500", "095144.642500", "095148.592500", "095144.752500", "095148.702500", "095144.862500", "095148.810000", "095144.970000", "095148.920000", "095145.080000", "095149.030000", "095145.190000", "095149.140000", "095145.300000", "095149.250000", "095145.410000", "095149.360000", "095145.520000", "095149.470000", "095145.630000", "095149.580000", "095145.740000", "095149.687500", "095145.850000", "095149.797500", "095145.957500", "095149.907500", "095146.067500", "095150.017500", "095146.177500", "095153.987500", "095150.147500", "095154.097500", "095150.257500", "095154.207500", "095150.367500", "095154.317500", "095150.477500", "095154.427500", "095150.587500", "095154.537500", "095150.697500", "095154.645000", "095150.805000", "095154.755000", "095150.915000", "095154.865000", "095151.025000", "095154.975000", "095151.135000", "095155.085000", "095151.245000", "095155.195000", "095151.355000", "095155.305000", "095151.465000", "095155.415000", "095151.575000", "095155.522500", "095151.685000", "095155.632500", "095151.792500", "095155.742500", "095151.902500", "095155.852500", "095152.012500", "095155.962500", "095152.122500", "095156.072500", "095152.232500", "095156.182500", "095152.342500", "095156.292500", "095152.452500", "095156.402500", "095152.562500", "095156.510000", "095152.670000", "095156.620000", "095152.780000", "095156.730000", "095152.890000", "095156.840000", "095153.000000", "095156.950000", "095153.110000", "095157.060000", "095153.220000", "095157.170000", "095153.330000", "095157.280000", "095153.440000", "095157.387500", "095153.550000", "095157.497500", "095153.657500", "095157.607500", "095153.767500", "095157.717500", "095153.877500", "095201.687500", "095157.847500", "095201.797500", "095157.957500", "095201.907500", "095158.067500", "095202.017500", "095158.177500", "095202.127500", "095158.287500", "095202.237500", "095158.397500", "095202.345000", "095158.505000", "095202.455000", "095158.615000", "095202.565000", "095158.725000", "095202.675000", "095158.835000", "095202.785000", "095158.945000", "095202.895000", "095159.055000", "095203.005000", "095159.165000", "095203.115000", "095159.275000", "095203.222500", "095159.385000", "095203.332500", "095159.492500", "095203.442500", "095159.602500", "095203.552500", "095159.712500", "095203.662500", "095159.822500", "095203.772500", "095159.932500", "095203.882500", "095200.042500", "095203.992500", "095200.152500", "095204.102500", "095200.262500", "095204.210000", "095200.370000", "095204.320000", "095200.480000", "095204.430000", "095200.590000", "095204.540000", "095200.700000", "095204.650000", "095200.810000", "095204.760000", "095200.920000", "095204.870000", "095201.030000", "095204.980000", "095201.140000", "095205.087500", "095201.250000", "095205.197500", "095201.357500", "095205.307500", "095201.467500", "095205.417500", "095201.577500", "095209.387500", "095205.547500", "095209.497500", "095205.657500", "095209.607500", "095205.767500", "095209.717500", "095205.877500", "095209.827500", "095205.987500", "095209.937500", "095206.097500", "095210.045000", "095206.205000", "095210.155000", "095206.315000", "095210.265000", "095206.425000", "095210.375000", "095206.535000", "095210.485000", "095206.645000", "095210.595000", "095206.755000", "095210.705000", "095206.865000", "095210.815000", "095206.975000", "095210.922500", "095207.085000", "095211.032500", "095207.192500", "095211.142500", "095207.302500", "095211.252500", "095207.412500", "095211.362500", "095207.522500", "095211.472500", "095207.632500", "095211.582500", "095207.742500", "095211.692500", "095207.852500", "095211.802500", "095207.962500", "095211.910000", "095208.070000", "095212.020000", "095208.180000", "095212.130000", "095208.290000", "095212.240000", "095208.400000", "095212.350000", "095208.510000", "095212.460000", "095208.620000", "095212.570000", "095208.730000", "095212.680000", "095208.840000", "095212.787500", "095208.950000", "095212.897500", "095209.057500", "095213.007500", "095209.167500", "095213.117500", "095209.277500", "095217.087500", "095213.247500", "095217.197500", "095213.357500", "095217.307500", "095213.467500", "095217.417500", "095213.577500", "095217.527500", "095213.687500", "095217.637500", "095213.797500", "095217.745000", "095213.905000", "095217.855000", "095214.015000", "095217.965000", "095214.125000", "095218.075000", "095214.235000", "095218.185000", "095214.345000", "095218.295000", "095214.455000", "095218.405000", "095214.565000", "095218.515000", "095214.675000", "095218.622500", "095214.785000", "095218.732500", "095214.892500", "095218.842500", "095215.002500", "095218.952500