{
  "AcquisitionMatrixPE": 122,
  "AcquisitionNumber": 1,
  "AcquisitionTime": "09:35:12.462500",
  "BandwidthPerPixelPhaseEncode": 27.785,
  "BaseResolution": 122,
  "BodyPartExamined": "BRAIN",
  "CoilCombinationMethod": "Adaptive Combine",
  "ConsistencyInfo": "N4_VE11C_LATEST_20160120",
  "ConversionSoftware": "dcm2niix",
  "ConversionSoftwareVersion": "v1.0.20220720",
  "DerivedVendorReportedEchoSpacing": 0.000590011,
  "DeviceSerialNumber": "66112",
  "DiffusionScheme": "Monopolar",
  "DwellTime": 2e-06,
  "EchoTime": 0.068,
  "EchoTrainLength": 61,
  "EffectiveEchoSpacing": 0.000295005,
  "FlipAngle": 90,
  "HeudiconvVersion": "0.13.1",
  "ImageOrientationPatientDICOM": [0.977437, 0.210887, 0.0119609, -0.204553, 0.930921, 0.302562],
  "ImageOrientationText": "Tra>Cor(17.4)>Sag(-3.0)",
  "ImageType": [
    "ORIGINAL",
    "PRIMARY",
    "DIFFUSION",
    "NONE",
    "ND",
    "NORM"
],
  "ImagingFrequency": 123.252,
  "InPlanePhaseEncodingDirectionDICOM": "COL",
  "InstitutionAddress": "Maynard 3,Hanover,NH,US,03755",
  "InstitutionName": "Dartmouth College - PBS",
  "InstitutionalDepartmentName": "Department",
  "MRAcquisitionType": "2D",
  "MagneticFieldStrength": 3,
  "Manufacturer": "Siemens",
  "ManufacturersModelName": "Prisma",
  "Modality": "MR",
  "MultibandAccelerationFactor": 4,
  "NonlinearGradientCorrection": false,
  "ParallelReductionFactorInPlane": 2,
  "PartialFourier": 1,
  "PatientPosition": "HFS",
  "PercentPhaseFOV": 100,
  "PercentSampling": 100,
  "PhaseEncodingDirection": "j-",
  "PhaseEncodingSteps": 122,
  "PhaseResolution": 1,
  "PixelBandwidth": 2050,
  "ProcedureStepDescription": "dbic^QA",
  "ProtocolName": "dwi_acq-DTI-30-p2-s4",
  "PulseSequenceDetails": "%SiemensSeq%\\ep2d_diff",
  "ReceiveCoilActiveElements": "HEA;HEP",
  "ReceiveCoilName": "Head_32",
  "ReconMatrixPE": 122,
  "RefLinesPE": 38,
  "RepetitionTime": 3.6,
  "SAR": 0.161475,
  "ScanOptions": "FS",
  "ScanningSequence": "EP",
  "SequenceName": "*ep_b0",
  "SequenceVariant": "SK\\SP",
  "SeriesDescription": "dwi_acq-DTI-30-p2-s4",
  "SeriesNumber": 9,
  "ShimSetting": [4143, -7695, -7506, 277, -56, -201, -23, 44],
  "SliceThickness": 2,
  "SliceTiming": [2.58594, 0, 1.78906, 0.20312, 1.99219, 0.39844, 2.1875, 0.60156, 2.39062, 1, 2.78906, 1.19531, 2.98438, 1.39844, 3.1875, 1.59375, 3.38281, 0.79688, 2.58594, 0, 1.78906, 0.20312, 1.99219, 0.39844, 2.1875, 0.60156, 2.39062, 1, 2.78906, 1.19531, 2.98438, 1.39844, 3.1875, 1.59375, 3.38281, 0.79688, 2.58594, 0, 1.78906, 0.20312, 1.99219, 0.39844, 2.1875, 0.60156, 2.39062, 1, 2.78906, 1.19531, 2.98438, 1.39844, 3.1875, 1.59375, 3.38281, 0.79688, 2.58594, 0, 1.78906, 0.20312, 1.99219, 0.39844, 2.1875, 0.60156, 2.39062, 1, 2.78906, 1.19531, 2.98438, 1.39844, 3.1875, 1.59375, 3.38281, 0.79688],
  "SoftwareVersions": "syngo MR E11",
  "SpacingBetweenSlices": 2,
  "SpoilingState": true,
  "StationName": "AWP66112",
  "TotalReadoutTime": 0.0356956,
  "TxRefAmp": 231.444,
  "dcmmeta_affine": [
    [-1.9228274822235107, -0.40240007638931274, -0.10534361004829407, 149.03846740722656],
    [-0.41485971212387085, 1.83132004737854, 0.5963649749755859, -98.70405578613281],
    [0.023529717698693275, -0.5952048301696777, 1.9061050415039062, -34.25669860839844],
    [0.0, 0.0, 0.0, 1.0]
],
  "dcmmeta_reorient_transform": [
    [0.0, -1.0, 0.0, 121.0],
    [1.0, 0.0, 0.0, 0.0],
    [0.0, 0.0, -1.0, 71.0],
    [0.0, 0.0, 0.0, 1.0]
],
  "dcmmeta_shape": [122, 122, 72, 31],
  "dcmmeta_slice_dim": 2,
  "dcmmeta_version": 0.6,
  "global": {
    "const": {
      "AccessionNumber": "qa",
      "AcquisitionMatrix": [122, 0, 0, 122],
      "AngioFlag": "N",
      "BitsAllocated": 16,
      "BitsStored": 12,
      "BodyPartExamined": "BRAIN",
      "Columns": 122,
      "EchoNumbers": 1,
      "EchoTime": 68.0,
      "EchoTrainLength": 61,
      "FlipAngle": 90.0,
      "HighBit": 11,
      "ImageOrientationPatient": [0.97743726118545, 0.21088702274585, 0.01196093991634, -0.2045533707207, 0.93092098602833, 0.30256245024598],
      "ImageType": [
        "ORIGINAL",
        "PRIMARY",
        "DIFFUSION",
        "NONE",
        "ND",
        "NORM"
],
      "ImagedNucleus": "1H",
      "ImagingFrequency": 123.25244,
      "InPlanePhaseEncodingDirection": "COL",
      "MRAcquisitionType": "2D",
      "MagneticFieldStrength": 3.0,
      "Manufacturer": "SIEMENS",
      "ManufacturerModelName": "Prisma",
      "Modality": "MR",
      "NumberOfAverages": 1.0,
      "NumberOfPhaseEncodingSteps": 122,
      "PercentPhaseFieldOfView": 100.0,
      "PercentSampling": 100.0,
      "PerformedProcedureStepStartTime": "091136.316000",
      "PhotometricInterpretation": "MONOCHROME2",
      "PixelBandwidth": 2050.0,
      "PixelRepresentation": 0,
      "PixelSpacing": [1.9672131538391, 1.9672131538391],
      "ProtocolName": "dwi_acq-DTI-30-p2-s4",
      "RepetitionTime": 3600.0,
      "Rows": 122,
      "SAR": 0.1614748539042,
      "SamplesPerPixel": 1,
      "ScanOptions": "FS",
      "ScanningSequence": "EP",
      "SequenceVariant": [
        "SK",
        "SP"
],
      "SeriesDescription": "dwi_acq-DTI-30-p2-s4",
      "SeriesNumber": 9,
      "SeriesTime": "093521.174000",
      "SliceThickness": 2.0,
      "SmallestImagePixelValue": 0,
      "SoftwareVersions": "syngo MR E11",
      "SpacingBetweenSlices": 2.0,
      "SpecificCharacterSet": "ISO_IR 100",
      "StudyID": "100",
      "StudyTime": "091136.188000",
      "TransmitCoilName": "Body",
      "VariableFlipAngleFlag": "N",
      "WindowCenterWidthExplanation": "Algo1",
      "dBdt": 0.0},
    "slices": {
      "AcquisitionTime": ["093512.462500", "093509.877500", "093511.667500", "093510.077500", "093511.867500", "093510.275000", "093512.065000", "093510.475000", "093512.265000", "093510.872500", "093512.662500", "093511.072500", "093512.862500", "093511.270000", "093513.060000", "093511.470000", "093513.260000", "093510.672500", "093512.462500", "093509.877500", "093511.667500", "093510.077500", "093511.867500", "093510.275000", "093512.065000", "093510.475000", "093512.265000", "093510.872500", "093512.662500", "093511.072500", "093512.862500", "093511.270000", "093513.060000", "093511.470000", "093513.260000", "093510.672500", "093512.462500", "093509.877500", "093511.667500", "093510.077500", "093511.867500", "093510.275000", "093512.065000", "093510.475000", "093512.265000", "093510.872500", "093512.662500", "093511.072500", "093512.862500", "093511.270000", "093513.060000", "093511.470000", "093513.260000", "093510.672500", "093512.462500", "093509.877500", "093511.667500", "093510.077500", "093511.867500", "093510.275000", "093512.065000", "093510.475000", "093512.265000", "093510.872500", "093512.662500", "093511.072500", "093512.862500", "093511.270000", "093513.060000", "093511.470000", "093513.260000", "093510.672500", "093516.062500", "093513.477500", "093515.267500", "093513.677500", "093515.467500", "093513.875000", "093515.665000", "093514.075000", "093515.865000", "093514.472500", "093516.262500", "093514.672500", "093516.462500", "093514.870000", "093516.660000", "093515.070000", "093516.860000", "093514.272500", "093516.062500", "093513.477500", "093515.267500", "093513.677500", "093515.467500", "093513.875000", "093515.665000", "093514.075000", "093515.865000", "093514.472500", "093516.262500", "093514.672500", "093516.462500", "093514.870000", "093516.660000", "093515.070000", "093516.860000", "093514.272500", "093516.062500", "093513.477500", "093515.267500", "093513.677500", "093515.467500", "093513.875000", "093515.665000", "093514.075000", "093515.865000", "093514.472500", "093516.262500", "093514.672500", "093516.462500", "093514.870000", "093516.660000", "093515.070000", "093516.860000", "093514.272500", "093516.062500", "093513.477500", "093515.267500", "093513.677500", "093515.467500", "093513.875000", "093515.665000", "093514.075000", "093515.865000", "093514.472500", "093516.262500", "093514.672500", "093516.462500", "093514.870000", "093516.660000", "093515.070000", "093516.860000", "093514.272500", "093519.662500", "093517.077500", "093518.867500", "093517.277500", "093519.067500", "093517.475000", "093519.265000", "093517.675000", "093519.465000", "093518.072500", "093519.862500", "093518.272500", "093520.062500", "093518.470000", "093520.260000", "093518.670000", "093520.460000", "093517.872500", "093519.662500", "093517.077500", "093518.867500", "093517.277500", "093519.067500", "093517.475000", "093519.265000", "093517.675000", "093519.465000", "093518.072500", "093519.862500", "093518.272500", "093520.062500", "093518.470000", "093520.260000", "093518.670000", "093520.460000", "093517.872500", "093519.662500", "093517.077500", "093518.867500", "093517.277500", "093519.067500", "093517.475000", "093519.265000", "093517.675000", "093519.465000", "093518.072500", "093519.862500", "093518.272500", "093520.062500", "093518.470000", "093520.260000", "093518.670000", "093520.460000", "093517.872500", "093519.662500", "093517.077500", "093518.867500", "093517.277500", "093519.067500", "093517.475000", "093519.265000", "093517.675000", "093519.465000", "093518.072500", "093519.862500", "093518.272500", "093520.062500", "093518.470000", "093520.260000", "093518.670000", "093520.460000", "093517.872500", "093523.262500", "093520.677500", "093522.467500", "093520.877500", "093522.667500", "093521.075000", "093522.865000", "093521.275000", "093523.065000", "093521.672500", "093523.462500", "093521.872500", "093523.662500", "093522.070000", "093523.860000", "093522.270000", "093524.060000", "093521.472500", "093523.262500", "093520.677500", "093522.467500", "093520.877500", "093522.667500", "093521.075000", "093522.865000", "093521.275000", "093523.065000", "093521.672500", "093523.462500", "093521.872500", "093523.662500", "093522.070000", "093523.860000", "093522.270000", "093524.060000", "093521.472500", "093523.262500", "093520.677500", "093522.467500", "093520.877500", "093522.667500", "093521.075000", "093522.865000", "093521.275000", "093523.065000", "093521.672500", "093523.462500", "093521.872500", "093523.662500", "093522.070000", "093523.860000", "093522.270000", "093524.060000", "093521.472500", "093523.262500", "093520.677500", "093522.467500", "093520.877500", "093522.667500", "093521.075000", "093522.865000", "093521.275000", "093523.065000", "093521.672500", "093523.462500", "093521.872500", "093523.662500", "093522.070000", "093523.860000", "093522.270000", "093524.060000", "093521.472500", "093526.862500", "093524.277500", "093526.067500", "093524.477500", "093526.267500", "093524.675000", "093526.465000", "093524.875000", "093526.665000", "093525.272500", "093527.062500", "093525.472500", "093527.262500", "093525.670000", "093527.460000", "093525.870000", "093527.660000", "093525.072500", "093526.862500", "093524.277500", "093526.067500", "093524.477500", "093526.267500", "093524.675000", "093526.465000", "093524.875000", "093526.665000", "093525.272500", "093527.062500", "093525.472500", "093527.262500", "093525.670000", "093527.460000", "093525.870000", "093527.660000", "093525.072500", "093526.862500", "093524.277500", "093526.067500", "093524.477500", "093526.267500", "093524.675000", "093526.465000", "093524.875000", "093526.665000", "093525.272500", "093527.062500", "093525.472500", "093527.262500", "093525.670000", "093527.460000", "093525.870000", "093527.660000", "093525.072500", "093526.862500", "093524.277500", "093526.067500", "093524.477500", "093526.267500", "093524.675000", "093526.465000", "093524.875000", "093526.665000", "093525.272500", "093527.062500", "093525.472500", "093527.262500", "093525.670000", "093527.460000", "093525.870000", "093527.660000", "093525.072500", "093530.462500", "093527.877500", "093529.667500", "093528.077500", "093529.867500", "093528.275000", "093530.065000", "093528.475000", "093530.265000", "093528.872500", "093530.662500", "093529.072500", "093530.862500", "093529.270000", "093531.060000", "093529.470000", "093531.260000", "093528.672500", "093530.462500", "093527.877500", "093529.667500", "093528.077500", "093529.867500", "093528.275000", "093530.065000", "093528.475000", "093530.265000", "093528.872500", "093530.662500", "093529.072500", "093530.862500", "093529.270000", "093531.060000", "093529.470000", "093531.260000", "093528.672500", "093530.462500", "093527.877500", "093529.667500", "093528.077500", "093529.867500", "093528.275000", "093530.065000", "093528.475000", "093530.265000", "093528.872500", "093530.662500", "093529.072500", "093530.862500", "093529.270000", "093531.060000", "093529.470000", "093531.260000", "093528.672500", "093530.462500", "093527.877500", "093529.667500", "093528.077500", "093529.867500", "093528.275000", "093530.065000", "093528.475000", "093530.265000", "093528.872500", "093530.662500", "093529.072500", "093530.862500", "093529.270000", "093531.060000", "093529.470000", "093531.260000", "093528.672500", "093534.062500", "093531.477500", "093533.267500", "093531.677500", "093533.467500", "093531.875000", "093533.665000", "093532.075000", "093533.865000", "093532.472500", "093534.262500", "093532.672500", "093534.462500", "093532.870000", "093534.660000", "093533.070000", "093534.860000", "093532.272500", "093534.062500", "093531.477500", "093533.267500", "093531.677500", "093533.467500", "093531.875000", "093533.665000", "093532.075000", "093533.865000", "093532.472500", "093534.262500", "093532.672500", "093534.462500", "093532.870000", "093534.660000", "093533.070000", "093534.860000", "093532.272500", "093534.062500", "093531.477500", "093533.267500", "093531.677500", "093533.467500", "093531.875000", "093533.665000", "093532.075000", "093533.865000", "093532.472500", "093534.262500", "093532.672500", "093534.462500", "093532.870000", "093534.660000", "093533.070000", "093534.860000", "093532.272500", "093534.062500", "093531.477500", "093533.267500", "093531.677500", "093533.467500", "093531.875000", "093533.665000", "093532.075000", "093533.865000", "093532.472500", "093534.262500", "093532.672500", "093534.462500", "093532.870000", "093534.660000", "093533.070000", "093534.860000", "093532.272500", "093537.662500", "093535.077500", "093536.867500", "093535.277500", "093537.067500", "093535.475000", "093537.265000", "093535.675000", "093537.465000", "093536.072500", "093537.862500", "093536.272500", "093538.062500", "093536.470000", "093538.260000", "093536.670000", "093538.460000", "093535.872500", "093537.662500", "093535.077500", "093536.867500", "093535.277500", "093537.067500", "093535.475000", "093537.265000", "093535.675000", "093537.465000", "093536.072500", "093537.862500", "093536.272500", "093538.062500", "093536.470000", "093538.260000", "093536.670000", "093538.460000", "093535.872500", "093537.662500", "093535.077500", "093536.867500", "093535.277500", "093537.067500", "093535.475000", "093537.265000", "093535.675000", "093537.465000", "093536.072500", "093537.862500", "093536.272500", "093538.062500", "093536.470000", "093538.260000", "093536.670000", "093538.460000", "093535.872500", "093537.662500", "093535.077500", "093536.867500", "093535.277500", "093537.067500", "093535.475000", "093537.265000", "093535.675000", "093537.465000", "093536.072500", "093537.862500", "093536.272500", "093538.062500", "093536.470000", "093538.260000", "093536.670000", "093538.460000", "093535.872500", "093541.262500", "093538.677500", "093540.467500", "093538.877500", "093540.667500", "093539.075000", "093540.865000", "093539.275000", "093541.065000", "093539.672500", "093541.462500", "093539.872500", "093541.662500", "093540.070000", "093541.860000", "093540.270000", "093542.060000", "093539.472500", "093541.262500", "093538.677500", "093540.467500", "093538.877500", "093540.667500", "093539.075000", "093540.865000", "093539.275000", "093541.065000", "093539.672500", "093541.462500", "093539.872500", "093541.662500", "093540.070000", "093541.860000", "093540.270000", "093542.060000", "093539.472500", "093541.262500", "093538.677500", "093540.467500", "093538.877500", "093540.667500", "093539.075000", "093540.865000", "093539.275000", "093541.065000", "093539.672500", "093541.462500", "093539.872500", "093541.662500", "093540.070000", "093541.860000", "093540.270000", "093542.060000", "093539.472500", "093541.262500", "093538.677500", "093540.467500", "093538.877500", "093540.667500", "093539.075000", "093540.865000", "093539.275000", "093541.065000", "093539.672500", "093541.462500", "093539.872500", "093541.662500", "093540.070000", "093541.860000", "093540.270000", "093542.060000", "093539.472500", "093544.862500", "093542.277500", "093544.067500", "093542.477500", "093544.267500", "093542.675000", "093544.465000", "093542.875000", "093544.665000", "093543.272500", "093545.062500", "093543.472500", "093545.262500", "093543.670000", "093545.460000", "093543.870000", "093545.660000", "093543.072500", "093544.862500", "093542.277500", "093544.067500", "093542.477500", "093544.267500", "093542.675000", "093544.465000", "093542.875000", "093544.665000", "093543.272500", "093545.062500", "093543.472500", "093545.262500", "093543.670000", "093545.460000", "093543.870000", "093545.660000", "093543.072500", "093544.862500", "093542.277500", "093544.067500", "093542.477500", "093544.267500", "093542.675000", "093544.465000", "093542.875000", "093544.665000", "093543.272500", "093545.062500", "093543.472500", "093545.262500", "093543.670000", "093545.460000", "093543.870000", "093545.660000", "093543.072500", "093544.862500", "093542.277500", "093544.067500", "093542.477500", "093544.267500", "093542.675000", "093544.465000", "093542.875000", "093544.665000", "093543.272500", "093545.062500", "093543.472500", "093545.262500", "093543.670000", "093545.460000", "093543.870000", "093545.660000", "093543.072500", "093548.462500", "093545.877500", "093547.667500", "093546.077500", "093547.867500", "093546.275000", "093548.065000", "093546.475000", "093548.265000", "093546.872500", "093548.662500", "093547.072500", "093548.862500", "093547.270000", "093549.060000", "093547.470000", "093549.260000", "093546.672500", "093548.462500", "093545.877500", "093547.667500", "093546.077500", "093547.867500", "093546.275000", "093548.065000", "093546.475000", "093548.265000", "093546.872500", "093548.662500", "093547.072500", "093548.862500", "093547.270000", "093549.060000", "093547.470000", "093549.260000", "093546.672500", "093548.462500", "093545.877500", "093547.667500", "093546.077500", "093547.867500", "093546.275000", "093548.065000", "093546.475000", "093548.265000", "093546.872500", "093548.662500", "093547.072500", "093548.862500", "093547.270000", "093549.060000", "093547.470000", "093549.260000", "093546.672500", "093548.462500", "093545.877500", "093547.667500", "093546.077500", "093547.867500", "093546.275000", "093548.065000", "093546.475000", "093548.265000", "093546.872500", "093548.662500", "093547.072500", "093548.862500", "093547.270000", "093549.060000", "093547.470000", "093549.260000", "093546.672500", "093552.062500", "093549.477500", "093551.267500", "093549.677500", "093551.467500", "093549.875000", "093551.665000", "093550.075000", "093551.865000", "093550.472500", "093552.262500", "093550.672500", "093552.462500", "093550.870000", "093552.660000", "093551.070000", "093552.860000", "093550.272500", "093552.062500", "093549.477500", "093551.267500", "093549.677500", "093551.467500", "093549.875000", "093551.665000", "093550.075000", "093551.865000", "093550.472500", "093552.262500", "093550.672500", "093552.462500", "093550.870000", "093552.660000", "093551.070000", "093552.860000", "093550.272500", "093552.062500", "093549.477500", "093551.267500", "093549.677500", "093551.467500", "093549.875000", "093551.665000", "093550.075000", "093551.865000", "093550.472500", "093552.262500", "093550.672500", "093552.462500", "093550.870000", "093552.660000", "093551.070000", "093552.860000", "093550.272500", "093552.062500", "093549.477500", "093551.267500", "093549.677500", "093551.467500", "093549.875000", "093551.665000", "093550.075000", "093551.865000", "093550.472500", "093552.262500", "093550.672500", "093552.462500", "093550.870000", "093552.660000", "093551.070000", "093552.860000", "093550.272500", "093555.662500", "093553.077500", "093554.867500", "093553.277500", "093555.067500", "093553.475000", "093555.265000", "093553.675000", "093555.465000", "093554.072500", "093555.862500", "093554.272500", "093556.062500", "093554.470000", "093556.260000", "093554.670000", "093556.460000", "093553.872500", "093555.662500", "093553.077500", "093554.867500", "093553.277500", "093555.067500", "093553.475000", "093555.265000", "093553.675000", "093555.465000", "093554.072500", "093555.862500", "093554.272500", "093556.062500", "093554.470000", "093556.260000", "093554.670000", "093556.460000", "093553.872500", "093555.662500", "093553.077500", "093554.867500", "093553.277500", "093555.067500", "093553.475000", "093555.265000", "093553.675000", "093555.465000", "093554.072500", "093555.862500", "093554.272500", "093556.062500", "093554.470000", "093556.260000", "093554.670000", "093556.460000", "093553.872500", "093555.662500", "093553.077500", "093554.867500", "093553.277500", "093555.067500", "093553.475000", "093555.265000", "093553.675000", "093555.465000", "093554.072500", "093555.862500", "093554.272500", "093556.062500", "093554.470000", "093556.260000", "093554.670000", "093556.460000", "093553.872500", "093559.262500", "093556.677500", "093558.467500", "093556.877500", "093558.667500", "093557.075000", "093558.865000", "093557.275000", "093559.065000", "093557.672500", "093559.462500", "093557.872500", "093559.662500", "093558.070000", "093559.860000", "093558.270000", "093600.060000", "093557.472500", "093559.262500", "093556.677500", "093558.467500", "093556.877500", "093558.667500", "093557.075000", "093558.865000", "093557.275000", "093559.065000", "093557.672500", "093559.462500", "093557.872500", "093559.662500", "093558.070000", "093559.860000", "093558.270000", "093600.060000", "093557.472500", "093559.262500", "093556.677500", "093558.467500", "093556.877500", "093558.667500", "093557.075000", "093558.865000", "093557.275000", "093559.065000", "093557.672500", "093559.462500", "093557.872500", "093559.662500", "093558.070000", "093559.860000", "093558.270000", "093600.060000", "093557.472500", "093559.262500", "093556.677500", "093558.467500", "093556.877500", "093558.667500", "093557.075000", "093558.865000", "093557.275000", "093559.065000", "093557.672500", "093559.462500", "093557.872500", "093559.662500", "093558.070000", "093559.860000", "093558.270000", "093600.060000", "093557.472500", "093602.862500", "093600.277500", "093602.067500", "093600.477500", "093602.267500", "093600.675000", "093602.465000", "093600.875000", "093602.665000", "093601.272500", "093603.062500", "093601.472500", "093603.262500", "093601.670000", "093603.460000", "093601.870000", "093603.660000", "093601.072500", "093602.862500", "093600.277500", "093602.067500", "093600.477500", "093602.267500", "093600.675000", "093602.465000", "093600.875000", "093602.665000", "093601.272500", "093603.062500", "093601.472500", "093603.262500", "093601.670000", "093603.460000", "093601.870000", "093603.660000", "093601.072500", "093602.862500", "093600.277500", "093602.067500", "093600.477500", "093602.267500", "093600.675000", "093602.465000", "093600.875000", "093602.665000", "093601.272500", "093603.062500", "093601.472500", "093603.262500", "093601.670000", "093603.460000", "093601.870000", "093603.660000", "093601.072500", "093602.862500", "093600.277500", "093602.067500", "093600.477500", "093602.267500", "093600.675000", "093602.465000", "093600.875000", "093602.665000", "093601.272500", "093603.062500", "093601.472500", "093603.262500", "093601.670000", "093603.460000", "093601.870000", "093603.660000", "093601.072500", "093606.462500", "093603.877500", "093605.667500", "093604.077500", "093605.867500", "093604.275000", "093606.065000", "093604.475000", "093606.265000", "093604.872500", "093606.662500", "093605.072500", "093606.862500", "093605.270000", "093607.060000", "093605.470000", "093607.260000", "093604.672500", "093606.462500", "093603.877500", "093605.667500", "093604.077500", "093605.867500", "093604.275000", "093606.065000", "093604.475000", "093606.265000", "093604.872500", "093606.662500", "093605.072500", "093606.862500", "093605.270000", "093607.060000", "093605.470000", "093607.260000", "093604.672500", "093606.462500", "093603.877500", "093605.667500", "093604.077500", "093605.867500", "093604.275000", "093606.065000", "093604.475000", "093606.265000", "093604.872500", "093606.662500", "093605.072500", "093606.862500", "093605.270000", "093607.060000", "093605.470000", "093607.260000", "093604.672500", "093606.462500", "093603.877500", "093605.667500", "093604.077500", "093605.867500", "093604.275000", "093606.065000", "093604.475000", "093606.265000", "093604.872500", "093606.662500", "093605.072500", "093606.862500", "093605.270000", "093607.060000", "093605.470000", "093607.260000", "093604.672500", "093610.062500", "093607.477500", "093609.267500", "093607.677500", "093609.467500", "093607.875000", "093609.665000", "093608.075000", "093609.865000", "093608.472500", "093610.262500", "093608.672500", "093610.462500", "093608.870000", "093610.660000", "093609.070000", "093610.860000", "093608.272500", "093610.062500", "093607.477500", "093609.267500", "093607.677500", "093609.467500", "093607.875000", "093609.665000", "093608.075000", "093609.865000", "093608.472500", "093610.262500", "093608.672500", "093610.462500", "093608.870000", "093610.660000", "093609.070000", "093610.860000", "093608.272500", "093610.062500", "093607.477500", "093609.267500", "093607.677500", "093609.467500", "093607.875000", "093609.665000", "093608.075000", "093609.865000", "093608.472500", "093610.262500", "093608.672500", "093610.462500", "093608.870000", "093610.660000", "093609.070000", "093610.860000", "093608.272500", "093610.062500", "093607.477500", "093609.267500", "093607.677500", "093609.467500", "093607.875000", "093609.665000", "093608.075000", "093609.865000", "093608.472500", "093610.262500", "093608.672500", "093610.462500", "093608.870000", "093610.660000", "093609.070000", "093610.860000", "093608.272500", "093613.662500", "093611.077500", "093612.867500", "093611.277500", "093613.067500", "093611.475000", "093613.265000", "093611.675000", "093613.465000", "093612.072500", "093613.862500", "093612.272500", "093614.062500", "093612.470000", "093614.260000", "093612.670000", "093614.460000", "093611.872500", "093613.662500", "093611.077500", "093612.867500", "093611.277500", "093613.067500", "093611.475000", "093613.265000", "093611.675000", "093613.465000", "093612.072500", "093613.862500", "093612.272500", "093614.062500", "093612.470000", "093614.260000", "093612.670000", "093614.460000", "093611.872500", "093613.662500", "093611.077500", "093612.867500", "093611.277500", "093613.067500", "093611.475000", "093613.265000", "093611.675000", "093613.465000", "093612.072500", "093613.862500", "093612.272500", "093614.062500", "093612.470000", "093614.260000", "093612.670000", "093614.460000", "093611.872500", "093613.662500", "093611.077500", "093612.867500", "093611.277500", "093613.067500", "093611.475000", "093613.265000", "093611.675000", "093613.465000", "093612.072500", "093613.862500", "093612.272500", "093614.062500", "093612.470000", "093614.260000", "093612.670000", "093614.460000", "093611.872500", "093617.262500", "093614.677500", "093616.467500", "093614.877500", "093616.667500", "093615.075000", "093616.865000", "093615.275000", "093617.065000", "093615.672500", "093617.462500", "093615.872500", "093617.662500", "093616.070000", "093617.860000", "093616.270000", "093618.060000", "093615.472500", "093617.262500", "093614.677500", "093616.467500", "093614.877500", "093616.667500", "093615.075000", "093616.865000", "093615.275000", "093617.065000", "093615.672500", "093617.462500", "093615.872500", "093617.662500", "093616.070000", "093617.860000", "093616.270000", "093618.060000", "093615.472500", "093617.262500", "093614.677500", "093616.467500", "093614.877500", "093616.667500", "093615.075000", "093616.865000", "093615.275000", "093617.065000", "093615.672500", "093617.462500", "093615.872500", "093617.662500", "093616.070000", "093617.860000", "093616.270000", "093618.060000", "093615.472500", "093617.262500", "093614.677500", "093616.467500", "093614.877500", "093616.667500", "093615.075000", "093616.865000", "093615.275000", "093617.065000", "093615.672500", "093617.462500", "093615.872500", "093617.662500", "093616.070000", "093617.860000", "093616.270000", "093618.060000", "093615.472500", "093620.862500", "093618.277500", "093620.067500", "093618.477500", "093620.267500", "093618.675000", "093620.465000", "093618.875000", "093620.665000", "093619.272500", "093621.062500", "093619.472500", "093621.262500", "093619.670000", "093621.460000", "093619.870000", "093621.660000", "093619.072500", "093620.862500", "093618.277500", "093620.067500", "093618.477500", "093620.267500", "093618.675000", "093620.465000", "093618.875000", "093620.665000", "093619.272500", "093621.062500", "093619.472500", "093621.262500", "093619.670000", "093621.460000", "093619.870000", "093621.660000", "093619.072500", "093620.862500", "093618.277500", "093620.067500", "093618.477500", "093620.267500", "093618.675000", "093620.465000", "093618.875000", "093620.665000", "093619.272500", "093621.062500", "093619.472500", "093621.262500", "093619.670000", "093621.460000", "093619.870000", "093621.660000", "093619.072500", "093620.862500", "093618.277500", "093620.067500", "093618.477500", "093620.267500", "093618.675000", "093620.465000", "093618.875000", "093620.665000", "093619.272500", "093621.062500", "093619.472500", "093621.262500