{
  "AcquisitionMatrixPE": 80,
  "AcquisitionNumber": 1,
  "AcquisitionTime": "08:39:51.440000",
  "BandwidthPerPixelPhaseEncode": 25,
  "BaseResolution": 80,
  "BodyPartExamined": "BRAIN",
  "CoilCombinationMethod": "Sum of Squares",
  "ConsistencyInfo": "N4_VE11E_LATEST_20181129",
  "ConversionSoftware": "dcm2niix",
  "ConversionSoftwareVersion": "v1.0.20220720",
  "DerivedVendorReportedEchoSpacing": 0.0005,
  "DeviceSerialNumber": "66112",
  "DwellTime": 2.7e-06,
  "EchoTime": 0.03,
  "EchoTrainLength": 80,
  "EffectiveEchoSpacing": 0.0005,
  "FlipAngle": 77,
  "HeudiconvVersion": "0.13.1",
  "ImageOrientationPatientDICOM": [0.99162, 0.129036, 0.00631161, -0.124567, 0.942041, 0.311516],
  "ImageOrientationText": "Tra>Cor(18.1)>Sag(-2.0)",
  "ImageType": [
    "ORIGINAL",
    "PRIMARY",
    "M",
    "ND",
    "NORM",
    "MOSAIC"
],
  "ImagingFrequency": 123.259,
  "InPlanePhaseEncodingDirectionDICOM": "COL",
  "InstitutionAddress": "Maynard 3,Hanover,NH,US,03755",
  "InstitutionName": "Dartmouth College - PBS",
  "InstitutionalDepartmentName": "Department",
  "MRAcquisitionType": "2D",
  "MagneticFieldStrength": 3,
  "Manufacturer": "Siemens",
  "ManufacturersModelName": "Prisma",
  "MatrixCoilMode": "SENSE",
  "Modality": "MR",
  "NonlinearGradientCorrection": false,
  "PartialFourier": 1,
  "PatientPosition": "HFS",
  "PercentPhaseFOV": 100,
  "PercentSampling": 100,
  "PhaseEncodingDirection": "j-",
  "PhaseEncodingSteps": 80,
  "PhaseResolution": 1,
  "PixelBandwidth": 2315,
  "ProcedureStepDescription": "dbic^QA",
  "ProtocolName": "func-bold_fa-77",
  "PulseSequenceDetails": "%SiemensSeq%\\ep2d_bold",
  "ReceiveCoilActiveElements": "HC1-7;NC1,2",
  "ReceiveCoilName": "HeadNeck_64",
  "ReconMatrixPE": 80,
  "RepetitionTime": 2,
  "SAR": 0.0281646,
  "ScanOptions": "FS",
  "ScanningSequence": "EP",
  "SequenceName": "*epfid2d1_80",
  "SequenceVariant": "SK",
  "SeriesDescription": "func-bold_fa-77",
  "SeriesNumber": 6,
  "ShimSetting": [4214, -7744, -7493, -167, -161, -226, -75, 92],
  "SliceThickness": 3.5,
  "SliceTiming": [0.99, 0, 1.0575, 0.0675, 1.1225, 0.1325, 1.1875, 0.1975, 1.255, 0.265, 1.32, 0.33, 1.3875, 0.3975, 1.4525, 0.4625, 1.5175, 0.5275, 1.585, 0.595, 1.65, 0.66, 1.7175, 0.7275, 1.7825, 0.7925, 1.8475, 0.8575, 1.915, 0.925],
  "SoftwareVersions": "syngo MR E11",
  "SpacingBetweenSlices": 3.99,
  "StationName": "AWP66112",
  "TotalReadoutTime": 0.0395,
  "TxRefAmp": 211.574,
  "dcmmeta_affine": [
    [-2.9748594760894775, -0.3737023174762726, -0.13666196167469025, 136.68238830566406],
    [-0.387108713388443, 2.8261218070983887, 1.2356712818145752, -110.21361541748047],
    [0.018934814259409904, -0.9345492720603943, 3.791377067565918, -22.995298385620117],
    [0.0, 0.0, 0.0, 1.0]
],
  "dcmmeta_reorient_transform": [
    [0.0, -1.0, 0.0, 79.0],
    [1.0, 0.0, 0.0, 0.0],
    [0.0, 0.0, 1.0, 0.0],
    [0.0, 0.0, 0.0, 1.0]
],
  "dcmmeta_shape": [80, 80, 30, 200],
  "dcmmeta_slice_dim": 2,
  "dcmmeta_version": 0.6,
  "global": {
    "const": {
      "AccessionNumber": "qa64",
      "AcquisitionMatrix": [80, 0, 0, 80],
      "AngioFlag": "N",
      "BitsAllocated": 16,
      "BitsStored": 12,
      "BodyPartExamined": "BRAIN",
      "Columns": 480,
      "EchoNumbers": 1,
      "EchoTime": 30.0,
      "EchoTrainLength": 80,
      "FlipAngle": 77.0,
      "HighBit": 11,
      "ImageOrientationPatient": [0.99161979309604, 0.12903623360262, 0.00631160501201, -0.1245674392785, 0.9420405912033, 0.31151641625593],
      "ImagePositionPatient": [-627.39131479144, -755.69609823831, -287.52150093548],
      "ImageType": [
        "ORIGINAL",
        "PRIMARY",
        "M",
        "ND",
        "NORM",
        "MOSAIC"
],
      "ImagedNucleus": "1H",
      "ImagingFrequency": 123.259119,
      "InPlanePhaseEncodingDirection": "COL",
      "MRAcquisitionType": "2D",
      "MagneticFieldStrength": 3.0,
      "Manufacturer": "SIEMENS",
      "ManufacturerModelName": "Prisma",
      "Modality": "MR",
      "NumberOfAverages": 1.0,
      "NumberOfPhaseEncodingSteps": 80,
      "PercentPhaseFieldOfView": 100.0,
      "PercentSampling": 100.0,
      "PerformedProcedureStepStartTime": "082808.948000",
      "PhotometricInterpretation": "MONOCHROME2",
      "PixelBandwidth": 2315.0,
      "PixelRepresentation": 0,
      "PixelSpacing": [3.0, 3.0],
      "ProtocolName": "func-bold_fa-77",
      "RepetitionTime": 2000.0,
      "Rows": 480,
      "SAR": 0.02816464872387,
      "SamplesPerPixel": 1,
      "ScanOptions": "FS",
      "ScanningSequence": "EP",
      "SequenceName": "*epfid2d1_80",
      "SequenceVariant": "SK",
      "SeriesDescription": "func-bold_fa-77",
      "SeriesNumber": 6,
      "SeriesTime": "084049.808000",
      "SliceLocation": -60.664394133819,
      "SliceThickness": 3.5,
      "SmallestImagePixelValue": 0,
      "SoftwareVersions": "syngo MR E11",
      "SpacingBetweenSlices": 3.9899999344754,
      "SpecificCharacterSet": "ISO_IR 100",
      "StudyID": "11",
      "StudyTime": "082808.878000",
      "TransmitCoilName": "Body",
      "VariableFlipAngleFlag": "N",
      "WindowCenterWidthExplanation": "Algo1"
    },
    "slices": {}
  },
  "time": {
    "samples": {
      "AcquisitionNumber": [1, 2, 3, 4, 5, 6, 7, 8, 9, 10, 11, 12, 13, 14, 15, 16, 17, 18, 19, 20, 21, 22, 23, 24, 25, 26, 27, 28, 29, 30, 31, 32, 33, 34, 35, 36, 37, 38, 39, 40, 41, 42, 43, 44, 45, 46, 47, 48, 49, 50, 51, 52, 53, 54, 55, 56, 57, 58, 59, 60, 61, 62, 63, 64, 65, 66, 67, 68, 69, 70, 71, 72, 73, 74, 75, 76, 77, 78, 79, 80, 81, 82, 83, 84, 85, 86, 87, 88, 89, 90, 91, 92, 93, 94, 95, 96, 97, 98, 99, 100, 101, 102, 103, 104, 105, 106, 107, 108, 109, 110, 111, 112, 113, 114, 115, 116, 117, 118, 119, 120, 121, 122, 123, 124, 125, 126, 127, 128, 129, 130, 131, 132, 133, 134, 135, 136, 137, 138, 139, 140, 141, 142, 143, 144, 145, 146, 147, 148, 149, 150, 151, 152, 153, 154, 155, 156, 157, 158, 159, 160, 161, 162, 163, 164, 165, 166, 167, 168, 169, 170, 171, 172, 173, 174, 175, 176, 177, 178, 179, 180, 181, 182, 183, 184, 185, 186, 187, 188, 189, 190, 191, 192, 193, 194, 195, 196, 197, 198, 199, 200],
      "AcquisitionTime": ["083951.440000", "083953.440000", "083955.440000", "083957.440000", "083959.440000", "084001.440000", "084003.440000", "084005.440000", "084007.440000", "084009.440000", "084011.440000", "084013.440000", "084015.440000", "084017.440000", "084019.440000", "084021.440000", "084023.440000", "084025.440000", "084027.440000", "084029.440000", "084031.440000", "084033.440000", "084035.440000", "084037.440000", "084039.440000", "084041.440000", "084043.440000", "084045.440000", "084047.440000", "084049.440000", "084051.440000", "084053.440000", "084055.440000", "084057.440000", "084059.440000", "084101.440000", "084103.440000", "084105.440000", "084107.440000", "084109.440000", "084111.440000", "084113.440000", "084115.440000", "084117.440000", "084119.440000", "084121.440000", "084123.440000", "084125.440000", "084127.440000", "084129.440000", "084131.440000", "084133.440000", "084135.440000", "084137.440000", "084139.440000", "084141.440000", "084143.440000", "084145.440000", "084147.440000", "084149.440000", "084151.440000", "084153.440000", "084155.440000", "084157.440000", "084159.440000", "084201.440000", "084203.440000", "084205.440000", "084207.440000", "084209.440000", "084211.440000", "084213.440000", "084215.440000", "084217.440000", "084219.440000", "084221.440000", "084223.440000", "084225.440000", "084227.440000", "084229.440000", "084231.440000", "084233.440000", "084235.440000", "084237.440000", "084239.440000", "084241.440000", "084243.440000", "084245.440000", "084247.440000", "084249.440000", "084251.440000", "084253.440000", "084255.440000", "084257.440000", "084259.440000", "084301.440000", "084303.440000", "084305.440000", "084307.440000", "084309.440000", "084311.440000", "084313.440000", "084315.440000", "084317.440000", "084319.440000", "084321.440000", "084323.440000", "084325.440000", "084327.440000", "084329.440000", "084331.440000", "084333.440000", "084335.440000", "084337.440000", "084339.440000", "084341.440000", "084343.440000", "084345.440000", "084347.440000", "084349.440000", "084351.440000", "084353.440000", "084355.440000", "084357.440000", "084359.440000", "084401.440000", "084403.440000", "084405.440000", "084407.440000", "084409.440000", "084411.440000", "084413.440000", "084415.440000", "084417.440000", "084419.440000", "084421.440000", "084423.440000", "084425.440000", "084427.440000", "084429.440000", "084431.440000", "084433.440000", "084435.440000", "084437.440000", "084439.440000", "084441.440000", "084443.440000", "084445.440000", "084447.440000", "084449.440000", "084451.440000", "084453.440000", "084455.440000", "084457.440000", "084459.440000", "084501.440000", "084503.440000", "084505.440000", "084507.440000", "084509.440000", "084511.440000", "084513.440000", "084515.440000", "084517.440000", "084519.440000", "084521.440000", "084523.440000", "084525.440000", "084527.440000", "084529.440000", "084531.440000", "084533.440000", "084535.440000", "084537.440000", "084539.440000", "084541.440000", "084543.440000", "084545.440000", "084547.440000", "084549.440000", "084551.440000", "084553.440000", "084555.440000", "084557.440000", "084559.440000", "084601.440000", "084603.440000", "084605.440000", "084607.440000", "084609.440000", "084611.440000", "084613.440000", "084615.440000", "084617.440000", "084619.440000", "084621.440000", "084623.440000", "084625.440000", "084627.440000", "084629.440000"],
      "ContentTime": ["084049.811000", "084049.814000", "084049.816000", "084049.819000", "084049.821000", "084049.823000", "084049.826000", "084049.828000", "084049.830000", "084049.832000", "084049.835000", "084049.837000", "084049.839000", "084049.841000", "084049.844000", "084049.846000", "084049.848000", "084049.850000", "084049.853000", "084049.855000", "084049.857000", "084049.860000", "084049.862000", "084049.864000", "084049.866000", "084049.869000", "084049.871000", "084049.873000", "084049.875000", "084129.806000", "084129.809000", "084129.811000", "084129.814000", "084129.816000", "084129.818000", "084129.820000", "084129.823000", "084129.825000", "084129.827000", "084129.836000", "084129.838000", "084129.840000", "084129.843000", "084129.845000", "084129.847000", "084129.849000", "084129.852000", "084129.854000", "084129.856000", "084209.806000", "084209.819000", "084209.822000", "084209.824000", "084209.826000", "084209.829000", "084209.831000", "084209.833000", "084209.835000", "084209.838000", "084209.840000", "084209.842000", "084209.844000", "084209.847000", "084209.849000", "084209.858000", "084209.860000", "084209.863000", "084209.865000", "084209.867000", "084249.806000", "084249.809000", "084249.811000", "084249.813000", "084249.816000", "084249.818000", "084249.820000", "084249.823000", "084249.825000", "084249.827000", "084249.830000", "084249.832000", "084249.834000", "084249.836000", "084249.839000", "084249.841000", "084249.850000", "084249.853000", "084249.855000", "084249.857000", "084329.806000", "084329.899000", "084329.901000", "084329.903000", "084329.905000", "084329.908000", "084329.910000", "084329.913000", "084329.915000", "084329.917000", "084329.920000", "084329.922000", "084329.924000", "084329.927000", "084329.929000", "084329.931000", "084329.933000", "084329.936000", "084329.938000", "084329.940000", "084409.805000", "084409.808000", "084409.810000", "084409.812000", "084409.815000", "084409.817000", "084409.819000", "084409.822000", "084409.854000", "084409.856000", "084409.858000", "084409.861000", "084409.863000", "084409.865000", "084409.868000", "084409.870000", "084409.873000", "084409.875000", "084409.877000", "084409.880000", "084449.806000", "084449.809000", "084449.811000", "084449.813000", "084449.816000", "084449.818000", "084449.820000", "084449.823000", "084449.825000", "084449.827000", "084449.829000", "084449.832000", "084449.834000", "084449.836000", "084449.838000", "084449.841000", "084449.843000", "084449.845000", "084449.848000", "084449.850000", "084529.806000", "084529.809000", "084529.811000", "084529.813000", "084529.815000", "084529.818000", "084529.820000", "084529.822000", "084529.825000", "084529.827000", "084529.829000", "084529.832000", "084529.834000", "084529.836000", "084529.838000", "084529.841000", "084529.843000", "084529.845000", "084529.848000", "084529.850000", "084609.806000", "084609.822000", "084609.825000", "084609.827000", "084609.829000", "084609.832000", "084609.834000", "084609.836000", "084609.838000", "084609.841000", "084609.843000", "084609.845000", "084609.848000", "084609.850000", "084609.852000", "084609.854000", "084609.857000", "084609.859000", "084609.861000", "084609.864000", "084631.060000", "084631.063000", "084631.065000", "084631.068000", "084631.070000", "084631.072000", "084631.075000", "084631.077000", "084631.080000", "084631.082000", "084631.084000"],
      "InstanceCreationTime": ["084049.811000", "084049.814000", "084049.816000", "084049.819000", "084049.821000", "084049.823000", "084049.826000", "084049.828000", "084049.830000", "084049.832000", "084049.835000", "084049.837000", "084049.839000", "084049.841000", "084049.844000", "084049.846000", "084049.848000", "084049.850000", "084049.853000", "084049.855000", "084049.857000", "084049.860000", "084049.862000", "084049.864000", "084049.866000", "084049.869000", "084049.871000", "084049.873000", "084049.875000", "084129.806000", "084129.809000", "084129.811000", "084129.814000", "084129.816000", "084129.818000", "084129.820000", "084129.823000", "084129.825000", "084129.827000", "084129.836000", "084129.838000", "084129.840000", "084129.843000", "084129.845000", "084129.847000", "084129.849000", "084129.852000", "084129.854000", "084129.856000", "084209.806000", "084209.819000", "084209.822000", "084209.824000", "084209.826000", "084209.829000", "084209.831000", "084209.833000", "084209.835000", "084209.838000", "084209.840000", "084209.842000", "084209.844000", "084209.847000", "084209.849000", "084209.858000", "084209.860000", "084209.863000", "084209.865000", "084209.867000", "084249.806000", "084249.809000", "084249.811000", "084249.813000", "084249.816000", "084249.818000", "084249.820000", "084249.823000", "084249.825000", "084249.827000", "084249.830000", "084249.832000", "084249.834000", "084249.836000", "084249.839000", "084249.841000", "084249.850000", "084249.853000", "084249.855000", "084249.857000", "084329.806000", "084329.899000", "084329.901000", "084329.903000", "084329.905000", "084329.908000", "084329.910000", "084329.913000", "084329.915000", "084329.917000", "084329.920000", "084329.922000", "084329.924000", "084329.927000", "084329.929000", "084329.931000", "084329.933000", "084329.936000", "084329.938000", "084329.940000", "084409.805000", "084409.808000", "084409.810000", "084409.812000", "084409.815000", "084409.817000", "084409.819000", "084409.822000", "084409.854000", "084409.856000", "084409.858000", "084409.861000", "084409.863000", "084409.865000", "084409.868000", "084409.870000", "084409.873000", "084409.875000", "084409.877000", "084409.880000", "084449.806000", "084449.809000", "084449.811000", "084449.813000", "084449.816000", "084449.818000", "084449.820000", "084449.823000", "084449.825000", "084449.827000", "084449.829000", "084449.832000", "084449.834000", "084449.836000", "084449.838000", "084449.841000", "084449.843000", "084449.845000", "084449.848000", "084449.850000", "084529.806000", "084529.809000", "084529.811000", "084529.813000", "084529.815000", "084529.818000", "084529.820000", "084529.822000", "084529.825000", "084529.827000", "084529.829000", "084529.832000", "084529.834000", "084529.836000", "084529.838000", "084529.841000", "084529.843000", "084529.845000", "084529.848000", "084529.850000", "084609.806000", "084609.822000", "084609.825000", "084609.827000", "084609.829000", "084609.832000", "084609.834000", "084609.836000", "084609.838000", "084609.841000", "084609.843000", "084609.845000", "084609.848000", "084609.850000", "084609.852000", "084609.854000", "084609.857000", "084609.859000", "084609.861000", "084609.864000", "084631.060000", "084631.063000", "084631.065000", "084631.068000", "084631.070000", "084631.072000", "084631.075000", "084631.077000", "084631.080000", "084631.082000", "084631.084000"],
      "InstanceNumber": [1, 2, 3, 4, 5, 6, 7, 8, 9, 10, 11, 12, 13, 14, 15, 16, 17, 18, 19, 20, 21, 22, 23, 24, 25, 26, 27, 28, 29, 30, 31, 32, 33, 34, 35, 36, 37, 38, 39, 40, 41, 42, 43, 44, 45, 46, 47, 48, 49, 50, 51, 52, 53, 54, 55, 56, 57, 58, 59, 60, 61, 62, 63, 64, 65, 66, 67, 68, 69, 70, 71, 72, 73, 74, 75, 76, 77, 78, 79, 80, 81, 82, 83, 84, 85, 86, 87, 88, 89, 90, 91, 92, 93, 94, 95, 96, 97, 98, 99, 100, 101, 102, 103, 104, 105, 106, 107, 108, 109, 110, 111, 112, 113, 114, 115, 116, 117, 118, 119, 120, 121, 122, 123, 124, 125, 126, 127, 128, 129, 130, 131, 132, 133, 134, 135, 136, 137, 138, 139, 140, 141, 142, 143, 144, 145, 146, 147, 148, 149, 150, 151, 152, 153, 154, 155, 156, 157, 158, 159, 160, 161, 162, 163, 164, 165, 166, 167, 168, 169, 170, 171, 172, 173, 174, 175, 176, 177, 178, 179, 180, 181, 182, 183, 184, 185, 186, 187, 188, 189, 190, 191, 192, 193, 194, 195, 196, 197, 198, 199, 200],
      "LargestImagePixelValue": [4031, 4026, 4029, 4028, 4026, 4026, 4028, 4028, 4025, 4028, 4024, 4022, 4025, 4023, 4020, 4022, 4023, 4023, 4022, 4023, 4020, 4019, 4021, 4021, 4018, 4022, 4021, 4018, 4017, 4020, 4017, 4021, 4022, 4016, 4017, 4018, 4017, 4016, 4016, 4017, 4016, 4017, 4014, 4015, 4018, 4015, 4016, 4018, 4016, 4017, 4012, 4016, 4015, 4015, 4016, 4014, 4016, 4014, 4013, 4018, 4015, 4013, 4018, 4013, 4014, 4016, 4016, 4012, 4011, 4014, 4013, 4016, 4012, 4011, 4014, 4017, 4014, 4011, 4011, 4015, 4012, 4010, 4012, 4011, 4015, 4011, 4008, 4012, 4011, 4012, 4010, 4012, 4007, 4008, 4006, 4010, 4011, 4008, 4008, 4008, 4012, 4011, 4012, 4009, 4009, 4010, 4011, 4009, 4007, 4009, 4006, 4003, 4009, 4007, 4007, 4004, 4009, 4007, 4006, 4004, 4008, 4007, 4009, 4010, 4006, 4006, 4006, 4006, 4003, 4008, 4008, 4008, 4009, 4011, 4006, 4007, 4009, 4004, 4005, 4006, 4009, 4006, 4006, 4008, 4004, 4008, 4006, 4006, 4005, 4002, 3998, 4008, 4008, 4008, 4011, 4005, 4006, 4004, 4009, 4004, 4006, 4005, 4006, 3998, 4006, 3998, 3999, 4005, 4006, 4006, 4003, 4003, 4004, 4000, 4000, 3999, 3999, 4004, 4003, 4001, 4002, 4001, 4004, 4002, 4002, 4003, 4005, 4004, 4001, 4001, 4002, 4000, 4002, 4004, 3998, 3998, 4000, 3997, 3997, 4000],
      "WindowCenter": [1434.0, 1434.0, 1433.0, 1433.0, 1433.0, 1433.0, 1433.0, 1433.0, 1433.0, 1432.0, 1432.0, 1432.0, 1432.0, 1432.0, 1432.0, 1432.0, 1432.0, 1432.0, 1432.0, 1431.0, 1432.0, 1431.0, 1431.0, 1431.0, 1431.0, 1432.0, 1432.0, 1431.0, 1431.0, 1431.0, 1431.0, 1431.0, 1431.0, 1431.0, 1431.0, 1431.0, 1432.0, 1431.0, 1431.0, 1430.0, 1431.0, 1431.0, 1430.0, 1430.0, 1431.0, 1430.0, 1431.0, 1430.0, 1430.0, 1430.0, 1431.0, 1430.0, 1430.0, 1430.0, 1431.0, 1429.0, 1430.0, 1430.0, 1430.0, 1430.0, 1429.0, 1430.0, 1430.0, 1430.0, 1431.0, 1429.0, 1429.0, 1430.0, 1430.0, 1430.0, 1430.0, 1430.0, 1429.0, 1430.0, 1430.0, 1430.0, 1430.0, 1430.0, 1429.0, 1428.0, 1429.0, 1429.0, 1429.0, 1429.0, 1429.0, 1429.0, 1429.0, 1429.0, 1429.0, 1429.0, 1429.0, 1429.0, 1428.0, 1429.0, 1429.0, 1429.0, 1428.0, 1429.0, 1428.0, 1428.0, 1429.0, 1429.0, 1429.0, 1428.0, 1428.0, 1429.0, 1428.0, 1428.0, 1428.0, 1428.0, 1428.0, 1428.0, 1428.0, 1428.0, 1428.0, 1428.0, 1427.0, 1428.0, 1427.0, 1427.0, 1427.0, 1428.0, 1428.0, 1428.0, 1427.0, 1427.0, 1428.0, 1427.0, 1427.0, 1427.0, 1427.0, 1427.0, 1427.0, 1427.0, 1427.0, 1427.0, 1427.0, 1427.0, 1427.0, 1427.0, 1428.0, 1427.0, 1427.0, 1427.0, 1426.0, 1426.0, 1427.0, 1427.0, 1427.0, 1427.0, 1427.0, 1427.0, 1427.0, 1427.0, 1427.0, 1427.0, 1427.0, 1427.0, 1427.0, 1426.0, 1426.0, 1426.0, 1426.0, 1426.0, 1427.0, 1427.0, 1426.0, 1427.0, 1426.0, 1426.0, 1426.0, 1426.0, 1426.0, 1426.0, 1426.0, 1426.0, 1426.0, 1426.0, 1425.0, 1425.0, 1426.0, 1426.0, 1426.0, 1426.0, 1427.0, 1425.0, 1426.0, 1426.0, 1425.0, 1426.0, 1426.0, 1426.0, 1426.0, 1425.0, 1425.0, 1425.0, 1425.0, 1425.0, 1425.0, 1425.0],
      "WindowWidth": [3382.0, 3382.0, 3382.0, 3382.0, 3382.0, 3382.0, 3382.0, 3382.0, 3382.0, 3382.0, 3381.0, 3381.0, 3381.0, 3381.0, 3381.0, 3381.0, 3381.0, 3381.0, 3381.0, 3381.0, 3381.0, 3381.0, 3381.0, 3381.0, 3381.0, 3380.0, 3380.0, 3380.0, 3380.0, 3380.0, 3380.0, 3380.0, 3380.0, 3380.0, 3380.0, 3380.0, 3379.0, 3379.0, 3379.0, 3380.0, 3379.0, 3379.0, 3380.0, 3380.0, 3379.0, 3380.0, 3379.0, 3380.0, 3380.0, 3380.0, 3379.0, 3379.0, 3379.0, 3379.0, 3379.0, 3379.0, 3379.0, 3379.0, 3379.0, 3379.0, 3379.0, 3379.0, 3379.0, 3378.0, 3378.0, 3379.0, 3379.0, 3378.0, 3378.0, 3378.0, 3378.0, 3378.0, 3379.0, 3378.0, 3378.0, 3378.0, 3378.0, 3378.0, 3378.0, 3378.0, 3378.0, 3378.0, 3378.0, 3378.0, 3378.0, 3378.0, 3378.0, 3378.0, 3378.0, 3378.0, 3377.0, 3377.0, 3378.0, 3377.0, 3377.0, 3377.0, 3378.0, 3377.0, 3378.0, 3378.0, 3377.0, 3377.0, 3377.0, 3377.0, 3377.0, 3377.0, 3377.0, 3377.0, 3377.0, 3377.0, 3377.0, 3377.0, 3377.0, 3377.0, 3377.0, 3377.0, 3377.0, 3377.0, 3377.0, 3377.0, 3377.0, 3376.0, 3376.0, 3377.0, 3377.0, 3377.0, 3376.0, 3376.0, 3376.0, 3376.0, 3376.0, 3376.0, 3376.0, 3376.0, 3376.0, 3376.0, 3376.0, 3376.0, 3376.0, 3376.0, 3376.0, 3376.0, 3376.0, 3376.0, 3376.0, 3376.0, 3376.0, 3376.0, 3376.0, 3376.0, 3376.0, 3376.0, 3376.0, 3375.0, 3375.0, 3375.0, 3375.0, 3375.0, 3375.0, 3375.0, 3375.0, 3375.0, 3375.0, 3375.0, 3375.0, 3375.0, 3375.0, 3375.0, 3375.0, 3375.0, 3375.0, 3375.0, 3375.0, 3375.0, 3375.0, 3375.0, 3375.0, 3375.0, 3375.0, 3375.0, 3375.0, 3375.0, 3375.0, 3375.0, 3374.0, 3374.0, 3374.0, 3374.0, 3374.0, 3374.0, 3374.0, 3374.0, 3374.0, 3374.0, 3374.0, 3374.0, 3374.0, 3374.0, 3374.0, 3374.0]
    },
    "slices": {}
  }
}