{
  "AcquisitionMatrixPE": 80,
  "AcquisitionNumber": 1,
  "AcquisitionTime": "08:46:38.505000",
  "BandwidthPerPixelPhaseEncode": 25,
  "BaseResolution": 80,
  "BodyPartExamined": "BRAIN",
  "CoilCombinationMethod": "Sum of Squares",
  "ConsistencyInfo": "N4_VE11E_LATEST_20181129",
  "ConversionSoftware": "dcm2niix",
  "ConversionSoftwareVersion": "v1.0.20220720",
  "DerivedVendorReportedEchoSpacing": 0.0005,
  "DeviceSerialNumber": "66112",
  "DwellTime": 2.7e-06,
  "EchoTime": 0.03,
  "EchoTrainLength": 80,
  "EffectiveEchoSpacing": 0.0005,
  "FlipAngle": 10,
  "HeudiconvVersion": "0.13.1",
  "ImageOrientationPatientDICOM": [0.99162, 0.129036, 0.00631161, -0.124567, 0.942041, 0.311516],
  "ImageOrientationText": "Tra>Cor(18.1)>Sag(-2.0)",
  "ImageType": [
    "ORIGINAL",
    "PRIMARY",
    "M",
    "ND",
    "NORM",
    "MOSAIC"
],
  "ImagingFrequency": 123.259,
  "InPlanePhaseEncodingDirectionDICOM": "COL",
  "InstitutionAddress": "Maynard 3,Hanover,NH,US,03755",
  "InstitutionName": "Dartmouth College - PBS",
  "InstitutionalDepartmentName": "Department",
  "MRAcquisitionType": "2D",
  "MagneticFieldStrength": 3,
  "Manufacturer": "Siemens",
  "ManufacturersModelName": "Prisma",
  "MatrixCoilMode": "SENSE",
  "Modality": "MR",
  "NonlinearGradientCorrection": false,
  "PartialFourier": 1,
  "PatientPosition": "HFS",
  "PercentPhaseFOV": 100,
  "PercentSampling": 100,
  "PhaseEncodingDirection": "j-",
  "PhaseEncodingSteps": 80,
  "PhaseResolution": 1,
  "PixelBandwidth": 2315,
  "ProcedureStepDescription": "dbic^QA",
  "ProtocolName": "func-bold_fa-10",
  "PulseSequenceDetails": "%SiemensSeq%\\ep2d_bold",
  "ReceiveCoilActiveElements": "HC1-7;NC1,2",
  "ReceiveCoilName": "HeadNeck_64",
  "ReconMatrixPE": 80,
  "RepetitionTime": 2,
  "SAR": 0.00755514,
  "ScanOptions": "FS",
  "ScanningSequence": "EP",
  "SequenceName": "*epfid2d1_80",
  "SequenceVariant": "SK",
  "SeriesDescription": "func-bold_fa-10",
  "SeriesNumber": 7,
  "ShimSetting": [4214, -7744, -7493, -167, -161, -226, -75, 92],
  "SliceThickness": 3.5,
  "SliceTiming": [0.99, 0, 1.055, 0.065, 1.1225, 0.1325, 1.1875, 0.1975, 1.255, 0.265, 1.32, 0.33, 1.385, 0.395, 1.4525, 0.4625, 1.5175, 0.5275, 1.585, 0.595, 1.65, 0.66, 1.715, 0.725, 1.7825, 0.7925, 1.8475, 0.8575, 1.915, 0.925],
  "SoftwareVersions": "syngo MR E11",
  "SpacingBetweenSlices": 3.99,
  "StationName": "AWP66112",
  "TotalReadoutTime": 0.0395,
  "TxRefAmp": 211.574,
  "dcmmeta_affine": [
    [-2.9748594760894775, -0.3737023174762726, -0.13666196167469025, 136.68238830566406],
    [-0.387108713388443, 2.8261218070983887, 1.2356712818145752, -110.21361541748047],
    [0.018934814259409904, -0.9345492720603943, 3.791377067565918, -22.995298385620117],
    [0.0, 0.0, 0.0, 1.0]
],
  "dcmmeta_reorient_transform": [
    [0.0, -1.0, 0.0, 79.0],
    [1.0, 0.0, 0.0, 0.0],
    [0.0, 0.0, 1.0, 0.0],
    [0.0, 0.0, 0.0, 1.0]
],
  "dcmmeta_shape": [80, 80, 30, 200],
  "dcmmeta_slice_dim": 2,
  "dcmmeta_version": 0.6,
  "global": {
    "const": {
      "AccessionNumber": "qa64",
      "AcquisitionMatrix": [80, 0, 0, 80],
      "AngioFlag": "N",
      "BitsAllocated": 16,
      "BitsStored": 12,
      "BodyPartExamined": "BRAIN",
      "Columns": 480,
      "EchoNumbers": 1,
      "EchoTime": 30.0,
      "EchoTrainLength": 80,
      "FlipAngle": 10.0,
      "HighBit": 11,
      "ImageOrientationPatient": [0.99161979309604, 0.12903623360262, 0.00631160501201, -0.1245674392785, 0.9420405912033, 0.31151641625593],
      "ImagePositionPatient": [-627.39131479144, -755.69609823831, -287.52150093548],
      "ImageType": [
        "ORIGINAL",
        "PRIMARY",
        "M",
        "ND",
        "NORM",
        "MOSAIC"
],
      "ImagedNucleus": "1H",
      "ImagingFrequency": 123.259119,
      "InPlanePhaseEncodingDirection": "COL",
      "MRAcquisitionType": "2D",
      "MagneticFieldStrength": 3.0,
      "Manufacturer": "SIEMENS",
      "ManufacturerModelName": "Prisma",
      "Modality": "MR",
      "NumberOfAverages": 1.0,
      "NumberOfPhaseEncodingSteps": 80,
      "PercentPhaseFieldOfView": 100.0,
      "PercentSampling": 100.0,
      "PerformedProcedureStepStartTime": "082808.948000",
      "PhotometricInterpretation": "MONOCHROME2",
      "PixelBandwidth": 2315.0,
      "PixelRepresentation": 0,
      "PixelSpacing": [3.0, 3.0],
      "ProtocolName": "func-bold_fa-10",
      "RepetitionTime": 2000.0,
      "Rows": 480,
      "SAR": 0.00755514171436,
      "SamplesPerPixel": 1,
      "ScanOptions": "FS",
      "ScanningSequence": "EP",
      "SequenceName": "*epfid2d1_80",
      "SequenceVariant": "SK",
      "SeriesDescription": "func-bold_fa-10",
      "SeriesNumber": 7,
      "SeriesTime": "084729.638000",
      "SliceLocation": -60.664394133819,
      "SliceThickness": 3.5,
      "SmallestImagePixelValue": 0,
      "SoftwareVersions": "syngo MR E11",
      "SpacingBetweenSlices": 3.9899999344754,
      "SpecificCharacterSet": "ISO_IR 100",
      "StudyID": "11",
      "StudyTime": "082808.878000",
      "TransmitCoilName": "Body",
      "VariableFlipAngleFlag": "N",
      "WindowCenterWidthExplanation": "Algo1"
    },
    "slices": {}
  },
  "time": {
    "samples": {
      "AcquisitionNumber": [1, 2, 3, 4, 5, 6, 7, 8, 9, 10, 11, 12, 13, 14, 15, 16, 17, 18, 19, 20, 21, 22, 23, 24, 25, 26, 27, 28, 29, 30, 31, 32, 33, 34, 35, 36, 37, 38, 39, 40, 41, 42, 43, 44, 45, 46, 47, 48, 49, 50, 51, 52, 53, 54, 55, 56, 57, 58, 59, 60, 61, 62, 63, 64, 65, 66, 67, 68, 69, 70, 71, 72, 73, 74, 75, 76, 77, 78, 79, 80, 81, 82, 83, 84, 85, 86, 87, 88, 89, 90, 91, 92, 93, 94, 95, 96, 97, 98, 99, 100, 101, 102, 103, 104, 105, 106, 107, 108, 109, 110, 111, 112, 113, 114, 115, 116, 117, 118, 119, 120, 121, 122, 123, 124, 125, 126, 127, 128, 129, 130, 131, 132, 133, 134, 135, 136, 137, 138, 139, 140, 141, 142, 143, 144, 145, 146, 147, 148, 149, 150, 151, 152, 153, 154, 155, 156, 157, 158, 159, 160, 161, 162, 163, 164, 165, 166, 167, 168, 169, 170, 171, 172, 173, 174, 175, 176, 177, 178, 179, 180, 181, 182, 183, 184, 185, 186, 187, 188, 189, 190, 191, 192, 193, 194, 195, 196, 197, 198, 199, 200],
      "AcquisitionTime": ["084638.505000", "084640.505000", "084642.505000", "084644.505000", "084646.505000", "084648.505000", "084650.505000", "084652.505000", "084654.505000", "084656.505000", "084658.505000", "084700.505000", "084702.505000", "084704.505000", "084706.505000", "084708.505000", "084710.505000", "084712.505000", "084714.505000", "084716.505000", "084718.505000", "084720.505000", "084722.505000", "084724.505000", "084726.505000", "084728.505000", "084730.505000", "084732.505000", "084734.505000", "084736.505000", "084738.505000", "084740.505000", "084742.505000", "084744.505000", "084746.505000", "084748.505000", "084750.505000", "084752.505000", "084754.505000", "084756.505000", "084758.505000", "084800.505000", "084802.505000", "084804.505000", "084806.505000", "084808.505000", "084810.505000", "084812.505000", "084814.505000", "084816.505000", "084818.505000", "084820.505000", "084822.505000", "084824.505000", "084826.505000", "084828.505000", "084830.505000", "084832.505000", "084834.505000", "084836.505000", "084838.505000", "084840.505000", "084842.505000", "084844.505000", "084846.505000", "084848.505000", "084850.505000", "084852.505000", "084854.505000", "084856.505000", "084858.505000", "084900.505000", "084902.505000", "084904.505000", "084906.505000", "084908.505000", "084910.505000", "084912.505000", "084914.505000", "084916.505000", "084918.505000", "084920.505000", "084922.505000", "084924.505000", "084926.505000", "084928.505000", "084930.505000", "084932.505000", "084934.505000", "084936.505000", "084938.505000", "084940.505000", "084942.505000", "084944.505000", "084946.505000", "084948.505000", "084950.505000", "084952.505000", "084954.505000", "084956.505000", "084958.505000", "085000.505000", "085002.505000", "085004.505000", "085006.505000", "085008.505000", "085010.505000", "085012.505000", "085014.505000", "085016.505000", "085018.505000", "085020.505000", "085022.505000", "085024.505000", "085026.505000", "085028.505000", "085030.505000", "085032.505000", "085034.505000", "085036.505000", "085038.505000", "085040.505000", "085042.505000", "085044.505000", "085046.505000", "085048.505000", "085050.505000", "085052.505000", "085054.505000", "085056.505000", "085058.505000", "085100.505000", "085102.505000", "085104.505000", "085106.505000", "085108.505000", "085110.505000", "085112.505000", "085114.505000", "085116.505000", "085118.505000", "085120.505000", "085122.505000", "085124.505000", "085126.505000", "085128.505000", "085130.505000", "085132.505000", "085134.505000", "085136.505000", "085138.505000", "085140.505000", "085142.505000", "085144.505000", "085146.505000", "085148.505000", "085150.505000", "085152.505000", "085154.505000", "085156.505000", "085158.505000", "085200.505000", "085202.505000", "085204.505000", "085206.505000", "085208.505000", "085210.505000", "085212.505000", "085214.505000", "085216.505000", "085218.505000", "085220.505000", "085222.505000", "085224.505000", "085226.505000", "085228.505000", "085230.505000", "085232.505000", "085234.505000", "085236.505000", "085238.505000", "085240.505000", "085242.505000", "085244.505000", "085246.505000", "085248.505000", "085250.505000", "085252.505000", "085254.505000", "085256.505000", "085258.505000", "085300.505000", "085302.505000", "085304.505000", "085306.505000", "085308.505000", "085310.505000", "085312.505000", "085314.505000", "085316.505000"],
      "ContentTime": ["084729.641000", "084729.644000", "084729.647000", "084729.649000", "084729.651000", "084729.662000", "084729.665000", "084729.673000", "084729.675000", "084729.678000", "084729.680000", "084729.682000", "084729.684000", "084729.697000", "084729.699000", "084729.701000", "084729.703000", "084729.706000", "084729.708000", "084729.710000", "084729.712000", "084729.715000", "084729.717000", "084729.719000", "084729.722000", "084729.724000", "084809.636000", "084809.639000", "084809.641000", "084809.644000", "084809.646000", "084809.648000", "084809.650000", "084809.653000", "084809.655000", "084809.657000", "084809.659000", "084809.662000", "084809.664000", "084809.666000", "084809.668000", "084809.671000", "084809.673000", "084809.675000", "084809.684000", "084809.687000", "084849.635000", "084849.638000", "084849.640000", "084849.642000", "084849.645000", "084849.647000", "084849.649000", "084849.651000", "084849.654000", "084849.656000", "084849.658000", "084849.660000", "084849.663000", "084849.665000", "084849.673000", "084849.675000", "084849.678000", "084849.680000", "084849.682000", "084849.684000", "084929.636000", "084929.639000", "084929.641000", "084929.643000", "084929.646000", "084929.648000", "084929.650000", "084929.652000", "084929.655000", "084929.657000", "084929.659000", "084929.662000", "084929.664000", "084929.666000", "084929.668000", "084929.671000", "084929.673000", "084929.675000", "084929.677000", "084929.680000", "085009.636000", "085009.639000", "085009.641000", "085009.643000", "085009.645000", "085009.648000", "085009.650000", "085009.652000", "085009.655000", "085009.657000", "085009.659000", "085009.661000", "085009.664000", "085009.666000", "085009.668000", "085009.671000", "085009.673000", "085009.675000", "085009.677000", "085009.680000", "085049.636000", "085049.639000", "085049.641000", "085049.643000", "085049.645000", "085049.648000", "085049.650000", "085049.652000", "085049.655000", "085049.657000", "085049.659000", "085049.661000", "085049.664000", "085049.666000", "085049.668000", "085049.670000", "085049.673000", "085049.675000", "085049.677000", "085049.680000", "085129.636000", "085129.639000", "085129.641000", "085129.643000", "085129.645000", "085129.648000", "085129.650000", "085129.652000", "085129.655000", "085129.657000", "085129.659000", "085129.662000", "085129.664000", "085129.666000", "085129.668000", "085129.671000", "085129.673000", "085129.675000", "085129.677000", "085129.680000", "085209.636000", "085209.639000", "085209.641000", "085209.643000", "085209.645000", "085209.648000", "085209.650000", "085209.652000", "085209.655000", "085209.657000", "085209.659000", "085209.662000", "085209.664000", "085209.666000", "085209.668000", "085209.671000", "085209.673000", "085209.675000", "085209.677000", "085209.680000", "085249.636000", "085249.639000", "085249.641000", "085249.643000", "085249.645000", "085249.648000", "085249.650000", "085249.652000", "085249.655000", "085249.657000", "085249.659000", "085249.661000", "085249.664000", "085249.666000", "085249.668000", "085249.671000", "085249.673000", "085249.675000", "085249.677000", "085249.680000", "085317.552000", "085317.555000", "085317.557000", "085317.560000", "085317.562000", "085317.564000", "085317.567000", "085317.569000", "085317.571000", "085317.574000", "085317.576000", "085317.578000", "085317.581000", "085317.585000"],
      "InstanceCreationTime": ["084729.641000", "084729.644000", "084729.647000", "084729.649000", "084729.651000", "084729.662000", "084729.665000", "084729.673000", "084729.675000", "084729.678000", "084729.680000", "084729.682000", "084729.684000", "084729.697000", "084729.699000", "084729.701000", "084729.703000", "084729.706000", "084729.708000", "084729.710000", "084729.712000", "084729.715000", "084729.717000", "084729.719000", "084729.722000", "084729.724000", "084809.636000", "084809.639000", "084809.641000", "084809.644000", "084809.646000", "084809.648000", "084809.650000", "084809.653000", "084809.655000", "084809.657000", "084809.659000", "084809.662000", "084809.664000", "084809.666000", "084809.668000", "084809.671000", "084809.673000", "084809.675000", "084809.684000", "084809.687000", "084849.635000", "084849.638000", "084849.640000", "084849.642000", "084849.645000", "084849.647000", "084849.649000", "084849.651000", "084849.654000", "084849.656000", "084849.658000", "084849.660000", "084849.663000", "084849.665000", "084849.673000", "084849.675000", "084849.678000", "084849.680000", "084849.682000", "084849.684000", "084929.636000", "084929.639000", "084929.641000", "084929.643000", "084929.646000", "084929.648000", "084929.650000", "084929.652000", "084929.655000", "084929.657000", "084929.659000", "084929.662000", "084929.664000", "084929.666000", "084929.668000", "084929.671000", "084929.673000", "084929.675000", "084929.677000", "084929.680000", "085009.636000", "085009.639000", "085009.641000", "085009.643000", "085009.645000", "085009.648000", "085009.650000", "085009.652000", "085009.655000", "085009.657000", "085009.659000", "085009.661000", "085009.664000", "085009.666000", "085009.668000", "085009.671000", "085009.673000", "085009.675000", "085009.677000", "085009.680000", "085049.636000", "085049.639000", "085049.641000", "085049.643000", "085049.645000", "085049.648000", "085049.650000", "085049.652000", "085049.655000", "085049.657000", "085049.659000", "085049.661000", "085049.664000", "085049.666000", "085049.668000", "085049.670000", "085049.673000", "085049.675000", "085049.677000", "085049.680000", "085129.636000", "085129.639000", "085129.641000", "085129.643000", "085129.645000", "085129.648000", "085129.650000", "085129.652000", "085129.655000", "085129.657000", "085129.659000", "085129.662000", "085129.664000", "085129.666000", "085129.668000", "085129.671000", "085129.673000", "085129.675000", "085129.677000", "085129.680000", "085209.636000", "085209.639000", "085209.641000", "085209.643000", "085209.645000", "085209.648000", "085209.650000", "085209.652000", "085209.655000", "085209.657000", "085209.659000", "085209.662000", "085209.664000", "085209.666000", "085209.668000", "085209.671000", "085209.673000", "085209.675000", "085209.677000", "085209.680000", "085249.636000", "085249.639000", "085249.641000", "085249.643000", "085249.645000", "085249.648000", "085249.650000", "085249.652000", "085249.655000", "085249.657000", "085249.659000", "085249.661000", "085249.664000", "085249.666000", "085249.668000", "085249.671000", "085249.673000", "085249.675000", "085249.677000", "085249.680000", "085317.552000", "085317.555000", "085317.557000", "085317.560000", "085317.562000", "085317.564000", "085317.567000", "085317.569000", "085317.571000", "085317.574000", "085317.576000", "085317.578000", "085317.581000", "085317.585000"],
      "InstanceNumber": [1, 2, 3, 4, 5, 6, 7, 8, 9, 10, 11, 12, 13, 14, 15, 16, 17, 18, 19, 20, 21, 22, 23, 24, 25, 26, 27, 28, 29, 30, 31, 32, 33, 34, 35, 36, 37, 38, 39, 40, 41, 42, 43, 44, 45, 46, 47, 48, 49, 50, 51, 52, 53, 54, 55, 56, 57, 58, 59, 60, 61, 62, 63, 64, 65, 66, 67, 68, 69, 70, 71, 72, 73, 74, 75, 76, 77, 78, 79, 80, 81, 82, 83, 84, 85, 86, 87, 88, 89, 90, 91, 92, 93, 94, 95, 96, 97, 98, 99, 100, 101, 102, 103, 104, 105, 106, 107, 108, 109, 110, 111, 112, 113, 114, 115, 116, 117, 118, 119, 120, 121, 122, 123, 124, 125, 126, 127, 128, 129, 130, 131, 132, 133, 134, 135, 136, 137, 138, 139, 140, 141, 142, 143, 144, 145, 146, 147, 148, 149, 150, 151, 152, 153, 154, 155, 156, 157, 158, 159, 160, 161, 162, 163, 164, 165, 166, 167, 168, 169, 170, 171, 172, 173, 174, 175, 176, 177, 178, 179, 180, 181, 182, 183, 184, 185, 186, 187, 188, 189, 190, 191, 192, 193, 194, 195, 196, 197, 198, 199, 200],
      "LargestImagePixelValue": [666, 662, 666, 664, 661, 661, 664, 662, 660, 667, 659, 664, 665, 661, 660, 663, 661, 663, 664, 665, 664, 664, 664, 660, 667, 664, 658, 659, 662, 660, 661, 661, 664, 660, 663, 665, 661, 662, 662, 665, 665, 668, 663, 661, 667, 663, 665, 668, 663, 662, 664, 658, 664, 665, 662, 661, 662, 667, 664, 666, 663, 665, 664, 667, 664, 664, 665, 661, 666, 663, 664, 662, 666, 663, 664, 664, 664, 666, 659, 665, 665, 667, 661, 669, 662, 662, 659, 663, 666, 667, 665, 662, 667, 662, 659, 665, 668, 664, 662, 664, 661, 662, 664, 664, 665, 670, 666, 663, 665, 662, 659, 663, 662, 663, 667, 660, 660, 662, 664, 657, 662, 664, 662, 664, 668, 661, 662, 665, 661, 663, 665, 660, 663, 665, 657, 659, 669, 661, 659, 665, 661, 663, 667, 664, 665, 667, 665, 662, 664, 664, 660, 664, 661, 660, 659, 661, 663, 661, 663, 665, 663, 665, 659, 662, 659, 658, 662, 670, 660, 658, 666, 661, 660, 663, 662, 663, 669, 660, 663, 666, 662, 666, 660, 665, 660, 665, 664, 663, 664, 664, 663, 664, 662, 658, 660, 666, 661, 661, 665, 662],
      "WindowCenter": [466.0, 466.0, 466.0, 466.0, 466.0, 466.0, 466.0, 466.0, 466.0, 466.0, 466.0, 465.0, 466.0, 466.0, 466.0, 466.0, 466.0, 465.0, 466.0, 466.0, 465.0, 466.0, 466.0, 465.0, 466.0, 466.0, 465.0, 466.0, 466.0, 465.0, 465.0, 466.0, 465.0, 465.0, 466.0, 465.0, 465.0, 465.0, 465.0, 465.0, 466.0, 465.0, 465.0, 466.0, 465.0, 465.0, 465.0, 465.0, 465.0, 465.0, 465.0, 465.0, 465.0, 465.0, 465.0, 465.0, 465.0, 465.0, 465.0, 465.0, 465.0, 465.0, 465.0, 465.0, 465.0, 465.0, 465.0, 465.0, 465.0, 465.0, 465.0, 465.0, 465.0, 465.0, 465.0, 465.0, 465.0, 465.0, 465.0, 465.0, 465.0, 465.0, 465.0, 465.0, 465.0, 465.0, 465.0, 465.0, 465.0, 465.0, 465.0, 465.0, 465.0, 465.0, 465.0, 465.0, 465.0, 465.0, 465.0, 465.0, 465.0, 465.0, 465.0, 465.0, 465.0, 466.0, 465.0, 465.0, 465.0, 465.0, 465.0, 465.0, 465.0, 464.0, 465.0, 465.0, 465.0, 465.0, 465.0, 465.0, 464.0, 465.0, 464.0, 464.0, 465.0, 465.0, 465.0, 465.0, 465.0, 465.0, 465.0, 465.0, 465.0, 465.0, 465.0, 464.0, 465.0, 465.0, 465.0, 465.0, 465.0, 464.0, 465.0, 465.0, 464.0, 465.0, 464.0, 464.0, 465.0, 465.0, 464.0, 464.0, 465.0, 464.0, 465.0, 465.0, 465.0, 465.0, 465.0, 464.0, 464.0, 465.0, 464.0, 464.0, 465.0, 464.0, 464.0, 466.0, 464.0, 464.0, 464.0, 464.0, 464.0, 464.0, 464.0, 464.0, 464.0, 464.0, 464.0, 464.0, 464.0, 464.0, 464.0, 465.0, 464.0, 464.0, 464.0, 464.0, 464.0, 464.0, 464.0, 464.0, 464.0, 464.0, 464.0, 464.0, 464.0, 464.0, 464.0, 464.0],
      "WindowWidth": [967.0, 967.0, 967.0, 967.0, 967.0, 967.0, 967.0, 967.0, 967.0, 967.0, 967.0, 966.0, 967.0, 967.0, 967.0, 967.0, 967.0, 966.0, 967.0, 967.0, 966.0, 967.0, 967.0, 966.0, 967.0, 967.0, 967.0, 967.0, 967.0, 967.0, 967.0, 967.0, 966.0, 967.0, 967.0, 966.0, 966.0, 966.0, 967.0, 966.0, 967.0, 966.0, 966.0, 967.0, 966.0, 966.0, 967.0, 967.0, 966.0, 966.0, 967.0, 966.0, 966.0, 967.0, 966.0, 966.0, 966.0, 966.0, 966.0, 967.0, 966.0, 966.0, 966.0, 966.0, 966.0, 966.0, 966.0, 966.0, 966.0, 966.0, 966.0, 966.0, 966.0, 966.0, 966.0, 966.0, 966.0, 966.0, 966.0, 966.0, 966.0, 966.0, 966.0, 966.0, 966.0, 965.0, 966.0, 966.0, 966.0, 966.0, 966.0, 965.0, 965.0, 966.0, 966.0, 965.0, 966.0, 966.0, 965.0, 966.0, 966.0, 965.0, 966.0, 966.0, 965.0, 967.0, 966.0, 965.0, 966.0, 966.0, 965.0, 966.0, 966.0, 965.0, 965.0, 966.0, 965.0, 965.0, 966.0, 965.0, 965.0, 966.0, 965.0, 965.0, 966.0, 965.0, 965.0, 965.0, 965.0, 965.0, 965.0, 965.0, 965.0, 965.0, 965.0, 964.0, 965.0, 965.0, 965.0, 965.0, 965.0, 964.0, 965.0, 965.0, 964.0, 965.0, 965.0, 964.0, 965.0, 965.0, 964.0, 964.0, 965.0, 964.0, 965.0, 965.0, 965.0, 965.0, 965.0, 964.0, 964.0, 965.0, 964.0, 964.0, 965.0, 964.0, 964.0, 966.0, 964.0, 964.0, 964.0, 964.0, 964.0, 964.0, 964.0, 964.0, 964.0, 964.0, 964.0, 964.0, 964.0, 964.0, 964.0, 965.0, 964.0, 964.0, 964.0, 964.0, 964.0, 964.0, 964.0, 964.0, 964.0, 964.0, 964.0, 964.0, 964.0, 964.0, 964.0, 964.0]
    },
    "slices": {}
  }
}