{
  "AcquisitionMatrixPE": 80,
  "AcquisitionNumber": 1,
  "AcquisitionTime": "10:34:50.205000",
  "BandwidthPerPixelPhaseEncode": 48.077,
  "BaseResolution": 80,
  "BodyPartExamined": "BRAIN",
  "CoilCombinationMethod": "Sum of Squares",
  "ConsistencyInfo": "N4_VE11C_LATEST_20160120",
  "ConversionSoftware": "dcm2niix",
  "ConversionSoftwareVersion": "v1.0.20220720",
  "DerivedVendorReportedEchoSpacing": 0.000519999,
  "DeviceSerialNumber": "66112",
  "DwellTime": 2.7e-06,
  "EchoTime": 0.035,
  "EchoTrainLength": 39,
  "EffectiveEchoSpacing": 0.00026,
  "FlipAngle": 90,
  "HeudiconvVersion": "0.13.1",
  "ImageOrientationPatientDICOM": [0.98713, 0.159515, 0.0113426, -0.154581, 0.933608, 0.323236],
  "ImageOrientationText": "Tra>Cor(18.7)>Sag(-2.3)",
  "ImageType": [
    "ORIGINAL",
    "PRIMARY",
    "M",
    "ND",
    "NORM",
    "MOSAIC"
],
  "ImagingFrequency": 123.252,
  "InPlanePhaseEncodingDirectionDICOM": "COL",
  "InstitutionAddress": "Maynard 3,Hanover,NH,US,03755",
  "InstitutionName": "Dartmouth College - PBS",
  "InstitutionalDepartmentName": "Department",
  "MRAcquisitionType": "2D",
  "MagneticFieldStrength": 3,
  "Manufacturer": "Siemens",
  "ManufacturersModelName": "Prisma",
  "MatrixCoilMode": "GRAPPA",
  "Modality": "MR",
  "NonlinearGradientCorrection": false,
  "ParallelReductionFactorInPlane": 2,
  "PartialFourier": 1,
  "PatientPosition": "HFS",
  "PercentPhaseFOV": 100,
  "PercentSampling": 100,
  "PhaseEncodingDirection": "j-",
  "PhaseEncodingSteps": 79,
  "PhaseResolution": 1,
  "PixelBandwidth": 2315,
  "ProcedureStepDescription": "dbic^QA",
  "ProtocolName": "func-bold_task-rest_acq-p2",
  "PulseSequenceDetails": "%SiemensSeq%\\ep2d_bold",
  "ReceiveCoilActiveElements": "HC1-7;NC1,2",
  "ReceiveCoilName": "HeadNeck_64",
  "ReconMatrixPE": 80,
  "RefLinesPE": 24,
  "RepetitionTime": 2,
  "SAR": 0.0409489,
  "ScanOptions": "FS",
  "ScanningSequence": "EP",
  "SequenceName": "*epfid2d1_80",
  "SequenceVariant": "SK",
  "SeriesDescription": "func-bold_task-rest_acq-p2",
  "SeriesNumber": 5,
  "ShimSetting": [4138, -7708, -7516, 197, -48, -233, -106, 82],
  "SliceThickness": 3.5,
  "SliceTiming": [0.99, 0, 1.055, 0.065, 1.12, 0.1325, 1.1875, 0.1975, 1.2525, 0.2625, 1.32, 0.33, 1.385, 0.395, 1.45, 0.4625, 1.5175, 0.5275, 1.5825, 0.5925, 1.65, 0.66, 1.715, 0.725, 1.78, 0.7925, 1.8475, 0.8575, 1.9125, 0.9225],
  "SoftwareVersions": "syngo MR E11",
  "SpacingBetweenSlices": 3.99,
  "StationName": "AWP66112",
  "TaskName": "rest",
  "TotalReadoutTime": 0.02054,
  "TxRefAmp": 205.97,
  "dcmmeta_affine": [
    [-2.961390733718872, -0.46374160051345825, -0.163476824760437, 142.908447265625],
    [-0.4785462021827698, 2.8008227348327637, 1.280110478401184, -110.33181762695312],
    [0.034027792513370514, -0.9697089195251465, 3.775538682937622, -13.183858871459961],
    [0.0, 0.0, 0.0, 1.0]
],
  "dcmmeta_reorient_transform": [
    [0.0, -1.0, 0.0, 79.0],
    [1.0, 0.0, 0.0, 0.0],
    [0.0, 0.0, 1.0, 0.0],
    [0.0, 0.0, 0.0, 1.0]
],
  "dcmmeta_shape": [80, 80, 30, 200],
  "dcmmeta_slice_dim": 2,
  "dcmmeta_version": 0.6,
  "global": {
    "const": {
      "AccessionNumber": "qa64",
      "AcquisitionMatrix": [80, 0, 0, 80],
      "AngioFlag": "N",
      "BitsAllocated": 16,
      "BitsStored": 12,
      "BodyPartExamined": "BRAIN",
      "Columns": 480,
      "EchoNumbers": 1,
      "EchoTime": 35.0,
      "EchoTrainLength": 39,
      "FlipAngle": 90.0,
      "HighBit": 11,
      "ImageOrientationPatient": [0.98713027643297, 0.15951540001927, 0.01134259697137, -0.1545805371709, 0.93360759618717, 0.32323631273353],
      "ImagePositionPatient": [-605.80269650026, -766.80697821285, -290.53821055637],
      "ImageType": [
        "ORIGINAL",
        "PRIMARY",
        "M",
        "ND",
        "NORM",
        "MOSAIC"
],
      "ImagedNucleus": "1H",
      "ImagingFrequency": 123.252374,
      "InPlanePhaseEncodingDirection": "COL",
      "LargestImagePixelValue": 4095,
      "MRAcquisitionType": "2D",
      "MagneticFieldStrength": 3.0,
      "Manufacturer": "SIEMENS",
      "ManufacturerModelName": "Prisma",
      "Modality": "MR",
      "NumberOfAverages": 1.0,
      "NumberOfPhaseEncodingSteps": 79,
      "PercentPhaseFieldOfView": 100.0,
      "PercentSampling": 100.0,
      "PerformedProcedureStepStartTime": "103229.221000",
      "PhotometricInterpretation": "MONOCHROME2",
      "PixelBandwidth": 2315.0,
      "PixelRepresentation": 0,
      "PixelSpacing": [3.0, 3.0],
      "ProtocolName": "func-bold_task-rest_acq-p2",
      "RepetitionTime": 2000.0,
      "Rows": 480,
      "SAR": 0.0409489469137,
      "SamplesPerPixel": 1,
      "ScanOptions": "FS",
      "ScanningSequence": "EP",
      "SequenceName": "*epfid2d1_80",
      "SequenceVariant": "SK",
      "SeriesDescription": "func-bold_task-rest_acq-p2",
      "SeriesNumber": 5,
      "SeriesTime": "103547.294000",
      "SliceLocation": -53.728146786918,
      "SliceThickness": 3.5,
      "SmallestImagePixelValue": 0,
      "SoftwareVersions": "syngo MR E11",
      "SpacingBetweenSlices": 3.9900000483296,
      "SpecificCharacterSet": "ISO_IR 100",
      "StudyID": "34",
      "StudyTime": "103229.141000",
      "TransmitCoilName": "Body",
      "VariableFlipAngleFlag": "N",
      "WindowCenterWidthExplanation": "Algo1",
      "dBdt": 0.0},
    "slices": {}
  },
  "time": {
    "samples": {
      "AcquisitionNumber": [1, 2, 3, 4, 5, 6, 7, 8, 9, 10, 11, 12, 13, 14, 15, 16, 17, 18, 19, 20, 21, 22, 23, 24, 25, 26, 27, 28, 29, 30, 31, 32, 33, 34, 35, 36, 37, 38, 39, 40, 41, 42, 43, 44, 45, 46, 47, 48, 49, 50, 51, 52, 53, 54, 55, 56, 57, 58, 59, 60, 61, 62, 63, 64, 65, 66, 67, 68, 69, 70, 71, 72, 73, 74, 75, 76, 77, 78, 79, 80, 81, 82, 83, 84, 85, 86, 87, 88, 89, 90, 91, 92, 93, 94, 95, 96, 97, 98, 99, 100, 101, 102, 103, 104, 105, 106, 107, 108, 109, 110, 111, 112, 113, 114, 115, 116, 117, 118, 119, 120, 121, 122, 123, 124, 125, 126, 127, 128, 129, 130, 131, 132, 133, 134, 135, 136, 137, 138, 139, 140, 141, 142, 143, 144, 145, 146, 147, 148, 149, 150, 151, 152, 153, 154, 155, 156, 157, 158, 159, 160, 161, 162, 163, 164, 165, 166, 167, 168, 169, 170, 171, 172, 173, 174, 175, 176, 177, 178, 179, 180, 181, 182, 183, 184, 185, 186, 187, 188, 189, 190, 191, 192, 193, 194, 195, 196, 197, 198, 199, 200],
      "AcquisitionTime": ["103450.205000", "103452.205000", "103454.205000", "103456.205000", "103458.205000", "103500.205000", "103502.205000", "103504.205000", "103506.205000", "103508.205000", "103510.205000", "103512.205000", "103514.205000", "103516.205000", "103518.205000", "103520.205000", "103522.205000", "103524.205000", "103526.205000", "103528.205000", "103530.205000", "103532.205000", "103534.205000", "103536.205000", "103538.205000", "103540.205000", "103542.205000", "103544.205000", "103546.205000", "103548.205000", "103550.205000", "103552.205000", "103554.205000", "103556.205000", "103558.205000", "103600.205000", "103602.205000", "103604.205000", "103606.205000", "103608.205000", "103610.205000", "103612.205000", "103614.205000", "103616.205000", "103618.205000", "103620.205000", "103622.205000", "103624.205000", "103626.205000", "103628.205000", "103630.205000", "103632.205000", "103634.205000", "103636.205000", "103638.205000", "103640.205000", "103642.205000", "103644.205000", "103646.205000", "103648.205000", "103650.205000", "103652.205000", "103654.205000", "103656.205000", "103658.205000", "103700.205000", "103702.205000", "103704.205000", "103706.205000", "103708.205000", "103710.205000", "103712.205000", "103714.205000", "103716.205000", "103718.205000", "103720.205000", "103722.205000", "103724.205000", "103726.205000", "103728.205000", "103730.205000", "103732.205000", "103734.205000", "103736.205000", "103738.205000", "103740.205000", "103742.205000", "103744.205000", "103746.205000", "103748.205000", "103750.205000", "103752.205000", "103754.205000", "103756.205000", "103758.205000", "103800.205000", "103802.205000", "103804.205000", "103806.205000", "103808.205000", "103810.205000", "103812.205000", "103814.205000", "103816.205000", "103818.205000", "103820.205000", "103822.205000", "103824.205000", "103826.205000", "103828.205000", "103830.205000", "103832.205000", "103834.205000", "103836.205000", "103838.205000", "103840.205000", "103842.205000", "103844.205000", "103846.205000", "103848.205000", "103850.205000", "103852.205000", "103854.205000", "103856.205000", "103858.205000", "103900.205000", "103902.205000", "103904.205000", "103906.205000", "103908.205000", "103910.205000", "103912.205000", "103914.205000", "103916.205000", "103918.205000", "103920.205000", "103922.205000", "103924.205000", "103926.205000", "103928.205000", "103930.205000", "103932.205000", "103934.205000", "103936.205000", "103938.205000", "103940.205000", "103942.205000", "103944.205000", "103946.205000", "103948.205000", "103950.205000", "103952.205000", "103954.205000", "103956.205000", "103958.205000", "104000.205000", "104002.205000", "104004.205000", "104006.205000", "104008.205000", "104010.205000", "104012.205000", "104014.205000", "104016.205000", "104018.205000", "104020.205000", "104022.205000", "104024.205000", "104026.205000", "104028.205000", "104030.205000", "104032.205000", "104034.205000", "104036.205000", "104038.205000", "104040.205000", "104042.205000", "104044.205000", "104046.205000", "104048.205000", "104050.205000", "104052.205000", "104054.205000", "104056.205000", "104058.205000", "104100.205000", "104102.205000", "104104.205000", "104106.205000", "104108.205000", "104110.205000", "104112.205000", "104114.205000", "104116.205000", "104118.205000", "104120.205000", "104122.205000", "104124.205000", "104126.205000", "104128.205000"],
      "ContentTime": ["103547.298000", "103547.302000", "103547.305000", "103547.307000", "103547.310000", "103547.312000", "103547.315000", "103547.317000", "103547.320000", "103547.323000", "103547.325000", "103547.328000", "103547.339000", "103547.341000", "103547.344000", "103547.346000", "103547.349000", "103547.351000", "103547.354000", "103547.357000", "103547.359000", "103547.362000", "103547.364000", "103547.369000", "103547.372000", "103547.375000", "103547.377000", "103547.380000", "103627.272000", "103627.274000", "103627.283000", "103627.285000", "103627.288000", "103627.290000", "103627.293000", "103627.296000", "103627.298000", "103627.301000", "103627.303000", "103627.306000", "103627.329000", "103627.331000", "103627.334000", "103627.336000", "103627.339000", "103627.342000", "103627.344000", "103627.347000", "103707.272000", "103707.274000", "103707.277000", "103707.280000", "103707.282000", "103707.287000", "103707.289000", "103707.292000", "103707.295000", "103707.297000", "103707.300000", "103707.302000", "103707.305000", "103707.307000", "103707.310000", "103707.313000", "103707.315000", "103707.318000", "103707.321000", "103707.323000", "103747.272000", "103747.274000", "103747.277000", "103747.280000", "103747.282000", "103747.285000", "103747.288000", "103747.290000", "103747.293000", "103747.296000", "103747.298000", "103747.301000", "103747.313000", "103747.316000", "103747.319000", "103747.321000", "103747.324000", "103747.326000", "103747.329000", "103747.332000", "103827.272000", "103827.274000", "103827.277000", "103827.280000", "103827.282000", "103827.285000", "103827.288000", "103827.290000", "103827.293000", "103827.296000", "103827.298000", "103827.301000", "103827.303000", "103827.306000", "103827.309000", "103827.312000", "103827.314000", "103827.317000", "103827.320000", "103827.322000", "103907.272000", "103907.274000", "103907.277000", "103907.280000", "103907.282000", "103907.285000", "103907.288000", "103907.290000", "103907.293000", "103907.296000", "103907.298000", "103907.301000", "103907.303000", "103907.306000", "103907.309000", "103907.311000", "103907.314000", "103907.317000", "103907.319000", "103907.322000", "103947.272000", "103947.274000", "103947.277000", "103947.280000", "103947.282000", "103947.285000", "103947.288000", "103947.290000", "103947.293000", "103947.295000", "103947.298000", "103947.301000", "103947.303000", "103947.306000", "103947.309000", "103947.311000", "103947.314000", "103947.317000", "103947.319000", "103947.322000", "104027.271000", "104027.274000", "104027.276000", "104027.279000", "104027.281000", "104027.284000", "104027.287000", "104027.289000", "104027.292000", "104027.295000", "104027.297000", "104027.300000", "104027.303000", "104027.305000", "104027.308000", "104027.311000", "104027.313000", "104027.316000", "104027.318000", "104027.321000", "104107.272000", "104107.274000", "104107.277000", "104107.280000", "104107.283000", "104107.285000", "104107.288000", "104107.290000", "104107.293000", "104107.296000", "104107.298000", "104107.301000", "104107.304000", "104107.306000", "104107.309000", "104107.312000", "104107.314000", "104107.317000", "104107.319000", "104107.322000", "104129.954000", "104129.959000", "104129.962000", "104129.966000", "104129.969000", "104129.972000", "104129.977000", "104129.980000", "104129.983000", "104129.986000", "104129.989000", "104129.992000"],
      "InstanceCreationTime": ["103547.298000", "103547.302000", "103547.305000", "103547.307000", "103547.310000", "103547.312000", "103547.315000", "103547.317000", "103547.320000", "103547.323000", "103547.325000", "103547.328000", "103547.339000", "103547.341000", "103547.344000", "103547.346000", "103547.349000", "103547.351000", "103547.354000", "103547.357000", "103547.359000", "103547.362000", "103547.364000", "103547.369000", "103547.372000", "103547.375000", "103547.377000", "103547.380000", "103627.272000", "103627.274000", "103627.283000", "103627.285000", "103627.288000", "103627.290000", "103627.293000", "103627.296000", "103627.298000", "103627.301000", "103627.303000", "103627.306000", "103627.329000", "103627.331000", "103627.334000", "103627.336000", "103627.339000", "103627.342000", "103627.344000", "103627.347000", "103707.272000", "103707.274000", "103707.277000", "103707.280000", "103707.282000", "103707.287000", "103707.289000", "103707.292000", "103707.295000", "103707.297000", "103707.300000", "103707.302000", "103707.305000", "103707.307000", "103707.310000", "103707.313000", "103707.315000", "103707.318000", "103707.321000", "103707.323000", "103747.272000", "103747.274000", "103747.277000", "103747.280000", "103747.282000", "103747.285000", "103747.288000", "103747.290000", "103747.293000", "103747.296000", "103747.298000", "103747.301000", "103747.313000", "103747.316000", "103747.319000", "103747.321000", "103747.324000", "103747.326000", "103747.329000", "103747.332000", "103827.272000", "103827.274000", "103827.277000", "103827.280000", "103827.282000", "103827.285000", "103827.288000", "103827.290000", "103827.293000", "103827.296000", "103827.298000", "103827.301000", "103827.303000", "103827.306000", "103827.309000", "103827.312000", "103827.314000", "103827.317000", "103827.320000", "103827.322000", "103907.272000", "103907.274000", "103907.277000", "103907.280000", "103907.282000", "103907.285000", "103907.288000", "103907.290000", "103907.293000", "103907.296000", "103907.298000", "103907.301000", "103907.303000", "103907.306000", "103907.309000", "103907.311000", "103907.314000", "103907.317000", "103907.319000", "103907.322000", "103947.272000", "103947.274000", "103947.277000", "103947.280000", "103947.282000", "103947.285000", "103947.288000", "103947.290000", "103947.293000", "103947.295000", "103947.298000", "103947.301000", "103947.303000", "103947.306000", "103947.309000", "103947.311000", "103947.314000", "103947.317000", "103947.319000", "103947.322000", "104027.271000", "104027.274000", "104027.276000", "104027.279000", "104027.281000", "104027.284000", "104027.287000", "104027.289000", "104027.292000", "104027.295000", "104027.297000", "104027.300000", "104027.303000", "104027.305000", "104027.308000", "104027.311000", "104027.313000", "104027.316000", "104027.318000", "104027.321000", "104107.272000", "104107.274000", "104107.277000", "104107.280000", "104107.283000", "104107.285000", "104107.288000", "104107.290000", "104107.293000", "104107.296000", "104107.298000", "104107.301000", "104107.304000", "104107.306000", "104107.309000", "104107.312000", "104107.314000", "104107.317000", "104107.319000", "104107.322000", "104129.954000", "104129.959000", "104129.962000", "104129.966000", "104129.969000", "104129.972000", "104129.977000", "104129.980000", "104129.983000", "104129.986000", "104129.989000", "104129.992000"],
      "InstanceNumber": [1, 2, 3, 4, 5, 6, 7, 8, 9, 10, 11, 12, 13, 14, 15, 16, 17, 18, 19, 20, 21, 22, 23, 24, 25, 26, 27, 28, 29, 30, 31, 32, 33, 34, 35, 36, 37, 38, 39, 40, 41, 42, 43, 44, 45, 46, 47, 48, 49, 50, 51, 52, 53, 54, 55, 56, 57, 58, 59, 60, 61, 62, 63, 64, 65, 66, 67, 68, 69, 70, 71, 72, 73, 74, 75, 76, 77, 78, 79, 80, 81, 82, 83, 84, 85, 86, 87, 88, 89, 90, 91, 92, 93, 94, 95, 96, 97, 98, 99, 100, 101, 102, 103, 104, 105, 106, 107, 108, 109, 110, 111, 112, 113, 114, 115, 116, 117, 118, 119, 120, 121, 122, 123, 124, 125, 126, 127, 128, 129, 130, 131, 132, 133, 134, 135, 136, 137, 138, 139, 140, 141, 142, 143, 144, 145, 146, 147, 148, 149, 150, 151, 152, 153, 154, 155, 156, 157, 158, 159, 160, 161, 162, 163, 164, 165, 166, 167, 168, 169, 170, 171, 172, 173, 174, 175, 176, 177, 178, 179, 180, 181, 182, 183, 184, 185, 186, 187, 188, 189, 190, 191, 192, 193, 194, 195, 196, 197, 198, 199, 200],
      "WindowCenter": [1536.0, 1536.0, 1536.0, 1537.0, 1535.0, 1536.0, 1536.0, 1535.0, 1536.0, 1535.0, 1535.0, 1535.0, 1535.0, 1535.0, 1535.0, 1535.0, 1534.0, 1535.0, 1533.0, 1534.0, 1534.0, 1534.0, 1534.0, 1535.0, 1534.0, 1534.0, 1534.0, 1534.0, 1534.0, 1534.0, 1533.0, 1533.0, 1534.0, 1533.0, 1534.0, 1533.0, 1533.0, 1533.0, 1533.0, 1533.0, 1533.0, 1532.0, 1532.0, 1532.0, 1532.0, 1532.0, 1532.0, 1532.0, 1532.0, 1532.0, 1532.0, 1531.0, 1532.0, 1531.0, 1531.0, 1531.0, 1532.0, 1532.0, 1532.0, 1532.0, 1530.0, 1532.0, 1531.0, 1531.0, 1531.0, 1531.0, 1531.0, 1531.0, 1530.0, 1531.0, 1531.0, 1530.0, 1531.0, 1530.0, 1530.0, 1530.0, 1530.0, 1530.0, 1530.0, 1530.0, 1531.0, 1529.0, 1530.0, 1529.0, 1530.0, 1529.0, 1529.0, 1530.0, 1529.0, 1529.0, 1530.0, 1529.0, 1529.0, 1529.0, 1529.0, 1529.0, 1529.0, 1529.0, 1529.0, 1529.0, 1529.0, 1529.0, 1529.0, 1528.0, 1529.0, 1529.0, 1529.0, 1529.0, 1528.0, 1528.0, 1528.0, 1528.0, 1528.0, 1528.0, 1528.0, 1527.0, 1527.0, 1527.0, 1527.0, 1527.0, 1527.0, 1528.0, 1528.0, 1527.0, 1528.0, 1527.0, 1527.0, 1527.0, 1527.0, 1527.0, 1527.0, 1526.0, 1528.0, 1527.0, 1527.0, 1526.0, 1527.0, 1526.0, 1527.0, 1527.0, 1527.0, 1526.0, 1526.0, 1527.0, 1526.0, 1526.0, 1526.0, 1526.0, 1526.0, 1527.0, 1526.0, 1526.0, 1526.0, 1525.0, 1525.0, 1525.0, 1526.0, 1526.0, 1526.0, 1526.0, 1526.0, 1525.0, 1526.0, 1525.0, 1525.0, 1525.0, 1526.0, 1525.0, 1526.0, 1526.0, 1526.0, 1525.0, 1526.0, 1526.0, 1526.0, 1525.0, 1526.0, 1526.0, 1525.0, 1525.0, 1525.0, 1525.0, 1524.0, 1526.0, 1525.0, 1525.0, 1524.0, 1524.0, 1524.0, 1524.0, 1525.0, 1525.0, 1525.0, 1525.0, 1524.0, 1525.0, 1524.0, 1524.0, 1525.0, 1524.0],
      "WindowWidth": [3460.0, 3459.0, 3459.0, 3459.0, 3459.0, 3459.0, 3459.0, 3458.0, 3458.0, 3458.0, 3458.0, 3458.0, 3458.0, 3458.0, 3457.0, 3458.0, 3458.0, 3457.0, 3457.0, 3457.0, 3457.0, 3457.0, 3457.0, 3456.0, 3456.0, 3456.0, 3456.0, 3456.0, 3456.0, 3456.0, 3457.0, 3456.0, 3456.0, 3456.0, 3456.0, 3456.0, 3456.0, 3456.0, 3456.0, 3455.0, 3455.0, 3455.0, 3455.0, 3455.0, 3455.0, 3455.0, 3455.0, 3455.0, 3455.0, 3455.0, 3455.0, 3455.0, 3455.0, 3454.0, 3454.0, 3454.0, 3454.0, 3454.0, 3454.0, 3454.0, 3454.0, 3453.0, 3454.0, 3454.0, 3454.0, 3454.0, 3453.0, 3453.0, 3454.0, 3453.0, 3453.0, 3453.0, 3453.0, 3453.0, 3453.0, 3453.0, 3453.0, 3453.0, 3452.0, 3453.0, 3452.0, 3452.0, 3452.0, 3453.0, 3452.0, 3452.0, 3452.0, 3452.0, 3452.0, 3452.0, 3452.0, 3452.0, 3452.0, 3452.0, 3452.0, 3451.0, 3451.0, 3451.0, 3451.0, 3451.0, 3451.0, 3451.0, 3451.0, 3451.0, 3451.0, 3451.0, 3451.0, 3451.0, 3451.0, 3451.0, 3451.0, 3451.0, 3451.0, 3451.0, 3451.0, 3450.0, 3450.0, 3450.0, 3450.0, 3450.0, 3450.0, 3450.0, 3450.0, 3450.0, 3450.0, 3450.0, 3450.0, 3450.0, 3450.0, 3450.0, 3450.0, 3450.0, 3449.0, 3450.0, 3450.0, 3449.0, 3450.0, 3449.0, 3449.0, 3449.0, 3449.0, 3449.0, 3449.0, 3449.0, 3449.0, 3449.0, 3449.0, 3449.0, 3449.0, 3448.0, 3448.0, 3448.0, 3449.0, 3449.0, 3449.0, 3449.0, 3448.0, 3448.0, 3448.0, 3448.0, 3448.0, 3449.0, 3448.0, 3449.0, 3448.0, 3448.0, 3448.0, 3448.0, 3448.0, 3448.0, 3447.0, 3448.0, 3448.0, 3448.0, 3448.0, 3448.0, 3447.0, 3447.0, 3447.0, 3448.0, 3448.0, 3447.0, 3448.0, 3447.0, 3447.0, 3447.0, 3448.0, 3447.0, 3447.0, 3447.0, 3447.0, 3447.0, 3447.0, 3447.0, 3447.0, 3447.0, 3447.0, 3446.0, 3446.0, 3447.0]
    },
    "slices": {}
  }
}