{
  "AcquisitionMatrixPE": 80,
  "AcquisitionNumber": 1,
  "AcquisitionTime": "10:41:41.537500",
  "BandwidthPerPixelPhaseEncode": 25,
  "BaseResolution": 80,
  "BodyPartExamined": "BRAIN",
  "CoilCombinationMethod": "Sum of Squares",
  "ConsistencyInfo": "N4_VE11C_LATEST_20160120",
  "ConversionSoftware": "dcm2niix",
  "ConversionSoftwareVersion": "v1.0.20220720",
  "DerivedVendorReportedEchoSpacing": 0.0005,
  "DeviceSerialNumber": "66112",
  "DwellTime": 2.7e-06,
  "EchoTime": 0.03,
  "EchoTrainLength": 80,
  "EffectiveEchoSpacing": 0.0005,
  "FlipAngle": 77,
  "HeudiconvVersion": "0.13.1",
  "ImageOrientationPatientDICOM": [0.98713, 0.159515, 0.0113426, -0.154581, 0.933608, 0.323236],
  "ImageOrientationText": "Tra>Cor(18.7)>Sag(-2.3)",
  "ImageType": [
    "ORIGINAL",
    "PRIMARY",
    "M",
    "ND",
    "NORM",
    "MOSAIC"
],
  "ImagingFrequency": 123.252,
  "InPlanePhaseEncodingDirectionDICOM": "COL",
  "InstitutionAddress": "Maynard 3,Hanover,NH,US,03755",
  "InstitutionName": "Dartmouth College - PBS",
  "InstitutionalDepartmentName": "Department",
  "MRAcquisitionType": "2D",
  "MagneticFieldStrength": 3,
  "Manufacturer": "Siemens",
  "ManufacturersModelName": "Prisma",
  "MatrixCoilMode": "SENSE",
  "Modality": "MR",
  "NonlinearGradientCorrection": false,
  "PartialFourier": 1,
  "PatientPosition": "HFS",
  "PercentPhaseFOV": 100,
  "PercentSampling": 100,
  "PhaseEncodingDirection": "j-",
  "PhaseEncodingSteps": 80,
  "PhaseResolution": 1,
  "PixelBandwidth": 2315,
  "ProcedureStepDescription": "dbic^QA",
  "ProtocolName": "func-bold_fa-77",
  "PulseSequenceDetails": "%SiemensSeq%\\ep2d_bold",
  "ReceiveCoilActiveElements": "HC1-7;NC1,2",
  "ReceiveCoilName": "HeadNeck_64",
  "ReconMatrixPE": 80,
  "RepetitionTime": 2,
  "SAR": 0.0321797,
  "ScanOptions": "FS",
  "ScanningSequence": "EP",
  "SequenceName": "*epfid2d1_80",
  "SequenceVariant": "SK",
  "SeriesDescription": "func-bold_fa-77",
  "SeriesNumber": 7,
  "ShimSetting": [4138, -7707, -7516, 197, -47, -231, -105, 82],
  "SliceThickness": 3.5,
  "SliceTiming": [0.99, 0, 1.0575, 0.0675, 1.1225, 0.1325, 1.1875, 0.2, 1.255, 0.265, 1.32, 0.33, 1.3875, 0.3975, 1.4525, 0.4625, 1.5175, 0.5275, 1.585, 0.595, 1.65, 0.66, 1.7175, 0.7275, 1.7825, 0.7925, 1.8475, 0.8575, 1.915, 0.925],
  "SoftwareVersions": "syngo MR E11",
  "SpacingBetweenSlices": 3.99,
  "StationName": "AWP66112",
  "TotalReadoutTime": 0.0395,
  "TxRefAmp": 205.97,
  "dcmmeta_affine": [
    [-2.961390733718872, -0.46374160051345825, -0.163476824760437, 140.66390991210938],
    [-0.4785462021827698, 2.8008227348327637, 1.280110478401184, -108.43534088134766],
    [0.034027792513370514, -0.9697089195251465, 3.775538682937622, -12.573606491088867],
    [0.0, 0.0, 0.0, 1.0]
],
  "dcmmeta_reorient_transform": [
    [0.0, -1.0, 0.0, 79.0],
    [1.0, 0.0, 0.0, 0.0],
    [0.0, 0.0, 1.0, 0.0],
    [0.0, 0.0, 0.0, 1.0]
],
  "dcmmeta_shape": [80, 80, 30, 200],
  "dcmmeta_slice_dim": 2,
  "dcmmeta_version": 0.6,
  "global": {
    "const": {
      "AccessionNumber": "qa64",
      "AcquisitionMatrix": [80, 0, 0, 80],
      "AngioFlag": "N",
      "BitsAllocated": 16,
      "BitsStored": 12,
      "BodyPartExamined": "BRAIN",
      "Columns": 480,
      "EchoNumbers": 1,
      "EchoTime": 30.0,
      "EchoTrainLength": 80,
      "FlipAngle": 77.0,
      "HighBit": 11,
      "ImageOrientationPatient": [0.98713027643297, 0.15951540001927, 0.01134259697137, -0.1545805371709, 0.93360759618717, 0.32323631273353],
      "ImagePositionPatient": [-603.55817106767, -768.7034568658, -289.927958176],
      "ImageType": [
        "ORIGINAL",
        "PRIMARY",
        "M",
        "ND",
        "NORM",
        "MOSAIC"
],
      "ImagedNucleus": "1H",
      "ImagingFrequency": 123.252373,
      "InPlanePhaseEncodingDirection": "COL",
      "LargestImagePixelValue": 4095,
      "MRAcquisitionType": "2D",
      "MagneticFieldStrength": 3.0,
      "Manufacturer": "SIEMENS",
      "ManufacturerModelName": "Prisma",
      "Modality": "MR",
      "NumberOfAverages": 1.0,
      "NumberOfPhaseEncodingSteps": 80,
      "PercentPhaseFieldOfView": 100.0,
      "PercentSampling": 100.0,
      "PerformedProcedureStepStartTime": "103229.221000",
      "PhotometricInterpretation": "MONOCHROME2",
      "PixelBandwidth": 2315.0,
      "PixelRepresentation": 0,
      "PixelSpacing": [3.0, 3.0],
      "ProtocolName": "func-bold_fa-77",
      "RepetitionTime": 2000.0,
      "Rows": 480,
      "SAR": 0.03217972124981,
      "SamplesPerPixel": 1,
      "ScanOptions": "FS",
      "ScanningSequence": "EP",
      "SequenceName": "*epfid2d1_80",
      "SequenceVariant": "SK",
      "SeriesDescription": "func-bold_fa-77",
      "SeriesNumber": 7,
      "SeriesTime": "104227.344000",
      "SliceLocation": -52.450286742924,
      "SliceThickness": 3.5,
      "SmallestImagePixelValue": 0,
      "SoftwareVersions": "syngo MR E11",
      "SpacingBetweenSlices": 3.9900000268916,
      "SpecificCharacterSet": "ISO_IR 100",
      "StudyID": "34",
      "StudyTime": "103229.141000",
      "TransmitCoilName": "Body",
      "VariableFlipAngleFlag": "N",
      "WindowCenterWidthExplanation": "Algo1",
      "dBdt": 0.0},
    "slices": {}
  },
  "time": {
    "samples": {
      "AcquisitionNumber": [1, 2, 3, 4, 5, 6, 7, 8, 9, 10, 11, 12, 13, 14, 15, 16, 17, 18, 19, 20, 21, 22, 23, 24, 25, 26, 27, 28, 29, 30, 31, 32, 33, 34, 35, 36, 37, 38, 39, 40, 41, 42, 43, 44, 45, 46, 47, 48, 49, 50, 51, 52, 53, 54, 55, 56, 57, 58, 59, 60, 61, 62, 63, 64, 65, 66, 67, 68, 69, 70, 71, 72, 73, 74, 75, 76, 77, 78, 79, 80, 81, 82, 83, 84, 85, 86, 87, 88, 89, 90, 91, 92, 93, 94, 95, 96, 97, 98, 99, 100, 101, 102, 103, 104, 105, 106, 107, 108, 109, 110, 111, 112, 113, 114, 115, 116, 117, 118, 119, 120, 121, 122, 123, 124, 125, 126, 127, 128, 129, 130, 131, 132, 133, 134, 135, 136, 137, 138, 139, 140, 141, 142, 143, 144, 145, 146, 147, 148, 149, 150, 151, 152, 153, 154, 155, 156, 157, 158, 159, 160, 161, 162, 163, 164, 165, 166, 167, 168, 169, 170, 171, 172, 173, 174, 175, 176, 177, 178, 179, 180, 181, 182, 183, 184, 185, 186, 187, 188, 189, 190, 191, 192, 193, 194, 195, 196, 197, 198, 199, 200],
      "AcquisitionTime": ["104141.537500", "104143.537500", "104145.537500", "104147.537500", "104149.537500", "104151.537500", "104153.537500", "104155.537500", "104157.537500", "104159.537500", "104201.537500", "104203.537500", "104205.537500", "104207.537500", "104209.537500", "104211.537500", "104213.537500", "104215.537500", "104217.537500", "104219.537500", "104221.537500", "104223.537500", "104225.537500", "104227.537500", "104229.537500", "104231.537500", "104233.537500", "104235.537500", "104237.537500", "104239.537500", "104241.537500", "104243.537500", "104245.537500", "104247.537500", "104249.537500", "104251.537500", "104253.537500", "104255.537500", "104257.537500", "104259.537500", "104301.537500", "104303.537500", "104305.537500", "104307.537500", "104309.537500", "104311.537500", "104313.537500", "104315.537500", "104317.537500", "104319.537500", "104321.537500", "104323.537500", "104325.537500", "104327.537500", "104329.537500", "104331.537500", "104333.537500", "104335.537500", "104337.537500", "104339.537500", "104341.537500", "104343.537500", "104345.537500", "104347.537500", "104349.537500", "104351.537500", "104353.537500", "104355.537500", "104357.537500", "104359.537500", "104401.537500", "104403.537500", "104405.537500", "104407.537500", "104409.537500", "104411.537500", "104413.537500", "104415.537500", "104417.537500", "104419.537500", "104421.537500", "104423.537500", "104425.537500", "104427.537500", "104429.537500", "104431.537500", "104433.537500", "104435.537500", "104437.537500", "104439.537500", "104441.537500", "104443.537500", "104445.537500", "104447.537500", "104449.537500", "104451.537500", "104453.537500", "104455.537500", "104457.537500", "104459.537500", "104501.537500", "104503.537500", "104505.537500", "104507.537500", "104509.537500", "104511.537500", "104513.537500", "104515.537500", "104517.537500", "104519.537500", "104521.537500", "104523.537500", "104525.537500", "104527.537500", "104529.537500", "104531.537500", "104533.537500", "104535.537500", "104537.537500", "104539.537500", "104541.537500", "104543.537500", "104545.537500", "104547.537500", "104549.537500", "104551.537500", "104553.537500", "104555.537500", "104557.537500", "104559.537500", "104601.537500", "104603.537500", "104605.537500", "104607.537500", "104609.537500", "104611.537500", "104613.537500", "104615.537500", "104617.537500", "104619.537500", "104621.537500", "104623.537500", "104625.537500", "104627.537500", "104629.537500", "104631.537500", "104633.537500", "104635.537500", "104637.537500", "104639.537500", "104641.537500", "104643.537500", "104645.537500", "104647.537500", "104649.537500", "104651.537500", "104653.537500", "104655.537500", "104657.537500", "104659.537500", "104701.537500", "104703.537500", "104705.537500", "104707.537500", "104709.537500", "104711.537500", "104713.537500", "104715.537500", "104717.537500", "104719.537500", "104721.537500", "104723.537500", "104725.537500", "104727.537500", "104729.537500", "104731.537500", "104733.537500", "104735.537500", "104737.537500", "104739.537500", "104741.537500", "104743.537500", "104745.537500", "104747.537500", "104749.537500", "104751.537500", "104753.537500", "104755.537500", "104757.537500", "104759.537500", "104801.537500", "104803.537500", "104805.537500", "104807.537500", "104809.537500", "104811.537500", "104813.537500", "104815.537500", "104817.537500", "104819.537500"],
      "ContentTime": ["104227.347000", "104227.351000", "104227.354000", "104227.356000", "104227.359000", "104227.362000", "104227.364000", "104227.367000", "104227.369000", "104227.372000", "104227.375000", "104227.377000", "104227.380000", "104227.392000", "104227.395000", "104227.397000", "104227.400000", "104227.402000", "104227.405000", "104227.408000", "104227.410000", "104227.413000", "104227.415000", "104247.342000", "104247.355000", "104247.358000", "104247.361000", "104247.363000", "104247.366000", "104247.368000", "104247.371000", "104247.373000", "104247.376000", "104327.343000", "104327.346000", "104327.348000", "104327.351000", "104327.353000", "104327.356000", "104327.359000", "104327.361000", "104327.364000", "104327.367000", "104327.369000", "104327.372000", "104327.374000", "104327.377000", "104327.379000", "104327.382000", "104327.385000", "104327.387000", "104327.390000", "104327.393000", "104407.343000", "104407.346000", "104407.348000", "104407.351000", "104407.353000", "104407.356000", "104407.359000", "104407.361000", "104407.364000", "104407.366000", "104407.369000", "104407.372000", "104407.374000", "104407.377000", "104407.379000", "104407.382000", "104407.384000", "104407.387000", "104407.390000", "104407.392000", "104447.343000", "104447.346000", "104447.348000", "104447.351000", "104447.353000", "104447.356000", "104447.359000", "104447.361000", "104447.364000", "104447.377000", "104447.380000", "104447.382000", "104447.385000", "104447.387000", "104447.390000", "104447.393000", "104447.395000", "104447.398000", "104447.400000", "104447.403000", "104527.343000", "104527.346000", "104527.348000", "104527.351000", "104527.353000", "104527.356000", "104527.359000", "104527.361000", "104527.364000", "104527.367000", "104527.369000", "104527.372000", "104527.374000", "104527.377000", "104527.379000", "104527.382000", "104527.385000", "104527.387000", "104527.390000", "104527.400000", "104607.342000", "104607.346000", "104607.348000", "104607.351000", "104607.353000", "104607.356000", "104607.359000", "104607.361000", "104607.364000", "104607.367000", "104607.369000", "104607.372000", "104607.383000", "104607.386000", "104607.388000", "104607.391000", "104607.394000", "104607.396000", "104607.399000", "104607.401000", "104647.342000", "104647.345000", "104647.348000", "104647.351000", "104647.353000", "104647.356000", "104647.359000", "104647.361000", "104647.364000", "104647.366000", "104647.369000", "104647.372000", "104647.374000", "104647.377000", "104647.379000", "104647.382000", "104647.385000", "104647.387000", "104647.390000", "104647.392000", "104727.343000", "104727.346000", "104727.348000", "104727.351000", "104727.354000", "104727.356000", "104727.359000", "104727.362000", "104727.364000", "104727.367000", "104727.369000", "104727.372000", "104727.375000", "104727.377000", "104727.380000", "104727.383000", "104727.385000", "104727.388000", "104727.390000", "104727.393000", "104807.343000", "104807.346000", "104807.348000", "104807.351000", "104807.354000", "104807.356000", "104807.359000", "104807.361000", "104807.364000", "104807.367000", "104807.369000", "104807.372000", "104807.374000", "104807.377000", "104807.380000", "104807.382000", "104807.385000", "104807.387000", "104807.390000", "104807.393000", "104820.955000", "104820.958000", "104820.961000", "104820.963000", "104820.966000", "104820.969000", "104820.971000"],
      "InstanceCreationTime": ["104227.347000", "104227.351000", "104227.354000", "104227.356000", "104227.359000", "104227.362000", "104227.364000", "104227.367000", "104227.369000", "104227.372000", "104227.375000", "104227.377000", "104227.380000", "104227.392000", "104227.395000", "104227.397000", "104227.400000", "104227.402000", "104227.405000", "104227.408000", "104227.410000", "104227.413000", "104227.415000", "104247.342000", "104247.355000", "104247.358000", "104247.361000", "104247.363000", "104247.366000", "104247.368000", "104247.371000", "104247.373000", "104247.376000", "104327.343000", "104327.346000", "104327.348000", "104327.351000", "104327.353000", "104327.356000", "104327.359000", "104327.361000", "104327.364000", "104327.367000", "104327.369000", "104327.372000", "104327.374000", "104327.377000", "104327.379000", "104327.382000", "104327.385000", "104327.387000", "104327.390000", "104327.393000", "104407.343000", "104407.346000", "104407.348000", "104407.351000", "104407.353000", "104407.356000", "104407.359000", "104407.361000", "104407.364000", "104407.366000", "104407.369000", "104407.372000", "104407.374000", "104407.377000", "104407.379000", "104407.382000", "104407.384000", "104407.387000", "104407.390000", "104407.392000", "104447.343000", "104447.346000", "104447.348000", "104447.351000", "104447.353000", "104447.356000", "104447.359000", "104447.361000", "104447.364000", "104447.377000", "104447.380000", "104447.382000", "104447.385000", "104447.387000", "104447.390000", "104447.393000", "104447.395000", "104447.398000", "104447.400000", "104447.403000", "104527.343000", "104527.346000", "104527.348000", "104527.351000", "104527.353000", "104527.356000", "104527.359000", "104527.361000", "104527.364000", "104527.367000", "104527.369000", "104527.372000", "104527.374000", "104527.377000", "104527.379000", "104527.382000", "104527.385000", "104527.387000", "104527.390000", "104527.400000", "104607.342000", "104607.346000", "104607.348000", "104607.351000", "104607.353000", "104607.356000", "104607.359000", "104607.361000", "104607.364000", "104607.367000", "104607.369000", "104607.372000", "104607.383000", "104607.386000", "104607.388000", "104607.391000", "104607.394000", "104607.396000", "104607.399000", "104607.401000", "104647.342000", "104647.345000", "104647.348000", "104647.351000", "104647.353000", "104647.356000", "104647.359000", "104647.361000", "104647.364000", "104647.366000", "104647.369000", "104647.372000", "104647.374000", "104647.377000", "104647.379000", "104647.382000", "104647.385000", "104647.387000", "104647.390000", "104647.392000", "104727.343000", "104727.346000", "104727.348000", "104727.351000", "104727.354000", "104727.356000", "104727.359000", "104727.362000", "104727.364000", "104727.367000", "104727.369000", "104727.372000", "104727.375000", "104727.377000", "104727.380000", "104727.383000", "104727.385000", "104727.388000", "104727.390000", "104727.393000", "104807.343000", "104807.346000", "104807.348000", "104807.351000", "104807.354000", "104807.356000", "104807.359000", "104807.361000", "104807.364000", "104807.367000", "104807.369000", "104807.372000", "104807.374000", "104807.377000", "104807.380000", "104807.382000", "104807.385000", "104807.387000", "104807.390000", "104807.393000", "104820.955000", "104820.958000", "104820.961000", "104820.963000", "104820.966000", "104820.969000", "104820.971000"],
      "InstanceNumber": [1, 2, 3, 4, 5, 6, 7, 8, 9, 10, 11, 12, 13, 14, 15, 16, 17, 18, 19, 20, 21, 22, 23, 24, 25, 26, 27, 28, 29, 30, 31, 32, 33, 34, 35, 36, 37, 38, 39, 40, 41, 42, 43, 44, 45, 46, 47, 48, 49, 50, 51, 52, 53, 54, 55, 56, 57, 58, 59, 60, 61, 62, 63, 64, 65, 66, 67, 68, 69, 70, 71, 72, 73, 74, 75, 76, 77, 78, 79, 80, 81, 82, 83, 84, 85, 86, 87, 88, 89, 90, 91, 92, 93, 94, 95, 96, 97, 98, 99, 100, 101, 102, 103, 104, 105, 106, 107, 108, 109, 110, 111, 112, 113, 114, 115, 116, 117, 118, 119, 120, 121, 122, 123, 124, 125, 126, 127, 128, 129, 130, 131, 132, 133, 134, 135, 136, 137, 138, 139, 140, 141, 142, 143, 144, 145, 146, 147, 148, 149, 150, 151, 152, 153, 154, 155, 156, 157, 158, 159, 160, 161, 162, 163, 164, 165, 166, 167, 168, 169, 170, 171, 172, 173, 174, 175, 176, 177, 178, 179, 180, 181, 182, 183, 184, 185, 186, 187, 188, 189, 190, 191, 192, 193, 194, 195, 196, 197, 198, 199, 200],
      "WindowCenter": [1439.0, 1439.0, 1438.0, 1438.0, 1438.0, 1438.0, 1437.0, 1437.0, 1437.0, 1438.0, 1437.0, 1438.0, 1438.0, 1437.0, 1437.0, 1437.0, 1437.0, 1438.0, 1436.0, 1437.0, 1437.0, 1438.0, 1437.0, 1437.0, 1438.0, 1437.0, 1437.0, 1437.0, 1436.0, 1437.0, 1437.0, 1437.0, 1437.0, 1436.0, 1436.0, 1436.0, 1436.0, 1436.0, 1435.0, 1436.0, 1436.0, 1435.0, 1435.0, 1435.0, 1435.0, 1435.0, 1435.0, 1436.0, 1436.0, 1435.0, 1435.0, 1435.0, 1435.0, 1435.0, 1436.0, 1435.0, 1435.0, 1435.0, 1435.0, 1434.0, 1434.0, 1434.0, 1434.0, 1434.0, 1434.0, 1434.0, 1434.0, 1434.0, 1434.0, 1433.0, 1434.0, 1433.0, 1433.0, 1433.0, 1434.0, 1433.0, 1433.0, 1434.0, 1434.0, 1434.0, 1434.0, 1434.0, 1434.0, 1434.0, 1434.0, 1433.0, 1433.0, 1433.0, 1433.0, 1434.0, 1433.0, 1433.0, 1432.0, 1433.0, 1433.0, 1433.0, 1433.0, 1433.0, 1432.0, 1433.0, 1433.0, 1433.0, 1433.0, 1433.0, 1433.0, 1432.0, 1433.0, 1432.0, 1432.0, 1432.0, 1433.0, 1432.0, 1432.0, 1432.0, 1432.0, 1432.0, 1432.0, 1432.0, 1432.0, 1431.0, 1432.0, 1432.0, 1431.0, 1432.0, 1432.0, 1431.0, 1432.0, 1431.0, 1432.0, 1431.0, 1431.0, 1431.0, 1431.0, 1431.0, 1431.0, 1431.0, 1431.0, 1431.0, 1431.0, 1431.0, 1431.0, 1430.0, 1431.0, 1430.0, 1430.0, 1431.0, 1430.0, 1430.0, 1430.0, 1430.0, 1430.0, 1430.0, 1431.0, 1430.0, 1430.0, 1430.0, 1430.0, 1430.0, 1430.0, 1431.0, 1431.0, 1431.0, 1430.0, 1431.0, 1430.0, 1431.0, 1431.0, 1431.0, 1431.0, 1430.0, 1430.0, 1430.0, 1430.0, 1430.0, 1430.0, 1429.0, 1430.0, 1430.0, 1430.0, 1430.0, 1429.0, 1430.0, 1431.0, 1430.0, 1430.0, 1430.0, 1430.0, 1431.0, 1430.0, 1429.0, 1430.0, 1430.0, 1430.0, 1429.0, 1430.0, 1430.0, 1430.0, 1429.0, 1430.0, 1430.0],
      "WindowWidth": [3409.0, 3409.0, 3409.0, 3408.0, 3408.0, 3408.0, 3409.0, 3408.0, 3408.0, 3408.0, 3408.0, 3408.0, 3408.0, 3408.0, 3408.0, 3409.0, 3408.0, 3408.0, 3408.0, 3408.0, 3408.0, 3408.0, 3408.0, 3408.0, 3407.0, 3407.0, 3408.0, 3408.0, 3408.0, 3407.0, 3407.0, 3407.0, 3407.0, 3407.0, 3407.0, 3407.0, 3407.0, 3407.0, 3407.0, 3407.0, 3407.0, 3407.0, 3407.0, 3407.0, 3407.0, 3407.0, 3407.0, 3407.0, 3407.0, 3407.0, 3407.0, 3407.0, 3407.0, 3407.0, 3406.0, 3407.0, 3407.0, 3407.0, 3407.0, 3406.0, 3406.0, 3406.0, 3406.0, 3406.0, 3405.0, 3406.0, 3405.0, 3405.0, 3405.0, 3405.0, 3405.0, 3405.0, 3405.0, 3405.0, 3405.0, 3405.0, 3405.0, 3405.0, 3405.0, 3405.0, 3405.0, 3405.0, 3405.0, 3405.0, 3405.0, 3405.0, 3405.0, 3405.0, 3405.0, 3404.0, 3405.0, 3404.0, 3404.0, 3404.0, 3405.0, 3404.0, 3404.0, 3404.0, 3404.0, 3404.0, 3404.0, 3404.0, 3404.0, 3404.0, 3404.0, 3404.0, 3404.0, 3404.0, 3404.0, 3404.0, 3404.0, 3403.0, 3403.0, 3403.0, 3403.0, 3403.0, 3403.0, 3403.0, 3403.0, 3403.0, 3403.0, 3402.0, 3402.0, 3402.0, 3402.0, 3402.0, 3402.0, 3402.0, 3402.0, 3402.0, 3402.0, 3402.0, 3402.0, 3402.0, 3402.0, 3402.0, 3402.0, 3402.0, 3402.0, 3402.0, 3402.0, 3401.0, 3402.0, 3401.0, 3402.0, 3402.0, 3401.0, 3401.0, 3401.0, 3401.0, 3402.0, 3401.0, 3401.0, 3401.0, 3402.0, 3402.0, 3401.0, 3401.0, 3401.0, 3401.0, 3401.0, 3401.0, 3401.0, 3401.0, 3401.0, 3401.0, 3401.0, 3401.0, 3401.0, 3401.0, 3401.0, 3401.0, 3401.0, 3401.0, 3401.0, 3401.0, 3401.0, 3401.0, 3401.0, 3401.0, 3401.0, 3401.0, 3400.0, 3401.0, 3401.0, 3401.0, 3401.0, 3400.0, 3401.0, 3401.0, 3400.0, 3400.0, 3400.0, 3400.0, 3400.0, 3400.0, 3400.0, 3400.0, 3400.0, 3400.0]
    },
    "slices": {}
  }
}