{
  "AcquisitionMatrixPE": 80,
  "AcquisitionNumber": 1,
  "AcquisitionTime": "09:51:44.080000",
  "BandwidthPerPixelPhaseEncode": 46.296,
  "BaseResolution": 80,
  "BodyPartExamined": "BRAIN",
  "CoilCombinationMethod": "Sum of Squares",
  "ConsistencyInfo": "N4_VE11E_LATEST_20181129",
  "ConversionSoftware": "dcm2niix",
  "ConversionSoftwareVersion": "v1.0.20220720",
  "DerivedVendorReportedEchoSpacing": 0.000540003,
  "DeviceSerialNumber": "66112",
  "DwellTime": 2.7e-06,
  "EchoTime": 0.035,
  "EchoTrainLength": 39,
  "EffectiveEchoSpacing": 0.000270002,
  "FlipAngle": 90,
  "HeudiconvVersion": "0.13.1",
  "ImageOrientationPatientDICOM": [0.980107, -0.19847, -0.000786887, 0.189449, 0.93436, 0.301795],
  "ImageOrientationText": "Tra>Cor(17.2)>Sag(3.4)",
  "ImageType": [
    "ORIGINAL",
    "PRIMARY",
    "M",
    "ND",
    "NORM",
    "MOSAIC"
],
  "ImagingFrequency": 123.259,
  "InPlanePhaseEncodingDirectionDICOM": "COL",
  "InstitutionAddress": "Maynard 3,Hanover,NH,US,03755",
  "InstitutionName": "Dartmouth College - PBS",
  "InstitutionalDepartmentName": "Department",
  "MRAcquisitionType": "2D",
  "MagneticFieldStrength": 3,
  "Manufacturer": "Siemens",
  "ManufacturersModelName": "Prisma",
  "Modality": "MR",
  "MultibandAccelerationFactor": 4,
  "NonlinearGradientCorrection": false,
  "ParallelReductionFactorInPlane": 2,
  "PartialFourier": 1,
  "PatientPosition": "HFS",
  "PercentPhaseFOV": 100,
  "PercentSampling": 100,
  "PhaseEncodingDirection": "j-",
  "PhaseEncodingSteps": 79,
  "PhaseResolution": 1,
  "PixelBandwidth": 2315,
  "ProcedureStepDescription": "dbic^QA",
  "ProtocolName": "func-bold_task-rest_acq-p2-s4-3.5mm",
  "PulseSequenceDetails": "%SiemensSeq%\\ep2d_bold",
  "ReceiveCoilActiveElements": "HEA;HEP",
  "ReceiveCoilName": "Head_32",
  "ReconMatrixPE": 80,
  "RefLinesPE": 24,
  "RepetitionTime": 2,
  "SAR": 0.0176967,
  "ScanOptions": "FS",
  "ScanningSequence": "EP",
  "SequenceName": "*epfid2d1_80",
  "SequenceVariant": "SK",
  "SeriesDescription": "func-bold_task-rest_acq-p2-s4-3.5mm",
  "SeriesNumber": 7,
  "ShimSetting": [4218, -7748, -7490, -69, -164, -21, -4, 70],
  "SliceThickness": 3.5,
  "SliceTiming": [1.485, 0, 0.99, 0.2475, 1.2375, 0.7425, 1.7325, 0.495, 1.485, 0, 0.99, 0.2475, 1.2375, 0.7425, 1.7325, 0.495, 1.485, 0, 0.99, 0.2475, 1.2375, 0.7425, 1.7325, 0.495, 1.485, 0, 0.99, 0.2475, 1.2375, 0.7425, 1.7325, 0.495],
  "SoftwareVersions": "syngo MR E11",
  "SpacingBetweenSlices": 3.99,
  "StationName": "AWP66112",
  "TaskName": "rest",
  "TotalReadoutTime": 0.0213301,
  "TxRefAmp": 228.4,
  "dcmmeta_affine": [
    [-2.9403200149536133, 0.5683456063270569, 0.23605628311634064, 89.35823822021484],
    [0.5954094529151917, 2.8030805587768555, 1.180802345275879, -143.3188018798828],
    [-0.0023606596514582634, -0.9053851962089539, 3.8039562702178955, -16.96348762512207],
    [0.0, 0.0, 0.0, 1.0]
],
  "dcmmeta_reorient_transform": [
    [0.0, -1.0, 0.0, 79.0],
    [1.0, 0.0, 0.0, 0.0],
    [0.0, 0.0, 1.0, 0.0],
    [0.0, 0.0, 0.0, 1.0]
],
  "dcmmeta_shape": [80, 80, 32, 200],
  "dcmmeta_slice_dim": 2,
  "dcmmeta_version": 0.6,
  "global": {
    "const": {
      "AccessionNumber": "qa",
      "AcquisitionMatrix": [80, 0, 0, 80],
      "AngioFlag": "N",
      "BitsAllocated": 16,
      "BitsStored": 12,
      "BodyPartExamined": "BRAIN",
      "Columns": 480,
      "EchoNumbers": 1,
      "EchoTime": 35.0,
      "EchoTrainLength": 39,
      "FlipAngle": 90.0,
      "HighBit": 11,
      "ImageOrientationPatient": [0.98010668324928, -0.1984698220377, -0.0007868865548, 0.189448542103, 0.93436020585647, 0.30179505563693],
      "ImagePositionPatient": [-835.99067810523, -519.65879390174, -269.09381691978],
      "ImageType": [
        "ORIGINAL",
        "PRIMARY",
        "M",
        "ND",
        "NORM",
        "MOSAIC"
],
      "ImagedNucleus": "1H",
      "ImagingFrequency": 123.259258,
      "InPlanePhaseEncodingDirection": "COL",
      "MRAcquisitionType": "2D",
      "MagneticFieldStrength": 3.0,
      "Manufacturer": "SIEMENS",
      "ManufacturerModelName": "Prisma",
      "Modality": "MR",
      "NumberOfAverages": 1.0,
      "NumberOfPhaseEncodingSteps": 79,
      "PercentPhaseFieldOfView": 100.0,
      "PercentSampling": 100.0,
      "PerformedProcedureStepStartTime": "094032.126000",
      "PhotometricInterpretation": "MONOCHROME2",
      "PixelBandwidth": 2315.0,
      "PixelRepresentation": 0,
      "PixelSpacing": [3.0, 3.0],
      "ProtocolName": "func-bold_task-rest_acq-p2-s4-3.5mm",
      "RepetitionTime": 2000.0,
      "Rows": 480,
      "SAR": 0.0176966838644,
      "SamplesPerPixel": 1,
      "ScanOptions": "FS",
      "ScanningSequence": "EP",
      "SequenceName": "*epfid2d1_80",
      "SequenceVariant": "SK",
      "SeriesDescription": "func-bold_task-rest_acq-p2-s4-3.5mm",
      "SeriesNumber": 7,
      "SeriesTime": "095212.266000",
      "SliceLocation": -53.299740570252,
      "SliceThickness": 3.5,
      "SmallestImagePixelValue": 0,
      "SoftwareVersions": "syngo MR E11",
      "SpacingBetweenSlices": 3.9900000432351,
      "SpecificCharacterSet": "ISO_IR 100",
      "StudyID": "30",
      "StudyTime": "094032.054000",
      "TransmitCoilName": "Body",
      "VariableFlipAngleFlag": "N",
      "WindowCenterWidthExplanation": "Algo1"
    },
    "slices": {}
  },
  "time": {
    "samples": {
      "AcquisitionNumber": [1, 2, 3, 4, 5, 6, 7, 8, 9, 10, 11, 12, 13, 14, 15, 16, 17, 18, 19, 20, 21, 22, 23, 24, 25, 26, 27, 28, 29, 30, 31, 32, 33, 34, 35, 36, 37, 38, 39, 40, 41, 42, 43, 44, 45, 46, 47, 48, 49, 50, 51, 52, 53, 54, 55, 56, 57, 58, 59, 60, 61, 62, 63, 64, 65, 66, 67, 68, 69, 70, 71, 72, 73, 74, 75, 76, 77, 78, 79, 80, 81, 82, 83, 84, 85, 86, 87, 88, 89, 90, 91, 92, 93, 94, 95, 96, 97, 98, 99, 100, 101, 102, 103, 104, 105, 106, 107, 108, 109, 110, 111, 112, 113, 114, 115, 116, 117, 118, 119, 120, 121, 122, 123, 124, 125, 126, 127, 128, 129, 130, 131, 132, 133, 134, 135, 136, 137, 138, 139, 140, 141, 142, 143, 144, 145, 146, 147, 148, 149, 150, 151, 152, 153, 154, 155, 156, 157, 158, 159, 160, 161, 162, 163, 164, 165, 166, 167, 168, 169, 170, 171, 172, 173, 174, 175, 176, 177, 178, 179, 180, 181, 182, 183, 184, 185, 186, 187, 188, 189, 190, 191, 192, 193, 194, 195, 196, 197, 198, 199, 200],
      "AcquisitionTime": ["095144.080000", "095146.080000", "095148.080000", "095150.080000", "095152.080000", "095154.080000", "095156.080000", "095158.080000", "095200.080000", "095202.080000", "095204.080000", "095206.080000", "095208.080000", "095210.080000", "095212.080000", "095214.080000", "095216.080000", "095218.080000", "095220.080000", "095222.080000", "095224.080000", "095226.080000", "095228.080000", "095230.080000", "095232.080000", "095234.080000", "095236.080000", "095238.080000", "095240.080000", "095242.080000", "095244.080000", "095246.080000", "095248.080000", "095250.080000", "095252.080000", "095254.080000", "095256.080000", "095258.080000", "095300.080000", "095302.080000", "095304.080000", "095306.080000", "095308.080000", "095310.080000", "095312.080000", "095314.080000", "095316.080000", "095318.080000", "095320.080000", "095322.080000", "095324.080000", "095326.080000", "095328.080000", "095330.080000", "095332.080000", "095334.080000", "095336.080000", "095338.080000", "095340.080000", "095342.080000", "095344.080000", "095346.080000", "095348.080000", "095350.080000", "095352.080000", "095354.080000", "095356.080000", "095358.080000", "095400.080000", "095402.080000", "095404.080000", "095406.080000", "095408.080000", "095410.080000", "095412.080000", "095414.080000", "095416.080000", "095418.080000", "095420.080000", "095422.080000", "095424.080000", "095426.080000", "095428.080000", "095430.080000", "095432.080000", "095434.080000", "095436.080000", "095438.080000", "095440.080000", "095442.080000", "095444.080000", "095446.080000", "095448.080000", "095450.080000", "095452.080000", "095454.080000", "095456.080000", "095458.080000", "095500.080000", "095502.080000", "095504.080000", "095506.080000", "095508.080000", "095510.080000", "095512.080000", "095514.080000", "095516.080000", "095518.080000", "095520.080000", "095522.080000", "095524.080000", "095526.080000", "095528.080000", "095530.080000", "095532.080000", "095534.080000", "095536.080000", "095538.080000", "095540.080000", "095542.080000", "095544.080000", "095546.080000", "095548.080000", "095550.080000", "095552.080000", "095554.080000", "095556.080000", "095558.080000", "095600.080000", "095602.080000", "095604.080000", "095606.080000", "095608.080000", "095610.080000", "095612.080000", "095614.080000", "095616.080000", "095618.080000", "095620.080000", "095622.080000", "095624.080000", "095626.080000", "095628.080000", "095630.080000", "095632.080000", "095634.080000", "095636.080000", "095638.080000", "095640.080000", "095642.080000", "095644.080000", "095646.080000", "095648.080000", "095650.080000", "095652.080000", "095654.080000", "095656.080000", "095658.080000", "095700.080000", "095702.080000", "095704.080000", "095706.080000", "095708.080000", "095710.080000", "095712.080000", "095714.080000", "095716.080000", "095718.080000", "095720.080000", "095722.080000", "095724.080000", "095726.080000", "095728.080000", "095730.080000", "095732.080000", "095734.080000", "095736.080000", "095738.080000", "095740.080000", "095742.080000", "095744.080000", "095746.080000", "095748.080000", "095750.080000", "095752.080000", "095754.080000", "095756.080000", "095758.080000", "095800.080000", "095802.080000", "095804.080000", "095806.080000", "095808.080000", "095810.080000", "095812.080000", "095814.080000", "095816.080000", "095818.080000", "095820.080000", "095822.080000"],
      "ContentTime": ["095212.269000", "095212.272000", "095212.274000", "095212.277000", "095212.279000", "095212.297000", "095212.299000", "095212.302000", "095212.309000", "095212.311000", "095212.313000", "095212.316000", "095212.318000", "095212.320000", "095252.264000", "095252.267000", "095252.269000", "095252.272000", "095252.274000", "095252.276000", "095252.279000", "095252.281000", "095252.283000", "095252.286000", "095252.288000", "095252.290000", "095252.293000", "095252.295000", "095252.297000", "095252.300000", "095252.302000", "095252.304000", "095252.307000", "095252.309000", "095332.264000", "095332.267000", "095332.270000", "095332.272000", "095332.274000", "095332.277000", "095332.279000", "095332.282000", "095332.284000", "095332.286000", "095332.289000", "095332.291000", "095332.293000", "095332.296000", "095332.298000", "095332.300000", "095332.303000", "095332.305000", "095332.307000", "095332.310000", "095412.264000", "095412.267000", "095412.269000", "095412.272000", "095412.274000", "095412.276000", "095412.278000", "095412.281000", "095412.283000", "095412.286000", "095412.288000", "095412.290000", "095412.293000", "095412.295000", "095412.297000", "095412.300000", "095412.302000", "095412.304000", "095412.306000", "095412.309000", "095452.264000", "095452.267000", "095452.269000", "095452.272000", "095452.274000", "095452.276000", "095452.287000", "095452.289000", "095452.291000", "095452.294000", "095452.296000", "095452.298000", "095452.301000", "095452.303000", "095452.305000", "095452.307000", "095452.310000", "095452.312000", "095452.315000", "095452.317000", "095532.264000", "095532.267000", "095532.269000", "095532.272000", "095532.274000", "095532.276000", "095532.278000", "095532.281000", "095532.283000", "095532.285000", "095532.288000", "095532.290000", "095532.292000", "095532.295000", "095532.297000", "095532.300000", "095532.302000", "095532.304000", "095532.306000", "095532.309000", "095612.264000", "095612.267000", "095612.269000", "095612.272000", "095612.274000", "095612.276000", "095612.279000", "095612.281000", "095612.283000", "095612.285000", "095612.288000", "095612.290000", "095612.292000", "095612.295000", "095612.297000", "095612.299000", "095612.302000", "095612.304000", "095612.306000", "095612.308000", "095652.264000", "095652.267000", "095652.269000", "095652.272000", "095652.274000", "095652.276000", "095652.278000", "095652.281000", "095652.283000", "095652.285000", "095652.288000", "095652.290000", "095652.292000", "095652.295000", "095652.305000", "095652.307000", "095652.309000", "095652.312000", "095652.314000", "095652.316000", "095732.264000", "095732.267000", "095732.269000", "095732.272000", "095732.274000", "095732.276000", "095732.278000", "095732.281000", "095732.283000", "095732.285000", "095732.288000", "095732.290000", "095732.293000", "095732.295000", "095732.297000", "095732.300000", "095732.302000", "095732.304000", "095732.307000", "095732.309000", "095812.264000", "095812.267000", "095812.269000", "095812.271000", "095812.274000", "095812.276000", "095812.278000", "095812.281000", "095812.283000", "095812.285000", "095812.288000", "095812.290000", "095812.292000", "095812.295000", "095812.297000", "095812.299000", "095812.302000", "095812.304000", "095812.306000", "095812.309000", "095822.934000", "095822.936000", "095822.939000", "095822.941000", "095822.944000", "095822.946000"],
      "InstanceCreationTime": ["095212.269000", "095212.272000", "095212.274000", "095212.277000", "095212.279000", "095212.297000", "095212.299000", "095212.302000", "095212.309000", "095212.311000", "095212.313000", "095212.316000", "095212.318000", "095212.320000", "095252.264000", "095252.267000", "095252.269000", "095252.272000", "095252.274000", "095252.276000", "095252.279000", "095252.281000", "095252.283000", "095252.286000", "095252.288000", "095252.290000", "095252.293000", "095252.295000", "095252.297000", "095252.300000", "095252.302000", "095252.304000", "095252.307000", "095252.309000", "095332.264000", "095332.267000", "095332.270000", "095332.272000", "095332.274000", "095332.277000", "095332.279000", "095332.282000", "095332.284000", "095332.286000", "095332.289000", "095332.291000", "095332.293000", "095332.296000", "095332.298000", "095332.300000", "095332.303000", "095332.305000", "095332.307000", "095332.310000", "095412.264000", "095412.267000", "095412.269000", "095412.272000", "095412.274000", "095412.276000", "095412.278000", "095412.281000", "095412.283000", "095412.286000", "095412.288000", "095412.290000", "095412.293000", "095412.295000", "095412.297000", "095412.300000", "095412.302000", "095412.304000", "095412.306000", "095412.309000", "095452.264000", "095452.267000", "095452.269000", "095452.272000", "095452.274000", "095452.276000", "095452.287000", "095452.289000", "095452.291000", "095452.294000", "095452.296000", "095452.298000", "095452.301000", "095452.303000", "095452.305000", "095452.307000", "095452.310000", "095452.312000", "095452.315000", "095452.317000", "095532.264000", "095532.267000", "095532.269000", "095532.272000", "095532.274000", "095532.276000", "095532.278000", "095532.281000", "095532.283000", "095532.285000", "095532.288000", "095532.290000", "095532.292000", "095532.295000", "095532.297000", "095532.300000", "095532.302000", "095532.304000", "095532.306000", "095532.309000", "095612.264000", "095612.267000", "095612.269000", "095612.272000", "095612.274000", "095612.276000", "095612.279000", "095612.281000", "095612.283000", "095612.285000", "095612.288000", "095612.290000", "095612.292000", "095612.295000", "095612.297000", "095612.299000", "095612.302000", "095612.304000", "095612.306000", "095612.308000", "095652.264000", "095652.267000", "095652.269000", "095652.272000", "095652.274000", "095652.276000", "095652.278000", "095652.281000", "095652.283000", "095652.285000", "095652.288000", "095652.290000", "095652.292000", "095652.295000", "095652.305000", "095652.307000", "095652.309000", "095652.312000", "095652.314000", "095652.316000", "095732.264000", "095732.267000", "095732.269000", "095732.272000", "095732.274000", "095732.276000", "095732.278000", "095732.281000", "095732.283000", "095732.285000", "095732.288000", "095732.290000", "095732.293000", "095732.295000", "095732.297000", "095732.300000", "095732.302000", "095732.304000", "095732.307000", "095732.309000", "095812.264000", "095812.267000", "095812.269000", "095812.271000", "095812.274000", "095812.276000", "095812.278000", "095812.281000", "095812.283000", "095812.285000", "095812.288000", "095812.290000", "095812.292000", "095812.295000", "095812.297000", "095812.299000", "095812.302000", "095812.304000", "095812.306000", "095812.309000", "095822.934000", "095822.936000", "095822.939000", "095822.941000", "095822.944000", "095822.946000"],
      "InstanceNumber": [1, 2, 3, 4, 5, 6, 7, 8, 9, 10, 11, 12, 13, 14, 15, 16, 17, 18, 19, 20, 21, 22, 23, 24, 25, 26, 27, 28, 29, 30, 31, 32, 33, 34, 35, 36, 37, 38, 39, 40, 41, 42, 43, 44, 45, 46, 47, 48, 49, 50, 51, 52, 53, 54, 55, 56, 57, 58, 59, 60, 61, 62, 63, 64, 65, 66, 67, 68, 69, 70, 71, 72, 73, 74, 75, 76, 77, 78, 79, 80, 81, 82, 83, 84, 85, 86, 87, 88, 89, 90, 91, 92, 93, 94, 95, 96, 97, 98, 99, 100, 101, 102, 103, 104, 105, 106, 107, 108, 109, 110, 111, 112, 113, 114, 115, 116, 117, 118, 119, 120, 121, 122, 123, 124, 125, 126, 127, 128, 129, 130, 131, 132, 133, 134, 135, 136, 137, 138, 139, 140, 141, 142, 143, 144, 145, 146, 147, 148, 149, 150, 151, 152, 153, 154, 155, 156, 157, 158, 159, 160, 161, 162, 163, 164, 165, 166, 167, 168, 169, 170, 171, 172, 173, 174, 175, 176, 177, 178, 179, 180, 181, 182, 183, 184, 185, 186, 187, 188, 189, 190, 191, 192, 193, 194, 195, 196, 197, 198, 199, 200],
      "LargestImagePixelValue": [2452, 2447, 2450, 2447, 2445, 2448, 2444, 2442, 2446, 2447, 2448, 2442, 2445, 2443, 2442, 2452, 2449, 2445, 2442, 2452, 2447, 2445, 2450, 2446, 2440, 2448, 2444, 2447, 2446, 2451, 2448, 2448, 2449, 2447, 2451, 2441, 2447, 2446, 2452, 2444, 2451, 2445, 2446, 2445, 2447, 2444, 2450, 2444, 2446, 2453, 2448, 2446, 2448, 2449, 2444, 2446, 2443, 2443, 2446, 2446, 2448, 2448, 2444, 2449, 2441, 2449, 2445, 2447, 2444, 2444, 2447, 2439, 2448, 2446, 2451, 2442, 2444, 2444, 2446, 2448, 2447, 2442, 2445, 2453, 2441, 2446, 2446, 2443, 2445, 2442, 2445, 2443, 2439, 2448, 2442, 2447, 2442, 2440, 2442, 2443, 2445, 2442, 2445, 2446, 2444, 2445, 2448, 2442, 2444, 2443, 2440, 2440, 2444, 2442, 2443, 2441, 2444, 2440, 2438, 2438, 2439, 2439, 2439, 2441, 2444, 2441, 2439, 2444, 2437, 2442, 2439, 2439, 2442, 2447, 2437, 2439, 2441, 2443, 2444, 2439, 2438, 2441, 2431, 2442, 2441, 2442, 2442, 2437, 2440, 2442, 2439, 2436, 2434, 2441, 2436, 2435, 2434, 2438, 2436, 2436, 2442, 2435, 2433, 2436, 2436, 2441, 2435, 2437, 2442, 2437, 2433, 2435, 2437, 2432, 2433, 2435, 2440, 2438, 2439, 2444, 2432, 2438, 2432, 2435, 2433, 2438, 2440, 2432, 2436, 2435, 2435, 2432, 2432, 2428, 2428, 2432, 2435, 2435, 2437, 2440],
      "WindowCenter": [991.0, 991.0, 990.0, 990.0, 990.0, 990.0, 990.0, 991.0, 990.0, 990.0, 991.0, 990.0, 990.0, 991.0, 990.0, 991.0, 992.0, 990.0, 990.0, 991.0, 990.0, 991.0, 992.0, 991.0, 990.0, 990.0, 989.0, 990.0, 991.0, 990.0, 990.0, 991.0, 990.0, 990.0, 990.0, 990.0, 990.0, 990.0, 990.0, 990.0, 990.0, 990.0, 991.0, 990.0, 991.0, 991.0, 990.0, 991.0, 991.0, 990.0, 991.0, 990.0, 990.0, 991.0, 990.0, 991.0, 991.0, 990.0, 990.0, 990.0, 991.0, 990.0, 990.0, 990.0, 991.0, 991.0, 991.0, 990.0, 991.0, 991.0, 991.0, 991.0, 990.0, 990.0, 991.0, 991.0, 990.0, 990.0, 990.0, 990.0, 991.0, 990.0, 991.0, 990.0, 991.0, 991.0, 991.0, 992.0, 990.0, 990.0, 990.0, 991.0, 990.0, 990.0, 991.0, 990.0, 991.0, 990.0, 991.0, 990.0, 991.0, 991.0, 991.0, 990.0, 991.0, 991.0, 990.0, 989.0, 991.0, 990.0, 990.0, 990.0, 990.0, 990.0, 990.0, 991.0, 989.0, 990.0, 990.0, 991.0, 991.0, 991.0, 991.0, 990.0, 990.0, 990.0, 990.0, 991.0, 990.0, 990.0, 990.0, 991.0, 990.0, 990.0, 991.0, 991.0, 990.0, 990.0, 990.0, 991.0, 991.0, 990.0, 991.0, 990.0, 990.0, 990.0, 989.0, 990.0, 990.0, 989.0, 990.0, 991.0, 990.0, 990.0, 990.0, 990.0, 990.0, 991.0, 990.0, 991.0, 991.0, 990.0, 990.0, 991.0, 990.0, 989.0, 991.0, 990.0, 990.0, 990.0, 991.0, 990.0, 990.0, 990.0, 991.0, 990.0, 990.0, 991.0, 990.0, 990.0, 990.0, 990.0, 991.0, 990.0, 991.0, 990.0, 990.0, 991.0, 990.0, 990.0, 991.0, 990.0, 990.0, 990.0, 990.0, 990.0, 990.0, 990.0, 990.0, 990.0],
      "WindowWidth": [2372.0, 2372.0, 2372.0, 2372.0, 2372.0, 2371.0, 2372.0, 2372.0, 2372.0, 2372.0, 2372.0, 2372.0, 2371.0, 2371.0, 2372.0, 2372.0, 2372.0, 2372.0, 2370.0, 2373.0, 2371.0, 2371.0, 2372.0, 2372.0, 2372.0, 2371.0, 2371.0, 2372.0, 2372.0, 2372.0, 2372.0, 2371.0, 2372.0, 2372.0, 2372.0, 2370.0, 2372.0, 2372.0, 2372.0, 2370.0, 2372.0, 2372.0, 2373.0, 2372.0, 2371.0, 2371.0, 2372.0, 2371.0, 2371.0, 2372.0, 2372.0, 2371.0, 2370.0, 2371.0, 2370.0, 2371.0, 2371.0, 2371.0, 2370.0, 2371.0, 2371.0, 2372.0, 2372.0, 2372.0, 2371.0, 2371.0, 2371.0, 2370.0, 2371.0, 2371.0, 2371.0, 2371.0, 2372.0, 2370.0, 2371.0, 2371.0, 2372.0, 2370.0, 2371.0, 2371.0, 2371.0, 2371.0, 2372.0, 2371.0, 2371.0, 2371.0, 2371.0, 2372.0, 2371.0, 2371.0, 2371.0, 2371.0, 2370.0, 2371.0, 2372.0, 2370.0, 2371.0, 2371.0, 2372.0, 2370.0, 2371.0, 2371.0, 2372.0, 2370.0, 2371.0, 2371.0, 2371.0, 2370.0, 2371.0, 2371.0, 2371.0, 2371.0, 2371.0, 2371.0, 2371.0, 2371.0, 2370.0, 2371.0, 2371.0, 2372.0, 2370.0, 2370.0, 2372.0, 2371.0, 2371.0, 2371.0, 2371.0, 2370.0, 2371.0, 2371.0, 2369.0, 2370.0, 2371.0, 2371.0, 2371.0, 2372.0, 2371.0, 2371.0, 2371.0, 2372.0, 2372.0, 2370.0, 2370.0, 2371.0, 2371.0, 2371.0, 2370.0, 2370.0, 2371.0, 2370.0, 2370.0, 2371.0, 2369.0, 2370.0, 2370.0, 2369.0, 2370.0, 2370.0, 2371.0, 2370.0, 2370.0, 2370.0, 2370.0, 2370.0, 2370.0, 2370.0, 2371.0, 2371.0, 2370.0, 2370.0, 2370.0, 2370.0, 2369.0, 2369.0, 2371.0, 2369.0, 2370.0, 2370.0, 2370.0, 2370.0, 2370.0, 2369.0, 2371.0, 2370.0, 2370.0, 2370.0, 2370.0, 2371.0, 2370.0, 2370.0, 2371.0, 2370.0, 2369.0, 2370.0, 2370.0, 2370.0, 2370.0, 2369.0, 2370.0, 2370.0]
    },
    "slices": {}
  }
}