{
  "AcquisitionMatrixPE": 80,
  "AcquisitionNumber": 1,
  "AcquisitionTime": "09:44:49.757500",
  "BandwidthPerPixelPhaseEncode": 48.077,
  "BaseResolution": 80,
  "BodyPartExamined": "BRAIN",
  "CoilCombinationMethod": "Sum of Squares",
  "ConsistencyInfo": "N4_VE11E_LATEST_20181129",
  "ConversionSoftware": "dcm2niix",
  "ConversionSoftwareVersion": "v1.0.20220720",
  "DerivedVendorReportedEchoSpacing": 0.000519999,
  "DeviceSerialNumber": "66112",
  "DwellTime": 2.7e-06,
  "EchoTime": 0.035,
  "EchoTrainLength": 39,
  "EffectiveEchoSpacing": 0.00026,
  "FlipAngle": 90,
  "HeudiconvVersion": "0.13.1",
  "ImageOrientationPatientDICOM": [0.980107, -0.19847, -0.000786887, 0.189449, 0.93436, 0.301795],
  "ImageOrientationText": "Tra>Cor(17.2)>Sag(3.4)",
  "ImageType": [
    "ORIGINAL",
    "PRIMARY",
    "M",
    "ND",
    "NORM",
    "MOSAIC"
],
  "ImagingFrequency": 123.259,
  "InPlanePhaseEncodingDirectionDICOM": "COL",
  "InstitutionAddress": "Maynard 3,Hanover,NH,US,03755",
  "InstitutionName": "Dartmouth College - PBS",
  "InstitutionalDepartmentName": "Department",
  "MRAcquisitionType": "2D",
  "MagneticFieldStrength": 3,
  "Manufacturer": "Siemens",
  "ManufacturersModelName": "Prisma",
  "MatrixCoilMode": "GRAPPA",
  "Modality": "MR",
  "NonlinearGradientCorrection": false,
  "ParallelReductionFactorInPlane": 2,
  "PartialFourier": 1,
  "PatientPosition": "HFS",
  "PercentPhaseFOV": 100,
  "PercentSampling": 100,
  "PhaseEncodingDirection": "j-",
  "PhaseEncodingSteps": 79,
  "PhaseResolution": 1,
  "PixelBandwidth": 2315,
  "ProcedureStepDescription": "dbic^QA",
  "ProtocolName": "func-bold_task-rest_acq-p2",
  "PulseSequenceDetails": "%SiemensSeq%\\ep2d_bold",
  "ReceiveCoilActiveElements": "HEA;HEP",
  "ReceiveCoilName": "Head_32",
  "ReconMatrixPE": 80,
  "RefLinesPE": 24,
  "RepetitionTime": 2,
  "SAR": 0.047059,
  "ScanOptions": "FS",
  "ScanningSequence": "EP",
  "SequenceName": "*epfid2d1_80",
  "SequenceVariant": "SK",
  "SeriesDescription": "func-bold_task-rest_acq-p2",
  "SeriesNumber": 5,
  "ShimSetting": [4217, -7748, -7491, -73, -164, -19, -5, 69],
  "SliceThickness": 3.5,
  "SliceTiming": [0.99, 0, 1.055, 0.065, 1.1225, 0.1325, 1.1875, 0.1975, 1.2525, 0.2625, 1.32, 0.33, 1.385, 0.395, 1.4525, 0.4625, 1.5175, 0.5275, 1.5825, 0.5925, 1.65, 0.66, 1.715, 0.725, 1.7825, 0.7925, 1.8475, 0.8575, 1.9125, 0.9225],
  "SoftwareVersions": "syngo MR E11",
  "SpacingBetweenSlices": 3.99,
  "StationName": "AWP66112",
  "TaskName": "rest",
  "TotalReadoutTime": 0.02054,
  "TxRefAmp": 228.4,
  "dcmmeta_affine": [
    [-2.9403200149536133, 0.5683456063270569, 0.23605628311634064, 89.59429168701172],
    [0.5954094529151917, 2.8030805587768555, 1.180802345275879, -142.13800048828125],
    [-0.0023606596514582634, -0.9053851962089539, 3.8039562702178955, -13.159528732299805],
    [0.0, 0.0, 0.0, 1.0]
],
  "dcmmeta_reorient_transform": [
    [0.0, -1.0, 0.0, 79.0],
    [1.0, 0.0, 0.0, 0.0],
    [0.0, 0.0, 1.0, 0.0],
    [0.0, 0.0, 0.0, 1.0]
],
  "dcmmeta_shape": [80, 80, 30, 200],
  "dcmmeta_slice_dim": 2,
  "dcmmeta_version": 0.6,
  "global": {
    "const": {
      "AccessionNumber": "qa",
      "AcquisitionMatrix": [80, 0, 0, 80],
      "AngioFlag": "N",
      "BitsAllocated": 16,
      "BitsStored": 12,
      "BodyPartExamined": "BRAIN",
      "Columns": 480,
      "EchoNumbers": 1,
      "EchoTime": 35.0,
      "EchoTrainLength": 39,
      "FlipAngle": 90.0,
      "HighBit": 11,
      "ImageOrientationPatient": [0.98010668324928, -0.1984698220377, -0.0007868865548, 0.189448542103, 0.93436020585647, 0.30179505563693],
      "ImagePositionPatient": [-836.22673395622, -520.83959624701, -265.28985802696],
      "ImageType": [
        "ORIGINAL",
        "PRIMARY",
        "M",
        "ND",
        "NORM",
        "MOSAIC"
],
      "ImagedNucleus": "1H",
      "ImagingFrequency": 123.259258,
      "InPlanePhaseEncodingDirection": "COL",
      "MRAcquisitionType": "2D",
      "MagneticFieldStrength": 3.0,
      "Manufacturer": "SIEMENS",
      "ManufacturerModelName": "Prisma",
      "Modality": "MR",
      "NumberOfAverages": 1.0,
      "NumberOfPhaseEncodingSteps": 79,
      "PercentPhaseFieldOfView": 100.0,
      "PercentSampling": 100.0,
      "PerformedProcedureStepStartTime": "094032.126000",
      "PhotometricInterpretation": "MONOCHROME2",
      "PixelBandwidth": 2315.0,
      "PixelRepresentation": 0,
      "PixelSpacing": [3.0, 3.0],
      "ProtocolName": "func-bold_task-rest_acq-p2",
      "RepetitionTime": 2000.0,
      "Rows": 480,
      "SAR": 0.04705897240315,
      "SamplesPerPixel": 1,
      "ScanOptions": "FS",
      "ScanningSequence": "EP",
      "SequenceName": "*epfid2d1_80",
      "SequenceVariant": "SK",
      "SeriesDescription": "func-bold_task-rest_acq-p2",
      "SeriesNumber": 5,
      "SeriesTime": "094532.455000",
      "SliceLocation": -49.30973808884,
      "SliceThickness": 3.5,
      "SmallestImagePixelValue": 0,
      "SoftwareVersions": "syngo MR E11",
      "SpacingBetweenSlices": 3.9899999900312,
      "SpecificCharacterSet": "ISO_IR 100",
      "StudyID": "30",
      "StudyTime": "094032.054000",
      "TransmitCoilName": "Body",
      "VariableFlipAngleFlag": "N",
      "WindowCenterWidthExplanation": "Algo1"
    },
    "slices": {}
  },
  "time": {
    "samples": {
      "AcquisitionNumber": [1, 2, 3, 4, 5, 6, 7, 8, 9, 10, 11, 12, 13, 14, 15, 16, 17, 18, 19, 20, 21, 22, 23, 24, 25, 26, 27, 28, 29, 30, 31, 32, 33, 34, 35, 36, 37, 38, 39, 40, 41, 42, 43, 44, 45, 46, 47, 48, 49, 50, 51, 52, 53, 54, 55, 56, 57, 58, 59, 60, 61, 62, 63, 64, 65, 66, 67, 68, 69, 70, 71, 72, 73, 74, 75, 76, 77, 78, 79, 80, 81, 82, 83, 84, 85, 86, 87, 88, 89, 90, 91, 92, 93, 94, 95, 96, 97, 98, 99, 100, 101, 102, 103, 104, 105, 106, 107, 108, 109, 110, 111, 112, 113, 114, 115, 116, 117, 118, 119, 120, 121, 122, 123, 124, 125, 126, 127, 128, 129, 130, 131, 132, 133, 134, 135, 136, 137, 138, 139, 140, 141, 142, 143, 144, 145, 146, 147, 148, 149, 150, 151, 152, 153, 154, 155, 156, 157, 158, 159, 160, 161, 162, 163, 164, 165, 166, 167, 168, 169, 170, 171, 172, 173, 174, 175, 176, 177, 178, 179, 180, 181, 182, 183, 184, 185, 186, 187, 188, 189, 190, 191, 192, 193, 194, 195, 196, 197, 198, 199, 200],
      "AcquisitionTime": ["094449.757500", "094451.757500", "094453.757500", "094455.757500", "094457.757500", "094459.757500", "094501.757500", "094503.757500", "094505.757500", "094507.757500", "094509.757500", "094511.757500", "094513.757500", "094515.757500", "094517.757500", "094519.757500", "094521.757500", "094523.757500", "094525.757500", "094527.757500", "094529.757500", "094531.757500", "094533.757500", "094535.757500", "094537.757500", "094539.757500", "094541.757500", "094543.757500", "094545.757500", "094547.757500", "094549.757500", "094551.757500", "094553.757500", "094555.757500", "094557.757500", "094559.757500", "094601.757500", "094603.757500", "094605.757500", "094607.757500", "094609.757500", "094611.757500", "094613.757500", "094615.757500", "094617.757500", "094619.757500", "094621.757500", "094623.757500", "094625.757500", "094627.757500", "094629.757500", "094631.757500", "094633.757500", "094635.757500", "094637.757500", "094639.757500", "094641.757500", "094643.757500", "094645.757500", "094647.757500", "094649.757500", "094651.757500", "094653.757500", "094655.757500", "094657.757500", "094659.757500", "094701.757500", "094703.757500", "094705.757500", "094707.757500", "094709.757500", "094711.757500", "094713.757500", "094715.757500", "094717.757500", "094719.757500", "094721.757500", "094723.757500", "094725.757500", "094727.757500", "094729.757500", "094731.757500", "094733.757500", "094735.757500", "094737.757500", "094739.757500", "094741.757500", "094743.757500", "094745.757500", "094747.757500", "094749.757500", "094751.757500", "094753.757500", "094755.757500", "094757.757500", "094759.757500", "094801.757500", "094803.757500", "094805.757500", "094807.757500", "094809.757500", "094811.757500", "094813.757500", "094815.757500", "094817.757500", "094819.757500", "094821.757500", "094823.757500", "094825.757500", "094827.757500", "094829.757500", "094831.757500", "094833.757500", "094835.757500", "094837.757500", "094839.757500", "094841.757500", "094843.757500", "094845.757500", "094847.757500", "094849.757500", "094851.757500", "094853.757500", "094855.757500", "094857.757500", "094859.757500", "094901.757500", "094903.757500", "094905.757500", "094907.757500", "094909.757500", "094911.757500", "094913.757500", "094915.757500", "094917.757500", "094919.757500", "094921.757500", "094923.757500", "094925.757500", "094927.757500", "094929.757500", "094931.757500", "094933.757500", "094935.757500", "094937.757500", "094939.757500", "094941.757500", "094943.757500", "094945.757500", "094947.757500", "094949.757500", "094951.757500", "094953.757500", "094955.757500", "094957.757500", "094959.757500", "095001.757500", "095003.757500", "095005.757500", "095007.757500", "095009.757500", "095011.757500", "095013.757500", "095015.757500", "095017.757500", "095019.757500", "095021.757500", "095023.757500", "095025.757500", "095027.757500", "095029.757500", "095031.757500", "095033.757500", "095035.757500", "095037.757500", "095039.757500", "095041.757500", "095043.757500", "095045.757500", "095047.757500", "095049.757500", "095051.757500", "095053.757500", "095055.757500", "095057.757500", "095059.757500", "095101.757500", "095103.757500", "095105.757500", "095107.757500", "095109.757500", "095111.757500", "095113.757500", "095115.757500", "095117.757500", "095119.757500", "095121.757500", "095123.757500", "095125.757500", "095127.757500"],
      "ContentTime": ["094532.458000", "094532.461000", "094532.464000", "094532.466000", "094532.468000", "094532.471000", "094532.473000", "094532.475000", "094532.477000", "094532.480000", "094532.482000", "094532.484000", "094532.487000", "094532.489000", "094532.491000", "094532.493000", "094532.496000", "094532.503000", "094532.505000", "094532.508000", "094532.510000", "094612.454000", "094612.457000", "094612.459000", "094612.461000", "094612.464000", "094612.466000", "094612.468000", "094612.471000", "094612.473000", "094612.475000", "094612.477000", "094612.480000", "094612.482000", "094612.484000", "094612.487000", "094612.489000", "094612.491000", "094612.494000", "094612.496000", "094612.498000", "094652.453000", "094652.456000", "094652.458000", "094652.460000", "094652.463000", "094652.465000", "094652.467000", "094652.470000", "094652.472000", "094652.474000", "094652.476000", "094652.479000", "094652.481000", "094652.483000", "094652.486000", "094652.488000", "094652.490000", "094652.493000", "094652.495000", "094652.497000", "094732.453000", "094732.456000", "094732.458000", "094732.460000", "094732.463000", "094732.465000", "094732.468000", "094732.470000", "094732.472000", "094732.475000", "094732.477000", "094732.479000", "094732.481000", "094732.484000", "094732.486000", "094732.488000", "094732.491000", "094732.493000", "094732.495000", "094732.497000", "094812.453000", "094812.456000", "094812.458000", "094812.461000", "094812.463000", "094812.465000", "094812.467000", "094812.470000", "094812.472000", "094812.475000", "094812.477000", "094812.479000", "094812.481000", "094812.484000", "094812.486000", "094812.488000", "094812.491000", "094812.493000", "094812.495000", "094812.498000", "094852.453000", "094852.456000", "094852.458000", "094852.460000", "094852.463000", "094852.465000", "094852.467000", "094852.470000", "094852.472000", "094852.474000", "094852.477000", "094852.479000", "094852.481000", "094852.484000", "094852.486000", "094852.488000", "094852.491000", "094852.493000", "094852.495000", "094852.498000", "094932.453000", "094932.456000", "094932.458000", "094932.461000", "094932.463000", "094932.465000", "094932.467000", "094932.470000", "094932.472000", "094932.474000", "094932.477000", "094932.479000", "094932.481000", "094932.484000", "094932.486000", "094932.488000", "094932.491000", "094932.493000", "094932.495000", "094932.498000", "095012.453000", "095012.456000", "095012.458000", "095012.460000", "095012.463000", "095012.465000", "095012.467000", "095012.470000", "095012.472000", "095012.474000", "095012.477000", "095012.479000", "095012.481000", "095012.484000", "095012.486000", "095012.488000", "095012.491000", "095012.493000", "095012.495000", "095012.498000", "095052.454000", "095052.457000", "095052.459000", "095052.462000", "095052.464000", "095052.466000", "095052.469000", "095052.471000", "095052.473000", "095052.475000", "095052.478000", "095052.480000", "095052.482000", "095052.485000", "095052.487000", "095052.489000", "095052.492000", "095052.494000", "095052.496000", "095052.499000", "095129.096000", "095129.100000", "095129.103000", "095129.105000", "095129.107000", "095129.111000", "095129.116000", "095129.120000", "095129.122000", "095129.125000", "095129.127000", "095129.130000", "095129.133000", "095129.137000", "095129.139000", "095129.143000", "095129.145000", "095129.149000", "095129.152000"],
      "InstanceCreationTime": ["094532.458000", "094532.461000", "094532.464000", "094532.466000", "094532.468000", "094532.471000", "094532.473000", "094532.475000", "094532.477000", "094532.480000", "094532.482000", "094532.484000", "094532.487000", "094532.489000", "094532.491000", "094532.493000", "094532.496000", "094532.503000", "094532.505000", "094532.508000", "094532.510000", "094612.454000", "094612.457000", "094612.459000", "094612.461000", "094612.464000", "094612.466000", "094612.468000", "094612.471000", "094612.473000", "094612.475000", "094612.477000", "094612.480000", "094612.482000", "094612.484000", "094612.487000", "094612.489000", "094612.491000", "094612.494000", "094612.496000", "094612.498000", "094652.453000", "094652.456000", "094652.458000", "094652.460000", "094652.463000", "094652.465000", "094652.467000", "094652.470000", "094652.472000", "094652.474000", "094652.476000", "094652.479000", "094652.481000", "094652.483000", "094652.486000", "094652.488000", "094652.490000", "094652.493000", "094652.495000", "094652.497000", "094732.453000", "094732.456000", "094732.458000", "094732.460000", "094732.463000", "094732.465000", "094732.468000", "094732.470000", "094732.472000", "094732.475000", "094732.477000", "094732.479000", "094732.481000", "094732.484000", "094732.486000", "094732.488000", "094732.491000", "094732.493000", "094732.495000", "094732.497000", "094812.453000", "094812.456000", "094812.458000", "094812.461000", "094812.463000", "094812.465000", "094812.467000", "094812.470000", "094812.472000", "094812.475000", "094812.477000", "094812.479000", "094812.481000", "094812.484000", "094812.486000", "094812.488000", "094812.491000", "094812.493000", "094812.495000", "094812.498000", "094852.453000", "094852.456000", "094852.458000", "094852.460000", "094852.463000", "094852.465000", "094852.467000", "094852.470000", "094852.472000", "094852.474000", "094852.477000", "094852.479000", "094852.481000", "094852.484000", "094852.486000", "094852.488000", "094852.491000", "094852.493000", "094852.495000", "094852.498000", "094932.453000", "094932.456000", "094932.458000", "094932.461000", "094932.463000", "094932.465000", "094932.467000", "094932.470000", "094932.472000", "094932.474000", "094932.477000", "094932.479000", "094932.481000", "094932.484000", "094932.486000", "094932.488000", "094932.491000", "094932.493000", "094932.495000", "094932.498000", "095012.453000", "095012.456000", "095012.458000", "095012.460000", "095012.463000", "095012.465000", "095012.467000", "095012.470000", "095012.472000", "095012.474000", "095012.477000", "095012.479000", "095012.481000", "095012.484000", "095012.486000", "095012.488000", "095012.491000", "095012.493000", "095012.495000", "095012.498000", "095052.454000", "095052.457000", "095052.459000", "095052.462000", "095052.464000", "095052.466000", "095052.469000", "095052.471000", "095052.473000", "095052.475000", "095052.478000", "095052.480000", "095052.482000", "095052.485000", "095052.487000", "095052.489000", "095052.492000", "095052.494000", "095052.496000", "095052.499000", "095129.096000", "095129.100000", "095129.103000", "095129.105000", "095129.107000", "095129.111000", "095129.116000", "095129.120000", "095129.122000", "095129.125000", "095129.127000", "095129.130000", "095129.133000", "095129.137000", "095129.139000", "095129.143000", "095129.145000", "095129.149000", "095129.152000"],
      "InstanceNumber": [1, 2, 3, 4, 5, 6, 7, 8, 9, 10, 11, 12, 13, 14, 15, 16, 17, 18, 19, 20, 21, 22, 23, 24, 25, 26, 27, 28, 29, 30, 31, 32, 33, 34, 35, 36, 37, 38, 39, 40, 41, 42, 43, 44, 45, 46, 47, 48, 49, 50, 51, 52, 53, 54, 55, 56, 57, 58, 59, 60, 61, 62, 63, 64, 65, 66, 67, 68, 69, 70, 71, 72, 73, 74, 75, 76, 77, 78, 79, 80, 81, 82, 83, 84, 85, 86, 87, 88, 89, 90, 91, 92, 93, 94, 95, 96, 97, 98, 99, 100, 101, 102, 103, 104, 105, 106, 107, 108, 109, 110, 111, 112, 113, 114, 115, 116, 117, 118, 119, 120, 121, 122, 123, 124, 125, 126, 127, 128, 129, 130, 131, 132, 133, 134, 135, 136, 137, 138, 139, 140, 141, 142, 143, 144, 145, 146, 147, 148, 149, 150, 151, 152, 153, 154, 155, 156, 157, 158, 159, 160, 161, 162, 163, 164, 165, 166, 167, 168, 169, 170, 171, 172, 173, 174, 175, 176, 177, 178, 179, 180, 181, 182, 183, 184, 185, 186, 187, 188, 189, 190, 191, 192, 193, 194, 195, 196, 197, 198, 199, 200],
      "LargestImagePixelValue": [2404, 2412, 2420, 2408, 2420, 2410, 2408, 2415, 2413, 2414, 2414, 2419, 2416, 2411, 2415, 2413, 2416, 2403, 2418, 2414, 2410, 2413, 2418, 2414, 2412, 2417, 2415, 2408, 2411, 2405, 2417, 2406, 2413, 2415, 2419, 2420, 2418, 2413, 2413, 2419, 2421, 2413, 2427, 2408, 2417, 2413, 2420, 2415, 2420, 2412, 2417, 2411, 2407, 2406, 2411, 2413, 2421, 2419, 2411, 2409, 2410, 2413, 2414, 2415, 2415, 2414, 2412, 2405, 2405, 2407, 2411, 2406, 2412, 2409, 2416, 2408, 2422, 2414, 2416, 2413, 2417, 2409, 2410, 2412, 2412, 2410, 2408, 2408, 2411, 2410, 2415, 2411, 2415, 2410, 2408, 2415, 2418, 2408, 2413, 2414, 2404, 2406, 2404, 2423, 2408, 2411, 2414, 2405, 2409, 2410, 2413, 2407, 2410, 2413, 2409, 2406, 2407, 2410, 2411, 2404, 2406, 2409, 2415, 2407, 2404, 2407, 2409, 2416, 2404, 2408, 2406, 2406, 2407, 2410, 2402, 2410, 2412, 2405, 2404, 2413, 2407, 2410, 2412, 2416, 2409, 2419, 2408, 2412, 2408, 2405, 2409, 2415, 2407, 2410, 2406, 2412, 2405, 2404, 2410, 2405, 2417, 2406, 2409, 2406, 2416, 2411, 2412, 2408, 2411, 2406, 2409, 2407, 2410, 2406, 2408, 2412, 2410, 2401, 2407, 2410, 2400, 2410, 2406, 2414, 2405, 2405, 2411, 2402, 2409, 2407, 2401, 2413, 2408, 2401, 2404, 2404, 2407, 2407, 2402, 2405],
      "WindowCenter": [1066.0, 1066.0, 1066.0, 1066.0, 1066.0, 1066.0, 1066.0, 1066.0, 1066.0, 1066.0, 1066.0, 1066.0, 1066.0, 1066.0, 1066.0, 1066.0, 1066.0, 1066.0, 1066.0, 1066.0, 1066.0, 1066.0, 1066.0, 1066.0, 1066.0, 1066.0, 1066.0, 1066.0, 1066.0, 1066.0, 1066.0, 1066.0, 1066.0, 1066.0, 1066.0, 1066.0, 1066.0, 1066.0, 1066.0, 1066.0, 1066.0, 1066.0, 1066.0, 1066.0, 1066.0, 1066.0, 1066.0, 1066.0, 1066.0, 1066.0, 1066.0, 1066.0, 1066.0, 1066.0, 1066.0, 1066.0, 1066.0, 1066.0, 1066.0, 1066.0, 1066.0, 1066.0, 1066.0, 1066.0, 1066.0, 1066.0, 1066.0, 1066.0, 1066.0, 1066.0, 1066.0, 1066.0, 1066.0, 1066.0, 1066.0, 1066.0, 1066.0, 1066.0, 1066.0, 1066.0, 1066.0, 1066.0, 1066.0, 1066.0, 1066.0, 1066.0, 1066.0, 1066.0, 1066.0, 1066.0, 1066.0, 1066.0, 1066.0, 1066.0, 1065.0, 1066.0, 1066.0, 1066.0, 1066.0, 1066.0, 1066.0, 1066.0, 1066.0, 1066.0, 1065.0, 1065.0, 1065.0, 1066.0, 1065.0, 1066.0, 1065.0, 1065.0, 1066.0, 1066.0, 1065.0, 1066.0, 1066.0, 1066.0, 1066.0, 1065.0, 1065.0, 1066.0, 1065.0, 1066.0, 1065.0, 1065.0, 1066.0, 1066.0, 1065.0, 1066.0, 1065.0, 1066.0, 1065.0, 1065.0, 1065.0, 1065.0, 1065.0, 1066.0, 1066.0, 1065.0, 1066.0, 1065.0, 1066.0, 1065.0, 1065.0, 1065.0, 1065.0, 1065.0, 1065.0, 1065.0, 1065.0, 1065.0, 1065.0, 1065.0, 1065.0, 1065.0, 1065.0, 1065.0, 1065.0, 1065.0, 1065.0, 1065.0, 1065.0, 1065.0, 1065.0, 1065.0, 1065.0, 1065.0, 1065.0, 1065.0, 1065.0, 1065.0, 1065.0, 1065.0, 1065.0, 1065.0, 1065.0, 1065.0, 1065.0, 1065.0, 1065.0, 1065.0, 1065.0, 1065.0, 1065.0, 1065.0, 1065.0, 1065.0, 1065.0, 1065.0, 1065.0, 1065.0, 1065.0, 1065.0, 1065.0, 1065.0, 1065.0, 1065.0, 1065.0, 1065.0],
      "WindowWidth": [2393.0, 2392.0, 2392.0, 2392.0, 2392.0, 2392.0, 2392.0, 2392.0, 2392.0, 2392.0, 2392.0, 2392.0, 2392.0, 2392.0, 2392.0, 2392.0, 2392.0, 2392.0, 2392.0, 2392.0, 2392.0, 2392.0, 2392.0, 2392.0, 2392.0, 2392.0, 2392.0, 2392.0, 2392.0, 2392.0, 2393.0, 2392.0, 2392.0, 2392.0, 2392.0, 2392.0, 2392.0, 2392.0, 2392.0, 2392.0, 2392.0, 2392.0, 2392.0, 2392.0, 2392.0, 2393.0, 2392.0, 2392.0, 2392.0, 2392.0, 2392.0, 2392.0, 2392.0, 2392.0, 2392.0, 2392.0, 2392.0, 2392.0, 2392.0, 2392.0, 2392.0, 2392.0, 2392.0, 2392.0, 2392.0, 2392.0, 2392.0, 2392.0, 2392.0, 2392.0, 2392.0, 2392.0, 2392.0, 2392.0, 2392.0, 2392.0, 2392.0, 2392.0, 2392.0, 2392.0, 2392.0, 2392.0, 2392.0, 2392.0, 2392.0, 2392.0, 2392.0, 2392.0, 2392.0, 2391.0, 2392.0, 2392.0, 2392.0, 2392.0, 2391.0, 2392.0, 2391.0, 2392.0, 2391.0, 2391.0, 2391.0, 2391.0, 2392.0, 2391.0, 2392.0, 2391.0, 2391.0, 2391.0, 2391.0, 2391.0, 2391.0, 2391.0, 2391.0, 2391.0, 2391.0, 2391.0, 2391.0, 2391.0, 2391.0, 2391.0, 2391.0, 2391.0, 2391.0, 2391.0, 2391.0, 2391.0, 2391.0, 2391.0, 2391.0, 2391.0, 2391.0, 2391.0, 2391.0, 2391.0, 2391.0, 2391.0, 2391.0, 2391.0, 2391.0, 2391.0, 2391.0, 2391.0, 2391.0, 2391.0, 2391.0, 2391.0, 2391.0, 2391.0, 2391.0, 2391.0, 2391.0, 2391.0, 2391.0, 2391.0, 2391.0, 2391.0, 2391.0, 2391.0, 2391.0, 2391.0, 2391.0, 2391.0, 2391.0, 2391.0, 2391.0, 2391.0, 2391.0, 2391.0, 2391.0, 2391.0, 2391.0, 2391.0, 2391.0, 2391.0, 2391.0, 2391.0, 2391.0, 2391.0, 2391.0, 2391.0, 2391.0, 2391.0, 2391.0, 2391.0, 2390.0, 2391.0, 2391.0, 2391.0, 2391.0, 2390.0, 2390.0, 2391.0, 2390.0, 2390.0, 2391.0, 2391.0, 2390.0, 2390.0, 2390.0, 2390.0]
    },
    "slices": {}
  }
}