{
  "AcquisitionMatrixPE": 80,
  "AcquisitionNumber": 1,
  "AcquisitionTime": "09:51:42.790000",
  "BandwidthPerPixelPhaseEncode": 48.077,
  "BaseResolution": 80,
  "BodyPartExamined": "BRAIN",
  "CoilCombinationMethod": "Sum of Squares",
  "ConsistencyInfo": "N4_VE11E_LATEST_20181129",
  "ConversionSoftware": "dcm2niix",
  "ConversionSoftwareVersion": "v1.0.20220720",
  "DerivedVendorReportedEchoSpacing": 0.000519999,
  "DeviceSerialNumber": "66112",
  "DwellTime": 2.7e-06,
  "EchoTime": 0.035,
  "EchoTrainLength": 39,
  "EffectiveEchoSpacing": 0.00026,
  "FlipAngle": 90,
  "HeudiconvVersion": "0.13.1",
  "ImageOrientationPatientDICOM": [0.98826, -0.152782, -7.80124e-05, 0.145052, 0.938101, 0.314525],
  "ImageOrientationText": "Tra>Cor(18.1)>Sag(2.8)",
  "ImageType": [
    "ORIGINAL",
    "PRIMARY",
    "M",
    "ND",
    "NORM",
    "MOSAIC"
],
  "ImagingFrequency": 123.259,
  "InPlanePhaseEncodingDirectionDICOM": "COL",
  "InstitutionAddress": "Maynard 3,Hanover,NH,US,03755",
  "InstitutionName": "Dartmouth College - PBS",
  "InstitutionalDepartmentName": "Department",
  "MRAcquisitionType": "2D",
  "MagneticFieldStrength": 3,
  "Manufacturer": "Siemens",
  "ManufacturersModelName": "Prisma",
  "MatrixCoilMode": "GRAPPA",
  "Modality": "MR",
  "NonlinearGradientCorrection": false,
  "ParallelReductionFactorInPlane": 2,
  "PartialFourier": 1,
  "PatientPosition": "HFS",
  "PercentPhaseFOV": 100,
  "PercentSampling": 100,
  "PhaseEncodingDirection": "j-",
  "PhaseEncodingSteps": 79,
  "PhaseResolution": 1,
  "PixelBandwidth": 2315,
  "ProcedureStepDescription": "dbic^QA",
  "ProtocolName": "func-bold_task-rest_acq-p2",
  "PulseSequenceDetails": "%SiemensSeq%\\ep2d_bold",
  "ReceiveCoilActiveElements": "HC1-7;NC1,2",
  "ReceiveCoilName": "HeadNeck_64",
  "ReconMatrixPE": 80,
  "RefLinesPE": 24,
  "RepetitionTime": 2,
  "SAR": 0.035951,
  "ScanOptions": "FS",
  "ScanningSequence": "EP",
  "SequenceName": "*epfid2d1_80",
  "SequenceVariant": "SK",
  "SeriesDescription": "func-bold_task-rest_acq-p2",
  "SeriesNumber": 5,
  "ShimSetting": [4214, -7744, -7480, -202, -150, -211, -74, 102],
  "SliceThickness": 3.5,
  "SliceTiming": [0.99, 0, 1.055, 0.0675, 1.1225, 0.1325, 1.1875, 0.1975, 1.255, 0.265, 1.32, 0.33, 1.385, 0.3975, 1.4525, 0.4625, 1.5175, 0.5275, 1.585, 0.595, 1.65, 0.66, 1.715, 0.725, 1.7825, 0.7925, 1.8475, 0.8575, 1.915, 0.925],
  "SoftwareVersions": "syngo MR E11",
  "SpacingBetweenSlices": 3.99,
  "StationName": "AWP66112",
  "TaskName": "rest",
  "TotalReadoutTime": 0.02054,
  "TxRefAmp": 210.102,
  "dcmmeta_affine": [
    [-2.964779853820801, 0.4351573586463928, 0.1914423257112503, 100.04694366455078],
    [0.4583459794521332, 2.8143038749694824, 1.2402656078338623, -143.45314025878906],
    [-0.00023403707018587738, -0.9435741305351257, 3.7875046730041504, -28.37444305419922],
    [0.0, 0.0, 0.0, 1.0]
],
  "dcmmeta_reorient_transform": [
    [0.0, -1.0, 0.0, 79.0],
    [1.0, 0.0, 0.0, 0.0],
    [0.0, 0.0, 1.0, 0.0],
    [0.0, 0.0, 0.0, 1.0]
],
  "dcmmeta_shape": [80, 80, 30, 200],
  "dcmmeta_slice_dim": 2,
  "dcmmeta_version": 0.6,
  "global": {
    "const": {
      "AccessionNumber": "qa64",
      "AcquisitionMatrix": [80, 0, 0, 80],
      "AngioFlag": "N",
      "BitsAllocated": 16,
      "BitsStored": 12,
      "BodyPartExamined": "BRAIN",
      "Columns": 480,
      "EchoNumbers": 1,
      "EchoTime": 35.0,
      "EchoTrainLength": 39,
      "FlipAngle": 90.0,
      "HighBit": 11,
      "ImageOrientationPatient": [0.98825991282807, -0.1527819970125, -7.80123585e-05, 0.14505245038397, 0.9381012682097, 0.3145247163912],
      "ImagePositionPatient": [-814.41179295878, -550.06842220565, -291.58482392505],
      "ImageType": [
        "ORIGINAL",
        "PRIMARY",
        "M",
        "ND",
        "NORM",
        "MOSAIC"
],
      "ImagedNucleus": "1H",
      "ImagingFrequency": 123.259164,
      "InPlanePhaseEncodingDirection": "COL",
      "MRAcquisitionType": "2D",
      "MagneticFieldStrength": 3.0,
      "Manufacturer": "SIEMENS",
      "ManufacturerModelName": "Prisma",
      "Modality": "MR",
      "NumberOfAverages": 1.0,
      "NumberOfPhaseEncodingSteps": 79,
      "PercentPhaseFieldOfView": 100.0,
      "PercentSampling": 100.0,
      "PerformedProcedureStepStartTime": "094107.271000",
      "PhotometricInterpretation": "MONOCHROME2",
      "PixelBandwidth": 2315.0,
      "PixelRepresentation": 0,
      "PixelSpacing": [3.0, 3.0],
      "ProtocolName": "func-bold_task-rest_acq-p2",
      "RepetitionTime": 2000.0,
      "Rows": 480,
      "SAR": 0.03595100397456,
      "SamplesPerPixel": 1,
      "ScanOptions": "FS",
      "ScanningSequence": "EP",
      "SequenceName": "*epfid2d1_80",
      "SequenceVariant": "SK",
      "SeriesDescription": "func-bold_task-rest_acq-p2",
      "SeriesNumber": 5,
      "SeriesTime": "095241.917000",
      "SliceLocation": -66.725589060228,
      "SliceThickness": 3.5,
      "SmallestImagePixelValue": 0,
      "SoftwareVersions": "syngo MR E11",
      "SpacingBetweenSlices": 3.9900001532911,
      "SpecificCharacterSet": "ISO_IR 100",
      "StudyID": "23",
      "StudyTime": "094107.175000",
      "TransmitCoilName": "Body",
      "VariableFlipAngleFlag": "N",
      "WindowCenterWidthExplanation": "Algo1"
    },
    "slices": {}
  },
  "time": {
    "samples": {
      "AcquisitionNumber": [1, 2, 3, 4, 5, 6, 7, 8, 9, 10, 11, 12, 13, 14, 15, 16, 17, 18, 19, 20, 21, 22, 23, 24, 25, 26, 27, 28, 29, 30, 31, 32, 33, 34, 35, 36, 37, 38, 39, 40, 41, 42, 43, 44, 45, 46, 47, 48, 49, 50, 51, 52, 53, 54, 55, 56, 57, 58, 59, 60, 61, 62, 63, 64, 65, 66, 67, 68, 69, 70, 71, 72, 73, 74, 75, 76, 77, 78, 79, 80, 81, 82, 83, 84, 85, 86, 87, 88, 89, 90, 91, 92, 93, 94, 95, 96, 97, 98, 99, 100, 101, 102, 103, 104, 105, 106, 107, 108, 109, 110, 111, 112, 113, 114, 115, 116, 117, 118, 119, 120, 121, 122, 123, 124, 125, 126, 127, 128, 129, 130, 131, 132, 133, 134, 135, 136, 137, 138, 139, 140, 141, 142, 143, 144, 145, 146, 147, 148, 149, 150, 151, 152, 153, 154, 155, 156, 157, 158, 159, 160, 161, 162, 163, 164, 165, 166, 167, 168, 169, 170, 171, 172, 173, 174, 175, 176, 177, 178, 179, 180, 181, 182, 183, 184, 185, 186, 187, 188, 189, 190, 191, 192, 193, 194, 195, 196, 197, 198, 199, 200],
      "AcquisitionTime": ["095142.790000", "095144.790000", "095146.790000", "095148.790000", "095150.790000", "095152.790000", "095154.790000", "095156.790000", "095158.790000", "095200.790000", "095202.790000", "095204.790000", "095206.790000", "095208.790000", "095210.790000", "095212.790000", "095214.790000", "095216.790000", "095218.790000", "095220.790000", "095222.790000", "095224.790000", "095226.790000", "095228.790000", "095230.790000", "095232.790000", "095234.790000", "095236.790000", "095238.790000", "095240.790000", "095242.790000", "095244.790000", "095246.790000", "095248.790000", "095250.790000", "095252.790000", "095254.790000", "095256.790000", "095258.790000", "095300.790000", "095302.790000", "095304.790000", "095306.790000", "095308.790000", "095310.790000", "095312.790000", "095314.790000", "095316.790000", "095318.790000", "095320.790000", "095322.790000", "095324.790000", "095326.790000", "095328.790000", "095330.790000", "095332.790000", "095334.790000", "095336.790000", "095338.790000", "095340.790000", "095342.790000", "095344.790000", "095346.790000", "095348.790000", "095350.790000", "095352.790000", "095354.790000", "095356.790000", "095358.790000", "095400.790000", "095402.790000", "095404.790000", "095406.790000", "095408.790000", "095410.790000", "095412.790000", "095414.790000", "095416.790000", "095418.790000", "095420.790000", "095422.790000", "095424.790000", "095426.790000", "095428.790000", "095430.790000", "095432.790000", "095434.790000", "095436.790000", "095438.790000", "095440.790000", "095442.790000", "095444.790000", "095446.790000", "095448.790000", "095450.790000", "095452.790000", "095454.790000", "095456.790000", "095458.790000", "095500.790000", "095502.790000", "095504.790000", "095506.790000", "095508.790000", "095510.790000", "095512.790000", "095514.790000", "095516.790000", "095518.790000", "095520.790000", "095522.790000", "095524.790000", "095526.790000", "095528.790000", "095530.790000", "095532.790000", "095534.790000", "095536.790000", "095538.790000", "095540.790000", "095542.790000", "095544.790000", "095546.790000", "095548.790000", "095550.790000", "095552.790000", "095554.790000", "095556.790000", "095558.790000", "095600.790000", "095602.790000", "095604.790000", "095606.790000", "095608.790000", "095610.790000", "095612.790000", "095614.790000", "095616.790000", "095618.790000", "095620.790000", "095622.790000", "095624.790000", "095626.790000", "095628.790000", "095630.790000", "095632.790000", "095634.790000", "095636.790000", "095638.790000", "095640.790000", "095642.790000", "095644.790000", "095646.790000", "095648.790000", "095650.790000", "095652.790000", "095654.790000", "095656.790000", "095658.790000", "095700.790000", "095702.790000", "095704.790000", "095706.790000", "095708.790000", "095710.790000", "095712.790000", "095714.790000", "095716.790000", "095718.790000", "095720.790000", "095722.790000", "095724.790000", "095726.790000", "095728.790000", "095730.790000", "095732.790000", "095734.790000", "095736.790000", "095738.790000", "095740.790000", "095742.790000", "095744.790000", "095746.790000", "095748.790000", "095750.790000", "095752.790000", "095754.790000", "095756.790000", "095758.790000", "095800.790000", "095802.790000", "095804.790000", "095806.790000", "095808.790000", "095810.790000", "095812.790000", "095814.790000", "095816.790000", "095818.790000", "095820.790000"],
      "ContentTime": ["095241.921000", "095241.924000", "095241.926000", "095241.929000", "095241.931000", "095241.934000", "095241.936000", "095241.946000", "095241.948000", "095241.950000", "095241.953000", "095241.964000", "095241.967000", "095241.969000", "095241.971000", "095241.974000", "095241.976000", "095241.978000", "095241.981000", "095241.983000", "095241.985000", "095241.988000", "095241.990000", "095241.993000", "095242.001000", "095242.003000", "095242.006000", "095242.008000", "095242.011000", "095321.915000", "095321.918000", "095321.920000", "095321.923000", "095321.925000", "095321.933000", "095321.935000", "095321.938000", "095321.940000", "095321.942000", "095321.945000", "095321.947000", "095321.949000", "095321.952000", "095321.954000", "095321.956000", "095321.958000", "095321.961000", "095321.963000", "095321.965000", "095401.914000", "095401.917000", "095401.919000", "095401.922000", "095401.924000", "095401.926000", "095401.929000", "095401.931000", "095401.939000", "095401.942000", "095401.944000", "095401.947000", "095401.949000", "095401.951000", "095401.954000", "095401.956000", "095401.958000", "095401.961000", "095401.963000", "095401.965000", "095441.914000", "095441.917000", "095441.919000", "095441.921000", "095441.924000", "095441.926000", "095441.928000", "095441.931000", "095441.933000", "095441.935000", "095441.938000", "095441.940000", "095441.942000", "095441.944000", "095441.947000", "095441.957000", "095441.960000", "095441.962000", "095441.964000", "095441.967000", "095521.915000", "095521.918000", "095521.920000", "095521.922000", "095521.925000", "095521.927000", "095521.930000", "095521.932000", "095521.934000", "095521.937000", "095521.939000", "095521.941000", "095521.944000", "095521.946000", "095521.948000", "095521.951000", "095521.953000", "095521.955000", "095521.958000", "095521.960000", "095601.915000", "095601.918000", "095601.920000", "095601.923000", "095601.925000", "095601.927000", "095601.930000", "095601.932000", "095601.934000", "095601.936000", "095601.939000", "095601.941000", "095601.943000", "095601.946000", "095601.948000", "095601.951000", "095601.953000", "095601.955000", "095601.958000", "095601.960000", "095641.914000", "095641.917000", "095641.919000", "095641.921000", "095641.924000", "095641.926000", "095641.928000", "095641.931000", "095641.933000", "095641.935000", "095641.938000", "095641.940000", "095641.942000", "095641.945000", "095641.947000", "095641.949000", "095641.952000", "095641.954000", "095641.956000", "095641.959000", "095721.915000", "095721.918000", "095721.920000", "095721.922000", "095721.925000", "095721.927000", "095721.929000", "095721.932000", "095721.934000", "095721.936000", "095721.939000", "095721.941000", "095721.943000", "095721.946000", "095721.948000", "095721.950000", "095721.953000", "095721.955000", "095721.957000", "095721.960000", "095801.915000", "095801.918000", "095801.920000", "095801.923000", "095801.925000", "095801.927000", "095801.930000", "095801.932000", "095801.934000", "095801.937000", "095801.939000", "095801.941000", "095801.944000", "095801.946000", "095801.948000", "095801.951000", "095801.953000", "095801.955000", "095801.958000", "095801.960000", "095822.023000", "095822.026000", "095822.028000", "095822.031000", "095822.033000", "095822.035000", "095822.038000", "095822.040000", "095822.043000", "095822.045000", "095822.047000"],
      "InstanceCreationTime": ["095241.921000", "095241.924000", "095241.926000", "095241.929000", "095241.931000", "095241.934000", "095241.936000", "095241.946000", "095241.948000", "095241.950000", "095241.953000", "095241.964000", "095241.967000", "095241.969000", "095241.971000", "095241.974000", "095241.976000", "095241.978000", "095241.981000", "095241.983000", "095241.985000", "095241.988000", "095241.990000", "095241.993000", "095242.001000", "095242.003000", "095242.006000", "095242.008000", "095242.011000", "095321.915000", "095321.918000", "095321.920000", "095321.923000", "095321.925000", "095321.933000", "095321.935000", "095321.938000", "095321.940000", "095321.942000", "095321.945000", "095321.947000", "095321.949000", "095321.952000", "095321.954000", "095321.956000", "095321.958000", "095321.961000", "095321.963000", "095321.965000", "095401.914000", "095401.917000", "095401.919000", "095401.922000", "095401.924000", "095401.926000", "095401.929000", "095401.931000", "095401.939000", "095401.942000", "095401.944000", "095401.947000", "095401.949000", "095401.951000", "095401.954000", "095401.956000", "095401.958000", "095401.961000", "095401.963000", "095401.965000", "095441.914000", "095441.917000", "095441.919000", "095441.921000", "095441.924000", "095441.926000", "095441.928000", "095441.931000", "095441.933000", "095441.935000", "095441.938000", "095441.940000", "095441.942000", "095441.944000", "095441.947000", "095441.957000", "095441.960000", "095441.962000", "095441.964000", "095441.967000", "095521.915000", "095521.918000", "095521.920000", "095521.922000", "095521.925000", "095521.927000", "095521.930000", "095521.932000", "095521.934000", "095521.937000", "095521.939000", "095521.941000", "095521.944000", "095521.946000", "095521.948000", "095521.951000", "095521.953000", "095521.955000", "095521.958000", "095521.960000", "095601.915000", "095601.918000", "095601.920000", "095601.923000", "095601.925000", "095601.927000", "095601.930000", "095601.932000", "095601.934000", "095601.936000", "095601.939000", "095601.941000", "095601.943000", "095601.946000", "095601.948000", "095601.951000", "095601.953000", "095601.955000", "095601.958000", "095601.960000", "095641.914000", "095641.917000", "095641.919000", "095641.921000", "095641.924000", "095641.926000", "095641.928000", "095641.931000", "095641.933000", "095641.935000", "095641.938000", "095641.940000", "095641.942000", "095641.945000", "095641.947000", "095641.949000", "095641.952000", "095641.954000", "095641.956000", "095641.959000", "095721.915000", "095721.918000", "095721.920000", "095721.922000", "095721.925000", "095721.927000", "095721.929000", "095721.932000", "095721.934000", "095721.936000", "095721.939000", "095721.941000", "095721.943000", "095721.946000", "095721.948000", "095721.950000", "095721.953000", "095721.955000", "095721.957000", "095721.960000", "095801.915000", "095801.918000", "095801.920000", "095801.923000", "095801.925000", "095801.927000", "095801.930000", "095801.932000", "095801.934000", "095801.937000", "095801.939000", "095801.941000", "095801.944000", "095801.946000", "095801.948000", "095801.951000", "095801.953000", "095801.955000", "095801.958000", "095801.960000", "095822.023000", "095822.026000", "095822.028000", "095822.031000", "095822.033000", "095822.035000", "095822.038000", "095822.040000", "095822.043000", "095822.045000", "095822.047000"],
      "InstanceNumber": [1, 2, 3, 4, 5, 6, 7, 8, 9, 10, 11, 12, 13, 14, 15, 16, 17, 18, 19, 20, 21, 22, 23, 24, 25, 26, 27, 28, 29, 30, 31, 32, 33, 34, 35, 36, 37, 38, 39, 40, 41, 42, 43, 44, 45, 46, 47, 48, 49, 50, 51, 52, 53, 54, 55, 56, 57, 58, 59, 60, 61, 62, 63, 64, 65, 66, 67, 68, 69, 70, 71, 72, 73, 74, 75, 76, 77, 78, 79, 80, 81, 82, 83, 84, 85, 86, 87, 88, 89, 90, 91, 92, 93, 94, 95, 96, 97, 98, 99, 100, 101, 102, 103, 104, 105, 106, 107, 108, 109, 110, 111, 112, 113, 114, 115, 116, 117, 118, 119, 120, 121, 122, 123, 124, 125, 126, 127, 128, 129, 130, 131, 132, 133, 134, 135, 136, 137, 138, 139, 140, 141, 142, 143, 144, 145, 146, 147, 148, 149, 150, 151, 152, 153, 154, 155, 156, 157, 158, 159, 160, 161, 162, 163, 164, 165, 166, 167, 168, 169, 170, 171, 172, 173, 174, 175, 176, 177, 178, 179, 180, 181, 182, 183, 184, 185, 186, 187, 188, 189, 190, 191, 192, 193, 194, 195, 196, 197, 198, 199, 200],
      "LargestImagePixelValue": [3821, 3830, 3818, 3828, 3818, 3822, 3819, 3827, 3835, 3832, 3824, 3826, 3832, 3818, 3818, 3829, 3818, 3823, 3825, 3824, 3830, 3817, 3823, 3830, 3830, 3821, 3842, 3828, 3828, 3832, 3823, 3826, 3825, 3829, 3831, 3834, 3825, 3835, 3829, 3836, 3830, 3830, 3828, 3829, 3835, 3834, 3837, 3826, 3824, 3833, 3827, 3836, 3821, 3831, 3838, 3828, 3833, 3840, 3834, 3833, 3832, 3834, 3824, 3848, 3832, 3833, 3833, 3828, 3831, 3833, 3835, 3833, 3830, 3826, 3849, 3834, 3837, 3835, 3841, 3840, 3833, 3845, 3838, 3842, 3845, 3840, 3843, 3846, 3839, 3842, 3841, 3836, 3833, 3842, 3841, 3832, 3830, 3842, 3847, 3839, 3839, 3842, 3847, 3844, 3845, 3847, 3843, 3829, 3840, 3837, 3842, 3847, 3847, 3845, 3841, 3844, 3843, 3848, 3842, 3842, 3844, 3846, 3834, 3844, 3835, 3832, 3854, 3840, 3833, 3848, 3841, 3846, 3838, 3851, 3845, 3843, 3841, 3851, 3847, 3852, 3844, 3847, 3845, 3855, 3844, 3843, 3845, 3847, 3847, 3847, 3845, 3853, 3847, 3847, 3850, 3844, 3847, 3850, 3847, 3849, 3856, 3839, 3847, 3856, 3857, 3852, 3851, 3858, 3854, 3844, 3851, 3854, 3850, 3855, 3866, 3853, 3863, 3855, 3857, 3852, 3843, 3862, 3851, 3850, 3858, 3852, 3845, 3855, 3852, 3858, 3849, 3860, 3853, 3845, 3859, 3857, 3852, 3852, 3866, 3857],
      "WindowCenter": [1438.0, 1439.0, 1438.0, 1438.0, 1437.0, 1438.0, 1439.0, 1438.0, 1438.0, 1438.0, 1438.0, 1438.0, 1437.0, 1437.0, 1437.0, 1438.0, 1437.0, 1438.0, 1438.0, 1437.0, 1438.0, 1437.0, 1437.0, 1436.0, 1437.0, 1437.0, 1437.0, 1437.0, 1437.0, 1437.0, 1437.0, 1437.0, 1437.0, 1437.0, 1437.0, 1437.0, 1438.0, 1437.0, 1437.0, 1436.0, 1437.0, 1437.0, 1436.0, 1437.0, 1436.0, 1437.0, 1436.0, 1437.0, 1437.0, 1436.0, 1436.0, 1436.0, 1436.0, 1437.0, 1436.0, 1437.0, 1436.0, 1437.0, 1437.0, 1436.0, 1436.0, 1436.0, 1437.0, 1436.0, 1437.0, 1436.0, 1436.0, 1435.0, 1436.0, 1436.0, 1436.0, 1436.0, 1436.0, 1436.0, 1436.0, 1437.0, 1435.0, 1435.0, 1435.0, 1435.0, 1436.0, 1436.0, 1436.0, 1436.0, 1436.0, 1436.0, 1436.0, 1436.0, 1436.0, 1436.0, 1435.0, 1436.0, 1436.0, 1436.0, 1435.0, 1436.0, 1435.0, 1436.0, 1436.0, 1436.0, 1436.0, 1436.0, 1436.0, 1436.0, 1436.0, 1436.0, 1435.0, 1436.0, 1436.0, 1436.0, 1435.0, 1435.0, 1435.0, 1435.0, 1436.0, 1436.0, 1435.0, 1435.0, 1436.0, 1435.0, 1436.0, 1435.0, 1436.0, 1436.0, 1435.0, 1436.0, 1435.0, 1435.0, 1435.0, 1435.0, 1435.0, 1435.0, 1435.0, 1434.0, 1434.0, 1435.0, 1436.0, 1436.0, 1435.0, 1435.0, 1435.0, 1435.0, 1436.0, 1434.0, 1435.0, 1435.0, 1435.0, 1435.0, 1435.0, 1434.0, 1435.0, 1434.0, 1435.0, 1435.0, 1434.0, 1435.0, 1434.0, 1434.0, 1434.0, 1435.0, 1434.0, 1434.0, 1435.0, 1435.0, 1435.0, 1434.0, 1434.0, 1434.0, 1434.0, 1434.0, 1435.0, 1434.0, 1434.0, 1434.0, 1435.0, 1434.0, 1435.0, 1435.0, 1434.0, 1434.0, 1434.0, 1434.0, 1434.0, 1435.0, 1435.0, 1434.0, 1434.0, 1435.0, 1434.0, 1434.0, 1435.0, 1434.0, 1434.0, 1434.0, 1434.0, 1435.0, 1434.0, 1435.0, 1434.0, 1434.0],
      "WindowWidth": [3326.0, 3324.0, 3324.0, 3324.0, 3324.0, 3324.0, 3324.0, 3324.0, 3324.0, 3324.0, 3324.0, 3324.0, 3324.0, 3324.0, 3324.0, 3324.0, 3324.0, 3324.0, 3324.0, 3324.0, 3323.0, 3324.0, 3324.0, 3324.0, 3324.0, 3324.0, 3324.0, 3324.0, 3324.0, 3324.0, 3324.0, 3324.0, 3324.0, 3324.0, 3324.0, 3324.0, 3323.0, 3324.0, 3324.0, 3324.0, 3324.0, 3324.0, 3324.0, 3324.0, 3324.0, 3324.0, 3324.0, 3324.0, 3324.0, 3324.0, 3324.0, 3324.0, 3324.0, 3324.0, 3324.0, 3324.0, 3324.0, 3324.0, 3324.0, 3324.0, 3324.0, 3324.0, 3324.0, 3324.0, 3324.0, 3324.0, 3324.0, 3324.0, 3324.0, 3324.0, 3324.0, 3323.0, 3324.0, 3324.0, 3324.0, 3324.0, 3324.0, 3324.0, 3324.0, 3324.0, 3323.0, 3323.0, 3324.0, 3324.0, 3324.0, 3324.0, 3323.0, 3323.0, 3323.0, 3323.0, 3324.0, 3323.0, 3323.0, 3323.0, 3324.0, 3324.0, 3324.0, 3324.0, 3323.0, 3323.0, 3324.0, 3323.0, 3323.0, 3323.0, 3323.0, 3324.0, 3324.0, 3323.0, 3323.0, 3324.0, 3324.0, 3324.0, 3324.0, 3324.0, 3324.0, 3323.0, 3324.0, 3324.0, 3324.0, 3324.0, 3323.0, 3323.0, 3323.0, 3323.0, 3324.0, 3323.0, 3324.0, 3323.0, 3323.0, 3324.0, 3324.0, 3324.0, 3324.0, 3324.0, 3324.0, 3324.0, 3323.0, 3323.0, 3323.0, 3323.0, 3323.0, 3323.0, 3323.0, 3324.0, 3324.0, 3324.0, 3324.0, 3323.0, 3323.0, 3324.0, 3323.0, 3324.0, 3324.0, 3323.0, 3324.0, 3323.0, 3324.0, 3324.0, 3324.0, 3323.0, 3324.0, 3324.0, 3323.0, 3323.0, 3323.0, 3324.0, 3324.0, 3324.0, 3324.0, 3324.0, 3323.0, 3324.0, 3324.0, 3324.0, 3323.0, 3324.0, 3323.0, 3323.0, 3324.0, 3324.0, 3324.0, 3324.0, 3324.0, 3323.0, 3323.0, 3324.0, 3324.0, 3323.0, 3324.0, 3323.0, 3323.0, 3324.0, 3323.0, 3324.0, 3323.0, 3323.0, 3323.0, 3323.0, 3324.0, 3323.0]
    },
    "slices": {}
  }
}