{
  "AcquisitionMatrixPE": 80,
  "AcquisitionNumber": 1,
  "AcquisitionTime": "10:05:20.475000",
  "BandwidthPerPixelPhaseEncode": 25,
  "BaseResolution": 80,
  "BodyPartExamined": "BRAIN",
  "CoilCombinationMethod": "Sum of Squares",
  "ConsistencyInfo": "N4_VE11E_LATEST_20181129",
  "ConversionSoftware": "dcm2niix",
  "ConversionSoftwareVersion": "v1.0.20220720",
  "DerivedVendorReportedEchoSpacing": 0.0005,
  "DeviceSerialNumber": "66112",
  "DwellTime": 2.7e-06,
  "EchoTime": 0.03,
  "EchoTrainLength": 80,
  "EffectiveEchoSpacing": 0.0005,
  "FlipAngle": 10,
  "HeudiconvVersion": "0.13.1",
  "ImageOrientationPatientDICOM": [0.98826, -0.152782, -7.80124e-05, 0.145052, 0.938101, 0.314525],
  "ImageOrientationText": "Tra>Cor(18.1)>Sag(2.8)",
  "ImageType": [
    "ORIGINAL",
    "PRIMARY",
    "M",
    "ND",
    "NORM",
    "MOSAIC"
],
  "ImagingFrequency": 123.259,
  "InPlanePhaseEncodingDirectionDICOM": "COL",
  "InstitutionAddress": "Maynard 3,Hanover,NH,US,03755",
  "InstitutionName": "Dartmouth College - PBS",
  "InstitutionalDepartmentName": "Department",
  "MRAcquisitionType": "2D",
  "MagneticFieldStrength": 3,
  "Manufacturer": "Siemens",
  "ManufacturersModelName": "Prisma",
  "MatrixCoilMode": "SENSE",
  "Modality": "MR",
  "NonlinearGradientCorrection": false,
  "PartialFourier": 1,
  "PatientPosition": "HFS",
  "PercentPhaseFOV": 100,
  "PercentSampling": 100,
  "PhaseEncodingDirection": "j-",
  "PhaseEncodingSteps": 80,
  "PhaseResolution": 1,
  "PixelBandwidth": 2315,
  "ProcedureStepDescription": "dbic^QA",
  "ProtocolName": "func-bold_fa-10",
  "PulseSequenceDetails": "%SiemensSeq%\\ep2d_bold",
  "ReceiveCoilActiveElements": "HC1-7;NC1,2",
  "ReceiveCoilName": "HeadNeck_64",
  "ReconMatrixPE": 80,
  "RepetitionTime": 2,
  "SAR": 0.0075786,
  "ScanOptions": "FS",
  "ScanningSequence": "EP",
  "SequenceName": "*epfid2d1_80",
  "SequenceVariant": "SK",
  "SeriesDescription": "func-bold_fa-10",
  "SeriesNumber": 7,
  "ShimSetting": [4214, -7744, -7480, -201, -150, -210, -74, 102],
  "SliceThickness": 3.5,
  "SliceTiming": [0.99, 0, 1.0575, 0.0675, 1.1225, 0.1325, 1.1875, 0.1975, 1.255, 0.265, 1.32, 0.33, 1.3875, 0.3975, 1.4525, 0.4625, 1.5175, 0.5275, 1.585, 0.595, 1.65, 0.66, 1.7175, 0.7275, 1.7825, 0.7925, 1.8475, 0.8575, 1.915, 0.925],
  "SoftwareVersions": "syngo MR E11",
  "SpacingBetweenSlices": 3.99,
  "StationName": "AWP66112",
  "TotalReadoutTime": 0.0395,
  "TxRefAmp": 210.102,
  "dcmmeta_affine": [
    [-2.964779853820801, 0.4351573586463928, 0.1914423108100891, 98.48937225341797],
    [0.4583459794521332, 2.8143038749694824, 1.2402654886245728, -140.96009826660156],
    [-0.00023403707018587738, -0.9435741305351257, 3.7875044345855713, -27.76520538330078],
    [0.0, 0.0, 0.0, 1.0]
],
  "dcmmeta_reorient_transform": [
    [0.0, -1.0, 0.0, 79.0],
    [1.0, 0.0, 0.0, 0.0],
    [0.0, 0.0, 1.0, 0.0],
    [0.0, 0.0, 0.0, 1.0]
],
  "dcmmeta_shape": [80, 80, 30, 200],
  "dcmmeta_slice_dim": 2,
  "dcmmeta_version": 0.6,
  "global": {
    "const": {
      "AccessionNumber": "qa64",
      "AcquisitionMatrix": [80, 0, 0, 80],
      "AngioFlag": "N",
      "BitsAllocated": 16,
      "BitsStored": 12,
      "BodyPartExamined": "BRAIN",
      "Columns": 480,
      "EchoNumbers": 1,
      "EchoTime": 30.0,
      "EchoTrainLength": 80,
      "FlipAngle": 10.0,
      "HighBit": 11,
      "ImageOrientationPatient": [0.98825991282807, -0.1527819970125, -7.80123585e-05, 0.14505245038397, 0.9381012682097, 0.3145247163912],
      "ImagePositionPatient": [-812.85421761374, -552.56146896621, -290.97558625415],
      "ImageType": [
        "ORIGINAL",
        "PRIMARY",
        "M",
        "ND",
        "NORM",
        "MOSAIC"
],
      "ImagedNucleus": "1H",
      "ImagingFrequency": 123.259171,
      "InPlanePhaseEncodingDirection": "COL",
      "MRAcquisitionType": "2D",
      "MagneticFieldStrength": 3.0,
      "Manufacturer": "SIEMENS",
      "ManufacturerModelName": "Prisma",
      "Modality": "MR",
      "NumberOfAverages": 1.0,
      "NumberOfPhaseEncodingSteps": 80,
      "PercentPhaseFieldOfView": 100.0,
      "PercentSampling": 100.0,
      "PerformedProcedureStepStartTime": "094107.271000",
      "PhotometricInterpretation": "MONOCHROME2",
      "PixelBandwidth": 2315.0,
      "PixelRepresentation": 0,
      "PixelSpacing": [3.0, 3.0],
      "ProtocolName": "func-bold_fa-10",
      "RepetitionTime": 2000.0,
      "Rows": 480,
      "SAR": 0.00757859816742,
      "SamplesPerPixel": 1,
      "ScanOptions": "FS",
      "ScanningSequence": "EP",
      "SequenceName": "*epfid2d1_80",
      "SequenceVariant": "SK",
      "SeriesDescription": "func-bold_fa-10",
      "SeriesNumber": 7,
      "SeriesTime": "100601.830000",
      "SliceLocation": -65.447056588679,
      "SliceThickness": 3.5,
      "SmallestImagePixelValue": 0,
      "SoftwareVersions": "syngo MR E11",
      "SpacingBetweenSlices": 3.9899998931407,
      "SpecificCharacterSet": "ISO_IR 100",
      "StudyID": "23",
      "StudyTime": "094107.175000",
      "TransmitCoilName": "Body",
      "VariableFlipAngleFlag": "N",
      "WindowCenterWidthExplanation": "Algo1"
    },
    "slices": {}
  },
  "time": {
    "samples": {
      "AcquisitionNumber": [1, 2, 3, 4, 5, 6, 7, 8, 9, 10, 11, 12, 13, 14, 15, 16, 17, 18, 19, 20, 21, 22, 23, 24, 25, 26, 27, 28, 29, 30, 31, 32, 33, 34, 35, 36, 37, 38, 39, 40, 41, 42, 43, 44, 45, 46, 47, 48, 49, 50, 51, 52, 53, 54, 55, 56, 57, 58, 59, 60, 61, 62, 63, 64, 65, 66, 67, 68, 69, 70, 71, 72, 73, 74, 75, 76, 77, 78, 79, 80, 81, 82, 83, 84, 85, 86, 87, 88, 89, 90, 91, 92, 93, 94, 95, 96, 97, 98, 99, 100, 101, 102, 103, 104, 105, 106, 107, 108, 109, 110, 111, 112, 113, 114, 115, 116, 117, 118, 119, 120, 121, 122, 123, 124, 125, 126, 127, 128, 129, 130, 131, 132, 133, 134, 135, 136, 137, 138, 139, 140, 141, 142, 143, 144, 145, 146, 147, 148, 149, 150, 151, 152, 153, 154, 155, 156, 157, 158, 159, 160, 161, 162, 163, 164, 165, 166, 167, 168, 169, 170, 171, 172, 173, 174, 175, 176, 177, 178, 179, 180, 181, 182, 183, 184, 185, 186, 187, 188, 189, 190, 191, 192, 193, 194, 195, 196, 197, 198, 199, 200],
      "AcquisitionTime": ["100520.475000", "100522.475000", "100524.475000", "100526.475000", "100528.475000", "100530.475000", "100532.475000", "100534.475000", "100536.475000", "100538.475000", "100540.475000", "100542.475000", "100544.475000", "100546.475000", "100548.475000", "100550.475000", "100552.475000", "100554.475000", "100556.475000", "100558.475000", "100600.475000", "100602.475000", "100604.475000", "100606.475000", "100608.475000", "100610.475000", "100612.475000", "100614.475000", "100616.475000", "100618.475000", "100620.475000", "100622.475000", "100624.475000", "100626.475000", "100628.475000", "100630.475000", "100632.475000", "100634.475000", "100636.475000", "100638.475000", "100640.475000", "100642.475000", "100644.475000", "100646.475000", "100648.475000", "100650.475000", "100652.475000", "100654.475000", "100656.475000", "100658.475000", "100700.475000", "100702.475000", "100704.475000", "100706.475000", "100708.475000", "100710.475000", "100712.475000", "100714.475000", "100716.475000", "100718.475000", "100720.475000", "100722.475000", "100724.475000", "100726.475000", "100728.475000", "100730.475000", "100732.475000", "100734.475000", "100736.475000", "100738.475000", "100740.475000", "100742.475000", "100744.475000", "100746.475000", "100748.475000", "100750.475000", "100752.475000", "100754.475000", "100756.475000", "100758.475000", "100800.475000", "100802.475000", "100804.475000", "100806.475000", "100808.475000", "100810.475000", "100812.475000", "100814.475000", "100816.475000", "100818.475000", "100820.475000", "100822.475000", "100824.475000", "100826.475000", "100828.475000", "100830.475000", "100832.475000", "100834.475000", "100836.475000", "100838.475000", "100840.475000", "100842.475000", "100844.475000", "100846.475000", "100848.475000", "100850.475000", "100852.475000", "100854.475000", "100856.475000", "100858.475000", "100900.475000", "100902.475000", "100904.475000", "100906.475000", "100908.475000", "100910.475000", "100912.475000", "100914.475000", "100916.475000", "100918.475000", "100920.475000", "100922.475000", "100924.475000", "100926.475000", "100928.475000", "100930.475000", "100932.475000", "100934.475000", "100936.475000", "100938.475000", "100940.475000", "100942.475000", "100944.475000", "100946.475000", "100948.475000", "100950.475000", "100952.475000", "100954.475000", "100956.475000", "100958.475000", "101000.475000", "101002.475000", "101004.475000", "101006.475000", "101008.475000", "101010.475000", "101012.475000", "101014.475000", "101016.475000", "101018.475000", "101020.475000", "101022.475000", "101024.475000", "101026.475000", "101028.475000", "101030.475000", "101032.475000", "101034.475000", "101036.475000", "101038.475000", "101040.475000", "101042.475000", "101044.475000", "101046.475000", "101048.475000", "101050.475000", "101052.475000", "101054.475000", "101056.475000", "101058.475000", "101100.475000", "101102.475000", "101104.475000", "101106.475000", "101108.475000", "101110.475000", "101112.475000", "101114.475000", "101116.475000", "101118.475000", "101120.475000", "101122.475000", "101124.475000", "101126.475000", "101128.475000", "101130.475000", "101132.475000", "101134.475000", "101136.475000", "101138.475000", "101140.475000", "101142.475000", "101144.475000", "101146.475000", "101148.475000", "101150.475000", "101152.475000", "101154.475000", "101156.475000", "101158.475000"],
      "ContentTime": ["100601.834000", "100601.837000", "100601.839000", "100601.842000", "100601.844000", "100601.846000", "100601.849000", "100601.851000", "100601.853000", "100601.855000", "100601.858000", "100601.868000", "100601.870000", "100601.872000", "100601.874000", "100601.877000", "100601.879000", "100601.881000", "100601.884000", "100601.886000", "100641.830000", "100641.833000", "100641.835000", "100641.838000", "100641.840000", "100641.842000", "100641.845000", "100641.857000", "100641.859000", "100641.862000", "100641.864000", "100641.866000", "100641.869000", "100641.871000", "100641.873000", "100641.876000", "100641.878000", "100641.880000", "100641.883000", "100641.885000", "100721.830000", "100721.833000", "100721.835000", "100721.837000", "100721.845000", "100721.847000", "100721.849000", "100721.851000", "100721.854000", "100721.856000", "100721.858000", "100721.861000", "100721.863000", "100721.865000", "100721.868000", "100721.870000", "100721.872000", "100721.874000", "100721.877000", "100721.879000", "100801.829000", "100801.832000", "100801.834000", "100801.837000", "100801.839000", "100801.841000", "100801.844000", "100801.846000", "100801.848000", "100801.851000", "100801.853000", "100801.855000", "100801.858000", "100801.860000", "100801.862000", "100801.864000", "100801.867000", "100801.869000", "100801.871000", "100801.874000", "100841.829000", "100841.832000", "100841.834000", "100841.837000", "100841.839000", "100841.841000", "100841.843000", "100841.846000", "100841.848000", "100841.850000", "100841.853000", "100841.855000", "100841.857000", "100841.859000", "100841.862000", "100841.864000", "100841.866000", "100841.868000", "100841.871000", "100841.873000", "100921.830000", "100921.833000", "100921.835000", "100921.837000", "100921.840000", "100921.842000", "100921.844000", "100921.846000", "100921.849000", "100921.851000", "100921.853000", "100921.856000", "100921.858000", "100921.860000", "100921.863000", "100921.865000", "100921.867000", "100921.870000", "100921.872000", "100921.874000", "101001.830000", "101001.833000", "101001.835000", "101001.837000", "101001.840000", "101001.842000", "101001.844000", "101001.847000", "101001.849000", "101001.851000", "101001.854000", "101001.856000", "101001.858000", "101001.861000", "101001.863000", "101001.865000", "101001.868000", "101001.870000", "101001.872000", "101001.875000", "101041.829000", "101041.832000", "101041.834000", "101041.837000", "101041.839000", "101041.841000", "101041.844000", "101041.846000", "101041.848000", "101041.851000", "101041.853000", "101041.855000", "101041.858000", "101041.860000", "101041.862000", "101041.865000", "101041.867000", "101041.869000", "101041.872000", "101041.874000", "101121.830000", "101121.833000", "101121.835000", "101121.837000", "101121.840000", "101121.842000", "101121.844000", "101121.847000", "101121.849000", "101121.851000", "101121.854000", "101121.856000", "101121.858000", "101121.860000", "101121.863000", "101121.865000", "101121.867000", "101121.870000", "101121.872000", "101121.874000", "101159.940000", "101159.943000", "101159.945000", "101159.948000", "101159.950000", "101159.952000", "101159.955000", "101159.957000", "101159.960000", "101159.962000", "101159.964000", "101159.967000", "101159.969000", "101159.972000", "101159.977000", "101159.980000", "101159.983000", "101159.985000", "101159.988000", "101159.991000"],
      "InstanceCreationTime": ["100601.834000", "100601.837000", "100601.839000", "100601.842000", "100601.844000", "100601.846000", "100601.849000", "100601.851000", "100601.853000", "100601.855000", "100601.858000", "100601.868000", "100601.870000", "100601.872000", "100601.874000", "100601.877000", "100601.879000", "100601.881000", "100601.884000", "100601.886000", "100641.830000", "100641.833000", "100641.835000", "100641.838000", "100641.840000", "100641.842000", "100641.845000", "100641.857000", "100641.859000", "100641.862000", "100641.864000", "100641.866000", "100641.869000", "100641.871000", "100641.873000", "100641.876000", "100641.878000", "100641.880000", "100641.883000", "100641.885000", "100721.830000", "100721.833000", "100721.835000", "100721.837000", "100721.845000", "100721.847000", "100721.849000", "100721.851000", "100721.854000", "100721.856000", "100721.858000", "100721.861000", "100721.863000", "100721.865000", "100721.868000", "100721.870000", "100721.872000", "100721.874000", "100721.877000", "100721.879000", "100801.829000", "100801.832000", "100801.834000", "100801.837000", "100801.839000", "100801.841000", "100801.844000", "100801.846000", "100801.848000", "100801.851000", "100801.853000", "100801.855000", "100801.858000", "100801.860000", "100801.862000", "100801.864000", "100801.867000", "100801.869000", "100801.871000", "100801.874000", "100841.829000", "100841.832000", "100841.834000", "100841.837000", "100841.839000", "100841.841000", "100841.843000", "100841.846000", "100841.848000", "100841.850000", "100841.853000", "100841.855000", "100841.857000", "100841.859000", "100841.862000", "100841.864000", "100841.866000", "100841.868000", "100841.871000", "100841.873000", "100921.830000", "100921.833000", "100921.835000", "100921.837000", "100921.840000", "100921.842000", "100921.844000", "100921.846000", "100921.849000", "100921.851000", "100921.853000", "100921.856000", "100921.858000", "100921.860000", "100921.863000", "100921.865000", "100921.867000", "100921.870000", "100921.872000", "100921.874000", "101001.830000", "101001.833000", "101001.835000", "101001.837000", "101001.840000", "101001.842000", "101001.844000", "101001.847000", "101001.849000", "101001.851000", "101001.854000", "101001.856000", "101001.858000", "101001.861000", "101001.863000", "101001.865000", "101001.868000", "101001.870000", "101001.872000", "101001.875000", "101041.829000", "101041.832000", "101041.834000", "101041.837000", "101041.839000", "101041.841000", "101041.844000", "101041.846000", "101041.848000", "101041.851000", "101041.853000", "101041.855000", "101041.858000", "101041.860000", "101041.862000", "101041.865000", "101041.867000", "101041.869000", "101041.872000", "101041.874000", "101121.830000", "101121.833000", "101121.835000", "101121.837000", "101121.840000", "101121.842000", "101121.844000", "101121.847000", "101121.849000", "101121.851000", "101121.854000", "101121.856000", "101121.858000", "101121.860000", "101121.863000", "101121.865000", "101121.867000", "101121.870000", "101121.872000", "101121.874000", "101159.940000", "101159.943000", "101159.945000", "101159.948000", "101159.950000", "101159.952000", "101159.955000", "101159.957000", "101159.960000", "101159.962000", "101159.964000", "101159.967000", "101159.969000", "101159.972000", "101159.977000", "101159.980000", "101159.983000", "101159.985000", "101159.988000", "101159.991000"],
      "InstanceNumber": [1, 2, 3, 4, 5, 6, 7, 8, 9, 10, 11, 12, 13, 14, 15, 16, 17, 18, 19, 20, 21, 22, 23, 24, 25, 26, 27, 28, 29, 30, 31, 32, 33, 34, 35, 36, 37, 38, 39, 40, 41, 42, 43, 44, 45, 46, 47, 48, 49, 50, 51, 52, 53, 54, 55, 56, 57, 58, 59, 60, 61, 62, 63, 64, 65, 66, 67, 68, 69, 70, 71, 72, 73, 74, 75, 76, 77, 78, 79, 80, 81, 82, 83, 84, 85, 86, 87, 88, 89, 90, 91, 92, 93, 94, 95, 96, 97, 98, 99, 100, 101, 102, 103, 104, 105, 106, 107, 108, 109, 110, 111, 112, 113, 114, 115, 116, 117, 118, 119, 120, 121, 122, 123, 124, 125, 126, 127, 128, 129, 130, 131, 132, 133, 134, 135, 136, 137, 138, 139, 140, 141, 142, 143, 144, 145, 146, 147, 148, 149, 150, 151, 152, 153, 154, 155, 156, 157, 158, 159, 160, 161, 162, 163, 164, 165, 166, 167, 168, 169, 170, 171, 172, 173, 174, 175, 176, 177, 178, 179, 180, 181, 182, 183, 184, 185, 186, 187, 188, 189, 190, 191, 192, 193, 194, 195, 196, 197, 198, 199, 200],
      "LargestImagePixelValue": [627, 630, 630, 627, 630, 635, 631, 630, 629, 634, 637, 631, 627, 627, 631, 632, 627, 630, 630, 627, 627, 628, 627, 627, 623, 631, 622, 627, 630, 628, 626, 628, 630, 630, 630, 626, 628, 626, 634, 630, 630, 633, 631, 629, 628, 627, 632, 627, 630, 632, 629, 624, 628, 626, 627, 631, 629, 628, 625, 624, 628, 630, 627, 627, 631, 627, 629, 633, 628, 628, 628, 628, 627, 627, 628, 632, 634, 629, 627, 632, 627, 626, 630, 631, 627, 630, 626, 627, 626, 628, 625, 631, 632, 625, 623, 625, 631, 626, 632, 627, 628, 633, 630, 630, 631, 626, 631, 628, 628, 633, 632, 630, 632, 630, 628, 629, 630, 630, 630, 626, 623, 630, 627, 627, 628, 627, 630, 625, 625, 626, 628, 627, 629, 629, 631, 630, 628, 630, 628, 629, 632, 628, 625, 632, 634, 628, 631, 629, 632, 631, 630, 626, 626, 627, 630, 628, 626, 626, 629, 627, 626, 629, 628, 629, 629, 627, 628, 631, 630, 627, 626, 633, 629, 629, 630, 629, 627, 633, 630, 631, 629, 629, 625, 624, 631, 625, 633, 630, 629, 625, 625, 626, 624, 625, 622, 630, 629, 626, 629, 625],
      "WindowCenter": [452.0, 453.0, 453.0, 452.0, 453.0, 453.0, 453.0, 453.0, 452.0, 453.0, 453.0, 453.0, 452.0, 452.0, 453.0, 453.0, 452.0, 453.0, 453.0, 452.0, 452.0, 452.0, 452.0, 452.0, 452.0, 453.0, 452.0, 452.0, 453.0, 452.0, 452.0, 452.0, 453.0, 453.0, 453.0, 452.0, 452.0, 452.0, 453.0, 453.0, 452.0, 453.0, 453.0, 452.0, 452.0, 452.0, 453.0, 452.0, 453.0, 453.0, 452.0, 452.0, 452.0, 452.0, 452.0, 453.0, 452.0, 452.0, 452.0, 452.0, 452.0, 453.0, 452.0, 452.0, 453.0, 452.0, 452.0, 453.0, 451.0, 451.0, 451.0, 451.0, 451.0, 451.0, 451.0, 452.0, 452.0, 451.0, 451.0, 453.0, 452.0, 452.0, 453.0, 453.0, 452.0, 453.0, 452.0, 452.0, 452.0, 452.0, 452.0, 453.0, 453.0, 452.0, 452.0, 451.0, 453.0, 451.0, 452.0, 451.0, 451.0, 452.0, 452.0, 452.0, 452.0, 451.0, 452.0, 451.0, 451.0, 452.0, 452.0, 452.0, 452.0, 452.0, 451.0, 451.0, 452.0, 452.0, 452.0, 451.0, 451.0, 453.0, 451.0, 451.0, 451.0, 451.0, 452.0, 451.0, 451.0, 451.0, 451.0, 451.0, 451.0, 451.0, 452.0, 452.0, 451.0, 452.0, 451.0, 451.0, 452.0, 451.0, 451.0, 452.0, 452.0, 451.0, 452.0, 451.0, 452.0, 452.0, 452.0, 451.0, 451.0, 451.0, 452.0, 451.0, 451.0, 451.0, 451.0, 451.0, 451.0, 451.0, 451.0, 451.0, 451.0, 451.0, 451.0, 452.0, 452.0, 451.0, 451.0, 452.0, 451.0, 451.0, 452.0, 451.0, 451.0, 452.0, 452.0, 452.0, 451.0, 451.0, 451.0, 451.0, 452.0, 451.0, 452.0, 452.0, 451.0, 451.0, 451.0, 451.0, 451.0, 451.0, 451.0, 452.0, 451.0, 451.0, 451.0, 451.0],
      "WindowWidth": [941.0, 942.0, 942.0, 941.0, 942.0, 942.0, 942.0, 942.0, 941.0, 942.0, 942.0, 942.0, 941.0, 941.0, 942.0, 942.0, 941.0, 942.0, 942.0, 941.0, 941.0, 941.0, 941.0, 942.0, 941.0, 943.0, 941.0, 941.0, 942.0, 941.0, 941.0, 941.0, 942.0, 942.0, 942.0, 940.0, 940.0, 940.0, 942.0, 942.0, 941.0, 942.0, 942.0, 940.0, 940.0, 940.0, 942.0, 941.0, 942.0, 942.0, 941.0, 941.0, 941.0, 941.0, 941.0, 942.0, 941.0, 941.0, 941.0, 941.0, 941.0, 942.0, 941.0, 940.0, 942.0, 940.0, 940.0, 942.0, 940.0, 940.0, 940.0, 940.0, 939.0, 940.0, 940.0, 942.0, 941.0, 940.0, 940.0, 942.0, 940.0, 940.0, 942.0, 942.0, 940.0, 942.0, 940.0, 940.0, 940.0, 940.0, 940.0, 942.0, 942.0, 940.0, 940.0, 940.0, 942.0, 940.0, 942.0, 940.0, 939.0, 941.0, 941.0, 941.0, 941.0, 939.0, 941.0, 940.0, 939.0, 941.0, 941.0, 941.0, 941.0, 941.0, 940.0, 939.0, 941.0, 941.0, 942.0, 940.0, 940.0, 942.0, 940.0, 940.0, 940.0, 940.0, 942.0, 940.0, 940.0, 940.0, 940.0, 939.0, 940.0, 939.0, 941.0, 940.0, 939.0, 940.0, 939.0, 939.0, 940.0, 939.0, 939.0, 940.0, 940.0, 939.0, 941.0, 940.0, 941.0, 941.0, 941.0, 939.0, 940.0, 939.0, 942.0, 940.0, 940.0, 939.0, 939.0, 939.0, 939.0, 939.0, 939.0, 939.0, 940.0, 939.0, 939.0, 940.0, 940.0, 939.0, 939.0, 940.0, 939.0, 939.0, 940.0, 939.0, 939.0, 940.0, 940.0, 940.0, 939.0, 939.0, 939.0, 939.0, 941.0, 939.0, 941.0, 941.0, 939.0, 940.0, 939.0, 939.0, 939.0, 939.0, 939.0, 940.0, 939.0, 939.0, 939.0, 939.0]
    },
    "slices": {}
  }
}