{
  "AcquisitionMatrixPE": 122,
  "AcquisitionNumber": 1,
  "AcquisitionTime": "10:34:27.192500",
  "BandwidthPerPixelPhaseEncode": 28.76,
  "BaseResolution": 122,
  "BodyPartExamined": "BRAIN",
  "CoilCombinationMethod": "Adaptive Combine",
  "ConsistencyInfo": "N4_VE11C_LATEST_20160120",
  "ConversionSoftware": "dcm2niix",
  "ConversionSoftwareVersion": "v1.0.20220720",
  "DerivedVendorReportedEchoSpacing": 0.000570008,
  "DeviceSerialNumber": "66112",
  "DiffusionScheme": "Monopolar",
  "DwellTime": 2e-06,
  "EchoTime": 0.075,
  "EchoTrainLength": 61,
  "EffectiveEchoSpacing": 0.000285004,
  "FlipAngle": 90,
  "HeudiconvVersion": "0.13.1",
  "ImageOrientationPatientDICOM": [0.999972, 0.00610326, 0.00444025, -0.00715578, 0.953722, 0.300604],
  "ImageOrientationText": "Tra>Cor(17.5)>Sag(0.1)",
  "ImageType": [
    "ORIGINAL",
    "PRIMARY",
    "DIFFUSION",
    "NONE",
    "ND",
    "NORM"
],
  "ImagingFrequency": 123.252,
  "InPlanePhaseEncodingDirectionDICOM": "COL",
  "InstitutionAddress": "Maynard 3,Hanover,NH,US,03755",
  "InstitutionName": "Dartmouth College - PBS",
  "InstitutionalDepartmentName": "Department",
  "MRAcquisitionType": "2D",
  "MagneticFieldStrength": 3,
  "Manufacturer": "Siemens",
  "ManufacturersModelName": "Prisma",
  "MatrixCoilMode": "GRAPPA",
  "Modality": "MR",
  "NonlinearGradientCorrection": false,
  "ParallelReductionFactorInPlane": 2,
  "PartialFourier": 1,
  "PatientPosition": "HFS",
  "PercentPhaseFOV": 100,
  "PercentSampling": 100,
  "PhaseEncodingDirection": "j-",
  "PhaseEncodingSteps": 122,
  "PhaseResolution": 1,
  "PixelBandwidth": 2050,
  "ProcedureStepDescription": "dbic^QA",
  "ProtocolName": "dwi_acq-DTI-30-p2",
  "PulseSequenceDetails": "%SiemensSeq%\\ep2d_diff",
  "ReceiveCoilActiveElements": "HEA;HEP",
  "ReceiveCoilName": "Head_32",
  "ReconMatrixPE": 122,
  "RefLinesPE": 38,
  "RepetitionTime": 7.7,
  "SAR": 0.102036,
  "ScanOptions": "FS",
  "ScanningSequence": "EP",
  "SequenceName": "*ep_b0",
  "SequenceVariant": "SK\\SP",
  "SeriesDescription": "dwi_acq-DTI-30-p2",
  "SeriesNumber": 12,
  "ShimSetting": [4147, -7704, -7506, 479, -114, -227, -66, 144],
  "SliceThickness": 2,
  "SliceTiming": [3.84375, 0, 3.95312, 0.10938, 4.0625, 0.21875, 4.17188, 0.32812, 4.28125, 0.4375, 4.39062, 0.54688, 4.5, 0.65625, 4.60938, 0.76562, 4.71875, 0.875, 4.82812, 0.99219, 4.9375, 1.10156, 5.04688, 1.21094, 5.15625, 1.32031, 5.26562, 1.42969, 5.375, 1.53906, 5.48438, 1.64844, 5.59375, 1.75781, 5.70312, 1.86719, 5.8125, 1.97656, 5.92969, 2.08594, 6.03906, 2.19531, 6.14062, 2.30469, 6.25, 2.41406, 6.36719, 2.52344, 6.47656, 2.63281, 6.58594, 2.74219, 6.69531, 2.85156, 6.80469, 2.96094, 6.91406, 3.07031, 7.02344, 3.17969, 7.13281, 3.29688, 7.24219, 3.39844, 7.35156, 3.50781, 7.46094, 3.61719, 7.57031, 3.73438],
  "SoftwareVersions": "syngo MR E11",
  "SpacingBetweenSlices": 2,
  "SpoilingState": true,
  "StationName": "AWP66112",
  "TotalReadoutTime": 0.0344855,
  "TxRefAmp": 231.956,
  "dcmmeta_affine": [
    [-1.9671571254730225, -0.01407693699002266, 0.004800200462341309, 121.40483856201172],
    [-0.012006418779492378, 1.8761749267578125, 0.6012554168701172, -126.57538604736328],
    [0.008734909817576408, -0.5913519263267517, 1.9074821472167969, -32.08211135864258],
    [0.0, 0.0, 0.0, 1.0]
],
  "dcmmeta_reorient_transform": [
    [0.0, -1.0, 0.0, 121.0],
    [1.0, 0.0, 0.0, 0.0],
    [0.0, 0.0, -1.0, 69.0],
    [0.0, 0.0, 0.0, 1.0]
],
  "dcmmeta_shape": [122, 122, 70, 31],
  "dcmmeta_slice_dim": 2,
  "dcmmeta_version": 0.6,
  "global": {
    "const": {
      "AccessionNumber": "qa",
      "AcquisitionMatrix": [122, 0, 0, 122],
      "AngioFlag": "N",
      "BitsAllocated": 16,
      "BitsStored": 12,
      "BodyPartExamined": "BRAIN",
      "Columns": 122,
      "EchoNumbers": 1,
      "EchoTime": 75.0,
      "EchoTrainLength": 61,
      "FlipAngle": 90.0,
      "HighBit": 11,
      "ImageOrientationPatient": [0.99997151679581, 0.00610326271094, 0.00444024564197, -0.0071557762701, 0.95372223197687, 0.30060389069177],
      "ImageType": [
        "ORIGINAL",
        "PRIMARY",
        "DIFFUSION",
        "NONE",
        "ND",
        "NORM"
],
      "ImagedNucleus": "1H",
      "ImagingFrequency": 123.252432,
      "InPlanePhaseEncodingDirection": "COL",
      "MRAcquisitionType": "2D",
      "MagneticFieldStrength": 3.0,
      "Manufacturer": "SIEMENS",
      "ManufacturerModelName": "Prisma",
      "Modality": "MR",
      "NumberOfAverages": 1.0,
      "NumberOfPhaseEncodingSteps": 122,
      "PercentPhaseFieldOfView": 100.0,
      "PercentSampling": 100.0,
      "PerformedProcedureStepStartTime": "100511.935000",
      "PhotometricInterpretation": "MONOCHROME2",
      "PixelBandwidth": 2050.0,
      "PixelRepresentation": 0,
      "PixelSpacing": [1.9672131538391, 1.9672131538391],
      "ProtocolName": "dwi_acq-DTI-30-p2",
      "RepetitionTime": 7700.0,
      "Rows": 122,
      "SAR": 0.10203594955072,
      "SamplesPerPixel": 1,
      "ScanOptions": "FS",
      "ScanningSequence": "EP",
      "SequenceVariant": [
        "SK",
        "SP"
],
      "SeriesDescription": "dwi_acq-DTI-30-p2",
      "SeriesNumber": 12,
      "SeriesTime": "103431.855000",
      "SliceThickness": 2.0,
      "SmallestImagePixelValue": 0,
      "SoftwareVersions": "syngo MR E11",
      "SpacingBetweenSlices": 2.0,
      "SpecificCharacterSet": "ISO_IR 100",
      "StudyID": "111",
      "StudyTime": "100511.849000",
      "TransmitCoilName": "Body",
      "VariableFlipAngleFlag": "N",
      "WindowCenterWidthExplanation": "Algo1",
      "dBdt": 0.0},
    "slices": {
      "AcquisitionTime": ["103427.192500", "103423.352500", "103427.302500", "103423.462500", "103427.412500", "103423.572500", "103427.522500", "103423.682500", "103427.630000", "103423.792500", "103427.740000", "103423.900000", "103427.850000", "103424.010000", "103427.960000", "103424.120000", "103428.070000", "103424.230000", "103428.180000", "103424.340000", "103428.290000", "103424.450000", "103428.400000", "103424.560000", "103428.510000", "103424.670000", "103428.617500", "103424.777500", "103428.727500", "103424.887500", "103428.837500", "103424.997500", "103428.947500", "103425.107500", "103429.057500", "103425.217500", "103429.167500", "103425.327500", "103429.277500", "103425.437500", "103429.387500", "103425.547500", "103429.495000", "103425.657500", "103429.605000", "103425.765000", "103429.715000", "103425.875000", "103429.825000", "103425.985000", "103429.935000", "103426.095000", "103430.045000", "103426.205000", "103430.155000", "103426.315000", "103430.265000", "103426.425000", "103430.375000", "103426.535000", "103430.482500", "103426.645000", "103430.592500", "103426.752500", "103430.702500", "103426.862500", "103430.812500", "103426.972500", "103430.922500", "103427.082500", "103434.892500", "103431.052500", "103435.002500", "103431.162500", "103435.112500", "103431.272500", "103435.222500", "103431.382500", "103435.330000", "103431.492500", "103435.440000", "103431.600000", "103435.550000", "103431.710000", "103435.660000", "103431.820000", "103435.770000", "103431.930000", "103435.880000", "103432.040000", "103435.990000", "103432.150000", "103436.100000", "103432.260000", "103436.210000", "103432.370000", "103436.317500", "103432.477500", "103436.427500", "103432.587500", "103436.537500", "103432.697500", "103436.647500", "103432.807500", "103436.757500", "103432.917500", "103436.867500", "103433.027500", "103436.977500", "103433.137500", "103437.087500", "103433.247500", "103437.195000", "103433.357500", "103437.305000", "103433.465000", "103437.415000", "103433.575000", "103437.525000", "103433.685000", "103437.635000", "103433.795000", "103437.745000", "103433.905000", "103437.855000", "103434.015000", "103437.965000", "103434.125000", "103438.075000", "103434.235000", "103438.182500", "103434.345000", "103438.292500", "103434.452500", "103438.402500", "103434.562500", "103438.512500", "103434.672500", "103438.622500", "103434.782500", "103442.592500", "103438.752500", "103442.702500", "103438.862500", "103442.812500", "103438.972500", "103442.922500", "103439.082500", "103443.030000", "103439.192500", "103443.140000", "103439.300000", "103443.250000", "103439.410000", "103443.360000", "103439.520000", "103443.470000", "103439.630000", "103443.580000", "103439.740000", "103443.690000", "103439.850000", "103443.800000", "103439.960000", "103443.910000", "103440.070000", "103444.017500", "103440.177500", "103444.127500", "103440.287500", "103444.237500", "103440.397500", "103444.347500", "103440.507500", "103444.457500", "103440.617500", "103444.567500", "103440.727500", "103444.677500", "103440.837500", "103444.787500", "103440.947500", "103444.895000", "103441.057500", "103445.005000", "103441.165000", "103445.115000", "103441.275000", "103445.225000", "103441.385000", "103445.335000", "103441.495000", "103445.445000", "103441.605000", "103445.555000", "103441.715000", "103445.665000", "103441.825000", "103445.775000", "103441.935000", "103445.882500", "103442.045000", "103445.992500", "103442.152500", "103446.102500", "103442.262500", "103446.212500", "103442.372500", "103446.322500", "103442.482500", "103450.292500", "103446.452500", "103450.402500", "103446.562500", "103450.512500", "103446.672500", "103450.622500", "103446.782500", "103450.730000", "103446.892500", "103450.840000", "103447.000000", "103450.950000", "103447.110000", "103451.060000", "103447.220000", "103451.170000", "103447.330000", "103451.280000", "103447.440000", "103451.390000", "103447.550000", "103451.500000", "103447.660000", "103451.610000", "103447.770000", "103451.717500", "103447.877500", "103451.827500", "103447.987500", "103451.937500", "103448.097500", "103452.047500", "103448.207500", "103452.157500", "103448.317500", "103452.267500", "103448.427500", "103452.377500", "103448.537500", "103452.487500", "103448.647500", "103452.595000", "103448.757500", "103452.705000", "103448.865000", "103452.815000", "103448.975000", "103452.925000", "103449.085000", "103453.035000", "103449.195000", "103453.145000", "103449.305000", "103453.255000", "103449.415000", "103453.365000", "103449.525000", "103453.475000", "103449.635000", "103453.582500", "103449.745000", "103453.692500", "103449.852500", "103453.802500", "103449.962500", "103453.912500", "103450.072500", "103454.022500", "103450.182500", "103457.992500", "103454.152500", "103458.102500", "103454.262500", "103458.212500", "103454.372500", "103458.322500", "103454.482500", "103458.430000", "103454.592500", "103458.540000", "103454.700000", "103458.650000", "103454.810000", "103458.760000", "103454.920000", "103458.870000", "103455.030000", "103458.980000", "103455.140000", "103459.090000", "103455.250000", "103459.200000", "103455.360000", "103459.310000", "103455.470000", "103459.417500", "103455.577500", "103459.527500", "103455.687500", "103459.637500", "103455.797500", "103459.747500", "103455.907500", "103459.857500", "103456.017500", "103459.967500", "103456.127500", "103500.077500", "103456.237500", "103500.187500", "103456.347500", "103500.295000", "103456.457500", "103500.405000", "103456.565000", "103500.515000", "103456.675000", "103500.625000", "103456.785000", "103500.735000", "103456.895000", "103500.845000", "103457.005000", "103500.955000", "103457.115000", "103501.065000", "103457.225000", "103501.175000", "103457.335000", "103501.282500", "103457.445000", "103501.392500", "103457.552500", "103501.502500", "103457.662500", "103501.612500", "103457.772500", "103501.722500", "103457.882500", "103505.692500", "103501.852500", "103505.802500", "103501.962500", "103505.912500", "103502.072500", "103506.022500", "103502.182500", "103506.130000", "103502.292500", "103506.240000", "103502.400000", "103506.350000", "103502.510000", "103506.460000", "103502.620000", "103506.570000", "103502.730000", "103506.680000", "103502.840000", "103506.790000", "103502.950000", "103506.900000", "103503.060000", "103507.010000", "103503.170000", "103507.117500", "103503.277500", "103507.227500", "103503.387500", "103507.337500", "103503.497500", "103507.447500", "103503.607500", "103507.557500", "103503.717500", "103507.667500", "103503.827500", "103507.777500", "103503.937500", "103507.887500", "103504.047500", "103507.995000", "103504.157500", "103508.105000", "103504.265000", "103508.215000", "103504.375000", "103508.325000", "103504.485000", "103508.435000", "103504.595000", "103508.545000", "103504.705000", "103508.655000", "103504.815000", "103508.765000", "103504.925000", "103508.875000", "103505.035000", "103508.982500", "103505.145000", "103509.092500", "103505.252500", "103509.202500", "103505.362500", "103509.312500", "103505.472500", "103509.422500", "103505.582500", "103513.392500", "103509.552500", "103513.502500", "103509.662500", "103513.612500", "103509.772500", "103513.722500", "103509.882500", "103513.830000", "103509.992500", "103513.940000", "103510.100000", "103514.050000", "103510.210000", "103514.160000", "103510.320000", "103514.270000", "103510.430000", "103514.380000", "103510.540000", "103514.490000", "103510.650000", "103514.600000", "103510.760000", "103514.710000", "103510.870000", "103514.817500", "103510.977500", "103514.927500", "103511.087500", "103515.037500", "103511.197500", "103515.147500", "103511.307500", "103515.257500", "103511.417500", "103515.367500", "103511.527500", "103515.477500", "103511.637500", "103515.587500", "103511.747500", "103515.695000", "103511.857500", "103515.805000", "103511.965000", "103515.915000", "103512.075000", "103516.025000", "103512.185000", "103516.135000", "103512.295000", "103516.245000", "103512.405000", "103516.355000", "103512.515000", "103516.465000", "103512.625000", "103516.575000", "103512.735000", "103516.682500", "103512.845000", "103516.792500", "103512.952500", "103516.902500", "103513.062500", "103517.012500", "103513.172500", "103517.122500", "103513.282500", "103521.092500", "103517.252500", "103521.202500", "103517.362500", "103521.312500", "103517.472500", "103521.422500", "103517.582500", "103521.530000", "103517.692500", "103521.640000", "103517.800000", "103521.750000", "103517.910000", "103521.860000", "103518.020000", "103521.970000", "103518.130000", "103522.080000", "103518.240000", "103522.190000", "103518.350000", "103522.300000", "103518.460000", "103522.410000", "103518.570000", "103522.517500", "103518.677500", "103522.627500", "103518.787500", "103522.737500", "103518.897500", "103522.847500", "103519.007500", "103522.957500", "103519.117500", "103523.067500", "103519.227500", "103523.177500", "103519.337500", "103523.287500", "103519.447500", "103523.395000", "103519.557500", "103523.505000", "103519.665000", "103523.615000", "103519.775000", "103523.725000", "103519.885000", "103523.835000", "103519.995000", "103523.945000", "103520.105000", "103524.055000", "103520.215000", "103524.165000", "103520.325000", "103524.275000", "103520.435000", "103524.382500", "103520.545000", "103524.492500", "103520.652500", "103524.602500", "103520.762500", "103524.712500", "103520.872500", "103524.822500", "103520.982500", "103528.792500", "103524.952500", "103528.902500", "103525.062500", "103529.012500", "103525.172500", "103529.122500", "103525.282500", "103529.230000", "103525.392500", "103529.340000", "103525.500000", "103529.450000", "103525.610000", "103529.560000", "103525.720000", "103529.670000", "103525.830000", "103529.780000", "103525.940000", "103529.890000", "103526.050000", "103530.000000", "103526.160000", "103530.110000", "103526.270000", "103530.217500", "103526.377500", "103530.327500", "103526.487500", "103530.437500", "103526.597500", "103530.547500", "103526.707500", "103530.657500", "103526.817500", "103530.767500", "103526.927500", "103530.877500", "103527.037500", "103530.987500", "103527.147500", "103531.095000", "103527.257500", "103531.205000", "103527.365000", "103531.315000", "103527.475000", "103531.425000", "103527.585000", "103531.535000", "103527.695000", "103531.645000", "103527.805000", "103531.755000", "103527.915000", "103531.865000", "103528.025000", "103531.975000", "103528.135000", "103532.082500", "103528.245000", "103532.192500", "103528.352500", "103532.302500", "103528.462500", "103532.412500", "103528.572500", "103532.522500", "103528.682500", "103536.492500", "103532.652500", "103536.602500", "103532.762500", "103536.712500", "103532.872500", "103536.822500", "103532.982500", "103536.930000", "103533.092500", "103537.040000", "103533.200000", "103537.150000", "103533.310000", "103537.260000", "103533.420000", "103537.370000", "103533.530000", "103537.480000", "103533.640000", "103537.590000", "103533.750000", "103537.700000", "103533.860000", "103537.810000", "103533.970000", "103537.917500", "103534.077500", "103538.027500", "103534.187500", "103538.137500", "103534.297500", "103538.247500", "103534.407500", "103538.357500", "103534.517500", "103538.467500", "103534.627500", "103538.577500", "103534.737500", "103538.687500", "103534.847500", "103538.795000", "103534.957500", "103538.905000", "103535.065000", "103539.015000", "103535.175000", "103539.125000", "103535.285000", "103539.235000", "103535.395000", "103539.345000", "103535.505000", "103539.455000", "103535.615000", "103539.565000", "103535.725000", "103539.675000", "103535.835000", "103539.782500", "103535.945000", "103539.892500", "103536.052500", "103540.002500", "103536.162500", "103540.112500", "103536.272500", "103540.222500", "103536.382500", "103544.192500", "103540.352500", "103544.302500", "103540.462500", "103544.412500", "103540.572500", "103544.522500", "103540.682500", "103544.630000", "103540.792500", "103544.740000", "103540.900000", "103544.850000", "103541.010000", "103544.960000", "103541.120000", "103545.070000", "103541.230000", "103545.180000", "103541.340000", "103545.290000", "103541.450000", "103545.400000", "103541.560000", "103545.510000", "103541.670000", "103545.617500", "103541.777500", "103545.727500", "103541.887500", "103545.837500", "103541.997500", "103545.947500", "103542.107500", "103546.057500", "103542.217500", "103546.167500", "103542.327500", "103546.277500", "103542.437500", "103546.387500", "103542.547500", "103546.495000", "103542.657500", "103546.605000", "103542.765000", "103546.715000", "103542.875000", "103546.825000", "103542.985000", "103546.935000", "103543.095000", "103547.045000", "103543.205000", "103547.155000", "103543.315000", "103547.265000", "103543.425000", "103547.375000", "103543.535000", "103547.482500", "103543.645000", "103547.592500", "103543.752500", "103547.702500", "103543.862500", "103547.812500", "103543.972500", "103547.922500", "103544.082500", "103551.892500", "103548.052500", "103552.002500", "103548.162500", "103552.112500", "103548.272500", "103552.222500", "103548.382500", "103552.330000", "103548.492500", "103552.440000", "103548.600000", "103552.550000", "103548.710000", "103552.660000", "103548.820000", "103552.770000", "103548.930000", "103552.880000", "103549.040000", "103552.990000", "103549.150000", "103553.100000", "103549.260000", "103553.210000", "103549.370000", "103553.317500", "103549.477500", "103553.427500", "103549.587500", "103553.537500", "103549.697500", "103553.647500", "103549.807500", "103553.757500", "103549.917500", "103553.867500", "103550.027500", "103553.977500", "103550.137500", "103554.087500", "103550.247500", "103554.195000", "103550.357500", "103554.305000", "103550.465000", "103554.415000", "103550.575000", "103554.525000", "103550.685000", "103554.635000", "103550.795000", "103554.745000", "103550.905000", "103554.855000", "103551.015000", "103554.965000", "103551.125000", "103555.075000", "103551.235000", "103555.182500", "103551.345000", "103555.292500", "103551.452500", "103555.402500", "103551.562500", "103555.512500", "103551.672500", "103555.622500", "103551.782500", "103559.592500", "103555.752500", "103559.702500", "103555.862500", "103559.812500", "103555.972500", "103559.922500", "103556.082500", "103600.030000", "103556.192500", "103600.140000", "103556.300000", "103600.250000", "103556.410000", "103600.360000", "103556.520000", "103600.470000", "103556.630000", "103600.580000", "103556.740000", "103600.690000", "103556.850000", "103600.800000", "103556.960000", "103600.910000", "103557.070000", "103601.017500", "103557.177500", "103601.127500", "103557.287500", "103601.237500", "103557.397500", "103601.347500", "103557.507500", "103601.457500", "103557.617500", "103601.567500", "103557.727500", "103601.677500", "103557.837500", "103601.787500", "103557.947500", "103601.895000", "103558.057500", "103602.005000", "103558.165000", "103602.115000", "103558.275000", "103602.225000", "103558.385000", "103602.335000", "103558.495000", "103602.445000", "103558.605000", "103602.555000", "103558.715000", "103602.665000", "103558.825000", "103602.775000", "103558.935000", "103602.882500", "103559.045000", "103602.992500", "103559.152500", "103603.102500", "103559.262500", "103603.212500", "103559.372500", "103603.322500", "103559.482500", "103607.292500", "103603.452500", "103607.402500", "103603.562500", "103607.512500", "103603.672500", "103607.622500", "103603.782500", "103607.730000", "103603.892500", "103607.840000", "103604.000000", "103607.950000", "103604.110000", "103608.060000", "103604.220000", "103608.170000", "103604.330000", "103608.280000", "103604.440000", "103608.390000", "103604.550000", "103608.500000", "103604.660000", "103608.610000", "103604.770000", "103608.717500", "103604.877500", "103608.827500", "103604.987500", "103608.937500", "103605.097500", "103609.047500", "103605.207500", "103609.157500", "103605.317500", "103609.267500", "103605.427500", "103609.377500", "103605.537500", "103609.487500", "103605.647500", "103609.595000", "103605.757500", "103609.705000", "103605.865000", "103609.815000", "103605.975000", "103609.925000", "103606.085000", "103610.035000", "103606.195000", "103610.145000", "103606.305000", "103610.255000", "103606.415000", "103610.365000", "103606.525000", "103610.475000", "103606.635000", "103610.582500", "103606.745000", "103610.692500", "103606.852500", "103610.802500", "103606.962500", "103610.912500", "103607.072500", "103611.022500", "103607.182500", "103614.992500", "103611.152500", "103615.102500", "103611.262500", "103615.212500", "103611.372500", "103615.322500", "103611.482500", "103615.430000", "103611.592500", "103615.540000", "103611.700000", "103615.650000", "103611.810000", "103615.760000", "103611.920000", "103615.870000", "103612.030000", "103615.980000", "103612.140000", "103616.090000", "103612.250000", "103616.200000", "103612.360000", "103616.310000", "103612.470000", "103616.417500", "103612.577500", "103616.527500", "103612.687500", "103616.637500", "103612.797500", "103616.747500", "103612.907500", "103616.857500", "103613.017500", "103616.967500", "103613.127500", "103617.077500", "103613.237500", "103617.187500", "103613.347500", "103617.295000", "103613.457500", "103617.405000", "103613.565000", "103617.515000", "103613.675000", "103617.625000", "103613.785000", "103617.735000", "103613.895000", "103617.845000", "103614.005000", "103617.955000", "103614.115000", "103618.065000", "103614.225000", "103618.175000", "103614.335000", "103618.282500", "103614.445000", "103618.392500", "103614.552500", "103618.502500", "103614.662500", "103618.612500", "103614.772500", "103618.722500", "103614.882500", "103622.692500", "103618.852500", "103622.802500", "103618.962500", "103622.912500", "103619.072500", "103623.022500", "103619.182500", "103623.130000", "103619.292500", "103623.240000", "103619.400000", "103623.350000", "103619.510000", "103623.460000", "103619.620000", "103623.570000", "103619.730000", "103623.680000", "103619.840000", "103623.790000", "103619.950000", "103623.900000", "103620.060000", "103624.010000", "103620.170000", "103624.117500", "103620.277500", "103624.227500", "103620.387500", "103624.337500", "103620.497500", "103624.447500", "103620.607500", "103624.557500", "103620.717500", "103624.667500", "103620.827500", "103624.777500", "103620.937500", "103624.887500", "103621.047500", "103624.995000", "103621.157500", "103625.105000", "103621.265000", "103625.215000", "103621.375000", "103625.325000", "103621.485000", "103625.435000", "103621.595000", "103625.545000", "103621.705000", "103625.655000", "103621.815000", "103625.765000", "103621.925000", "103625.875000", "103622.035000", "103625.982500", "103622.145000", "103626.092500", "103622.252500", "103626.202500", "103622.362500", "103626.312500", "103622.472500", "103626.422500", "103622.582500", "103630.392500", "103626.552500", "103630.502500", "103626.662500", "103630.612500", "103626.772500", "103630.722500", "103626.882500", "103630.830000", "103626.992500", "103630.940000", "103627.100000", "103631.050000", "103627.210000", "103631.160000", "103627.320000", "103631.270000", "103627.430000", "103631.380000", "103627.540000", "103631.490000", "103627.650000", "103631.600000", "103627.760000", "103631.710000", "103627.870000", "103631.817500", "103627.977500", "103631.927500", "103628.087500", "103632.037500", "103628.197500", "103632.147500", "103628.307500", "103632.257500", "103628.417500", "103632.367500", "103628.527500", "103632.477500", "103628.637500", "103632.587500", "103628.747500", "103632.695000", "103628.857500", "103632.805000", "103628.965000", "103632.915000", "103629.075000", "103633.025000", "103629.185000", "103633.135000", "103629.295000", "103633.245000", "103629.405000", "103633.355000", "103629.515000", "103633.465000", "103629.625000", "103633.575000", "103629.735000", "103633.682500", "103629.845000", "103633.792500", "103629.952500", "103633.902500", "103630.062500", "103634.012500", "103630.172500", "103634.122500", "103630.282500", "103638.092500", "103634.252500", "103638.202500", "103634.362500", "103638.312500", "103634.472500", "103638.422500", "103634.582500", "103638.530000", "103634.692500", "103638.640000", "103634.800000", "103638.750000", "103634.910000", "103638.860000", "103635.020000", "103638.970000", "103635.130000", "103639.080000", "103635.240000", "103639.190000", "103635.350000", "103639.300000", "103635.460000", "103639.410000", "103635.570000", "103639.517500", "103635.677500", "103639.627500", "103635.787500", "103639.737500", "103635.897500", "103639.847500", "103636.007500", "103639.957500", "103636.117500", "103640.067500", "103636.227500", "103640.177500", "103636.337500", "103640.287500", "103636.447500", "103640.395000", "103636.557500", "103640.505000", "103636.665000", "103640.615000", "103636.775000", "103640.725000", "103636.885000", "103640.835000", "103636.995000", "103640.945000", "103637.105000", "103641.055000", "103637.215000", "103641.165000", "103637.325000", "103641.275000", "103637.435000", "103641.382500", "103637.545000", "103641.492500", "103637.652500", "103641.602500", "103637.762500", "103641.712500", "103637.872500", "103641.822500", "103637.982500", "103645.792500", "103641.952500", "103645.902500", "103642.062500", "103646.012500", "103642.172500", "103646.122500", "103642.282500", "103646.230000", "103642.392500", "103646.340000", "103642.500000", "103646.450000", "103642.610000", "103646.560000", "103642.720000", "103646.670000", "103642.830000", "103646.780000", "103642.940000", "103646.890000", "103643.050000", "103647.000000", "103643.160000", "103647.110000", "103643.270000", "103647.217500", "103643.377500", "103647.327500", "103643.487500", "103647.437500", "103643.597500", "103647.547500", "103643.707500", "103647.657500", "103643.817500", "103647.767500", "103643.927500", "103647.877500", "103644.037500", "103647.987500", "103644.147500", "103648.095000", "103644.257500", "103648.205000", "103644.365000", "103648.315000", "103644.475000", "103648.425000", "103644.585000", "103648.535000", "103644.695000", "103648.645000", "103644.805000", "103648.755000", "103644.915000", "103648.865000", "103645.025000", "103648.975000", "103645.135000", "103649.082500", "103645.245000", "103649.192500", "103645.352500", "103649.302500", "103645.462500", "103649.412500", "103645.572500", "103649.522500", "103645.682500", "103653.492500", "103649.652500", "103653.602500", "103649.762500", "103653.712500", "103649.872500", "103653.822500", "103649.982500", "103653.930000", "103650.092500", "103654.040000", "103650.200000", "103654.150000", "103650.310000", "103654.260000", "103650.420000", "103654.370000", "103650.530000", "103654.480000", "103650.640000", "103654.590000", "103650.750000", "103654.700000", "103650.860000", "103654.810000", "103650.970000", "103654.917500", "103651.077500", "103655.027500", "103651.187500", "103655.137500", "103651.297500", "103655.247500", "103651.407500", "103655.357500", "103651.517500", "103655.467500", "103651.627500", "103655.577500", "103651.737500", "103655.687500", "103651.847500", "103655.795000", "103651.957500", "103655.905000", "103652.065000", "103656.015000", "103652.175000", "103656.125000", "103652.285000", "103656.235000", "103652.395000", "103656.345000", "103652.505000", "103656.455000", "103652.615000", "103656.565000", "103652.725000", "103656.675000", "103652.835000", "103656.782500", "103652.945000", "103656.892500", "103653.052500", "103657.002500", "103653.162500", "103657.112500", "103653.272500", "103657.222500", "103653.382500", "103701.192500", "103657.352500", "103701.302500", "103657.462500", "103701.412500", "103657.572500", "103701.522500", "103657.682500", "103701.630000", "103657.792500", "103701.740000", "103657.900000", "103701.850000", "103658.010000", "103701.960000", "103658.120000", "103702.070000", "103658.230000", "103702.180000", "103658.340000", "103702.290000", "103658.450000", "103702.400000", "103658.560000", "103702.510000", "103658.670000", "103702.617500", "103658.777500", "103702.727500", "103658.887500", "103702.837500", "103658.997500", "103702.947500", "103659.107500", "1