{
  "AcquisitionMatrixPE": 80,
  "AcquisitionNumber": 1,
  "AcquisitionTime": "09:25:27.522500",
  "BandwidthPerPixelPhaseEncode": 25,
  "BaseResolution": 80,
  "BodyPartExamined": "BRAIN",
  "CoilCombinationMethod": "Sum of Squares",
  "ConsistencyInfo": "N4_VE11C_LATEST_20160120",
  "ConversionSoftware": "dcm2niix",
  "ConversionSoftwareVersion": "v1.0.20220720",
  "DerivedVendorReportedEchoSpacing": 0.0005,
  "DeviceSerialNumber": "66112",
  "DwellTime": 2.7e-06,
  "EchoTime": 0.03,
  "EchoTrainLength": 80,
  "EffectiveEchoSpacing": 0.0005,
  "FlipAngle": 77,
  "HeudiconvVersion": "0.13.1",
  "ImageOrientationPatientDICOM": [0.983584, 0.180194, 0.00960286, -0.173787, 0.931594, 0.319265],
  "ImageOrientationText": "Tra>Cor(18.4)>Sag(-2.8)",
  "ImageType": [
    "ORIGINAL",
    "PRIMARY",
    "M",
    "ND",
    "NORM",
    "MOSAIC"
],
  "ImagingFrequency": 123.252,
  "InPlanePhaseEncodingDirectionDICOM": "COL",
  "InstitutionAddress": "Maynard 3,Hanover,NH,US,03755",
  "InstitutionName": "Dartmouth College - PBS",
  "InstitutionalDepartmentName": "Department",
  "MRAcquisitionType": "2D",
  "MagneticFieldStrength": 3,
  "Manufacturer": "Siemens",
  "ManufacturersModelName": "Prisma",
  "MatrixCoilMode": "SENSE",
  "Modality": "MR",
  "NonlinearGradientCorrection": false,
  "PartialFourier": 1,
  "PatientPosition": "HFS",
  "PercentPhaseFOV": 100,
  "PercentSampling": 100,
  "PhaseEncodingDirection": "j-",
  "PhaseEncodingSteps": 80,
  "PhaseResolution": 1,
  "PixelBandwidth": 2315,
  "ProcedureStepDescription": "dbic^QA",
  "ProtocolName": "func-bold_fa-77",
  "PulseSequenceDetails": "%SiemensSeq%\\ep2d_bold",
  "ReceiveCoilActiveElements": "HC1-7;NC1,2",
  "ReceiveCoilName": "HeadNeck_64",
  "ReconMatrixPE": 80,
  "RepetitionTime": 2,
  "SAR": 0.0322639,
  "ScanOptions": "FS",
  "ScanningSequence": "EP",
  "SequenceName": "*epfid2d1_80",
  "SequenceVariant": "SK",
  "SeriesDescription": "func-bold_fa-77",
  "SeriesNumber": 7,
  "ShimSetting": [4139, -7698, -7512, 173, -60, -184, -44, 92],
  "SliceThickness": 3.5,
  "SliceTiming": [0.99, 0, 1.055, 0.065, 1.1225, 0.1325, 1.1875, 0.1975, 1.255, 0.265, 1.32, 0.33, 1.385, 0.395, 1.4525, 0.4625, 1.5175, 0.5275, 1.585, 0.595, 1.65, 0.66, 1.715, 0.725, 1.7825, 0.7925, 1.8475, 0.8575, 1.915, 0.925],
  "SoftwareVersions": "syngo MR E11",
  "SpacingBetweenSlices": 3.99,
  "StationName": "AWP66112",
  "TotalReadoutTime": 0.0395,
  "TxRefAmp": 213.683,
  "dcmmeta_affine": [
    [-2.9507524967193604, -0.5213595628738403, -0.19384922087192535, 142.27688598632812],
    [-0.5405824184417725, 2.794782876968384, 1.2596156597137451, -91.43035888671875],
    [0.028808575123548508, -0.9577959179878235, 3.7809908390045166, -18.66543197631836],
    [0.0, 0.0, 0.0, 1.0]
],
  "dcmmeta_reorient_transform": [
    [0.0, -1.0, 0.0, 79.0],
    [1.0, 0.0, 0.0, 0.0],
    [0.0, 0.0, 1.0, 0.0],
    [0.0, 0.0, 0.0, 1.0]
],
  "dcmmeta_shape": [80, 80, 30, 200],
  "dcmmeta_slice_dim": 2,
  "dcmmeta_version": 0.6,
  "global": {
    "const": {
      "AccessionNumber": "qa64",
      "AcquisitionMatrix": [80, 0, 0, 80],
      "AngioFlag": "N",
      "BitsAllocated": 16,
      "BitsStored": 12,
      "BodyPartExamined": "BRAIN",
      "Columns": 480,
      "EchoNumbers": 1,
      "EchoTime": 30.0,
      "EchoTrainLength": 80,
      "FlipAngle": 77.0,
      "HighBit": 11,
      "ImageOrientationPatient": [0.98358419092337, 0.18019412997583, 0.00960285831811, -0.173786527208, 0.93159428269674, 0.31926530567496],
      "ImagePositionPatient": [-586.96807329192, -796.43053537056, -291.65220835455],
      "ImageType": [
        "ORIGINAL",
        "PRIMARY",
        "M",
        "ND",
        "NORM",
        "MOSAIC"
],
      "ImagedNucleus": "1H",
      "ImagingFrequency": 123.252368,
      "InPlanePhaseEncodingDirection": "COL",
      "MRAcquisitionType": "2D",
      "MagneticFieldStrength": 3.0,
      "Manufacturer": "SIEMENS",
      "ManufacturerModelName": "Prisma",
      "Modality": "MR",
      "NumberOfAverages": 1.0,
      "NumberOfPhaseEncodingSteps": 80,
      "PercentPhaseFieldOfView": 100.0,
      "PercentSampling": 100.0,
      "PerformedProcedureStepStartTime": "090643.560000",
      "PhotometricInterpretation": "MONOCHROME2",
      "PixelBandwidth": 2315.0,
      "PixelRepresentation": 0,
      "PixelSpacing": [3.0, 3.0],
      "ProtocolName": "func-bold_fa-77",
      "RepetitionTime": 2000.0,
      "Rows": 480,
      "SAR": 0.03226393458254,
      "SamplesPerPixel": 1,
      "ScanOptions": "FS",
      "ScanningSequence": "EP",
      "SequenceName": "*epfid2d1_80",
      "SequenceVariant": "SK",
      "SeriesDescription": "func-bold_fa-77",
      "SeriesNumber": 7,
      "SeriesTime": "092620.356000",
      "SliceLocation": -53.463960623354,
      "SliceThickness": 3.5,
      "SmallestImagePixelValue": 0,
      "SoftwareVersions": "syngo MR E11",
      "SpacingBetweenSlices": 3.9900000119611,
      "SpecificCharacterSet": "ISO_IR 100",
      "StudyID": "3",
      "StudyTime": "090643.492000",
      "TransmitCoilName": "Body",
      "VariableFlipAngleFlag": "N",
      "WindowCenterWidthExplanation": "Algo1",
      "dBdt": 0.0},
    "slices": {}
  },
  "time": {
    "samples": {
      "AcquisitionNumber": [1, 2, 3, 4, 5, 6, 7, 8, 9, 10, 11, 12, 13, 14, 15, 16, 17, 18, 19, 20, 21, 22, 23, 24, 25, 26, 27, 28, 29, 30, 31, 32, 33, 34, 35, 36, 37, 38, 39, 40, 41, 42, 43, 44, 45, 46, 47, 48, 49, 50, 51, 52, 53, 54, 55, 56, 57, 58, 59, 60, 61, 62, 63, 64, 65, 66, 67, 68, 69, 70, 71, 72, 73, 74, 75, 76, 77, 78, 79, 80, 81, 82, 83, 84, 85, 86, 87, 88, 89, 90, 91, 92, 93, 94, 95, 96, 97, 98, 99, 100, 101, 102, 103, 104, 105, 106, 107, 108, 109, 110, 111, 112, 113, 114, 115, 116, 117, 118, 119, 120, 121, 122, 123, 124, 125, 126, 127, 128, 129, 130, 131, 132, 133, 134, 135, 136, 137, 138, 139, 140, 141, 142, 143, 144, 145, 146, 147, 148, 149, 150, 151, 152, 153, 154, 155, 156, 157, 158, 159, 160, 161, 162, 163, 164, 165, 166, 167, 168, 169, 170, 171, 172, 173, 174, 175, 176, 177, 178, 179, 180, 181, 182, 183, 184, 185, 186, 187, 188, 189, 190, 191, 192, 193, 194, 195, 196, 197, 198, 199, 200],
      "AcquisitionTime": ["092527.522500", "092529.522500", "092531.522500", "092533.522500", "092535.522500", "092537.522500", "092539.522500", "092541.522500", "092543.522500", "092545.522500", "092547.522500", "092549.522500", "092551.522500", "092553.522500", "092555.522500", "092557.522500", "092559.522500", "092601.522500", "092603.522500", "092605.522500", "092607.522500", "092609.522500", "092611.522500", "092613.522500", "092615.522500", "092617.522500", "092619.522500", "092621.522500", "092623.522500", "092625.522500", "092627.522500", "092629.522500", "092631.522500", "092633.522500", "092635.522500", "092637.522500", "092639.522500", "092641.522500", "092643.522500", "092645.522500", "092647.522500", "092649.522500", "092651.522500", "092653.522500", "092655.522500", "092657.522500", "092659.522500", "092701.522500", "092703.522500", "092705.522500", "092707.522500", "092709.522500", "092711.522500", "092713.522500", "092715.522500", "092717.522500", "092719.522500", "092721.522500", "092723.522500", "092725.522500", "092727.522500", "092729.522500", "092731.522500", "092733.522500", "092735.522500", "092737.522500", "092739.522500", "092741.522500", "092743.522500", "092745.522500", "092747.522500", "092749.522500", "092751.522500", "092753.522500", "092755.522500", "092757.522500", "092759.522500", "092801.522500", "092803.522500", "092805.522500", "092807.522500", "092809.522500", "092811.522500", "092813.522500", "092815.522500", "092817.522500", "092819.522500", "092821.522500", "092823.522500", "092825.522500", "092827.522500", "092829.522500", "092831.522500", "092833.522500", "092835.522500", "092837.522500", "092839.522500", "092841.522500", "092843.522500", "092845.522500", "092847.522500", "092849.522500", "092851.522500", "092853.522500", "092855.522500", "092857.522500", "092859.522500", "092901.522500", "092903.522500", "092905.522500", "092907.522500", "092909.522500", "092911.522500", "092913.522500", "092915.522500", "092917.522500", "092919.522500", "092921.522500", "092923.522500", "092925.522500", "092927.522500", "092929.522500", "092931.522500", "092933.522500", "092935.522500", "092937.522500", "092939.522500", "092941.522500", "092943.522500", "092945.522500", "092947.522500", "092949.522500", "092951.522500", "092953.522500", "092955.522500", "092957.522500", "092959.522500", "093001.522500", "093003.522500", "093005.522500", "093007.522500", "093009.522500", "093011.522500", "093013.522500", "093015.522500", "093017.522500", "093019.522500", "093021.522500", "093023.522500", "093025.522500", "093027.522500", "093029.522500", "093031.522500", "093033.522500", "093035.522500", "093037.522500", "093039.522500", "093041.522500", "093043.522500", "093045.522500", "093047.522500", "093049.522500", "093051.522500", "093053.522500", "093055.522500", "093057.522500", "093059.522500", "093101.522500", "093103.522500", "093105.522500", "093107.522500", "093109.522500", "093111.522500", "093113.522500", "093115.522500", "093117.522500", "093119.522500", "093121.522500", "093123.522500", "093125.522500", "093127.522500", "093129.522500", "093131.522500", "093133.522500", "093135.522500", "093137.522500", "093139.522500", "093141.522500", "093143.522500", "093145.522500", "093147.522500", "093149.522500", "093151.522500", "093153.522500", "093155.522500", "093157.522500", "093159.522500", "093201.522500", "093203.522500", "093205.522500"],
      "ContentTime": ["092620.364000", "092620.368000", "092620.371000", "092620.373000", "092620.376000", "092620.378000", "092620.381000", "092620.384000", "092620.386000", "092620.389000", "092620.391000", "092620.394000", "092620.396000", "092620.399000", "092620.401000", "092620.404000", "092620.407000", "092620.409000", "092620.412000", "092620.414000", "092620.417000", "092620.420000", "092620.422000", "092620.425000", "092620.427000", "092620.430000", "092700.353000", "092700.357000", "092700.359000", "092700.362000", "092700.364000", "092700.367000", "092700.369000", "092700.372000", "092700.374000", "092700.377000", "092700.379000", "092700.382000", "092700.385000", "092700.388000", "092700.390000", "092700.393000", "092700.395000", "092700.398000", "092700.400000", "092700.403000", "092740.353000", "092740.356000", "092740.359000", "092740.361000", "092740.364000", "092740.367000", "092740.369000", "092740.372000", "092740.374000", "092740.377000", "092740.379000", "092740.382000", "092740.384000", "092740.387000", "092740.390000", "092740.392000", "092740.395000", "092740.398000", "092740.400000", "092740.403000", "092820.353000", "092820.356000", "092820.359000", "092820.361000", "092820.364000", "092820.375000", "092820.377000", "092820.380000", "092820.382000", "092820.385000", "092820.388000", "092820.390000", "092820.393000", "092820.395000", "092820.398000", "092820.401000", "092820.404000", "092820.406000", "092820.409000", "092820.411000", "092900.353000", "092900.356000", "092900.359000", "092900.362000", "092900.364000", "092900.367000", "092900.369000", "092900.372000", "092900.374000", "092900.377000", "092900.380000", "092900.382000", "092900.385000", "092900.387000", "092900.390000", "092900.392000", "092900.395000", "092900.397000", "092900.400000", "092900.420000", "092940.353000", "092940.356000", "092940.359000", "092940.361000", "092940.364000", "092940.367000", "092940.369000", "092940.372000", "092940.374000", "092940.377000", "092940.380000", "092940.382000", "092940.385000", "092940.387000", "092940.390000", "092940.392000", "092940.395000", "092940.397000", "092940.400000", "092940.402000", "093020.353000", "093020.356000", "093020.359000", "093020.361000", "093020.364000", "093020.367000", "093020.369000", "093020.372000", "093020.374000", "093020.377000", "093020.379000", "093020.382000", "093020.384000", "093020.387000", "093020.390000", "093020.392000", "093020.395000", "093020.397000", "093020.400000", "093020.402000", "093100.355000", "093100.358000", "093100.360000", "093100.363000", "093100.365000", "093100.368000", "093100.371000", "093100.373000", "093100.376000", "093100.378000", "093100.381000", "093100.383000", "093100.386000", "093100.389000", "093100.391000", "093100.394000", "093100.396000", "093100.399000", "093100.402000", "093100.404000", "093140.353000", "093140.356000", "093140.359000", "093140.361000", "093140.364000", "093140.367000", "093140.369000", "093140.372000", "093140.375000", "093140.377000", "093140.380000", "093140.382000", "093140.385000", "093140.387000", "093140.390000", "093140.393000", "093140.395000", "093140.398000", "093140.400000", "093140.403000", "093207.531000", "093207.534000", "093207.537000", "093207.540000", "093207.542000", "093207.545000", "093207.548000", "093207.550000", "093207.553000", "093207.555000", "093207.558000", "093207.561000", "093207.567000", "093207.571000"],
      "InstanceCreationTime": ["092620.364000", "092620.368000", "092620.371000", "092620.373000", "092620.376000", "092620.378000", "092620.381000", "092620.384000", "092620.386000", "092620.389000", "092620.391000", "092620.394000", "092620.396000", "092620.399000", "092620.401000", "092620.404000", "092620.407000", "092620.409000", "092620.412000", "092620.414000", "092620.417000", "092620.420000", "092620.422000", "092620.425000", "092620.427000", "092620.430000", "092700.353000", "092700.357000", "092700.359000", "092700.362000", "092700.364000", "092700.367000", "092700.369000", "092700.372000", "092700.374000", "092700.377000", "092700.379000", "092700.382000", "092700.385000", "092700.388000", "092700.390000", "092700.393000", "092700.395000", "092700.398000", "092700.400000", "092700.403000", "092740.353000", "092740.356000", "092740.359000", "092740.361000", "092740.364000", "092740.367000", "092740.369000", "092740.372000", "092740.374000", "092740.377000", "092740.379000", "092740.382000", "092740.384000", "092740.387000", "092740.390000", "092740.392000", "092740.395000", "092740.398000", "092740.400000", "092740.403000", "092820.353000", "092820.356000", "092820.359000", "092820.361000", "092820.364000", "092820.375000", "092820.377000", "092820.380000", "092820.382000", "092820.385000", "092820.388000", "092820.390000", "092820.393000", "092820.395000", "092820.398000", "092820.401000", "092820.404000", "092820.406000", "092820.409000", "092820.411000", "092900.353000", "092900.356000", "092900.359000", "092900.362000", "092900.364000", "092900.367000", "092900.369000", "092900.372000", "092900.374000", "092900.377000", "092900.380000", "092900.382000", "092900.385000", "092900.387000", "092900.390000", "092900.392000", "092900.395000", "092900.397000", "092900.400000", "092900.420000", "092940.353000", "092940.356000", "092940.359000", "092940.361000", "092940.364000", "092940.367000", "092940.369000", "092940.372000", "092940.374000", "092940.377000", "092940.380000", "092940.382000", "092940.385000", "092940.387000", "092940.390000", "092940.392000", "092940.395000", "092940.397000", "092940.400000", "092940.402000", "093020.353000", "093020.356000", "093020.359000", "093020.361000", "093020.364000", "093020.367000", "093020.369000", "093020.372000", "093020.374000", "093020.377000", "093020.379000", "093020.382000", "093020.384000", "093020.387000", "093020.390000", "093020.392000", "093020.395000", "093020.397000", "093020.400000", "093020.402000", "093100.355000", "093100.358000", "093100.360000", "093100.363000", "093100.365000", "093100.368000", "093100.371000", "093100.373000", "093100.376000", "093100.378000", "093100.381000", "093100.383000", "093100.386000", "093100.389000", "093100.391000", "093100.394000", "093100.396000", "093100.399000", "093100.402000", "093100.404000", "093140.353000", "093140.356000", "093140.359000", "093140.361000", "093140.364000", "093140.367000", "093140.369000", "093140.372000", "093140.375000", "093140.377000", "093140.380000", "093140.382000", "093140.385000", "093140.387000", "093140.390000", "093140.393000", "093140.395000", "093140.398000", "093140.400000", "093140.403000", "093207.531000", "093207.534000", "093207.537000", "093207.540000", "093207.542000", "093207.545000", "093207.548000", "093207.550000", "093207.553000", "093207.555000", "093207.558000", "093207.561000", "093207.567000", "093207.571000"],
      "InstanceNumber": [1, 2, 3, 4, 5, 6, 7, 8, 9, 10, 11, 12, 13, 14, 15, 16, 17, 18, 19, 20, 21, 22, 23, 24, 25, 26, 27, 28, 29, 30, 31, 32, 33, 34, 35, 36, 37, 38, 39, 40, 41, 42, 43, 44, 45, 46, 47, 48, 49, 50, 51, 52, 53, 54, 55, 56, 57, 58, 59, 60, 61, 62, 63, 64, 65, 66, 67, 68, 69, 70, 71, 72, 73, 74, 75, 76, 77, 78, 79, 80, 81, 82, 83, 84, 85, 86, 87, 88, 89, 90, 91, 92, 93, 94, 95, 96, 97, 98, 99, 100, 101, 102, 103, 104, 105, 106, 107, 108, 109, 110, 111, 112, 113, 114, 115, 116, 117, 118, 119, 120, 121, 122, 123, 124, 125, 126, 127, 128, 129, 130, 131, 132, 133, 134, 135, 136, 137, 138, 139, 140, 141, 142, 143, 144, 145, 146, 147, 148, 149, 150, 151, 152, 153, 154, 155, 156, 157, 158, 159, 160, 161, 162, 163, 164, 165, 166, 167, 168, 169, 170, 171, 172, 173, 174, 175, 176, 177, 178, 179, 180, 181, 182, 183, 184, 185, 186, 187, 188, 189, 190, 191, 192, 193, 194, 195, 196, 197, 198, 199, 200],
      "LargestImagePixelValue": [3578, 3583, 3577, 3580, 3581, 3579, 3580, 3579, 3583, 3580, 3577, 3576, 3572, 3572, 3577, 3575, 3579, 3576, 3571, 3571, 3577, 3577, 3579, 3582, 3581, 3577, 3573, 3576, 3575, 3574, 3570, 3574, 3571, 3570, 3572, 3575, 3578, 3576, 3575, 3574, 3579, 3573, 3579, 3575, 3572, 3569, 3573, 3579, 3577, 3579, 3579, 3574, 3572, 3571, 3571, 3567, 3571, 3568, 3569, 3571, 3573, 3577, 3580, 3580, 3574, 3577, 3572, 3571, 3574, 3573, 3574, 3572, 3572, 3576, 3577, 3577, 3571, 3572, 3572, 3572, 3570, 3570, 3569, 3568, 3574, 3572, 3574, 3576, 3570, 3572, 3571, 3574, 3572, 3575, 3571, 3576, 3578, 3579, 3570, 3567, 3568, 3563, 3568, 3572, 3572, 3577, 3583, 3573, 3575, 3568, 3568, 3564, 3568, 3570, 3570, 3570, 3571, 3568, 3572, 3574, 3572, 3573, 3573, 3573, 3573, 3569, 3561, 3564, 3566, 3577, 3578, 3572, 3567, 3565, 3561, 3562, 3564, 3569, 3581, 3578, 3570, 3571, 3571, 3571, 3572, 3570, 3571, 3573, 3572, 3567, 3573, 3572, 3569, 3564, 3562, 3564, 3570, 3565, 3562, 3569, 3570, 3572, 3566, 3558, 3563, 3566, 3569, 3568, 3565, 3568, 3569, 3565, 3566, 3568, 3568, 3567, 3566, 3567, 3564, 3562, 3564, 3561, 3566, 3564, 3569, 3570, 3570, 3572, 3566, 3561, 3562, 3561, 3568, 3573, 3577, 3569, 3566, 3559, 3568, 3564],
      "WindowCenter": [1329.0, 1329.0, 1329.0, 1329.0, 1328.0, 1329.0, 1328.0, 1328.0, 1328.0, 1328.0, 1328.0, 1328.0, 1328.0, 1328.0, 1328.0, 1328.0, 1328.0, 1328.0, 1327.0, 1327.0, 1327.0, 1327.0, 1327.0, 1327.0, 1327.0, 1328.0, 1328.0, 1327.0, 1327.0, 1327.0, 1327.0, 1327.0, 1327.0, 1327.0, 1327.0, 1326.0, 1326.0, 1327.0, 1326.0, 1327.0, 1327.0, 1327.0, 1327.0, 1326.0, 1327.0, 1327.0, 1326.0, 1327.0, 1327.0, 1326.0, 1326.0, 1326.0, 1326.0, 1326.0, 1326.0, 1327.0, 1326.0, 1326.0, 1327.0, 1326.0, 1327.0, 1326.0, 1326.0, 1326.0, 1326.0, 1326.0, 1326.0, 1326.0, 1326.0, 1326.0, 1326.0, 1326.0, 1326.0, 1326.0, 1326.0, 1325.0, 1326.0, 1326.0, 1326.0, 1325.0, 1325.0, 1325.0, 1326.0, 1326.0, 1325.0, 1325.0, 1326.0, 1325.0, 1325.0, 1325.0, 1325.0, 1325.0, 1325.0, 1325.0, 1325.0, 1325.0, 1325.0, 1325.0, 1325.0, 1325.0, 1325.0, 1325.0, 1325.0, 1325.0, 1325.0, 1325.0, 1325.0, 1324.0, 1325.0, 1325.0, 1325.0, 1325.0, 1325.0, 1325.0, 1325.0, 1325.0, 1325.0, 1325.0, 1325.0, 1325.0, 1325.0, 1325.0, 1325.0, 1325.0, 1325.0, 1325.0, 1325.0, 1324.0, 1324.0, 1325.0, 1324.0, 1324.0, 1324.0, 1324.0, 1324.0, 1324.0, 1324.0, 1324.0, 1325.0, 1324.0, 1324.0, 1325.0, 1324.0, 1324.0, 1324.0, 1324.0, 1324.0, 1324.0, 1324.0, 1324.0, 1324.0, 1324.0, 1324.0, 1324.0, 1324.0, 1324.0, 1324.0, 1324.0, 1324.0, 1324.0, 1324.0, 1324.0, 1324.0, 1324.0, 1324.0, 1324.0, 1324.0, 1324.0, 1324.0, 1324.0, 1323.0, 1324.0, 1324.0, 1323.0, 1324.0, 1324.0, 1324.0, 1324.0, 1324.0, 1324.0, 1324.0, 1324.0, 1324.0, 1324.0, 1323.0, 1323.0, 1324.0, 1323.0, 1324.0, 1323.0, 1323.0, 1324.0, 1323.0, 1323.0, 1323.0, 1323.0, 1323.0, 1323.0, 1323.0, 1324.0],
      "WindowWidth": [3193.0, 3193.0, 3193.0, 3193.0, 3192.0, 3192.0, 3192.0, 3192.0, 3192.0, 3192.0, 3192.0, 3191.0, 3191.0, 3191.0, 3191.0, 3191.0, 3191.0, 3191.0, 3191.0, 3191.0, 3191.0, 3191.0, 3191.0, 3191.0, 3191.0, 3191.0, 3191.0, 3191.0, 3190.0, 3191.0, 3190.0, 3190.0, 3190.0, 3190.0, 3190.0, 3190.0, 3190.0, 3190.0, 3190.0, 3190.0, 3190.0, 3190.0, 3190.0, 3190.0, 3190.0, 3190.0, 3190.0, 3190.0, 3190.0, 3190.0, 3190.0, 3190.0, 3190.0, 3190.0, 3190.0, 3190.0, 3190.0, 3190.0, 3189.0, 3190.0, 3189.0, 3190.0, 3189.0, 3189.0, 3190.0, 3189.0, 3189.0, 3189.0, 3189.0, 3189.0, 3189.0, 3189.0, 3189.0, 3189.0, 3189.0, 3189.0, 3189.0, 3189.0, 3189.0, 3189.0, 3189.0, 3189.0, 3188.0, 3189.0, 3189.0, 3189.0, 3188.0, 3188.0, 3189.0, 3189.0, 3188.0, 3188.0, 3188.0, 3188.0, 3188.0, 3188.0, 3188.0, 3188.0, 3188.0, 3188.0, 3188.0, 3188.0, 3188.0, 3188.0, 3188.0, 3187.0, 3188.0, 3188.0, 3187.0, 3187.0, 3187.0, 3187.0, 3187.0, 3187.0, 3187.0, 3187.0, 3187.0, 3187.0, 3187.0, 3187.0, 3187.0, 3187.0, 3187.0, 3187.0, 3187.0, 3187.0, 3187.0, 3187.0, 3187.0, 3187.0, 3187.0, 3187.0, 3187.0, 3187.0, 3187.0, 3187.0, 3187.0, 3187.0, 3186.0, 3187.0, 3187.0, 3186.0, 3187.0, 3187.0, 3187.0, 3187.0, 3187.0, 3187.0, 3187.0, 3187.0, 3186.0, 3186.0, 3186.0, 3186.0, 3186.0, 3186.0, 3186.0, 3186.0, 3186.0, 3186.0, 3186.0, 3186.0, 3186.0, 3186.0, 3186.0, 3186.0, 3186.0, 3186.0, 3186.0, 3186.0, 3186.0, 3186.0, 3186.0, 3186.0, 3185.0, 3186.0, 3186.0, 3185.0, 3185.0, 3185.0, 3185.0, 3185.0, 3185.0, 3185.0, 3186.0, 3185.0, 3185.0, 3186.0, 3185.0, 3185.0, 3186.0, 3185.0, 3185.0, 3185.0, 3185.0, 3185.0, 3185.0, 3185.0, 3185.0, 3185.0]
    },
    "slices": {}
  }
}