{
  "AcquisitionMatrixPE": 80,
  "AcquisitionNumber": 1,
  "AcquisitionTime": "09:32:14.540000",
  "BandwidthPerPixelPhaseEncode": 25,
  "BaseResolution": 80,
  "BodyPartExamined": "BRAIN",
  "CoilCombinationMethod": "Sum of Squares",
  "ConsistencyInfo": "N4_VE11C_LATEST_20160120",
  "ConversionSoftware": "dcm2niix",
  "ConversionSoftwareVersion": "v1.0.20220720",
  "DerivedVendorReportedEchoSpacing": 0.0005,
  "DeviceSerialNumber": "66112",
  "DwellTime": 2.7e-06,
  "EchoTime": 0.03,
  "EchoTrainLength": 80,
  "EffectiveEchoSpacing": 0.0005,
  "FlipAngle": 10,
  "HeudiconvVersion": "0.13.1",
  "ImageOrientationPatientDICOM": [0.983584, 0.180194, 0.00960286, -0.173787, 0.931594, 0.319265],
  "ImageOrientationText": "Tra>Cor(18.4)>Sag(-2.8)",
  "ImageType": [
    "ORIGINAL",
    "PRIMARY",
    "M",
    "ND",
    "NORM",
    "MOSAIC"
],
  "ImagingFrequency": 123.252,
  "InPlanePhaseEncodingDirectionDICOM": "COL",
  "InstitutionAddress": "Maynard 3,Hanover,NH,US,03755",
  "InstitutionName": "Dartmouth College - PBS",
  "InstitutionalDepartmentName": "Department",
  "MRAcquisitionType": "2D",
  "MagneticFieldStrength": 3,
  "Manufacturer": "Siemens",
  "ManufacturersModelName": "Prisma",
  "MatrixCoilMode": "SENSE",
  "Modality": "MR",
  "NonlinearGradientCorrection": false,
  "PartialFourier": 1,
  "PatientPosition": "HFS",
  "PercentPhaseFOV": 100,
  "PercentSampling": 100,
  "PhaseEncodingDirection": "j-",
  "PhaseEncodingSteps": 80,
  "PhaseResolution": 1,
  "PixelBandwidth": 2315,
  "ProcedureStepDescription": "dbic^QA",
  "ProtocolName": "func-bold_fa-10",
  "PulseSequenceDetails": "%SiemensSeq%\\ep2d_bold",
  "ReceiveCoilActiveElements": "HC1-7;NC1,2",
  "ReceiveCoilName": "HeadNeck_64",
  "ReconMatrixPE": 80,
  "RepetitionTime": 2,
  "SAR": 0.00865477,
  "ScanOptions": "FS",
  "ScanningSequence": "EP",
  "SequenceName": "*epfid2d1_80",
  "SequenceVariant": "SK",
  "SeriesDescription": "func-bold_fa-10",
  "SeriesNumber": 9,
  "ShimSetting": [4139, -7698, -7512, 173, -60, -184, -44, 92],
  "SliceThickness": 3.5,
  "SliceTiming": [0.99, 0, 1.055, 0.065, 1.1225, 0.1325, 1.1875, 0.1975, 1.255, 0.265, 1.32, 0.33, 1.385, 0.395, 1.4525, 0.4625, 1.5175, 0.5275, 1.585, 0.595, 1.65, 0.66, 1.715, 0.725, 1.7825, 0.7925, 1.8475, 0.8575, 1.915, 0.925],
  "SoftwareVersions": "syngo MR E11",
  "SpacingBetweenSlices": 3.99,
  "StationName": "AWP66112",
  "TotalReadoutTime": 0.0395,
  "TxRefAmp": 213.683,
  "dcmmeta_affine": [
    [-2.9507524967193604, -0.5213595628738403, -0.19384922087192535, 142.27688598632812],
    [-0.5405824184417725, 2.794782876968384, 1.2596156597137451, -91.43035888671875],
    [0.028808575123548508, -0.9577959179878235, 3.7809908390045166, -18.66543197631836],
    [0.0, 0.0, 0.0, 1.0]
],
  "dcmmeta_reorient_transform": [
    [0.0, -1.0, 0.0, 79.0],
    [1.0, 0.0, 0.0, 0.0],
    [0.0, 0.0, 1.0, 0.0],
    [0.0, 0.0, 0.0, 1.0]
],
  "dcmmeta_shape": [80, 80, 30, 200],
  "dcmmeta_slice_dim": 2,
  "dcmmeta_version": 0.6,
  "global": {
    "const": {
      "AccessionNumber": "qa64",
      "AcquisitionMatrix": [80, 0, 0, 80],
      "AngioFlag": "N",
      "BitsAllocated": 16,
      "BitsStored": 12,
      "BodyPartExamined": "BRAIN",
      "Columns": 480,
      "EchoNumbers": 1,
      "EchoTime": 30.0,
      "EchoTrainLength": 80,
      "FlipAngle": 10.0,
      "HighBit": 11,
      "ImageOrientationPatient": [0.98358419092337, 0.18019412997583, 0.00960285831811, -0.173786527208, 0.93159428269674, 0.31926530567496],
      "ImagePositionPatient": [-586.96807329192, -796.43053537056, -291.65220835455],
      "ImageType": [
        "ORIGINAL",
        "PRIMARY",
        "M",
        "ND",
        "NORM",
        "MOSAIC"
],
      "ImagedNucleus": "1H",
      "ImagingFrequency": 123.252372,
      "InPlanePhaseEncodingDirection": "COL",
      "MRAcquisitionType": "2D",
      "MagneticFieldStrength": 3.0,
      "Manufacturer": "SIEMENS",
      "ManufacturerModelName": "Prisma",
      "Modality": "MR",
      "NumberOfAverages": 1.0,
      "NumberOfPhaseEncodingSteps": 80,
      "PercentPhaseFieldOfView": 100.0,
      "PercentSampling": 100.0,
      "PerformedProcedureStepStartTime": "090643.560000",
      "PhotometricInterpretation": "MONOCHROME2",
      "PixelBandwidth": 2315.0,
      "PixelRepresentation": 0,
      "PixelSpacing": [3.0, 3.0],
      "ProtocolName": "func-bold_fa-10",
      "RepetitionTime": 2000.0,
      "Rows": 480,
      "SAR": 0.00865477207199,
      "SamplesPerPixel": 1,
      "ScanOptions": "FS",
      "ScanningSequence": "EP",
      "SequenceName": "*epfid2d1_80",
      "SequenceVariant": "SK",
      "SeriesDescription": "func-bold_fa-10",
      "SeriesNumber": 9,
      "SeriesTime": "093300.425000",
      "SliceLocation": -53.463960623354,
      "SliceThickness": 3.5,
      "SmallestImagePixelValue": 0,
      "SoftwareVersions": "syngo MR E11",
      "SpacingBetweenSlices": 3.9900000119611,
      "SpecificCharacterSet": "ISO_IR 100",
      "StudyID": "3",
      "StudyTime": "090643.492000",
      "TransmitCoilName": "Body",
      "VariableFlipAngleFlag": "N",
      "WindowCenterWidthExplanation": "Algo1",
      "dBdt": 0.0},
    "slices": {}
  },
  "time": {
    "samples": {
      "AcquisitionNumber": [1, 2, 3, 4, 5, 6, 7, 8, 9, 10, 11, 12, 13, 14, 15, 16, 17, 18, 19, 20, 21, 22, 23, 24, 25, 26, 27, 28, 29, 30, 31, 32, 33, 34, 35, 36, 37, 38, 39, 40, 41, 42, 43, 44, 45, 46, 47, 48, 49, 50, 51, 52, 53, 54, 55, 56, 57, 58, 59, 60, 61, 62, 63, 64, 65, 66, 67, 68, 69, 70, 71, 72, 73, 74, 75, 76, 77, 78, 79, 80, 81, 82, 83, 84, 85, 86, 87, 88, 89, 90, 91, 92, 93, 94, 95, 96, 97, 98, 99, 100, 101, 102, 103, 104, 105, 106, 107, 108, 109, 110, 111, 112, 113, 114, 115, 116, 117, 118, 119, 120, 121, 122, 123, 124, 125, 126, 127, 128, 129, 130, 131, 132, 133, 134, 135, 136, 137, 138, 139, 140, 141, 142, 143, 144, 145, 146, 147, 148, 149, 150, 151, 152, 153, 154, 155, 156, 157, 158, 159, 160, 161, 162, 163, 164, 165, 166, 167, 168, 169, 170, 171, 172, 173, 174, 175, 176, 177, 178, 179, 180, 181, 182, 183, 184, 185, 186, 187, 188, 189, 190, 191, 192, 193, 194, 195, 196, 197, 198, 199, 200],
      "AcquisitionTime": ["093214.540000", "093216.540000", "093218.540000", "093220.540000", "093222.540000", "093224.540000", "093226.540000", "093228.540000", "093230.540000", "093232.540000", "093234.540000", "093236.540000", "093238.540000", "093240.540000", "093242.540000", "093244.540000", "093246.540000", "093248.540000", "093250.540000", "093252.540000", "093254.540000", "093256.540000", "093258.540000", "093300.540000", "093302.540000", "093304.540000", "093306.540000", "093308.540000", "093310.540000", "093312.540000", "093314.540000", "093316.540000", "093318.540000", "093320.540000", "093322.540000", "093324.540000", "093326.540000", "093328.540000", "093330.540000", "093332.540000", "093334.540000", "093336.540000", "093338.540000", "093340.540000", "093342.540000", "093344.540000", "093346.540000", "093348.540000", "093350.540000", "093352.540000", "093354.540000", "093356.540000", "093358.540000", "093400.540000", "093402.540000", "093404.540000", "093406.540000", "093408.540000", "093410.540000", "093412.540000", "093414.540000", "093416.540000", "093418.540000", "093420.540000", "093422.540000", "093424.540000", "093426.540000", "093428.540000", "093430.540000", "093432.540000", "093434.540000", "093436.540000", "093438.540000", "093440.540000", "093442.540000", "093444.540000", "093446.540000", "093448.540000", "093450.540000", "093452.540000", "093454.540000", "093456.540000", "093458.540000", "093500.540000", "093502.540000", "093504.540000", "093506.540000", "093508.540000", "093510.540000", "093512.540000", "093514.540000", "093516.540000", "093518.540000", "093520.540000", "093522.540000", "093524.540000", "093526.540000", "093528.540000", "093530.540000", "093532.540000", "093534.540000", "093536.540000", "093538.540000", "093540.540000", "093542.540000", "093544.540000", "093546.540000", "093548.540000", "093550.540000", "093552.540000", "093554.540000", "093556.540000", "093558.540000", "093600.540000", "093602.540000", "093604.540000", "093606.540000", "093608.540000", "093610.540000", "093612.540000", "093614.540000", "093616.540000", "093618.540000", "093620.540000", "093622.540000", "093624.540000", "093626.540000", "093628.540000", "093630.540000", "093632.540000", "093634.540000", "093636.540000", "093638.540000", "093640.540000", "093642.540000", "093644.540000", "093646.540000", "093648.540000", "093650.540000", "093652.540000", "093654.540000", "093656.540000", "093658.540000", "093700.540000", "093702.540000", "093704.540000", "093706.540000", "093708.540000", "093710.540000", "093712.540000", "093714.540000", "093716.540000", "093718.540000", "093720.540000", "093722.540000", "093724.540000", "093726.540000", "093728.540000", "093730.540000", "093732.540000", "093734.540000", "093736.540000", "093738.540000", "093740.540000", "093742.540000", "093744.540000", "093746.540000", "093748.540000", "093750.540000", "093752.540000", "093754.540000", "093756.540000", "093758.540000", "093800.540000", "093802.540000", "093804.540000", "093806.540000", "093808.540000", "093810.540000", "093812.540000", "093814.540000", "093816.540000", "093818.540000", "093820.540000", "093822.540000", "093824.540000", "093826.540000", "093828.540000", "093830.540000", "093832.540000", "093834.540000", "093836.540000", "093838.540000", "093840.540000", "093842.540000", "093844.540000", "093846.540000", "093848.540000", "093850.540000", "093852.540000"],
      "ContentTime": ["093300.428000", "093300.432000", "093300.434000", "093300.437000", "093300.440000", "093300.442000", "093300.445000", "093300.448000", "093300.450000", "093300.453000", "093300.455000", "093300.458000", "093300.460000", "093300.463000", "093300.465000", "093300.468000", "093300.471000", "093300.473000", "093300.477000", "093300.480000", "093300.482000", "093300.485000", "093300.488000", "093340.423000", "093340.426000", "093340.429000", "093340.431000", "093340.434000", "093340.437000", "093340.439000", "093340.442000", "093340.444000", "093340.447000", "093340.449000", "093340.452000", "093340.454000", "093340.457000", "093340.459000", "093340.462000", "093340.464000", "093340.467000", "093340.469000", "093340.472000", "093420.423000", "093420.426000", "093420.429000", "093420.432000", "093420.434000", "093420.437000", "093420.439000", "093420.442000", "093420.444000", "093420.447000", "093420.449000", "093420.452000", "093420.454000", "093420.457000", "093420.459000", "093420.462000", "093420.464000", "093420.467000", "093420.470000", "093420.472000", "093500.423000", "093500.426000", "093500.433000", "093500.436000", "093500.439000", "093500.441000", "093500.451000", "093500.453000", "093500.456000", "093500.458000", "093500.461000", "093500.463000", "093500.466000", "093500.468000", "093500.471000", "093500.474000", "093500.476000", "093500.479000", "093500.481000", "093500.484000", "093540.424000", "093540.427000", "093540.430000", "093540.432000", "093540.435000", "093540.438000", "093540.440000", "093540.443000", "093540.445000", "093540.448000", "093540.450000", "093540.453000", "093540.455000", "093540.458000", "093540.460000", "093540.463000", "093540.466000", "093540.468000", "093540.471000", "093540.473000", "093620.424000", "093620.426000", "093620.429000", "093620.431000", "093620.434000", "093620.437000", "093620.439000", "093620.442000", "093620.444000", "093620.447000", "093620.449000", "093620.452000", "093620.454000", "093620.457000", "093620.459000", "093620.462000", "093620.465000", "093620.467000", "093620.470000", "093620.472000", "093700.423000", "093700.426000", "093700.429000", "093700.431000", "093700.434000", "093700.436000", "093700.439000", "093700.441000", "093700.444000", "093700.447000", "093700.449000", "093700.452000", "093700.454000", "093700.457000", "093700.459000", "093700.462000", "093700.464000", "093700.467000", "093700.469000", "093700.472000", "093740.423000", "093740.426000", "093740.429000", "093740.431000", "093740.434000", "093740.437000", "093740.439000", "093740.442000", "093740.444000", "093740.448000", "093740.450000", "093740.453000", "093740.456000", "093740.458000", "093740.461000", "093740.463000", "093740.466000", "093740.468000", "093740.471000", "093740.473000", "093820.423000", "093820.426000", "093820.429000", "093820.431000", "093820.434000", "093820.437000", "093820.439000", "093820.442000", "093820.444000", "093820.447000", "093820.449000", "093820.452000", "093820.455000", "093820.457000", "093820.468000", "093820.470000", "093820.473000", "093820.475000", "093820.478000", "093820.480000", "093854.106000", "093854.109000", "093854.111000", "093854.114000", "093854.117000", "093854.119000", "093854.122000", "093854.124000", "093854.127000", "093854.130000", "093854.132000", "093854.135000", "093854.138000", "093854.145000", "093854.149000", "093854.153000", "093854.160000"],
      "InstanceCreationTime": ["093300.428000", "093300.432000", "093300.434000", "093300.437000", "093300.440000", "093300.442000", "093300.445000", "093300.448000", "093300.450000", "093300.453000", "093300.455000", "093300.458000", "093300.460000", "093300.463000", "093300.465000", "093300.468000", "093300.471000", "093300.473000", "093300.477000", "093300.480000", "093300.482000", "093300.485000", "093300.488000", "093340.423000", "093340.426000", "093340.429000", "093340.431000", "093340.434000", "093340.437000", "093340.439000", "093340.442000", "093340.444000", "093340.447000", "093340.449000", "093340.452000", "093340.454000", "093340.457000", "093340.459000", "093340.462000", "093340.464000", "093340.467000", "093340.469000", "093340.472000", "093420.423000", "093420.426000", "093420.429000", "093420.432000", "093420.434000", "093420.437000", "093420.439000", "093420.442000", "093420.444000", "093420.447000", "093420.449000", "093420.452000", "093420.454000", "093420.457000", "093420.459000", "093420.462000", "093420.464000", "093420.467000", "093420.470000", "093420.472000", "093500.423000", "093500.426000", "093500.433000", "093500.436000", "093500.439000", "093500.441000", "093500.451000", "093500.453000", "093500.456000", "093500.458000", "093500.461000", "093500.463000", "093500.466000", "093500.468000", "093500.471000", "093500.474000", "093500.476000", "093500.479000", "093500.481000", "093500.484000", "093540.424000", "093540.427000", "093540.430000", "093540.432000", "093540.435000", "093540.438000", "093540.440000", "093540.443000", "093540.445000", "093540.448000", "093540.450000", "093540.453000", "093540.455000", "093540.458000", "093540.460000", "093540.463000", "093540.466000", "093540.468000", "093540.471000", "093540.473000", "093620.424000", "093620.426000", "093620.429000", "093620.431000", "093620.434000", "093620.437000", "093620.439000", "093620.442000", "093620.444000", "093620.447000", "093620.449000", "093620.452000", "093620.454000", "093620.457000", "093620.459000", "093620.462000", "093620.465000", "093620.467000", "093620.470000", "093620.472000", "093700.423000", "093700.426000", "093700.429000", "093700.431000", "093700.434000", "093700.436000", "093700.439000", "093700.441000", "093700.444000", "093700.447000", "093700.449000", "093700.452000", "093700.454000", "093700.457000", "093700.459000", "093700.462000", "093700.464000", "093700.467000", "093700.469000", "093700.472000", "093740.423000", "093740.426000", "093740.429000", "093740.431000", "093740.434000", "093740.437000", "093740.439000", "093740.442000", "093740.444000", "093740.448000", "093740.450000", "093740.453000", "093740.456000", "093740.458000", "093740.461000", "093740.463000", "093740.466000", "093740.468000", "093740.471000", "093740.473000", "093820.423000", "093820.426000", "093820.429000", "093820.431000", "093820.434000", "093820.437000", "093820.439000", "093820.442000", "093820.444000", "093820.447000", "093820.449000", "093820.452000", "093820.455000", "093820.457000", "093820.468000", "093820.470000", "093820.473000", "093820.475000", "093820.478000", "093820.480000", "093854.106000", "093854.109000", "093854.111000", "093854.114000", "093854.117000", "093854.119000", "093854.122000", "093854.124000", "093854.127000", "093854.130000", "093854.132000", "093854.135000", "093854.138000", "093854.145000", "093854.149000", "093854.153000", "093854.160000"],
      "InstanceNumber": [1, 2, 3, 4, 5, 6, 7, 8, 9, 10, 11, 12, 13, 14, 15, 16, 17, 18, 19, 20, 21, 22, 23, 24, 25, 26, 27, 28, 29, 30, 31, 32, 33, 34, 35, 36, 37, 38, 39, 40, 41, 42, 43, 44, 45, 46, 47, 48, 49, 50, 51, 52, 53, 54, 55, 56, 57, 58, 59, 60, 61, 62, 63, 64, 65, 66, 67, 68, 69, 70, 71, 72, 73, 74, 75, 76, 77, 78, 79, 80, 81, 82, 83, 84, 85, 86, 87, 88, 89, 90, 91, 92, 93, 94, 95, 96, 97, 98, 99, 100, 101, 102, 103, 104, 105, 106, 107, 108, 109, 110, 111, 112, 113, 114, 115, 116, 117, 118, 119, 120, 121, 122, 123, 124, 125, 126, 127, 128, 129, 130, 131, 132, 133, 134, 135, 136, 137, 138, 139, 140, 141, 142, 143, 144, 145, 146, 147, 148, 149, 150, 151, 152, 153, 154, 155, 156, 157, 158, 159, 160, 161, 162, 163, 164, 165, 166, 167, 168, 169, 170, 171, 172, 173, 174, 175, 176, 177, 178, 179, 180, 181, 182, 183, 184, 185, 186, 187, 188, 189, 190, 191, 192, 193, 194, 195, 196, 197, 198, 199, 200],
      "LargestImagePixelValue": [596, 594, 594, 597, 597, 594, 594, 594, 596, 598, 595, 595, 596, 594, 595, 594, 594, 593, 596, 593, 595, 595, 595, 594, 597, 595, 595, 594, 594, 593, 593, 597, 594, 599, 595, 593, 597, 597, 596, 591, 595, 598, 590, 592, 592, 593, 598, 593, 593, 595, 598, 595, 594, 592, 593, 593, 595, 597, 594, 594, 593, 596, 595, 594, 596, 592, 590, 593, 594, 595, 593, 595, 592, 591, 595, 598, 593, 594, 592, 593, 594, 591, 595, 594, 596, 603, 595, 590, 593, 592, 592, 600, 596, 595, 593, 594, 591, 591, 592, 592, 592, 594, 592, 592, 592, 597, 597, 599, 598, 598, 601, 598, 598, 595, 595, 593, 595, 592, 590, 598, 598, 601, 594, 593, 593, 595, 591, 593, 591, 591, 593, 591, 594, 592, 591, 595, 596, 589, 602, 600, 601, 596, 596, 597, 599, 597, 598, 600, 599, 600, 600, 598, 597, 599, 590, 594, 592, 590, 597, 598, 593, 592, 597, 594, 593, 593, 589, 589, 594, 591, 595, 591, 590, 599, 599, 600, 598, 595, 592, 594, 594, 594, 591, 592, 593, 590, 591, 592, 592, 591, 593, 594, 590, 593, 594, 595, 592, 594, 594, 594],
      "WindowCenter": [432.0, 432.0, 432.0, 432.0, 432.0, 432.0, 432.0, 432.0, 432.0, 432.0, 432.0, 432.0, 432.0, 432.0, 431.0, 431.0, 432.0, 431.0, 431.0, 431.0, 431.0, 431.0, 431.0, 431.0, 431.0, 431.0, 431.0, 431.0, 431.0, 431.0, 431.0, 431.0, 431.0, 433.0, 431.0, 431.0, 431.0, 431.0, 431.0, 431.0, 431.0, 432.0, 432.0, 431.0, 431.0, 431.0, 431.0, 431.0, 431.0, 431.0, 431.0, 431.0, 431.0, 431.0, 431.0, 431.0, 431.0, 431.0, 431.0, 431.0, 431.0, 431.0, 431.0, 431.0, 431.0, 431.0, 431.0, 431.0, 431.0, 431.0, 431.0, 431.0, 431.0, 431.0, 431.0, 431.0, 431.0, 431.0, 431.0, 431.0, 431.0, 431.0, 431.0, 431.0, 431.0, 432.0, 431.0, 431.0, 431.0, 431.0, 431.0, 431.0, 431.0, 431.0, 431.0, 431.0, 431.0, 431.0, 431.0, 431.0, 431.0, 431.0, 431.0, 430.0, 431.0, 431.0, 431.0, 433.0, 433.0, 433.0, 433.0, 433.0, 433.0, 431.0, 431.0, 430.0, 431.0, 431.0, 431.0, 432.0, 433.0, 432.0, 431.0, 430.0, 431.0, 430.0, 431.0, 431.0, 430.0, 431.0, 431.0, 431.0, 430.0, 430.0, 431.0, 430.0, 430.0, 429.0, 432.0, 433.0, 433.0, 433.0, 433.0, 433.0, 433.0, 433.0, 433.0, 433.0, 433.0, 433.0, 433.0, 433.0, 433.0, 433.0, 430.0, 431.0, 430.0, 430.0, 433.0, 433.0, 431.0, 430.0, 430.0, 430.0, 430.0, 430.0, 429.0, 429.0, 430.0, 430.0, 430.0, 430.0, 430.0, 433.0, 433.0, 433.0, 433.0, 431.0, 430.0, 430.0, 430.0, 430.0, 430.0, 430.0, 430.0, 430.0, 430.0, 430.0, 430.0, 430.0, 430.0, 430.0, 430.0, 430.0, 430.0, 430.0, 430.0, 430.0, 430.0, 430.0],
      "WindowWidth": [901.0, 901.0, 901.0, 901.0, 901.0, 901.0, 901.0, 901.0, 901.0, 901.0, 901.0, 901.0, 901.0, 901.0, 901.0, 901.0, 901.0, 900.0, 900.0, 901.0, 901.0, 900.0, 900.0, 901.0, 900.0, 900.0, 900.0, 901.0, 900.0, 900.0, 900.0, 900.0, 900.0, 904.0, 900.0, 900.0, 900.0, 900.0, 900.0, 900.0, 900.0, 902.0, 901.0, 900.0, 900.0, 900.0, 899.0, 899.0, 899.0, 899.0, 900.0, 899.0, 899.0, 899.0, 899.0, 899.0, 899.0, 899.0, 899.0, 899.0, 899.0, 899.0, 899.0, 899.0, 899.0, 899.0, 899.0, 899.0, 900.0, 899.0, 899.0, 899.0, 899.0, 899.0, 899.0, 900.0, 899.0, 899.0, 899.0, 899.0, 899.0, 899.0, 899.0, 899.0, 899.0, 902.0, 899.0, 899.0, 899.0, 899.0, 899.0, 899.0, 899.0, 899.0, 899.0, 899.0, 899.0, 899.0, 899.0, 899.0, 899.0, 899.0, 899.0, 898.0, 899.0, 899.0, 899.0, 904.0, 904.0, 904.0, 904.0, 904.0, 904.0, 899.0, 899.0, 898.0, 899.0, 899.0, 899.0, 901.0, 904.0, 902.0, 899.0, 898.0, 899.0, 898.0, 899.0, 899.0, 898.0, 899.0, 899.0, 899.0, 898.0, 898.0, 899.0, 898.0, 898.0, 897.0, 902.0, 904.0, 904.0, 903.0, 904.0, 904.0, 904.0, 904.0, 904.0, 904.0, 904.0, 904.0, 904.0, 904.0, 904.0, 904.0, 898.0, 899.0, 898.0, 898.0, 904.0, 904.0, 899.0, 898.0, 898.0, 898.0, 898.0, 898.0, 896.0, 896.0, 898.0, 898.0, 898.0, 898.0, 898.0, 904.0, 904.0, 904.0, 904.0, 900.0, 898.0, 898.0, 898.0, 898.0, 898.0, 898.0, 898.0, 898.0, 898.0, 898.0, 898.0, 898.0, 898.0, 898.0, 898.0, 898.0, 898.0, 898.0, 898.0, 898.0, 898.0, 898.0]
    },
    "slices": {}
  }
}