{
  "AcquisitionMatrixPE": 80,
  "AcquisitionNumber": 1,
  "AcquisitionTime": "09:18:36.202500",
  "BandwidthPerPixelPhaseEncode": 48.077,
  "BaseResolution": 80,
  "BodyPartExamined": "BRAIN",
  "CoilCombinationMethod": "Sum of Squares",
  "ConsistencyInfo": "N4_VE11C_LATEST_20160120",
  "ConversionSoftware": "dcm2niix",
  "ConversionSoftwareVersion": "v1.0.20220720",
  "DerivedVendorReportedEchoSpacing": 0.000519999,
  "DeviceSerialNumber": "66112",
  "DwellTime": 2.7e-06,
  "EchoTime": 0.035,
  "EchoTrainLength": 39,
  "EffectiveEchoSpacing": 0.00026,
  "FlipAngle": 90,
  "HeudiconvVersion": "0.13.1",
  "ImageOrientationPatientDICOM": [0.983554, 0.180357, 0.00965857, -0.173958, 0.931563, 0.319264],
  "ImageOrientationText": "Tra>Cor(18.4)>Sag(-2.8)",
  "ImageType": [
    "ORIGINAL",
    "PRIMARY",
    "M",
    "ND",
    "NORM",
    "MOSAIC"
],
  "ImagingFrequency": 123.252,
  "InPlanePhaseEncodingDirectionDICOM": "COL",
  "InstitutionAddress": "Maynard 3,Hanover,NH,US,03755",
  "InstitutionName": "Dartmouth College - PBS",
  "InstitutionalDepartmentName": "Department",
  "MRAcquisitionType": "2D",
  "MagneticFieldStrength": 3,
  "Manufacturer": "Siemens",
  "ManufacturersModelName": "Prisma",
  "MatrixCoilMode": "GRAPPA",
  "Modality": "MR",
  "NonlinearGradientCorrection": false,
  "ParallelReductionFactorInPlane": 2,
  "PartialFourier": 1,
  "PatientPosition": "HFS",
  "PercentPhaseFOV": 100,
  "PercentSampling": 100,
  "PhaseEncodingDirection": "j-",
  "PhaseEncodingSteps": 79,
  "PhaseResolution": 1,
  "PixelBandwidth": 2315,
  "ProcedureStepDescription": "dbic^QA",
  "ProtocolName": "func-bold_task-rest_acq-p2",
  "PulseSequenceDetails": "%SiemensSeq%\\ep2d_bold",
  "ReceiveCoilActiveElements": "HC1-7;NC1,2",
  "ReceiveCoilName": "HeadNeck_64",
  "ReconMatrixPE": 80,
  "RefLinesPE": 24,
  "RepetitionTime": 2,
  "SAR": 0.0410561,
  "ScanOptions": "FS",
  "ScanningSequence": "EP",
  "SequenceName": "*epfid2d1_80",
  "SequenceVariant": "SK",
  "SeriesDescription": "func-bold_task-rest_acq-p2",
  "SeriesNumber": 5,
  "ShimSetting": [4139, -7698, -7512, 168, -61, -183, -47, 93],
  "SliceThickness": 3.5,
  "SliceTiming": [0.99, 0, 1.055, 0.065, 1.12, 0.1325, 1.1875, 0.1975, 1.2525, 0.2625, 1.32, 0.33, 1.385, 0.395, 1.45, 0.46, 1.5175, 0.5275, 1.5825, 0.5925, 1.65, 0.66, 1.715, 0.725, 1.78, 0.79, 1.8475, 0.8575, 1.9125, 0.9225],
  "SoftwareVersions": "syngo MR E11",
  "SpacingBetweenSlices": 3.99,
  "StationName": "AWP66112",
  "TaskName": "rest",
  "TotalReadoutTime": 0.02054,
  "TxRefAmp": 213.683,
  "dcmmeta_affine": [
    [-2.9506616592407227, -0.5218743681907654, -0.19384917616844177, 143.97793579101562],
    [-0.5410699844360352, 2.7946884632110596, 1.2596156597137451, -93.66769409179688],
    [0.028975719586014748, -0.9577908515930176, 3.7809908390045166, -21.84965705871582],
    [0.0, 0.0, 0.0, 1.0]
],
  "dcmmeta_reorient_transform": [
    [0.0, -1.0, 0.0, 79.0],
    [1.0, 0.0, 0.0, 0.0],
    [0.0, 0.0, 1.0, 0.0],
    [0.0, 0.0, 0.0, 1.0]
],
  "dcmmeta_shape": [80, 80, 30, 200],
  "dcmmeta_slice_dim": 2,
  "dcmmeta_version": 0.6,
  "global": {
    "const": {
      "AccessionNumber": "qa64",
      "AcquisitionMatrix": [80, 0, 0, 80],
      "AngioFlag": "N",
      "BitsAllocated": 16,
      "BitsStored": 12,
      "BodyPartExamined": "BRAIN",
      "Columns": 480,
      "EchoNumbers": 1,
      "EchoTime": 35.0,
      "EchoTrainLength": 39,
      "FlipAngle": 90.0,
      "HighBit": 11,
      "ImageOrientationPatient": [0.98355385589385, 0.1803566592181, 0.00965857298087, -0.1739581317944, 0.9315628326236, 0.31926361718323],
      "ImagePositionPatient": [-588.50729285736, -794.26438857625, -294.86844865887],
      "ImageType": [
        "ORIGINAL",
        "PRIMARY",
        "M",
        "ND",
        "NORM",
        "MOSAIC"
],
      "ImagedNucleus": "1H",
      "ImagingFrequency": 123.252367,
      "InPlanePhaseEncodingDirection": "COL",
      "MRAcquisitionType": "2D",
      "MagneticFieldStrength": 3.0,
      "Manufacturer": "SIEMENS",
      "ManufacturerModelName": "Prisma",
      "Modality": "MR",
      "NumberOfAverages": 1.0,
      "NumberOfPhaseEncodingSteps": 79,
      "PercentPhaseFieldOfView": 100.0,
      "PercentSampling": 100.0,
      "PerformedProcedureStepStartTime": "090643.560000",
      "PhotometricInterpretation": "MONOCHROME2",
      "PixelBandwidth": 2315.0,
      "PixelRepresentation": 0,
      "PixelSpacing": [3.0, 3.0],
      "ProtocolName": "func-bold_task-rest_acq-p2",
      "RepetitionTime": 2000.0,
      "Rows": 480,
      "SAR": 0.0410561064177,
      "SamplesPerPixel": 1,
      "ScanOptions": "FS",
      "ScanningSequence": "EP",
      "SequenceName": "*epfid2d1_80",
      "SequenceVariant": "SK",
      "SeriesDescription": "func-bold_task-rest_acq-p2",
      "SeriesNumber": 5,
      "SeriesTime": "091920.286000",
      "SliceLocation": -57.270339439728,
      "SliceThickness": 3.5,
      "SmallestImagePixelValue": 0,
      "SoftwareVersions": "syngo MR E11",
      "SpacingBetweenSlices": 3.9900000223864,
      "SpecificCharacterSet": "ISO_IR 100",
      "StudyID": "3",
      "StudyTime": "090643.492000",
      "TransmitCoilName": "Body",
      "VariableFlipAngleFlag": "N",
      "WindowCenterWidthExplanation": "Algo1",
      "dBdt": 0.0},
    "slices": {}
  },
  "time": {
    "samples": {
      "AcquisitionNumber": [1, 2, 3, 4, 5, 6, 7, 8, 9, 10, 11, 12, 13, 14, 15, 16, 17, 18, 19, 20, 21, 22, 23, 24, 25, 26, 27, 28, 29, 30, 31, 32, 33, 34, 35, 36, 37, 38, 39, 40, 41, 42, 43, 44, 45, 46, 47, 48, 49, 50, 51, 52, 53, 54, 55, 56, 57, 58, 59, 60, 61, 62, 63, 64, 65, 66, 67, 68, 69, 70, 71, 72, 73, 74, 75, 76, 77, 78, 79, 80, 81, 82, 83, 84, 85, 86, 87, 88, 89, 90, 91, 92, 93, 94, 95, 96, 97, 98, 99, 100, 101, 102, 103, 104, 105, 106, 107, 108, 109, 110, 111, 112, 113, 114, 115, 116, 117, 118, 119, 120, 121, 122, 123, 124, 125, 126, 127, 128, 129, 130, 131, 132, 133, 134, 135, 136, 137, 138, 139, 140, 141, 142, 143, 144, 145, 146, 147, 148, 149, 150, 151, 152, 153, 154, 155, 156, 157, 158, 159, 160, 161, 162, 163, 164, 165, 166, 167, 168, 169, 170, 171, 172, 173, 174, 175, 176, 177, 178, 179, 180, 181, 182, 183, 184, 185, 186, 187, 188, 189, 190, 191, 192, 193, 194, 195, 196, 197, 198, 199, 200],
      "AcquisitionTime": ["091836.202500", "091838.202500", "091840.202500", "091842.202500", "091844.202500", "091846.202500", "091848.202500", "091850.202500", "091852.202500", "091854.202500", "091856.202500", "091858.202500", "091900.202500", "091902.202500", "091904.202500", "091906.202500", "091908.202500", "091910.202500", "091912.202500", "091914.202500", "091916.202500", "091918.202500", "091920.202500", "091922.202500", "091924.202500", "091926.202500", "091928.202500", "091930.202500", "091932.202500", "091934.202500", "091936.202500", "091938.202500", "091940.202500", "091942.202500", "091944.202500", "091946.202500", "091948.202500", "091950.202500", "091952.202500", "091954.202500", "091956.202500", "091958.202500", "092000.202500", "092002.202500", "092004.202500", "092006.202500", "092008.202500", "092010.202500", "092012.202500", "092014.202500", "092016.202500", "092018.202500", "092020.202500", "092022.202500", "092024.202500", "092026.202500", "092028.202500", "092030.202500", "092032.202500", "092034.202500", "092036.202500", "092038.202500", "092040.202500", "092042.202500", "092044.202500", "092046.202500", "092048.202500", "092050.202500", "092052.202500", "092054.202500", "092056.202500", "092058.202500", "092100.202500", "092102.202500", "092104.202500", "092106.202500", "092108.202500", "092110.202500", "092112.202500", "092114.202500", "092116.202500", "092118.202500", "092120.202500", "092122.202500", "092124.202500", "092126.202500", "092128.202500", "092130.202500", "092132.202500", "092134.202500", "092136.202500", "092138.202500", "092140.202500", "092142.202500", "092144.202500", "092146.202500", "092148.202500", "092150.202500", "092152.202500", "092154.202500", "092156.202500", "092158.202500", "092200.202500", "092202.202500", "092204.202500", "092206.202500", "092208.202500", "092210.202500", "092212.202500", "092214.202500", "092216.202500", "092218.202500", "092220.202500", "092222.202500", "092224.202500", "092226.202500", "092228.202500", "092230.202500", "092232.202500", "092234.202500", "092236.202500", "092238.202500", "092240.202500", "092242.202500", "092244.202500", "092246.202500", "092248.202500", "092250.202500", "092252.202500", "092254.202500", "092256.202500", "092258.202500", "092300.202500", "092302.202500", "092304.202500", "092306.202500", "092308.202500", "092310.202500", "092312.202500", "092314.202500", "092316.202500", "092318.202500", "092320.202500", "092322.202500", "092324.202500", "092326.202500", "092328.202500", "092330.202500", "092332.202500", "092334.202500", "092336.202500", "092338.202500", "092340.202500", "092342.202500", "092344.202500", "092346.202500", "092348.202500", "092350.202500", "092352.202500", "092354.202500", "092356.202500", "092358.202500", "092400.202500", "092402.202500", "092404.202500", "092406.202500", "092408.202500", "092410.202500", "092412.202500", "092414.202500", "092416.202500", "092418.202500", "092420.202500", "092422.202500", "092424.202500", "092426.202500", "092428.202500", "092430.202500", "092432.202500", "092434.202500", "092436.202500", "092438.202500", "092440.202500", "092442.202500", "092444.202500", "092446.202500", "092448.202500", "092450.202500", "092452.202500", "092454.202500", "092456.202500", "092458.202500", "092500.202500", "092502.202500", "092504.202500", "092506.202500", "092508.202500", "092510.202500", "092512.202500", "092514.202500"],
      "ContentTime": ["091920.290000", "091920.293000", "091920.296000", "091920.301000", "091920.304000", "091920.306000", "091920.309000", "091920.311000", "091920.314000", "091920.317000", "091920.319000", "091920.322000", "091920.324000", "091920.327000", "091920.330000", "091920.336000", "091920.339000", "091920.342000", "091920.344000", "091920.347000", "091920.349000", "091920.352000", "092000.283000", "092000.286000", "092000.289000", "092000.291000", "092000.294000", "092000.297000", "092000.299000", "092000.302000", "092000.304000", "092000.307000", "092000.309000", "092000.312000", "092000.315000", "092000.317000", "092000.320000", "092000.322000", "092000.325000", "092000.327000", "092000.330000", "092000.343000", "092040.284000", "092040.286000", "092040.289000", "092040.291000", "092040.294000", "092040.297000", "092040.299000", "092040.302000", "092040.311000", "092040.313000", "092040.316000", "092040.318000", "092040.321000", "092040.324000", "092040.326000", "092040.329000", "092040.331000", "092040.334000", "092040.337000", "092040.339000", "092120.284000", "092120.286000", "092120.289000", "092120.292000", "092120.294000", "092120.297000", "092120.300000", "092120.302000", "092120.305000", "092120.307000", "092120.310000", "092120.312000", "092120.315000", "092120.318000", "092120.320000", "092120.323000", "092120.325000", "092120.328000", "092120.330000", "092120.333000", "092200.284000", "092200.287000", "092200.290000", "092200.292000", "092200.295000", "092200.298000", "092200.300000", "092200.303000", "092200.306000", "092200.308000", "092200.311000", "092200.313000", "092200.316000", "092200.318000", "092200.321000", "092200.323000", "092200.326000", "092200.329000", "092200.331000", "092200.334000", "092240.284000", "092240.286000", "092240.289000", "092240.292000", "092240.294000", "092240.297000", "092240.299000", "092240.302000", "092240.305000", "092240.307000", "092240.310000", "092240.312000", "092240.315000", "092240.318000", "092240.320000", "092240.323000", "092240.325000", "092240.328000", "092240.331000", "092240.333000", "092320.284000", "092320.286000", "092320.289000", "092320.292000", "092320.294000", "092320.297000", "092320.299000", "092320.302000", "092320.305000", "092320.307000", "092320.310000", "092320.313000", "092320.316000", "092320.318000", "092320.321000", "092320.323000", "092320.326000", "092320.328000", "092320.331000", "092320.334000", "092400.284000", "092400.287000", "092400.290000", "092400.292000", "092400.295000", "092400.298000", "092400.300000", "092400.303000", "092400.305000", "092400.308000", "092400.311000", "092400.313000", "092400.316000", "092400.318000", "092400.321000", "092400.324000", "092400.326000", "092400.329000", "092400.331000", "092400.334000", "092440.283000", "092440.286000", "092440.289000", "092440.291000", "092440.294000", "092440.297000", "092440.299000", "092440.302000", "092440.305000", "092440.307000", "092440.310000", "092440.312000", "092440.315000", "092440.317000", "092440.320000", "092440.322000", "092440.325000", "092440.328000", "092440.330000", "092440.333000", "092516.092000", "092516.095000", "092516.098000", "092516.100000", "092516.103000", "092516.106000", "092516.108000", "092516.111000", "092516.114000", "092516.116000", "092516.119000", "092516.124000", "092516.131000", "092516.135000", "092516.144000", "092516.147000", "092516.150000", "092516.154000"],
      "InstanceCreationTime": ["091920.290000", "091920.293000", "091920.296000", "091920.301000", "091920.304000", "091920.306000", "091920.309000", "091920.311000", "091920.314000", "091920.317000", "091920.319000", "091920.322000", "091920.324000", "091920.327000", "091920.330000", "091920.336000", "091920.339000", "091920.342000", "091920.344000", "091920.347000", "091920.349000", "091920.352000", "092000.283000", "092000.286000", "092000.289000", "092000.291000", "092000.294000", "092000.297000", "092000.299000", "092000.302000", "092000.304000", "092000.307000", "092000.309000", "092000.312000", "092000.315000", "092000.317000", "092000.320000", "092000.322000", "092000.325000", "092000.327000", "092000.330000", "092000.343000", "092040.284000", "092040.286000", "092040.289000", "092040.291000", "092040.294000", "092040.297000", "092040.299000", "092040.302000", "092040.311000", "092040.313000", "092040.316000", "092040.318000", "092040.321000", "092040.324000", "092040.326000", "092040.329000", "092040.331000", "092040.334000", "092040.337000", "092040.339000", "092120.284000", "092120.286000", "092120.289000", "092120.292000", "092120.294000", "092120.297000", "092120.300000", "092120.302000", "092120.305000", "092120.307000", "092120.310000", "092120.312000", "092120.315000", "092120.318000", "092120.320000", "092120.323000", "092120.325000", "092120.328000", "092120.330000", "092120.333000", "092200.284000", "092200.287000", "092200.290000", "092200.292000", "092200.295000", "092200.298000", "092200.300000", "092200.303000", "092200.306000", "092200.308000", "092200.311000", "092200.313000", "092200.316000", "092200.318000", "092200.321000", "092200.323000", "092200.326000", "092200.329000", "092200.331000", "092200.334000", "092240.284000", "092240.286000", "092240.289000", "092240.292000", "092240.294000", "092240.297000", "092240.299000", "092240.302000", "092240.305000", "092240.307000", "092240.310000", "092240.312000", "092240.315000", "092240.318000", "092240.320000", "092240.323000", "092240.325000", "092240.328000", "092240.331000", "092240.333000", "092320.284000", "092320.286000", "092320.289000", "092320.292000", "092320.294000", "092320.297000", "092320.299000", "092320.302000", "092320.305000", "092320.307000", "092320.310000", "092320.313000", "092320.316000", "092320.318000", "092320.321000", "092320.323000", "092320.326000", "092320.328000", "092320.331000", "092320.334000", "092400.284000", "092400.287000", "092400.290000", "092400.292000", "092400.295000", "092400.298000", "092400.300000", "092400.303000", "092400.305000", "092400.308000", "092400.311000", "092400.313000", "092400.316000", "092400.318000", "092400.321000", "092400.324000", "092400.326000", "092400.329000", "092400.331000", "092400.334000", "092440.283000", "092440.286000", "092440.289000", "092440.291000", "092440.294000", "092440.297000", "092440.299000", "092440.302000", "092440.305000", "092440.307000", "092440.310000", "092440.312000", "092440.315000", "092440.317000", "092440.320000", "092440.322000", "092440.325000", "092440.328000", "092440.330000", "092440.333000", "092516.092000", "092516.095000", "092516.098000", "092516.100000", "092516.103000", "092516.106000", "092516.108000", "092516.111000", "092516.114000", "092516.116000", "092516.119000", "092516.124000", "092516.131000", "092516.135000", "092516.144000", "092516.147000", "092516.150000", "092516.154000"],
      "InstanceNumber": [1, 2, 3, 4, 5, 6, 7, 8, 9, 10, 11, 12, 13, 14, 15, 16, 17, 18, 19, 20, 21, 22, 23, 24, 25, 26, 27, 28, 29, 30, 31, 32, 33, 34, 35, 36, 37, 38, 39, 40, 41, 42, 43, 44, 45, 46, 47, 48, 49, 50, 51, 52, 53, 54, 55, 56, 57, 58, 59, 60, 61, 62, 63, 64, 65, 66, 67, 68, 69, 70, 71, 72, 73, 74, 75, 76, 77, 78, 79, 80, 81, 82, 83, 84, 85, 86, 87, 88, 89, 90, 91, 92, 93, 94, 95, 96, 97, 98, 99, 100, 101, 102, 103, 104, 105, 106, 107, 108, 109, 110, 111, 112, 113, 114, 115, 116, 117, 118, 119, 120, 121, 122, 123, 124, 125, 126, 127, 128, 129, 130, 131, 132, 133, 134, 135, 136, 137, 138, 139, 140, 141, 142, 143, 144, 145, 146, 147, 148, 149, 150, 151, 152, 153, 154, 155, 156, 157, 158, 159, 160, 161, 162, 163, 164, 165, 166, 167, 168, 169, 170, 171, 172, 173, 174, 175, 176, 177, 178, 179, 180, 181, 182, 183, 184, 185, 186, 187, 188, 189, 190, 191, 192, 193, 194, 195, 196, 197, 198, 199, 200],
      "LargestImagePixelValue": [3661, 3663, 3656, 3668, 3666, 3650, 3666, 3659, 3668, 3662, 3663, 3664, 3669, 3667, 3665, 3670, 3658, 3661, 3669, 3656, 3662, 3660, 3658, 3652, 3650, 3663, 3659, 3666, 3670, 3682, 3652, 3657, 3668, 3673, 3653, 3661, 3654, 3647, 3664, 3666, 3656, 3663, 3665, 3662, 3645, 3662, 3660, 3651, 3657, 3658, 3658, 3667, 3656, 3651, 3661, 3657, 3662, 3665, 3640, 3670, 3655, 3650, 3658, 3652, 3649, 3648, 3655, 3674, 3666, 3654, 3676, 3651, 3653, 3659, 3640, 3651, 3652, 3659, 3657, 3652, 3658, 3657, 3661, 3653, 3664, 3669, 3659, 3657, 3664, 3653, 3648, 3661, 3676, 3669, 3661, 3657, 3649, 3655, 3664, 3671, 3651, 3649, 3663, 3654, 3654, 3659, 3659, 3660, 3658, 3656, 3651, 3668, 3648, 3655, 3650, 3659, 3640, 3653, 3665, 3658, 3654, 3658, 3653, 3651, 3652, 3651, 3647, 3652, 3653, 3634, 3642, 3664, 3656, 3643, 3643, 3647, 3657, 3653, 3645, 3654, 3659, 3641, 3652, 3651, 3652, 3651, 3654, 3659, 3658, 3655, 3652, 3659, 3648, 3650, 3648, 3659, 3639, 3640, 3650, 3663, 3671, 3657, 3643, 3654, 3652, 3652, 3644, 3655, 3661, 3676, 3654, 3656, 3636, 3641, 3645, 3643, 3651, 3664, 3652, 3661, 3657, 3656, 3648, 3654, 3653, 3644, 3651, 3651, 3643, 3646, 3652, 3667, 3650, 3650, 3647, 3653, 3653, 3648, 3641, 3646],
      "WindowCenter": [1397.0, 1397.0, 1396.0, 1396.0, 1396.0, 1396.0, 1396.0, 1396.0, 1395.0, 1395.0, 1395.0, 1395.0, 1395.0, 1395.0, 1395.0, 1395.0, 1395.0, 1395.0, 1395.0, 1394.0, 1395.0, 1394.0, 1393.0, 1394.0, 1393.0, 1394.0, 1394.0, 1394.0, 1393.0, 1393.0, 1393.0, 1393.0, 1393.0, 1393.0, 1393.0, 1393.0, 1393.0, 1393.0, 1393.0, 1393.0, 1393.0, 1392.0, 1392.0, 1393.0, 1393.0, 1393.0, 1393.0, 1393.0, 1392.0, 1393.0, 1393.0, 1392.0, 1393.0, 1392.0, 1392.0, 1392.0, 1392.0, 1392.0, 1392.0, 1392.0, 1392.0, 1392.0, 1394.0, 1394.0, 1393.0, 1394.0, 1393.0, 1394.0, 1393.0, 1394.0, 1393.0, 1393.0, 1393.0, 1393.0, 1393.0, 1393.0, 1393.0, 1393.0, 1392.0, 1391.0, 1392.0, 1392.0, 1392.0, 1392.0, 1392.0, 1391.0, 1392.0, 1391.0, 1391.0, 1391.0, 1392.0, 1391.0, 1391.0, 1391.0, 1391.0, 1390.0, 1391.0, 1391.0, 1391.0, 1391.0, 1391.0, 1391.0, 1391.0, 1391.0, 1392.0, 1391.0, 1391.0, 1392.0, 1391.0, 1391.0, 1392.0, 1391.0, 1391.0, 1391.0, 1391.0, 1391.0, 1391.0, 1391.0, 1390.0, 1391.0, 1390.0, 1391.0, 1390.0, 1391.0, 1390.0, 1391.0, 1391.0, 1391.0, 1390.0, 1390.0, 1390.0, 1390.0, 1390.0, 1390.0, 1390.0, 1390.0, 1390.0, 1390.0, 1390.0, 1390.0, 1390.0, 1391.0, 1390.0, 1390.0, 1390.0, 1390.0, 1390.0, 1390.0, 1390.0, 1390.0, 1390.0, 1390.0, 1390.0, 1390.0, 1389.0, 1390.0, 1390.0, 1390.0, 1390.0, 1389.0, 1390.0, 1390.0, 1390.0, 1390.0, 1390.0, 1390.0, 1390.0, 1390.0, 1390.0, 1389.0, 1390.0, 1390.0, 1390.0, 1390.0, 1389.0, 1390.0, 1389.0, 1390.0, 1389.0, 1390.0, 1389.0, 1389.0, 1390.0, 1389.0, 1389.0, 1389.0, 1389.0, 1389.0, 1389.0, 1389.0, 1390.0, 1390.0, 1389.0, 1390.0, 1390.0, 1390.0, 1389.0, 1389.0, 1389.0, 1389.0],
      "WindowWidth": [3244.0, 3242.0, 3242.0, 3242.0, 3242.0, 3242.0, 3242.0, 3242.0, 3241.0, 3241.0, 3242.0, 3242.0, 3242.0, 3242.0, 3242.0, 3242.0, 3242.0, 3242.0, 3241.0, 3242.0, 3242.0, 3241.0, 3240.0, 3240.0, 3240.0, 3240.0, 3240.0, 3240.0, 3240.0, 3240.0, 3240.0, 3240.0, 3240.0, 3240.0, 3240.0, 3240.0, 3240.0, 3240.0, 3239.0, 3239.0, 3239.0, 3239.0, 3239.0, 3239.0, 3239.0, 3239.0, 3239.0, 3239.0, 3239.0, 3239.0, 3239.0, 3239.0, 3239.0, 3239.0, 3239.0, 3239.0, 3239.0, 3239.0, 3239.0, 3239.0, 3239.0, 3239.0, 3239.0, 3239.0, 3239.0, 3239.0, 3239.0, 3239.0, 3240.0, 3240.0, 3239.0, 3240.0, 3240.0, 3240.0, 3240.0, 3240.0, 3240.0, 3240.0, 3238.0, 3238.0, 3238.0, 3238.0, 3238.0, 3238.0, 3238.0, 3238.0, 3238.0, 3238.0, 3238.0, 3238.0, 3238.0, 3238.0, 3238.0, 3238.0, 3238.0, 3238.0, 3238.0, 3238.0, 3238.0, 3238.0, 3238.0, 3238.0, 3238.0, 3238.0, 3237.0, 3238.0, 3238.0, 3237.0, 3238.0, 3237.0, 3237.0, 3238.0, 3237.0, 3237.0, 3237.0, 3237.0, 3237.0, 3237.0, 3237.0, 3237.0, 3237.0, 3237.0, 3237.0, 3237.0, 3237.0, 3237.0, 3237.0, 3237.0, 3237.0, 3237.0, 3237.0, 3237.0, 3237.0, 3237.0, 3237.0, 3237.0, 3237.0, 3237.0, 3237.0, 3237.0, 3237.0, 3236.0, 3237.0, 3237.0, 3237.0, 3237.0, 3237.0, 3236.0, 3237.0, 3237.0, 3236.0, 3236.0, 3236.0, 3236.0, 3236.0, 3236.0, 3236.0, 3236.0, 3236.0, 3236.0, 3236.0, 3236.0, 3236.0, 3236.0, 3236.0, 3236.0, 3236.0, 3236.0, 3236.0, 3236.0, 3236.0, 3236.0, 3236.0, 3236.0, 3236.0, 3236.0, 3236.0, 3235.0, 3236.0, 3235.0, 3236.0, 3236.0, 3235.0, 3236.0, 3236.0, 3236.0, 3236.0, 3236.0, 3236.0, 3236.0, 3235.0, 3235.0, 3236.0, 3235.0, 3235.0, 3235.0, 3235.0, 3235.0, 3235.0, 3235.0]
    },
    "slices": {}
  }
}