{
  "AcquisitionMatrixPE": 80,
  "AcquisitionNumber": 1,
  "AcquisitionTime": "09:12:57.205000",
  "BandwidthPerPixelPhaseEncode": 48.077,
  "BaseResolution": 80,
  "BodyPartExamined": "BRAIN",
  "CoilCombinationMethod": "Sum of Squares",
  "ConsistencyInfo": "N4_VE11C_LATEST_20160120",
  "ConversionSoftware": "dcm2niix",
  "ConversionSoftwareVersion": "v1.0.20220720",
  "DerivedVendorReportedEchoSpacing": 0.000519999,
  "DeviceSerialNumber": "66112",
  "DwellTime": 2.7e-06,
  "EchoTime": 0.035,
  "EchoTrainLength": 39,
  "EffectiveEchoSpacing": 0.00026,
  "FlipAngle": 90,
  "HeudiconvVersion": "0.13.1",
  "ImageOrientationPatientDICOM": [0.988233, 0.152683, 0.00909319, -0.149103, 0.948395, 0.279848],
  "ImageOrientationText": "Tra>Cor(16.1)>Sag(-2.0)",
  "ImageType": [
    "ORIGINAL",
    "PRIMARY",
    "M",
    "ND",
    "NORM",
    "MOSAIC"
],
  "ImagingFrequency": 123.253,
  "InPlanePhaseEncodingDirectionDICOM": "COL",
  "InstitutionAddress": "Maynard 3,Hanover,NH,US,03755",
  "InstitutionName": "Dartmouth College - PBS",
  "InstitutionalDepartmentName": "Department",
  "MRAcquisitionType": "2D",
  "MagneticFieldStrength": 3,
  "Manufacturer": "Siemens",
  "ManufacturersModelName": "Prisma",
  "MatrixCoilMode": "GRAPPA",
  "Modality": "MR",
  "NonlinearGradientCorrection": false,
  "ParallelReductionFactorInPlane": 2,
  "PartialFourier": 1,
  "PatientPosition": "HFS",
  "PercentPhaseFOV": 100,
  "PercentSampling": 100,
  "PhaseEncodingDirection": "j-",
  "PhaseEncodingSteps": 79,
  "PhaseResolution": 1,
  "PixelBandwidth": 2315,
  "ProcedureStepDescription": "dbic^QA",
  "ProtocolName": "func-bold_task-rest_acq-p2",
  "PulseSequenceDetails": "%SiemensSeq%\\ep2d_bold",
  "ReceiveCoilActiveElements": "HEA;HEP",
  "ReceiveCoilName": "Head_32",
  "ReconMatrixPE": 80,
  "RefLinesPE": 24,
  "RepetitionTime": 2,
  "SAR": 0.0554817,
  "ScanOptions": "FS",
  "ScanningSequence": "EP",
  "SequenceName": "*epfid2d1_80",
  "SequenceVariant": "SK",
  "SeriesDescription": "func-bold_task-rest_acq-p2",
  "SeriesNumber": 5,
  "ShimSetting": [4154, -7691, -7513, 299, -36, -195, -36, 115],
  "SliceThickness": 3.5,
  "SliceTiming": [0.99, 0, 1.0575, 0.0675, 1.1225, 0.1325, 1.1875, 0.1975, 1.255, 0.265, 1.32, 0.33, 1.3875, 0.3975, 1.4525, 0.4625, 1.5175, 0.5275, 1.585, 0.595, 1.65, 0.66, 1.7175, 0.7275, 1.7825, 0.7925, 1.8475, 0.8575, 1.915, 0.925],
  "SoftwareVersions": "syngo MR E11",
  "SpacingBetweenSlices": 3.99,
  "StationName": "AWP66112",
  "TaskName": "rest",
  "TotalReadoutTime": 0.02054,
  "TxRefAmp": 230.204,
  "dcmmeta_affine": [
    [-2.9646999835968018, -0.4473101794719696, -0.13607606291770935, 143.09056091308594],
    [-0.45805037021636963, 2.8451850414276123, 1.1088660955429077, -116.84870910644531],
    [0.02727956883609295, -0.8395450711250305, 3.83040452003479, -19.597797393798828],
    [0.0, 0.0, 0.0, 1.0]
],
  "dcmmeta_reorient_transform": [
    [0.0, -1.0, 0.0, 79.0],
    [1.0, 0.0, 0.0, 0.0],
    [0.0, 0.0, 1.0, 0.0],
    [0.0, 0.0, 0.0, 1.0]
],
  "dcmmeta_shape": [80, 80, 30, 200],
  "dcmmeta_slice_dim": 2,
  "dcmmeta_version": 0.6,
  "global": {
    "const": {
      "AccessionNumber": "qa",
      "AcquisitionMatrix": [80, 0, 0, 80],
      "AngioFlag": "N",
      "BitsAllocated": 16,
      "BitsStored": 12,
      "BodyPartExamined": "BRAIN",
      "Columns": 480,
      "EchoNumbers": 1,
      "EchoTime": 35.0,
      "EchoTrainLength": 39,
      "FlipAngle": 90.0,
      "HighBit": 11,
      "ImageOrientationPatient": [0.98823331089674, 0.1526834540246, 0.0090931898245, -0.1491033920157, 0.94839500125523, 0.27984835193997],
      "ImagePositionPatient": [-611.23100857817, -768.56797835629, -259.28678092003],
      "ImageType": [
        "ORIGINAL",
        "PRIMARY",
        "M",
        "ND",
        "NORM",
        "MOSAIC"
],
      "ImagedNucleus": "1H",
      "ImagingFrequency": 123.252509,
      "InPlanePhaseEncodingDirection": "COL",
      "MRAcquisitionType": "2D",
      "MagneticFieldStrength": 3.0,
      "Manufacturer": "SIEMENS",
      "ManufacturerModelName": "Prisma",
      "Modality": "MR",
      "NumberOfAverages": 1.0,
      "NumberOfPhaseEncodingSteps": 79,
      "PercentPhaseFieldOfView": 100.0,
      "PercentSampling": 100.0,
      "PerformedProcedureStepStartTime": "091124.632000",
      "PhotometricInterpretation": "MONOCHROME2",
      "PixelBandwidth": 2315.0,
      "PixelRepresentation": 0,
      "PixelSpacing": [3.0, 3.0],
      "ProtocolName": "func-bold_task-rest_acq-p2",
      "RepetitionTime": 2000.0,
      "Rows": 480,
      "SAR": 0.0554817244702,
      "SamplesPerPixel": 1,
      "ScanOptions": "FS",
      "ScanningSequence": "EP",
      "SequenceName": "*epfid2d1_80",
      "SequenceVariant": "SK",
      "SeriesDescription": "func-bold_task-rest_acq-p2",
      "SeriesNumber": 5,
      "SeriesTime": "091343.164000",
      "SliceLocation": -56.167482978031,
      "SliceThickness": 3.5,
      "SmallestImagePixelValue": 0,
      "SoftwareVersions": "syngo MR E11",
      "SpacingBetweenSlices": 3.9900000124513,
      "SpecificCharacterSet": "ISO_IR 100",
      "StudyID": "18",
      "StudyTime": "091124.563000",
      "TransmitCoilName": "Body",
      "VariableFlipAngleFlag": "N",
      "WindowCenterWidthExplanation": "Algo1",
      "dBdt": 0.0},
    "slices": {}
  },
  "time": {
    "samples": {
      "AcquisitionNumber": [1, 2, 3, 4, 5, 6, 7, 8, 9, 10, 11, 12, 13, 14, 15, 16, 17, 18, 19, 20, 21, 22, 23, 24, 25, 26, 27, 28, 29, 30, 31, 32, 33, 34, 35, 36, 37, 38, 39, 40, 41, 42, 43, 44, 45, 46, 47, 48, 49, 50, 51, 52, 53, 54, 55, 56, 57, 58, 59, 60, 61, 62, 63, 64, 65, 66, 67, 68, 69, 70, 71, 72, 73, 74, 75, 76, 77, 78, 79, 80, 81, 82, 83, 84, 85, 86, 87, 88, 89, 90, 91, 92, 93, 94, 95, 96, 97, 98, 99, 100, 101, 102, 103, 104, 105, 106, 107, 108, 109, 110, 111, 112, 113, 114, 115, 116, 117, 118, 119, 120, 121, 122, 123, 124, 125, 126, 127, 128, 129, 130, 131, 132, 133, 134, 135, 136, 137, 138, 139, 140, 141, 142, 143, 144, 145, 146, 147, 148, 149, 150, 151, 152, 153, 154, 155, 156, 157, 158, 159, 160, 161, 162, 163, 164, 165, 166, 167, 168, 169, 170, 171, 172, 173, 174, 175, 176, 177, 178, 179, 180, 181, 182, 183, 184, 185, 186, 187, 188, 189, 190, 191, 192, 193, 194, 195, 196, 197, 198, 199, 200],
      "AcquisitionTime": ["091257.205000", "091259.205000", "091301.205000", "091303.205000", "091305.205000", "091307.205000", "091309.205000", "091311.205000", "091313.205000", "091315.205000", "091317.205000", "091319.205000", "091321.205000", "091323.205000", "091325.205000", "091327.205000", "091329.205000", "091331.205000", "091333.205000", "091335.205000", "091337.205000", "091339.205000", "091341.205000", "091343.205000", "091345.205000", "091347.205000", "091349.205000", "091351.205000", "091353.205000", "091355.205000", "091357.205000", "091359.205000", "091401.205000", "091403.205000", "091405.205000", "091407.205000", "091409.205000", "091411.205000", "091413.205000", "091415.205000", "091417.205000", "091419.205000", "091421.205000", "091423.205000", "091425.205000", "091427.205000", "091429.205000", "091431.205000", "091433.205000", "091435.205000", "091437.205000", "091439.205000", "091441.205000", "091443.205000", "091445.205000", "091447.205000", "091449.205000", "091451.205000", "091453.205000", "091455.205000", "091457.205000", "091459.205000", "091501.205000", "091503.205000", "091505.205000", "091507.205000", "091509.205000", "091511.205000", "091513.205000", "091515.205000", "091517.205000", "091519.205000", "091521.205000", "091523.205000", "091525.205000", "091527.205000", "091529.205000", "091531.205000", "091533.205000", "091535.205000", "091537.205000", "091539.205000", "091541.205000", "091543.205000", "091545.205000", "091547.205000", "091549.205000", "091551.205000", "091553.205000", "091555.205000", "091557.205000", "091559.205000", "091601.205000", "091603.205000", "091605.205000", "091607.205000", "091609.205000", "091611.205000", "091613.205000", "091615.205000", "091617.205000", "091619.205000", "091621.205000", "091623.205000", "091625.205000", "091627.205000", "091629.205000", "091631.205000", "091633.205000", "091635.205000", "091637.205000", "091639.205000", "091641.205000", "091643.205000", "091645.205000", "091647.205000", "091649.205000", "091651.205000", "091653.205000", "091655.205000", "091657.205000", "091659.205000", "091701.205000", "091703.205000", "091705.205000", "091707.205000", "091709.205000", "091711.205000", "091713.205000", "091715.205000", "091717.205000", "091719.205000", "091721.205000", "091723.205000", "091725.205000", "091727.205000", "091729.205000", "091731.205000", "091733.205000", "091735.205000", "091737.205000", "091739.205000", "091741.205000", "091743.205000", "091745.205000", "091747.205000", "091749.205000", "091751.205000", "091753.205000", "091755.205000", "091757.205000", "091759.205000", "091801.205000", "091803.205000", "091805.205000", "091807.205000", "091809.205000", "091811.205000", "091813.205000", "091815.205000", "091817.205000", "091819.205000", "091821.205000", "091823.205000", "091825.205000", "091827.205000", "091829.205000", "091831.205000", "091833.205000", "091835.205000", "091837.205000", "091839.205000", "091841.205000", "091843.205000", "091845.205000", "091847.205000", "091849.205000", "091851.205000", "091853.205000", "091855.205000", "091857.205000", "091859.205000", "091901.205000", "091903.205000", "091905.205000", "091907.205000", "091909.205000", "091911.205000", "091913.205000", "091915.205000", "091917.205000", "091919.205000", "091921.205000", "091923.205000", "091925.205000", "091927.205000", "091929.205000", "091931.205000", "091933.205000", "091935.205000"],
      "ContentTime": ["091343.167000", "091343.171000", "091343.173000", "091343.176000", "091343.178000", "091343.181000", "091343.184000", "091343.186000", "091343.189000", "091343.191000", "091343.194000", "091343.196000", "091343.199000", "091343.202000", "091343.210000", "091343.213000", "091343.215000", "091343.225000", "091343.228000", "091343.230000", "091343.233000", "091343.236000", "091343.238000", "091423.162000", "091423.165000", "091423.168000", "091423.170000", "091423.173000", "091423.176000", "091423.178000", "091423.181000", "091423.183000", "091423.186000", "091423.188000", "091423.191000", "091423.193000", "091423.196000", "091423.198000", "091423.201000", "091423.203000", "091423.206000", "091423.209000", "091423.211000", "091503.161000", "091503.164000", "091503.167000", "091503.169000", "091503.178000", "091503.180000", "091503.183000", "091503.185000", "091503.188000", "091503.190000", "091503.193000", "091503.195000", "091503.198000", "091503.201000", "091503.203000", "091503.206000", "091503.208000", "091503.211000", "091503.213000", "091503.216000", "091543.162000", "091543.165000", "091543.168000", "091543.170000", "091543.173000", "091543.176000", "091543.178000", "091543.181000", "091543.183000", "091543.186000", "091543.188000", "091543.191000", "091543.193000", "091543.196000", "091543.198000", "091543.201000", "091543.204000", "091543.206000", "091543.209000", "091543.211000", "091623.162000", "091623.165000", "091623.168000", "091623.171000", "091623.173000", "091623.203000", "091623.205000", "091623.208000", "091623.210000", "091623.213000", "091623.215000", "091623.218000", "091623.221000", "091623.223000", "091623.225000", "091623.228000", "091623.231000", "091623.233000", "091623.236000", "091623.238000", "091703.161000", "091703.164000", "091703.167000", "091703.174000", "091703.195000", "091703.198000", "091703.200000", "091703.203000", "091703.205000", "091703.208000", "091703.210000", "091703.213000", "091703.215000", "091703.218000", "091703.220000", "091703.223000", "091703.226000", "091703.228000", "091703.231000", "091703.233000", "091743.162000", "091743.164000", "091743.167000", "091743.169000", "091743.172000", "091743.200000", "091743.203000", "091743.206000", "091743.208000", "091743.211000", "091743.213000", "091743.216000", "091743.218000", "091743.221000", "091743.223000", "091743.226000", "091743.229000", "091743.231000", "091743.233000", "091743.236000", "091823.162000", "091823.165000", "091823.168000", "091823.178000", "091823.205000", "091823.207000", "091823.210000", "091823.213000", "091823.215000", "091823.217000", "091823.220000", "091823.223000", "091823.225000", "091823.228000", "091823.230000", "091823.233000", "091823.236000", "091823.238000", "091823.240000", "091823.243000", "091903.162000", "091903.165000", "091903.168000", "091903.171000", "091903.173000", "091903.186000", "091903.188000", "091903.191000", "091903.194000", "091903.196000", "091903.199000", "091903.201000", "091903.204000", "091903.206000", "091903.209000", "091903.212000", "091903.214000", "091903.217000", "091903.219000", "091903.222000", "091937.089000", "091937.092000", "091937.095000", "091937.098000", "091937.100000", "091937.103000", "091937.105000", "091937.108000", "091937.111000", "091937.113000", "091937.116000", "091937.118000", "091937.124000", "091937.129000", "091937.132000", "091937.136000", "091937.142000"],
      "InstanceCreationTime": ["091343.167000", "091343.171000", "091343.173000", "091343.176000", "091343.178000", "091343.181000", "091343.184000", "091343.186000", "091343.189000", "091343.191000", "091343.194000", "091343.196000", "091343.199000", "091343.202000", "091343.210000", "091343.213000", "091343.215000", "091343.225000", "091343.228000", "091343.230000", "091343.233000", "091343.236000", "091343.238000", "091423.162000", "091423.165000", "091423.168000", "091423.170000", "091423.173000", "091423.176000", "091423.178000", "091423.181000", "091423.183000", "091423.186000", "091423.188000", "091423.191000", "091423.193000", "091423.196000", "091423.198000", "091423.201000", "091423.203000", "091423.206000", "091423.209000", "091423.211000", "091503.161000", "091503.164000", "091503.167000", "091503.169000", "091503.178000", "091503.180000", "091503.183000", "091503.185000", "091503.188000", "091503.190000", "091503.193000", "091503.195000", "091503.198000", "091503.201000", "091503.203000", "091503.206000", "091503.208000", "091503.211000", "091503.213000", "091503.216000", "091543.162000", "091543.165000", "091543.168000", "091543.170000", "091543.173000", "091543.176000", "091543.178000", "091543.181000", "091543.183000", "091543.186000", "091543.188000", "091543.191000", "091543.193000", "091543.196000", "091543.198000", "091543.201000", "091543.204000", "091543.206000", "091543.209000", "091543.211000", "091623.162000", "091623.165000", "091623.168000", "091623.171000", "091623.173000", "091623.203000", "091623.205000", "091623.208000", "091623.210000", "091623.213000", "091623.215000", "091623.218000", "091623.221000", "091623.223000", "091623.225000", "091623.228000", "091623.231000", "091623.233000", "091623.236000", "091623.238000", "091703.161000", "091703.164000", "091703.167000", "091703.174000", "091703.195000", "091703.198000", "091703.200000", "091703.203000", "091703.205000", "091703.208000", "091703.210000", "091703.213000", "091703.215000", "091703.218000", "091703.220000", "091703.223000", "091703.226000", "091703.228000", "091703.231000", "091703.233000", "091743.162000", "091743.164000", "091743.167000", "091743.169000", "091743.172000", "091743.200000", "091743.203000", "091743.206000", "091743.208000", "091743.211000", "091743.213000", "091743.216000", "091743.218000", "091743.221000", "091743.223000", "091743.226000", "091743.229000", "091743.231000", "091743.233000", "091743.236000", "091823.162000", "091823.165000", "091823.168000", "091823.178000", "091823.205000", "091823.207000", "091823.210000", "091823.213000", "091823.215000", "091823.217000", "091823.220000", "091823.223000", "091823.225000", "091823.228000", "091823.230000", "091823.233000", "091823.236000", "091823.238000", "091823.240000", "091823.243000", "091903.162000", "091903.165000", "091903.168000", "091903.171000", "091903.173000", "091903.186000", "091903.188000", "091903.191000", "091903.194000", "091903.196000", "091903.199000", "091903.201000", "091903.204000", "091903.206000", "091903.209000", "091903.212000", "091903.214000", "091903.217000", "091903.219000", "091903.222000", "091937.089000", "091937.092000", "091937.095000", "091937.098000", "091937.100000", "091937.103000", "091937.105000", "091937.108000", "091937.111000", "091937.113000", "091937.116000", "091937.118000", "091937.124000", "091937.129000", "091937.132000", "091937.136000", "091937.142000"],
      "InstanceNumber": [1, 2, 3, 4, 5, 6, 7, 8, 9, 10, 11, 12, 13, 14, 15, 16, 17, 18, 19, 20, 21, 22, 23, 24, 25, 26, 27, 28, 29, 30, 31, 32, 33, 34, 35, 36, 37, 38, 39, 40, 41, 42, 43, 44, 45, 46, 47, 48, 49, 50, 51, 52, 53, 54, 55, 56, 57, 58, 59, 60, 61, 62, 63, 64, 65, 66, 67, 68, 69, 70, 71, 72, 73, 74, 75, 76, 77, 78, 79, 80, 81, 82, 83, 84, 85, 86, 87, 88, 89, 90, 91, 92, 93, 94, 95, 96, 97, 98, 99, 100, 101, 102, 103, 104, 105, 106, 107, 108, 109, 110, 111, 112, 113, 114, 115, 116, 117, 118, 119, 120, 121, 122, 123, 124, 125, 126, 127, 128, 129, 130, 131, 132, 133, 134, 135, 136, 137, 138, 139, 140, 141, 142, 143, 144, 145, 146, 147, 148, 149, 150, 151, 152, 153, 154, 155, 156, 157, 158, 159, 160, 161, 162, 163, 164, 165, 166, 167, 168, 169, 170, 171, 172, 173, 174, 175, 176, 177, 178, 179, 180, 181, 182, 183, 184, 185, 186, 187, 188, 189, 190, 191, 192, 193, 194, 195, 196, 197, 198, 199, 200],
      "LargestImagePixelValue": [2105, 2120, 2111, 2112, 2107, 2106, 2116, 2106, 2112, 2104, 2110, 2125, 2113, 2108, 2104, 2104, 2120, 2110, 2119, 2111, 2109, 2103, 2113, 2114, 2120, 2109, 2102, 2111, 2109, 2112, 2103, 2107, 2122, 2116, 2101, 2112, 2100, 2106, 2115, 2112, 2108, 2100, 2106, 2103, 2100, 2112, 2102, 2105, 2105, 2113, 2106, 2102, 2105, 2106, 2098, 2108, 2109, 2103, 2114, 2115, 2108, 2110, 2107, 2103, 2101, 2104, 2110, 2112, 2106, 2116, 2098, 2106, 2095, 2107, 2104, 2096, 2096, 2112, 2097, 2105, 2098, 2102, 2108, 2110, 2113, 2110, 2109, 2107, 2107, 2103, 2110, 2103, 2108, 2107, 2109, 2102, 2104, 2113, 2105, 2097, 2105, 2108, 2106, 2102, 2107, 2100, 2115, 2111, 2105, 2110, 2105, 2098, 2098, 2107, 2099, 2110, 2104, 2097, 2095, 2104, 2100, 2102, 2105, 2101, 2096, 2107, 2101, 2113, 2109, 2103, 2107, 2100, 2098, 2095, 2100, 2097, 2103, 2106, 2100, 2100, 2094, 2105, 2107, 2095, 2097, 2104, 2100, 2102, 2103, 2106, 2104, 2105, 2100, 2094, 2101, 2120, 2108, 2112, 2097, 2100, 2111, 2101, 2101, 2094, 2105, 2108, 2099, 2106, 2098, 2099, 2104, 2099, 2095, 2101, 2109, 2113, 2100, 2104, 2107, 2101, 2107, 2103, 2107, 2103, 2102, 2102, 2096, 2103, 2105, 2096, 2099, 2100, 2109, 2105, 2093, 2105, 2096, 2108, 2105, 2106],
      "WindowCenter": [1013.0, 1013.0, 1013.0, 1012.0, 1013.0, 1012.0, 1012.0, 1013.0, 1012.0, 1013.0, 1012.0, 1013.0, 1012.0, 1012.0, 1012.0, 1012.0, 1012.0, 1012.0, 1012.0, 1012.0, 1012.0, 1012.0, 1012.0, 1012.0, 1012.0, 1012.0, 1012.0, 1012.0, 1012.0, 1012.0, 1012.0, 1012.0, 1012.0, 1012.0, 1012.0, 1012.0, 1012.0, 1012.0, 1012.0, 1012.0, 1012.0, 1012.0, 1012.0, 1012.0, 1012.0, 1012.0, 1012.0, 1012.0, 1012.0, 1012.0, 1012.0, 1012.0, 1012.0, 1012.0, 1012.0, 1012.0, 1012.0, 1012.0, 1012.0, 1012.0, 1012.0, 1012.0, 1012.0, 1012.0, 1012.0, 1012.0, 1012.0, 1012.0, 1012.0, 1012.0, 1013.0, 1012.0, 1012.0, 1012.0, 1012.0, 1012.0, 1012.0, 1012.0, 1012.0, 1012.0, 1012.0, 1012.0, 1012.0, 1012.0, 1012.0, 1012.0, 1012.0, 1012.0, 1012.0, 1012.0, 1012.0, 1012.0, 1012.0, 1012.0, 1012.0, 1012.0, 1012.0, 1012.0, 1012.0, 1012.0, 1012.0, 1012.0, 1012.0, 1012.0, 1012.0, 1012.0, 1012.0, 1012.0, 1012.0, 1012.0, 1012.0, 1012.0, 1012.0, 1012.0, 1012.0, 1012.0, 1012.0, 1012.0, 1012.0, 1012.0, 1012.0, 1012.0, 1012.0, 1012.0, 1012.0, 1012.0, 1012.0, 1012.0, 1012.0, 1012.0, 1012.0, 1012.0, 1012.0, 1012.0, 1012.0, 1012.0, 1012.0, 1012.0, 1013.0, 1012.0, 1012.0, 1012.0, 1012.0, 1012.0, 1012.0, 1012.0, 1012.0, 1012.0, 1012.0, 1012.0, 1012.0, 1012.0, 1012.0, 1012.0, 1012.0, 1012.0, 1012.0, 1012.0, 1012.0, 1012.0, 1012.0, 1012.0, 1012.0, 1012.0, 1012.0, 1012.0, 1012.0, 1012.0, 1012.0, 1012.0, 1012.0, 1012.0, 1012.0, 1012.0, 1012.0, 1012.0, 1011.0, 1012.0, 1012.0, 1012.0, 1012.0, 1012.0, 1012.0, 1012.0, 1011.0, 1011.0, 1012.0, 1011.0, 1011.0, 1012.0, 1011.0, 1011.0, 1012.0, 1012.0, 1012.0, 1011.0, 1011.0, 1012.0, 1012.0, 1012.0],
      "WindowWidth": [2238.0, 2238.0, 2238.0, 2238.0, 2238.0, 2237.0, 2238.0, 2237.0, 2237.0, 2237.0, 2238.0, 2238.0, 2237.0, 2237.0, 2237.0, 2237.0, 2237.0, 2237.0, 2237.0, 2237.0, 2237.0, 2237.0, 2237.0, 2237.0, 2237.0, 2237.0, 2237.0, 2237.0, 2237.0, 2237.0, 2237.0, 2237.0, 2237.0, 2237.0, 2237.0, 2237.0, 2237.0, 2237.0, 2237.0, 2237.0, 2236.0, 2236.0, 2236.0, 2236.0, 2236.0, 2237.0, 2237.0, 2236.0, 2237.0, 2237.0, 2236.0, 2236.0, 2236.0, 2236.0, 2236.0, 2237.0, 2236.0, 2236.0, 2236.0, 2237.0, 2236.0, 2237.0, 2236.0, 2236.0, 2236.0, 2237.0, 2236.0, 2236.0, 2236.0, 2236.0, 2236.0, 2236.0, 2236.0, 2236.0, 2236.0, 2236.0, 2236.0, 2236.0, 2236.0, 2236.0, 2236.0, 2236.0, 2236.0, 2236.0, 2236.0, 2236.0, 2236.0, 2236.0, 2236.0, 2236.0, 2236.0, 2236.0, 2235.0, 2235.0, 2236.0, 2235.0, 2235.0, 2235.0, 2235.0, 2235.0, 2235.0, 2235.0, 2235.0, 2235.0, 2235.0, 2236.0, 2235.0, 2235.0, 2236.0, 2235.0, 2235.0, 2235.0, 2235.0, 2235.0, 2235.0, 2235.0, 2235.0, 2235.0, 2235.0, 2235.0, 2235.0, 2235.0, 2235.0, 2235.0, 2235.0, 2235.0, 2235.0, 2235.0, 2235.0, 2235.0, 2235.0, 2235.0, 2235.0, 2235.0, 2235.0, 2235.0, 2235.0, 2235.0, 2235.0, 2235.0, 2235.0, 2235.0, 2235.0, 2235.0, 2235.0, 2235.0, 2235.0, 2234.0, 2234.0, 2235.0, 2235.0, 2235.0, 2235.0, 2234.0, 2234.0, 2235.0, 2235.0, 2235.0, 2234.0, 2234.0, 2234.0, 2234.0, 2234.0, 2234.0, 2234.0, 2234.0, 2235.0, 2234.0, 2234.0, 2234.0, 2234.0, 2234.0, 2234.0, 2235.0, 2234.0, 2234.0, 2234.0, 2234.0, 2234.0, 2234.0, 2234.0, 2234.0, 2234.0, 2234.0, 2234.0, 2234.0, 2234.0, 2234.0, 2234.0, 2234.0, 2234.0, 2234.0, 2234.0, 2234.0, 2234.0, 2234.0, 2234.0, 2234.0, 2234.0, 2235.0]
    },
    "slices": {}
  }
}