{
  "AcquisitionMatrixPE": 80,
  "AcquisitionNumber": 1,
  "AcquisitionTime": "09:33:28.527500",
  "BandwidthPerPixelPhaseEncode": 25,
  "BaseResolution": 80,
  "BodyPartExamined": "BRAIN",
  "CoilCombinationMethod": "Sum of Squares",
  "ConsistencyInfo": "N4_VE11C_LATEST_20160120",
  "ConversionSoftware": "dcm2niix",
  "ConversionSoftwareVersion": "v1.0.20220720",
  "DerivedVendorReportedEchoSpacing": 0.0005,
  "DeviceSerialNumber": "66112",
  "DwellTime": 2.7e-06,
  "EchoTime": 0.03,
  "EchoTrainLength": 80,
  "EffectiveEchoSpacing": 0.0005,
  "FlipAngle": 10,
  "HeudiconvVersion": "0.13.1",
  "ImageOrientationPatientDICOM": [0.988233, 0.152683, 0.00909319, -0.149103, 0.948395, 0.279848],
  "ImageOrientationText": "Tra>Cor(16.1)>Sag(-2.0)",
  "ImageType": [
    "ORIGINAL",
    "PRIMARY",
    "M",
    "ND",
    "NORM",
    "MOSAIC"
],
  "ImagingFrequency": 123.253,
  "InPlanePhaseEncodingDirectionDICOM": "COL",
  "InstitutionAddress": "Maynard 3,Hanover,NH,US,03755",
  "InstitutionName": "Dartmouth College - PBS",
  "InstitutionalDepartmentName": "Department",
  "MRAcquisitionType": "2D",
  "MagneticFieldStrength": 3,
  "Manufacturer": "Siemens",
  "ManufacturersModelName": "Prisma",
  "MatrixCoilMode": "SENSE",
  "Modality": "MR",
  "NonlinearGradientCorrection": false,
  "PartialFourier": 1,
  "PatientPosition": "HFS",
  "PercentPhaseFOV": 100,
  "PercentSampling": 100,
  "PhaseEncodingDirection": "j-",
  "PhaseEncodingSteps": 80,
  "PhaseResolution": 1,
  "PixelBandwidth": 2315,
  "ProcedureStepDescription": "dbic^QA",
  "ProtocolName": "func-bold_acq-32ch-10flip",
  "PulseSequenceDetails": "%SiemensSeq%\\ep2d_bold",
  "ReceiveCoilActiveElements": "HEA;HEP",
  "ReceiveCoilName": "Head_32",
  "ReconMatrixPE": 80,
  "RepetitionTime": 2,
  "SAR": 0.0116957,
  "ScanOptions": "FS",
  "ScanningSequence": "EP",
  "SequenceName": "*epfid2d1_80",
  "SequenceVariant": "SK",
  "SeriesDescription": "func-bold_acq-32ch-10flip",
  "SeriesNumber": 10,
  "ShimSetting": [4154, -7691, -7513, 298, -34, -194, -36, 114],
  "SliceThickness": 3.5,
  "SliceTiming": [0.99, 0, 1.055, 0.065, 1.12, 0.13, 1.1875, 0.1975, 1.2525, 0.2625, 1.32, 0.33, 1.385, 0.395, 1.45, 0.46, 1.5175, 0.5275, 1.5825, 0.5925, 1.6475, 0.66, 1.715, 0.725, 1.78, 0.79, 1.8475, 0.8575, 1.9125, 0.9225],
  "SoftwareVersions": "syngo MR E11",
  "SpacingBetweenSlices": 3.99,
  "StationName": "AWP66112",
  "TotalReadoutTime": 0.0395,
  "TxRefAmp": 230.204,
  "dcmmeta_affine": [
    [-2.9646999835968018, -0.4473101794719696, -0.13607606291770935, 139.0975341796875],
    [-0.45805037021636963, 2.8451850414276123, 1.1088660955429077, -107.8499755859375],
    [0.02727956883609295, -0.8395450711250305, 3.83040452003479, -20.936206817626953],
    [0.0, 0.0, 0.0, 1.0]
],
  "dcmmeta_reorient_transform": [
    [0.0, -1.0, 0.0, 79.0],
    [1.0, 0.0, 0.0, 0.0],
    [0.0, 0.0, 1.0, 0.0],
    [0.0, 0.0, 0.0, 1.0]
],
  "dcmmeta_shape": [80, 80, 30, 200],
  "dcmmeta_slice_dim": 2,
  "dcmmeta_version": 0.6,
  "global": {
    "const": {
      "AccessionNumber": "qa",
      "AcquisitionMatrix": [80, 0, 0, 80],
      "AngioFlag": "N",
      "BitsAllocated": 16,
      "BitsStored": 12,
      "BodyPartExamined": "BRAIN",
      "Columns": 480,
      "EchoNumbers": 1,
      "EchoTime": 30.0,
      "EchoTrainLength": 80,
      "FlipAngle": 10.0,
      "HighBit": 11,
      "ImageOrientationPatient": [0.98823331089674, 0.1526834540246, 0.0090931898245, -0.1491033920157, 0.94839500125523, 0.27984835193997],
      "ImagePositionPatient": [-607.2379823216, -777.56671664517, -260.62519034386],
      "ImageType": [
        "ORIGINAL",
        "PRIMARY",
        "M",
        "ND",
        "NORM",
        "MOSAIC"
],
      "ImagedNucleus": "1H",
      "ImagingFrequency": 123.252515,
      "InPlanePhaseEncodingDirection": "COL",
      "MRAcquisitionType": "2D",
      "MagneticFieldStrength": 3.0,
      "Manufacturer": "SIEMENS",
      "ManufacturerModelName": "Prisma",
      "Modality": "MR",
      "NumberOfAverages": 1.0,
      "NumberOfPhaseEncodingSteps": 80,
      "PercentPhaseFieldOfView": 100.0,
      "PercentSampling": 100.0,
      "PerformedProcedureStepStartTime": "091124.632000",
      "PhotometricInterpretation": "MONOCHROME2",
      "PixelBandwidth": 2315.0,
      "PixelRepresentation": 0,
      "PixelSpacing": [3.0, 3.0],
      "ProtocolName": "func-bold_acq-32ch-10flip",
      "RepetitionTime": 2000.0,
      "Rows": 480,
      "SAR": 0.01169574338194,
      "SamplesPerPixel": 1,
      "ScanOptions": "FS",
      "ScanningSequence": "EP",
      "SequenceName": "*epfid2d1_80",
      "SequenceVariant": "SK",
      "SeriesDescription": "func-bold_acq-32ch-10flip",
      "SeriesNumber": 10,
      "SeriesTime": "093423.164000",
      "SliceLocation": -54.81532733806,
      "SliceThickness": 3.5,
      "SmallestImagePixelValue": 0,
      "SoftwareVersions": "syngo MR E11",
      "SpacingBetweenSlices": 3.9900000259498,
      "SpecificCharacterSet": "ISO_IR 100",
      "StudyID": "18",
      "StudyTime": "091124.563000",
      "TransmitCoilName": "Body",
      "VariableFlipAngleFlag": "N",
      "WindowCenterWidthExplanation": "Algo1",
      "dBdt": 0.0},
    "slices": {}
  },
  "time": {
    "samples": {
      "AcquisitionNumber": [1, 2, 3, 4, 5, 6, 7, 8, 9, 10, 11, 12, 13, 14, 15, 16, 17, 18, 19, 20, 21, 22, 23, 24, 25, 26, 27, 28, 29, 30, 31, 32, 33, 34, 35, 36, 37, 38, 39, 40, 41, 42, 43, 44, 45, 46, 47, 48, 49, 50, 51, 52, 53, 54, 55, 56, 57, 58, 59, 60, 61, 62, 63, 64, 65, 66, 67, 68, 69, 70, 71, 72, 73, 74, 75, 76, 77, 78, 79, 80, 81, 82, 83, 84, 85, 86, 87, 88, 89, 90, 91, 92, 93, 94, 95, 96, 97, 98, 99, 100, 101, 102, 103, 104, 105, 106, 107, 108, 109, 110, 111, 112, 113, 114, 115, 116, 117, 118, 119, 120, 121, 122, 123, 124, 125, 126, 127, 128, 129, 130, 131, 132, 133, 134, 135, 136, 137, 138, 139, 140, 141, 142, 143, 144, 145, 146, 147, 148, 149, 150, 151, 152, 153, 154, 155, 156, 157, 158, 159, 160, 161, 162, 163, 164, 165, 166, 167, 168, 169, 170, 171, 172, 173, 174, 175, 176, 177, 178, 179, 180, 181, 182, 183, 184, 185, 186, 187, 188, 189, 190, 191, 192, 193, 194, 195, 196, 197, 198, 199, 200],
      "AcquisitionTime": ["093328.527500", "093330.527500", "093332.527500", "093334.527500", "093336.527500", "093338.527500", "093340.527500", "093342.527500", "093344.527500", "093346.527500", "093348.527500", "093350.527500", "093352.527500", "093354.527500", "093356.527500", "093358.527500", "093400.527500", "093402.527500", "093404.527500", "093406.527500", "093408.527500", "093410.527500", "093412.527500", "093414.527500", "093416.527500", "093418.527500", "093420.527500", "093422.527500", "093424.527500", "093426.527500", "093428.527500", "093430.527500", "093432.527500", "093434.527500", "093436.527500", "093438.527500", "093440.527500", "093442.527500", "093444.527500", "093446.527500", "093448.527500", "093450.527500", "093452.527500", "093454.527500", "093456.527500", "093458.527500", "093500.527500", "093502.527500", "093504.527500", "093506.527500", "093508.527500", "093510.527500", "093512.527500", "093514.527500", "093516.527500", "093518.527500", "093520.527500", "093522.527500", "093524.527500", "093526.527500", "093528.527500", "093530.527500", "093532.527500", "093534.527500", "093536.527500", "093538.527500", "093540.527500", "093542.527500", "093544.527500", "093546.527500", "093548.527500", "093550.527500", "093552.527500", "093554.527500", "093556.527500", "093558.527500", "093600.527500", "093602.527500", "093604.527500", "093606.527500", "093608.527500", "093610.527500", "093612.527500", "093614.527500", "093616.527500", "093618.527500", "093620.527500", "093622.527500", "093624.527500", "093626.527500", "093628.527500", "093630.527500", "093632.527500", "093634.527500", "093636.527500", "093638.527500", "093640.527500", "093642.527500", "093644.527500", "093646.527500", "093648.527500", "093650.527500", "093652.527500", "093654.527500", "093656.527500", "093658.527500", "093700.527500", "093702.527500", "093704.527500", "093706.527500", "093708.527500", "093710.527500", "093712.527500", "093714.527500", "093716.527500", "093718.527500", "093720.527500", "093722.527500", "093724.527500", "093726.527500", "093728.527500", "093730.527500", "093732.527500", "093734.527500", "093736.527500", "093738.527500", "093740.527500", "093742.527500", "093744.527500", "093746.527500", "093748.527500", "093750.527500", "093752.527500", "093754.527500", "093756.527500", "093758.527500", "093800.527500", "093802.527500", "093804.527500", "093806.527500", "093808.527500", "093810.527500", "093812.527500", "093814.527500", "093816.527500", "093818.527500", "093820.527500", "093822.527500", "093824.527500", "093826.527500", "093828.527500", "093830.527500", "093832.527500", "093834.527500", "093836.527500", "093838.527500", "093840.527500", "093842.527500", "093844.527500", "093846.527500", "093848.527500", "093850.527500", "093852.527500", "093854.527500", "093856.527500", "093858.527500", "093900.527500", "093902.527500", "093904.527500", "093906.527500", "093908.527500", "093910.527500", "093912.527500", "093914.527500", "093916.527500", "093918.527500", "093920.527500", "093922.527500", "093924.527500", "093926.527500", "093928.527500", "093930.527500", "093932.527500", "093934.527500", "093936.527500", "093938.527500", "093940.527500", "093942.527500", "093944.527500", "093946.527500", "093948.527500", "093950.527500", "093952.527500", "093954.527500", "093956.527500", "093958.527500", "094000.527500", "094002.527500", "094004.527500", "094006.527500"],
      "ContentTime": ["093423.167000", "093423.170000", "093423.173000", "093423.175000", "093423.178000", "093423.180000", "093423.183000", "093423.185000", "093423.188000", "093423.190000", "093423.193000", "093423.195000", "093423.198000", "093423.200000", "093423.202000", "093423.205000", "093423.207000", "093423.210000", "093423.214000", "093423.216000", "093423.219000", "093423.221000", "093423.224000", "093423.226000", "093423.228000", "093423.231000", "093423.233000", "093503.162000", "093503.165000", "093503.168000", "093503.170000", "093503.173000", "093503.175000", "093503.178000", "093503.180000", "093503.183000", "093503.185000", "093503.188000", "093503.190000", "093503.193000", "093503.195000", "093503.197000", "093503.200000", "093503.202000", "093503.205000", "093503.207000", "093503.210000", "093543.161000", "093543.164000", "093543.173000", "093543.176000", "093543.185000", "093543.187000", "093543.190000", "093543.192000", "093543.194000", "093543.219000", "093543.221000", "093543.224000", "093543.226000", "093543.229000", "093543.231000", "093543.234000", "093543.236000", "093543.239000", "093543.241000", "093543.243000", "093623.161000", "093623.164000", "093623.167000", "093623.169000", "093623.172000", "093623.174000", "093623.177000", "093623.179000", "093623.182000", "093623.184000", "093623.187000", "093623.189000", "093623.192000", "093623.194000", "093623.197000", "093623.199000", "093623.202000", "093623.204000", "093623.207000", "093623.209000", "093703.162000", "093703.165000", "093703.168000", "093703.170000", "093703.173000", "093703.175000", "093703.178000", "093703.180000", "093703.183000", "093703.185000", "093703.188000", "093703.190000", "093703.193000", "093703.195000", "093703.198000", "093703.200000", "093703.203000", "093703.205000", "093703.207000", "093703.210000", "093743.162000", "093743.164000", "093743.167000", "093743.169000", "093743.172000", "093743.174000", "093743.177000", "093743.179000", "093743.182000", "093743.184000", "093743.187000", "093743.189000", "093743.192000", "093743.194000", "093743.197000", "093743.199000", "093743.202000", "093743.204000", "093743.207000", "093743.209000", "093823.161000", "093823.164000", "093823.167000", "093823.169000", "093823.172000", "093823.174000", "093823.177000", "093823.179000", "093823.182000", "093823.184000", "093823.187000", "093823.189000", "093823.192000", "093823.194000", "093823.197000", "093823.199000", "093823.201000", "093823.204000", "093823.206000", "093823.209000", "093903.162000", "093903.165000", "093903.168000", "093903.170000", "093903.172000", "093903.175000", "093903.178000", "093903.180000", "093903.183000", "093903.185000", "093903.188000", "093903.190000", "093903.193000", "093903.195000", "093903.198000", "093903.200000", "093903.203000", "093903.205000", "093903.207000", "093903.210000", "093943.162000", "093943.165000", "093943.168000", "093943.170000", "093943.173000", "093943.175000", "093943.178000", "093943.180000", "093943.183000", "093943.185000", "093943.188000", "093943.190000", "093943.209000", "093943.212000", "093943.214000", "093943.217000", "093943.239000", "093943.241000", "093943.244000", "093943.246000", "094007.812000", "094007.814000", "094007.817000", "094007.819000", "094007.822000", "094007.825000", "094007.827000", "094007.829000", "094007.832000", "094007.834000", "094007.837000", "094007.839000", "094007.842000"],
      "InstanceCreationTime": ["093423.167000", "093423.170000", "093423.173000", "093423.175000", "093423.178000", "093423.180000", "093423.183000", "093423.185000", "093423.188000", "093423.190000", "093423.193000", "093423.195000", "093423.198000", "093423.200000", "093423.202000", "093423.205000", "093423.207000", "093423.210000", "093423.214000", "093423.216000", "093423.219000", "093423.221000", "093423.224000", "093423.226000", "093423.228000", "093423.231000", "093423.233000", "093503.162000", "093503.165000", "093503.168000", "093503.170000", "093503.173000", "093503.175000", "093503.178000", "093503.180000", "093503.183000", "093503.185000", "093503.188000", "093503.190000", "093503.193000", "093503.195000", "093503.197000", "093503.200000", "093503.202000", "093503.205000", "093503.207000", "093503.210000", "093543.161000", "093543.164000", "093543.173000", "093543.176000", "093543.185000", "093543.187000", "093543.190000", "093543.192000", "093543.194000", "093543.219000", "093543.221000", "093543.224000", "093543.226000", "093543.229000", "093543.231000", "093543.234000", "093543.236000", "093543.239000", "093543.241000", "093543.243000", "093623.161000", "093623.164000", "093623.167000", "093623.169000", "093623.172000", "093623.174000", "093623.177000", "093623.179000", "093623.182000", "093623.184000", "093623.187000", "093623.189000", "093623.192000", "093623.194000", "093623.197000", "093623.199000", "093623.202000", "093623.204000", "093623.207000", "093623.209000", "093703.162000", "093703.165000", "093703.168000", "093703.170000", "093703.173000", "093703.175000", "093703.178000", "093703.180000", "093703.183000", "093703.185000", "093703.188000", "093703.190000", "093703.193000", "093703.195000", "093703.198000", "093703.200000", "093703.203000", "093703.205000", "093703.207000", "093703.210000", "093743.162000", "093743.164000", "093743.167000", "093743.169000", "093743.172000", "093743.174000", "093743.177000", "093743.179000", "093743.182000", "093743.184000", "093743.187000", "093743.189000", "093743.192000", "093743.194000", "093743.197000", "093743.199000", "093743.202000", "093743.204000", "093743.207000", "093743.209000", "093823.161000", "093823.164000", "093823.167000", "093823.169000", "093823.172000", "093823.174000", "093823.177000", "093823.179000", "093823.182000", "093823.184000", "093823.187000", "093823.189000", "093823.192000", "093823.194000", "093823.197000", "093823.199000", "093823.201000", "093823.204000", "093823.206000", "093823.209000", "093903.162000", "093903.165000", "093903.168000", "093903.170000", "093903.172000", "093903.175000", "093903.178000", "093903.180000", "093903.183000", "093903.185000", "093903.188000", "093903.190000", "093903.193000", "093903.195000", "093903.198000", "093903.200000", "093903.203000", "093903.205000", "093903.207000", "093903.210000", "093943.162000", "093943.165000", "093943.168000", "093943.170000", "093943.173000", "093943.175000", "093943.178000", "093943.180000", "093943.183000", "093943.185000", "093943.188000", "093943.190000", "093943.209000", "093943.212000", "093943.214000", "093943.217000", "093943.239000", "093943.241000", "093943.244000", "093943.246000", "094007.812000", "094007.814000", "094007.817000", "094007.819000", "094007.822000", "094007.825000", "094007.827000", "094007.829000", "094007.832000", "094007.834000", "094007.837000", "094007.839000", "094007.842000"],
      "InstanceNumber": [1, 2, 3, 4, 5, 6, 7, 8, 9, 10, 11, 12, 13, 14, 15, 16, 17, 18, 19, 20, 21, 22, 23, 24, 25, 26, 27, 28, 29, 30, 31, 32, 33, 34, 35, 36, 37, 38, 39, 40, 41, 42, 43, 44, 45, 46, 47, 48, 49, 50, 51, 52, 53, 54, 55, 56, 57, 58, 59, 60, 61, 62, 63, 64, 65, 66, 67, 68, 69, 70, 71, 72, 73, 74, 75, 76, 77, 78, 79, 80, 81, 82, 83, 84, 85, 86, 87, 88, 89, 90, 91, 92, 93, 94, 95, 96, 97, 98, 99, 100, 101, 102, 103, 104, 105, 106, 107, 108, 109, 110, 111, 112, 113, 114, 115, 116, 117, 118, 119, 120, 121, 122, 123, 124, 125, 126, 127, 128, 129, 130, 131, 132, 133, 134, 135, 136, 137, 138, 139, 140, 141, 142, 143, 144, 145, 146, 147, 148, 149, 150, 151, 152, 153, 154, 155, 156, 157, 158, 159, 160, 161, 162, 163, 164, 165, 166, 167, 168, 169, 170, 171, 172, 173, 174, 175, 176, 177, 178, 179, 180, 181, 182, 183, 184, 185, 186, 187, 188, 189, 190, 191, 192, 193, 194, 195, 196, 197, 198, 199, 200],
      "LargestImagePixelValue": [347, 348, 351, 349, 348, 349, 348, 348, 347, 349, 348, 347, 349, 349, 347, 346, 350, 346, 350, 347, 347, 348, 349, 348, 350, 349, 347, 347, 347, 348, 347, 349, 347, 347, 347, 347, 347, 349, 347, 348, 347, 349, 349, 348, 349, 347, 348, 348, 347, 348, 347, 349, 346, 348, 348, 350, 349, 347, 348, 348, 348, 349, 348, 349, 351, 346, 348, 348, 349, 348, 348, 347, 348, 347, 349, 347, 348, 349, 349, 348, 346, 347, 347, 348, 348, 348, 347, 347, 348, 348, 350, 346, 347, 346, 348, 350, 348, 349, 349, 348, 348, 347, 348, 349, 350, 348, 349, 346, 348, 347, 347, 348, 346, 348, 348, 347, 348, 347, 348, 348, 348, 347, 346, 349, 347, 346, 348, 347, 347, 346, 347, 346, 347, 348, 348, 347, 348, 348, 347, 348, 348, 348, 348, 347, 347, 347, 347, 348, 349, 349, 347, 348, 348, 347, 347, 347, 349, 347, 346, 346, 348, 347, 348, 348, 347, 347, 350, 347, 348, 350, 348, 347, 348, 347, 350, 348, 347, 349, 346, 349, 347, 348, 347, 349, 347, 347, 348, 348, 348, 348, 347, 348, 348, 347, 346, 348, 348, 347, 347, 348],
      "WindowCenter": [289.0, 289.0, 289.0, 288.0, 289.0, 289.0, 289.0, 288.0, 289.0, 289.0, 289.0, 289.0, 289.0, 288.0, 289.0, 289.0, 289.0, 289.0, 289.0, 288.0, 288.0, 289.0, 288.0, 289.0, 289.0, 289.0, 289.0, 289.0, 289.0, 289.0, 289.0, 289.0, 289.0, 289.0, 288.0, 289.0, 289.0, 289.0, 288.0, 289.0, 289.0, 289.0, 288.0, 289.0, 289.0, 288.0, 288.0, 289.0, 289.0, 289.0, 288.0, 289.0, 289.0, 289.0, 288.0, 289.0, 289.0, 288.0, 289.0, 289.0, 289.0, 289.0, 289.0, 288.0, 289.0, 289.0, 289.0, 289.0, 289.0, 289.0, 289.0, 289.0, 288.0, 289.0, 289.0, 289.0, 289.0, 289.0, 288.0, 288.0, 289.0, 289.0, 288.0, 288.0, 288.0, 289.0, 289.0, 289.0, 289.0, 289.0, 289.0, 289.0, 288.0, 289.0, 289.0, 289.0, 288.0, 288.0, 288.0, 288.0, 289.0, 288.0, 289.0, 288.0, 289.0, 289.0, 288.0, 288.0, 288.0, 288.0, 288.0, 288.0, 289.0, 288.0, 288.0, 288.0, 288.0, 288.0, 288.0, 288.0, 288.0, 288.0, 288.0, 289.0, 288.0, 288.0, 288.0, 288.0, 288.0, 289.0, 288.0, 288.0, 288.0, 289.0, 289.0, 288.0, 289.0, 288.0, 288.0, 288.0, 289.0, 288.0, 289.0, 289.0, 288.0, 288.0, 288.0, 288.0, 288.0, 288.0, 288.0, 288.0, 288.0, 288.0, 289.0, 289.0, 288.0, 288.0, 288.0, 288.0, 288.0, 289.0, 288.0, 288.0, 288.0, 288.0, 289.0, 288.0, 288.0, 289.0, 288.0, 288.0, 289.0, 288.0, 289.0, 288.0, 288.0, 288.0, 288.0, 289.0, 288.0, 288.0, 288.0, 288.0, 288.0, 288.0, 288.0, 288.0, 288.0, 288.0, 288.0, 288.0, 288.0, 288.0, 288.0, 288.0, 288.0, 288.0, 288.0, 287.0],
      "WindowWidth": [629.0, 629.0, 630.0, 629.0, 629.0, 629.0, 629.0, 629.0, 630.0, 630.0, 629.0, 629.0, 630.0, 629.0, 629.0, 629.0, 630.0, 629.0, 630.0, 629.0, 629.0, 630.0, 629.0, 629.0, 630.0, 629.0, 630.0, 629.0, 630.0, 629.0, 629.0, 630.0, 629.0, 629.0, 629.0, 629.0, 629.0, 630.0, 629.0, 629.0, 630.0, 629.0, 629.0, 629.0, 629.0, 629.0, 629.0, 630.0, 629.0, 629.0, 629.0, 629.0, 629.0, 630.0, 629.0, 630.0, 629.0, 629.0, 630.0, 629.0, 629.0, 629.0, 630.0, 629.0, 630.0, 629.0, 629.0, 629.0, 629.0, 629.0, 629.0, 629.0, 629.0, 629.0, 629.0, 629.0, 630.0, 629.0, 629.0, 629.0, 629.0, 629.0, 629.0, 629.0, 629.0, 629.0, 629.0, 629.0, 629.0, 629.0, 630.0, 629.0, 629.0, 629.0, 629.0, 630.0, 629.0, 629.0, 629.0, 629.0, 629.0, 629.0, 629.0, 629.0, 630.0, 629.0, 629.0, 629.0, 629.0, 629.0, 629.0, 629.0, 629.0, 629.0, 629.0, 628.0, 629.0, 628.0, 629.0, 629.0, 629.0, 629.0, 628.0, 629.0, 629.0, 628.0, 628.0, 629.0, 629.0, 629.0, 629.0, 629.0, 629.0, 629.0, 629.0, 628.0, 629.0, 628.0, 628.0, 629.0, 629.0, 629.0, 629.0, 629.0, 629.0, 628.0, 629.0, 629.0, 629.0, 628.0, 629.0, 629.0, 628.0, 628.0, 629.0, 629.0, 629.0, 629.0, 629.0, 628.0, 628.0, 629.0, 628.0, 629.0, 629.0, 629.0, 629.0, 628.0, 628.0, 630.0, 628.0, 628.0, 629.0, 629.0, 629.0, 628.0, 628.0, 628.0, 628.0, 629.0, 628.0, 629.0, 628.0, 628.0, 628.0, 628.0, 628.0, 628.0, 628.0, 628.0, 628.0, 628.0, 628.0, 628.0, 628.0, 628.0, 628.0, 628.0, 628.0, 628.0]
    },
    "slices": {}
  }
}