{
  "AcquisitionMatrixPE": 80,
  "AcquisitionNumber": 1,
  "AcquisitionTime": "09:26:41.495000",
  "BandwidthPerPixelPhaseEncode": 25,
  "BaseResolution": 80,
  "BodyPartExamined": "BRAIN",
  "CoilCombinationMethod": "Sum of Squares",
  "ConsistencyInfo": "N4_VE11C_LATEST_20160120",
  "ConversionSoftware": "dcm2niix",
  "ConversionSoftwareVersion": "v1.0.20220720",
  "DerivedVendorReportedEchoSpacing": 0.0005,
  "DeviceSerialNumber": "66112",
  "DwellTime": 2.7e-06,
  "EchoTime": 0.03,
  "EchoTrainLength": 80,
  "EffectiveEchoSpacing": 0.0005,
  "FlipAngle": 77,
  "HeudiconvVersion": "0.13.1",
  "ImageOrientationPatientDICOM": [0.988233, 0.152683, 0.00909319, -0.149103, 0.948395, 0.279848],
  "ImageOrientationText": "Tra>Cor(16.1)>Sag(-2.0)",
  "ImageType": [
    "ORIGINAL",
    "PRIMARY",
    "M",
    "ND",
    "NORM",
    "MOSAIC"
],
  "ImagingFrequency": 123.253,
  "InPlanePhaseEncodingDirectionDICOM": "COL",
  "InstitutionAddress": "Maynard 3,Hanover,NH,US,03755",
  "InstitutionName": "Dartmouth College - PBS",
  "InstitutionalDepartmentName": "Department",
  "MRAcquisitionType": "2D",
  "MagneticFieldStrength": 3,
  "Manufacturer": "Siemens",
  "ManufacturersModelName": "Prisma",
  "MatrixCoilMode": "SENSE",
  "Modality": "MR",
  "NonlinearGradientCorrection": false,
  "PartialFourier": 1,
  "PatientPosition": "HFS",
  "PercentPhaseFOV": 100,
  "PercentSampling": 100,
  "PhaseEncodingDirection": "j-",
  "PhaseEncodingSteps": 80,
  "PhaseResolution": 1,
  "PixelBandwidth": 2315,
  "ProcedureStepDescription": "dbic^QA",
  "ProtocolName": "func-bold_acq-32ch-77flip",
  "PulseSequenceDetails": "%SiemensSeq%\\ep2d_bold",
  "ReceiveCoilActiveElements": "HEA;HEP",
  "ReceiveCoilName": "Head_32",
  "ReconMatrixPE": 80,
  "RepetitionTime": 2,
  "SAR": 0.0436003,
  "ScanOptions": "FS",
  "ScanningSequence": "EP",
  "SequenceName": "*epfid2d1_80",
  "SequenceVariant": "SK",
  "SeriesDescription": "func-bold_acq-32ch-77flip",
  "SeriesNumber": 8,
  "ShimSetting": [4154, -7691, -7513, 298, -34, -194, -36, 114],
  "SliceThickness": 3.5,
  "SliceTiming": [0.99, 0, 1.0575, 0.0675, 1.1225, 0.1325, 1.1875, 0.1975, 1.255, 0.265, 1.32, 0.33, 1.385, 0.3975, 1.4525, 0.4625, 1.5175, 0.5275, 1.585, 0.595, 1.65, 0.66, 1.715, 0.7275, 1.7825, 0.7925, 1.8475, 0.8575, 1.915, 0.925],
  "SoftwareVersions": "syngo MR E11",
  "SpacingBetweenSlices": 3.99,
  "StationName": "AWP66112",
  "TotalReadoutTime": 0.0395,
  "TxRefAmp": 230.204,
  "dcmmeta_affine": [
    [-2.9646999835968018, -0.4473101794719696, -0.13607606291770935, 139.0975341796875],
    [-0.45805037021636963, 2.8451850414276123, 1.1088660955429077, -107.8499755859375],
    [0.02727956883609295, -0.8395450711250305, 3.83040452003479, -20.936206817626953],
    [0.0, 0.0, 0.0, 1.0]
],
  "dcmmeta_reorient_transform": [
    [0.0, -1.0, 0.0, 79.0],
    [1.0, 0.0, 0.0, 0.0],
    [0.0, 0.0, 1.0, 0.0],
    [0.0, 0.0, 0.0, 1.0]
],
  "dcmmeta_shape": [80, 80, 30, 200],
  "dcmmeta_slice_dim": 2,
  "dcmmeta_version": 0.6,
  "global": {
    "const": {
      "AccessionNumber": "qa",
      "AcquisitionMatrix": [80, 0, 0, 80],
      "AngioFlag": "N",
      "BitsAllocated": 16,
      "BitsStored": 12,
      "BodyPartExamined": "BRAIN",
      "Columns": 480,
      "EchoNumbers": 1,
      "EchoTime": 30.0,
      "EchoTrainLength": 80,
      "FlipAngle": 77.0,
      "HighBit": 11,
      "ImageOrientationPatient": [0.98823331089674, 0.1526834540246, 0.0090931898245, -0.1491033920157, 0.94839500125523, 0.27984835193997],
      "ImagePositionPatient": [-607.2379823216, -777.56671664517, -260.62519034386],
      "ImageType": [
        "ORIGINAL",
        "PRIMARY",
        "M",
        "ND",
        "NORM",
        "MOSAIC"
],
      "ImagedNucleus": "1H",
      "ImagingFrequency": 123.25251,
      "InPlanePhaseEncodingDirection": "COL",
      "MRAcquisitionType": "2D",
      "MagneticFieldStrength": 3.0,
      "Manufacturer": "SIEMENS",
      "ManufacturerModelName": "Prisma",
      "Modality": "MR",
      "NumberOfAverages": 1.0,
      "NumberOfPhaseEncodingSteps": 80,
      "PercentPhaseFieldOfView": 100.0,
      "PercentSampling": 100.0,
      "PerformedProcedureStepStartTime": "091124.632000",
      "PhotometricInterpretation": "MONOCHROME2",
      "PixelBandwidth": 2315.0,
      "PixelRepresentation": 0,
      "PixelSpacing": [3.0, 3.0],
      "ProtocolName": "func-bold_acq-32ch-77flip",
      "RepetitionTime": 2000.0,
      "Rows": 480,
      "SAR": 0.04360030622111,
      "SamplesPerPixel": 1,
      "ScanOptions": "FS",
      "ScanningSequence": "EP",
      "SequenceName": "*epfid2d1_80",
      "SequenceVariant": "SK",
      "SeriesDescription": "func-bold_acq-32ch-77flip",
      "SeriesNumber": 8,
      "SeriesTime": "092723.094000",
      "SliceLocation": -54.81532733806,
      "SliceThickness": 3.5,
      "SmallestImagePixelValue": 0,
      "SoftwareVersions": "syngo MR E11",
      "SpacingBetweenSlices": 3.9900000259498,
      "SpecificCharacterSet": "ISO_IR 100",
      "StudyID": "18",
      "StudyTime": "091124.563000",
      "TransmitCoilName": "Body",
      "VariableFlipAngleFlag": "N",
      "WindowCenterWidthExplanation": "Algo1",
      "dBdt": 0.0},
    "slices": {}
  },
  "time": {
    "samples": {
      "AcquisitionNumber": [1, 2, 3, 4, 5, 6, 7, 8, 9, 10, 11, 12, 13, 14, 15, 16, 17, 18, 19, 20, 21, 22, 23, 24, 25, 26, 27, 28, 29, 30, 31, 32, 33, 34, 35, 36, 37, 38, 39, 40, 41, 42, 43, 44, 45, 46, 47, 48, 49, 50, 51, 52, 53, 54, 55, 56, 57, 58, 59, 60, 61, 62, 63, 64, 65, 66, 67, 68, 69, 70, 71, 72, 73, 74, 75, 76, 77, 78, 79, 80, 81, 82, 83, 84, 85, 86, 87, 88, 89, 90, 91, 92, 93, 94, 95, 96, 97, 98, 99, 100, 101, 102, 103, 104, 105, 106, 107, 108, 109, 110, 111, 112, 113, 114, 115, 116, 117, 118, 119, 120, 121, 122, 123, 124, 125, 126, 127, 128, 129, 130, 131, 132, 133, 134, 135, 136, 137, 138, 139, 140, 141, 142, 143, 144, 145, 146, 147, 148, 149, 150, 151, 152, 153, 154, 155, 156, 157, 158, 159, 160, 161, 162, 163, 164, 165, 166, 167, 168, 169, 170, 171, 172, 173, 174, 175, 176, 177, 178, 179, 180, 181, 182, 183, 184, 185, 186, 187, 188, 189, 190, 191, 192, 193, 194, 195, 196, 197, 198, 199, 200],
      "AcquisitionTime": ["092641.495000", "092643.495000", "092645.495000", "092647.495000", "092649.495000", "092651.495000", "092653.495000", "092655.495000", "092657.495000", "092659.495000", "092701.495000", "092703.495000", "092705.495000", "092707.495000", "092709.495000", "092711.495000", "092713.495000", "092715.495000", "092717.495000", "092719.495000", "092721.495000", "092723.495000", "092725.495000", "092727.495000", "092729.495000", "092731.495000", "092733.495000", "092735.495000", "092737.495000", "092739.495000", "092741.495000", "092743.495000", "092745.495000", "092747.495000", "092749.495000", "092751.495000", "092753.495000", "092755.495000", "092757.495000", "092759.495000", "092801.495000", "092803.495000", "092805.495000", "092807.495000", "092809.495000", "092811.495000", "092813.495000", "092815.495000", "092817.495000", "092819.495000", "092821.495000", "092823.495000", "092825.495000", "092827.495000", "092829.495000", "092831.495000", "092833.495000", "092835.495000", "092837.495000", "092839.495000", "092841.495000", "092843.495000", "092845.495000", "092847.495000", "092849.495000", "092851.495000", "092853.495000", "092855.495000", "092857.495000", "092859.495000", "092901.495000", "092903.495000", "092905.495000", "092907.495000", "092909.495000", "092911.495000", "092913.495000", "092915.495000", "092917.495000", "092919.495000", "092921.495000", "092923.495000", "092925.495000", "092927.495000", "092929.495000", "092931.495000", "092933.495000", "092935.495000", "092937.495000", "092939.495000", "092941.495000", "092943.495000", "092945.495000", "092947.495000", "092949.495000", "092951.495000", "092953.495000", "092955.495000", "092957.495000", "092959.495000", "093001.495000", "093003.495000", "093005.495000", "093007.495000", "093009.495000", "093011.495000", "093013.495000", "093015.495000", "093017.495000", "093019.495000", "093021.495000", "093023.495000", "093025.495000", "093027.495000", "093029.495000", "093031.495000", "093033.495000", "093035.495000", "093037.495000", "093039.495000", "093041.495000", "093043.495000", "093045.495000", "093047.495000", "093049.495000", "093051.495000", "093053.495000", "093055.495000", "093057.495000", "093059.495000", "093101.495000", "093103.495000", "093105.495000", "093107.495000", "093109.495000", "093111.495000", "093113.495000", "093115.495000", "093117.495000", "093119.495000", "093121.495000", "093123.495000", "093125.495000", "093127.495000", "093129.495000", "093131.495000", "093133.495000", "093135.495000", "093137.495000", "093139.495000", "093141.495000", "093143.495000", "093145.495000", "093147.495000", "093149.495000", "093151.495000", "093153.495000", "093155.495000", "093157.495000", "093159.495000", "093201.495000", "093203.495000", "093205.495000", "093207.495000", "093209.495000", "093211.495000", "093213.495000", "093215.495000", "093217.495000", "093219.495000", "093221.495000", "093223.495000", "093225.495000", "093227.495000", "093229.495000", "093231.495000", "093233.495000", "093235.495000", "093237.495000", "093239.495000", "093241.495000", "093243.495000", "093245.495000", "093247.495000", "093249.495000", "093251.495000", "093253.495000", "093255.495000", "093257.495000", "093259.495000", "093301.495000", "093303.495000", "093305.495000", "093307.495000", "093309.495000", "093311.495000", "093313.495000", "093315.495000", "093317.495000", "093319.495000"],
      "ContentTime": ["092723.097000", "092723.101000", "092723.103000", "092723.106000", "092723.108000", "092723.111000", "092723.113000", "092723.116000", "092723.118000", "092723.121000", "092723.123000", "092723.126000", "092723.135000", "092723.138000", "092723.150000", "092723.153000", "092723.155000", "092723.161000", "092723.164000", "092723.167000", "092743.092000", "092743.095000", "092743.098000", "092743.100000", "092743.103000", "092743.105000", "092743.108000", "092743.110000", "092743.113000", "092743.123000", "092823.091000", "092823.102000", "092823.105000", "092823.107000", "092823.117000", "092823.120000", "092823.122000", "092823.125000", "092823.127000", "092823.130000", "092823.132000", "092823.135000", "092823.137000", "092823.140000", "092823.142000", "092823.145000", "092823.147000", "092823.150000", "092823.152000", "092823.155000", "092903.091000", "092903.094000", "092903.097000", "092903.099000", "092903.102000", "092903.104000", "092903.107000", "092903.109000", "092903.112000", "092903.114000", "092903.117000", "092903.119000", "092903.122000", "092903.124000", "092903.127000", "092903.129000", "092903.132000", "092903.134000", "092903.137000", "092903.139000", "092943.092000", "092943.095000", "092943.098000", "092943.100000", "092943.103000", "092943.105000", "092943.108000", "092943.110000", "092943.132000", "092943.135000", "092943.137000", "092943.139000", "092943.142000", "092943.144000", "092943.147000", "092943.149000", "092943.152000", "092943.154000", "092943.157000", "092943.159000", "093023.092000", "093023.095000", "093023.097000", "093023.100000", "093023.102000", "093023.105000", "093023.107000", "093023.110000", "093023.112000", "093023.115000", "093023.117000", "093023.120000", "093023.122000", "093023.125000", "093023.127000", "093023.130000", "093023.132000", "093023.135000", "093023.137000", "093023.140000", "093103.091000", "093103.094000", "093103.097000", "093103.099000", "093103.102000", "093103.104000", "093103.107000", "093103.109000", "093103.112000", "093103.114000", "093103.117000", "093103.119000", "093103.122000", "093103.124000", "093103.127000", "093103.129000", "093103.132000", "093103.134000", "093103.137000", "093103.139000", "093143.091000", "093143.094000", "093143.097000", "093143.099000", "093143.102000", "093143.104000", "093143.107000", "093143.109000", "093143.111000", "093143.114000", "093143.116000", "093143.119000", "093143.121000", "093143.124000", "093143.126000", "093143.129000", "093143.131000", "093143.134000", "093143.136000", "093143.139000", "093223.092000", "093223.095000", "093223.098000", "093223.100000", "093223.103000", "093223.105000", "093223.108000", "093223.110000", "093223.113000", "093223.115000", "093223.128000", "093223.131000", "093223.133000", "093223.136000", "093223.138000", "093223.141000", "093223.143000", "093223.146000", "093223.148000", "093223.151000", "093303.092000", "093303.094000", "093303.097000", "093303.099000", "093303.102000", "093303.104000", "093303.107000", "093303.109000", "093303.112000", "093303.114000", "093303.117000", "093303.119000", "093303.122000", "093303.124000", "093303.127000", "093303.129000", "093303.132000", "093303.134000", "093303.136000", "093303.139000", "093321.429000", "093321.431000", "093321.434000", "093321.436000", "093321.439000", "093321.442000", "093321.444000", "093321.447000", "093321.449000", "093321.452000"],
      "InstanceCreationTime": ["092723.097000", "092723.101000", "092723.103000", "092723.106000", "092723.108000", "092723.111000", "092723.113000", "092723.116000", "092723.118000", "092723.121000", "092723.123000", "092723.126000", "092723.135000", "092723.138000", "092723.150000", "092723.153000", "092723.155000", "092723.161000", "092723.164000", "092723.167000", "092743.092000", "092743.095000", "092743.098000", "092743.100000", "092743.103000", "092743.105000", "092743.108000", "092743.110000", "092743.113000", "092743.123000", "092823.091000", "092823.102000", "092823.105000", "092823.107000", "092823.117000", "092823.120000", "092823.122000", "092823.125000", "092823.127000", "092823.130000", "092823.132000", "092823.135000", "092823.137000", "092823.140000", "092823.142000", "092823.145000", "092823.147000", "092823.150000", "092823.152000", "092823.155000", "092903.091000", "092903.094000", "092903.097000", "092903.099000", "092903.102000", "092903.104000", "092903.107000", "092903.109000", "092903.112000", "092903.114000", "092903.117000", "092903.119000", "092903.122000", "092903.124000", "092903.127000", "092903.129000", "092903.132000", "092903.134000", "092903.137000", "092903.139000", "092943.092000", "092943.095000", "092943.098000", "092943.100000", "092943.103000", "092943.105000", "092943.108000", "092943.110000", "092943.132000", "092943.135000", "092943.137000", "092943.139000", "092943.142000", "092943.144000", "092943.147000", "092943.149000", "092943.152000", "092943.154000", "092943.157000", "092943.159000", "093023.092000", "093023.095000", "093023.097000", "093023.100000", "093023.102000", "093023.105000", "093023.107000", "093023.110000", "093023.112000", "093023.115000", "093023.117000", "093023.120000", "093023.122000", "093023.125000", "093023.127000", "093023.130000", "093023.132000", "093023.135000", "093023.137000", "093023.140000", "093103.091000", "093103.094000", "093103.097000", "093103.099000", "093103.102000", "093103.104000", "093103.107000", "093103.109000", "093103.112000", "093103.114000", "093103.117000", "093103.119000", "093103.122000", "093103.124000", "093103.127000", "093103.129000", "093103.132000", "093103.134000", "093103.137000", "093103.139000", "093143.091000", "093143.094000", "093143.097000", "093143.099000", "093143.102000", "093143.104000", "093143.107000", "093143.109000", "093143.111000", "093143.114000", "093143.116000", "093143.119000", "093143.121000", "093143.124000", "093143.126000", "093143.129000", "093143.131000", "093143.134000", "093143.136000", "093143.139000", "093223.092000", "093223.095000", "093223.098000", "093223.100000", "093223.103000", "093223.105000", "093223.108000", "093223.110000", "093223.113000", "093223.115000", "093223.128000", "093223.131000", "093223.133000", "093223.136000", "093223.138000", "093223.141000", "093223.143000", "093223.146000", "093223.148000", "093223.151000", "093303.092000", "093303.094000", "093303.097000", "093303.099000", "093303.102000", "093303.104000", "093303.107000", "093303.109000", "093303.112000", "093303.114000", "093303.117000", "093303.119000", "093303.122000", "093303.124000", "093303.127000", "093303.129000", "093303.132000", "093303.134000", "093303.136000", "093303.139000", "093321.429000", "093321.431000", "093321.434000", "093321.436000", "093321.439000", "093321.442000", "093321.444000", "093321.447000", "093321.449000", "093321.452000"],
      "InstanceNumber": [1, 2, 3, 4, 5, 6, 7, 8, 9, 10, 11, 12, 13, 14, 15, 16, 17, 18, 19, 20, 21, 22, 23, 24, 25, 26, 27, 28, 29, 30, 31, 32, 33, 34, 35, 36, 37, 38, 39, 40, 41, 42, 43, 44, 45, 46, 47, 48, 49, 50, 51, 52, 53, 54, 55, 56, 57, 58, 59, 60, 61, 62, 63, 64, 65, 66, 67, 68, 69, 70, 71, 72, 73, 74, 75, 76, 77, 78, 79, 80, 81, 82, 83, 84, 85, 86, 87, 88, 89, 90, 91, 92, 93, 94, 95, 96, 97, 98, 99, 100, 101, 102, 103, 104, 105, 106, 107, 108, 109, 110, 111, 112, 113, 114, 115, 116, 117, 118, 119, 120, 121, 122, 123, 124, 125, 126, 127, 128, 129, 130, 131, 132, 133, 134, 135, 136, 137, 138, 139, 140, 141, 142, 143, 144, 145, 146, 147, 148, 149, 150, 151, 152, 153, 154, 155, 156, 157, 158, 159, 160, 161, 162, 163, 164, 165, 166, 167, 168, 169, 170, 171, 172, 173, 174, 175, 176, 177, 178, 179, 180, 181, 182, 183, 184, 185, 186, 187, 188, 189, 190, 191, 192, 193, 194, 195, 196, 197, 198, 199, 200],
      "LargestImagePixelValue": [2049, 2048, 2048, 2048, 2050, 2050, 2049, 2049, 2050, 2050, 2051, 2052, 2052, 2053, 2052, 2052, 2051, 2052, 2051, 2052, 2052, 2052, 2051, 2050, 2051, 2052, 2051, 2050, 2049, 2051, 2049, 2049, 2048, 2050, 2050, 2049, 2049, 2051, 2049, 2050, 2050, 2051, 2050, 2050, 2051, 2051, 2049, 2049, 2050, 2053, 2050, 2051, 2048, 2051, 2049, 2051, 2052, 2052, 2049, 2048, 2051, 2048, 2049, 2050, 2049, 2050, 2050, 2049, 2049, 2050, 2050, 2050, 2049, 2050, 2049, 2048, 2050, 2049, 2049, 2050, 2049, 2050, 2049, 2049, 2048, 2050, 2050, 2046, 2049, 2048, 2046, 2048, 2050, 2047, 2048, 2048, 2049, 2050, 2049, 2051, 2050, 2049, 2048, 2051, 2049, 2048, 2049, 2049, 2049, 2050, 2048, 2051, 2051, 2048, 2048, 2049, 2049, 2049, 2051, 2048, 2048, 2050, 2048, 2048, 2049, 2048, 2049, 2050, 2048, 2048, 2048, 2048, 2048, 2048, 2047, 2048, 2048, 2050, 2048, 2048, 2048, 2049, 2048, 2049, 2047, 2049, 2048, 2050, 2047, 2048, 2048, 2048, 2047, 2046, 2047, 2047, 2049, 2049, 2046, 2048, 2047, 2046, 2047, 2047, 2047, 2047, 2048, 2048, 2046, 2049, 2048, 2047, 2047, 2047, 2046, 2046, 2047, 2048, 2048, 2047, 2047, 2047, 2048, 2048, 2048, 2046, 2048, 2046, 2047, 2048, 2048, 2048, 2048, 2048, 2049, 2048, 2049, 2047, 2048, 2047],
      "WindowCenter": [1001.0, 1001.0, 1000.0, 1001.0, 1000.0, 1000.0, 1000.0, 1000.0, 1000.0, 1000.0, 1000.0, 1000.0, 1000.0, 1000.0, 999.0, 999.0, 1000.0, 999.0, 999.0, 999.0, 1000.0, 999.0, 1000.0, 1000.0, 1000.0, 1000.0, 1000.0, 1000.0, 999.0, 999.0, 999.0, 1000.0, 1000.0, 999.0, 1000.0, 999.0, 1000.0, 1000.0, 999.0, 1000.0, 1001.0, 1000.0, 1000.0, 999.0, 1000.0, 1000.0, 1000.0, 1000.0, 999.0, 1000.0, 999.0, 999.0, 999.0, 999.0, 1000.0, 1000.0, 999.0, 1000.0, 999.0, 999.0, 1000.0, 999.0, 999.0, 999.0, 1000.0, 1000.0, 1000.0, 999.0, 1001.0, 1000.0, 1000.0, 999.0, 999.0, 998.0, 999.0, 999.0, 1000.0, 1000.0, 1000.0, 999.0, 999.0, 1000.0, 1000.0, 1000.0, 1000.0, 999.0, 1000.0, 1000.0, 1000.0, 1001.0, 999.0, 999.0, 998.0, 999.0, 1000.0, 998.0, 1000.0, 999.0, 1000.0, 1000.0, 1000.0, 1000.0, 1000.0, 999.0, 999.0, 999.0, 999.0, 1000.0, 1000.0, 999.0, 999.0, 1000.0, 1000.0, 1000.0, 1000.0, 1000.0, 999.0, 999.0, 1000.0, 998.0, 999.0, 1000.0, 999.0, 999.0, 999.0, 1000.0, 999.0, 999.0, 999.0, 999.0, 999.0, 999.0, 999.0, 999.0, 999.0, 999.0, 999.0, 999.0, 999.0, 999.0, 999.0, 998.0, 999.0, 999.0, 1000.0, 999.0, 999.0, 998.0, 999.0, 999.0, 999.0, 999.0, 999.0, 999.0, 999.0, 998.0, 999.0, 999.0, 999.0, 999.0, 1000.0, 998.0, 998.0, 998.0, 998.0, 998.0, 998.0, 998.0, 998.0, 999.0, 999.0, 998.0, 999.0, 998.0, 998.0, 999.0, 998.0, 999.0, 998.0, 999.0, 998.0, 999.0, 998.0, 999.0, 998.0, 998.0, 999.0, 998.0, 998.0, 1000.0, 998.0, 999.0, 998.0, 998.0, 997.0, 998.0, 998.0, 999.0, 998.0, 999.0],
      "WindowWidth": [2216.0, 2216.0, 2216.0, 2216.0, 2216.0, 2216.0, 2216.0, 2216.0, 2216.0, 2216.0, 2216.0, 2216.0, 2216.0, 2216.0, 2215.0, 2215.0, 2216.0, 2215.0, 2215.0, 2215.0, 2216.0, 2215.0, 2216.0, 2216.0, 2216.0, 2216.0, 2216.0, 2216.0, 2215.0, 2215.0, 2215.0, 2216.0, 2216.0, 2215.0, 2216.0, 2215.0, 2216.0, 2216.0, 2215.0, 2216.0, 2217.0, 2216.0, 2216.0, 2215.0, 2216.0, 2216.0, 2216.0, 2216.0, 2215.0, 2216.0, 2215.0, 2215.0, 2215.0, 2215.0, 2215.0, 2216.0, 2215.0, 2216.0, 2214.0, 2214.0, 2216.0, 2214.0, 2214.0, 2215.0, 2215.0, 2216.0, 2216.0, 2214.0, 2216.0, 2215.0, 2215.0, 2214.0, 2214.0, 2214.0, 2213.0, 2214.0, 2216.0, 2215.0, 2216.0, 2214.0, 2214.0, 2215.0, 2215.0, 2215.0, 2215.0, 2214.0, 2216.0, 2216.0, 2215.0, 2216.0, 2214.0, 2214.0, 2213.0, 2214.0, 2215.0, 2214.0, 2215.0, 2214.0, 2215.0, 2215.0, 2215.0, 2215.0, 2215.0, 2214.0, 2214.0, 2214.0, 2215.0, 2215.0, 2215.0, 2214.0, 2214.0, 2215.0, 2215.0, 2215.0, 2215.0, 2215.0, 2214.0, 2214.0, 2215.0, 2213.0, 2214.0, 2215.0, 2215.0, 2214.0, 2215.0, 2215.0, 2215.0, 2215.0, 2214.0, 2215.0, 2215.0, 2214.0, 2215.0, 2215.0, 2214.0, 2214.0, 2214.0, 2214.0, 2214.0, 2214.0, 2214.0, 2214.0, 2214.0, 2214.0, 2215.0, 2215.0, 2214.0, 2214.0, 2214.0, 2214.0, 2214.0, 2215.0, 2214.0, 2214.0, 2214.0, 2214.0, 2215.0, 2214.0, 2214.0, 2214.0, 2215.0, 2213.0, 2213.0, 2213.0, 2213.0, 2213.0, 2213.0, 2213.0, 2213.0, 2214.0, 2214.0, 2214.0, 2214.0, 2213.0, 2213.0, 2214.0, 2213.0, 2214.0, 2214.0, 2214.0, 2213.0, 2214.0, 2214.0, 2214.0, 2214.0, 2214.0, 2214.0, 2213.0, 2213.0, 2214.0, 2213.0, 2214.0, 2213.0, 2213.0, 2212.0, 2213.0, 2213.0, 2214.0, 2213.0, 2214.0]
    },
    "slices": {}
  }
}