{
  "AcquisitionMatrixPE": 122,
  "AcquisitionNumber": 1,
  "AcquisitionTime": "10:07:19.185000",
  "BandwidthPerPixelPhaseEncode": 28.76,
  "BaseResolution": 122,
  "BodyPartExamined": "BRAIN",
  "CoilCombinationMethod": "Adaptive Combine",
  "ConsistencyInfo": "N4_VE11C_LATEST_20160120",
  "ConversionSoftware": "dcm2niix",
  "ConversionSoftwareVersion": "v1.0.20220720",
  "DerivedVendorReportedEchoSpacing": 0.000570008,
  "DeviceSerialNumber": "66112",
  "DiffusionScheme": "Monopolar",
  "DwellTime": 2e-06,
  "EchoTime": 0.075,
  "EchoTrainLength": 61,
  "EffectiveEchoSpacing": 0.000285004,
  "FlipAngle": 90,
  "HeudiconvVersion": "0.13.1",
  "ImageOrientationPatientDICOM": [0.998988, -0.0446301, 0.00551797, 0.0408221, 0.951465, 0.305038],
  "ImageOrientationText": "Tra>Cor(17.7)>Sag(1.1)",
  "ImageType": [
    "ORIGINAL",
    "PRIMARY",
    "DIFFUSION",
    "NONE",
    "ND",
    "NORM"
],
  "ImagingFrequency": 123.252,
  "InPlanePhaseEncodingDirectionDICOM": "COL",
  "InstitutionAddress": "Maynard 3,Hanover,NH,US,03755",
  "InstitutionName": "Dartmouth College - PBS",
  "InstitutionalDepartmentName": "Department",
  "MRAcquisitionType": "2D",
  "MagneticFieldStrength": 3,
  "Manufacturer": "Siemens",
  "ManufacturersModelName": "Prisma",
  "MatrixCoilMode": "GRAPPA",
  "Modality": "MR",
  "NonlinearGradientCorrection": false,
  "ParallelReductionFactorInPlane": 2,
  "PartialFourier": 1,
  "PatientPosition": "HFS",
  "PercentPhaseFOV": 100,
  "PercentSampling": 100,
  "PhaseEncodingDirection": "j-",
  "PhaseEncodingSteps": 122,
  "PhaseResolution": 1,
  "PixelBandwidth": 2050,
  "ProcedureStepDescription": "dbic^QA",
  "ProtocolName": "dwi_acq-DTI-30-p2",
  "PulseSequenceDetails": "%SiemensSeq%\\ep2d_diff",
  "ReceiveCoilActiveElements": "HEA;HEP",
  "ReceiveCoilName": "Head_32",
  "ReconMatrixPE": 122,
  "RefLinesPE": 38,
  "RepetitionTime": 7.7,
  "SAR": 0.101796,
  "ScanOptions": "FS",
  "ScanningSequence": "EP",
  "SequenceName": "*ep_b0",
  "SequenceVariant": "SK\\SP",
  "SeriesDescription": "dwi_acq-DTI-30-p2",
  "SeriesNumber": 12,
  "ShimSetting": [4142, -7690, -7503, 285, -104, -163, -60, 51],
  "SliceThickness": 2,
  "SliceTiming": [3.84375, 0, 3.95312, 0.10938, 4.0625, 0.21875, 4.17188, 0.32812, 4.28125, 0.4375, 4.39062, 0.55469, 4.5, 0.66406, 4.60938, 0.77344, 4.71875, 0.875, 4.82812, 0.99219, 4.9375, 1.10156, 5.04688, 1.21094, 5.15625, 1.32031, 5.26562, 1.42969, 5.375, 1.53906, 5.49219, 1.64844, 5.59375, 1.75781, 5.70312, 1.86719, 5.8125, 1.97656, 5.92969, 2.08594, 6.03906, 2.19531, 6.14844, 2.30469, 6.25781, 2.41406, 6.36719, 2.52344, 6.47656, 2.63281, 6.58594, 2.74219, 6.69531, 2.85156, 6.80469, 2.96094, 6.91406, 3.07031, 7.02344, 3.1875, 7.13281, 3.29688, 7.24219, 3.40625, 7.35156, 3.51562, 7.46094, 3.625, 7.57031, 3.73438],
  "SoftwareVersions": "syngo MR E11",
  "SpacingBetweenSlices": 2,
  "SpoilingState": true,
  "StationName": "AWP66112",
  "TotalReadoutTime": 0.0344855,
  "TxRefAmp": 240.8,
  "dcmmeta_affine": [
    [-1.965222954750061, 0.08030568808317184, 0.03772810101509094, 112.76415252685547],
    [0.0877968817949295, 1.8717341423034668, 0.6090087890625, -131.2688751220703],
    [0.010855026543140411, -0.6000750660896301, 1.9046478271484375, -23.44261932373047],
    [0.0, 0.0, 0.0, 1.0]
],
  "dcmmeta_reorient_transform": [
    [0.0, -1.0, 0.0, 121.0],
    [1.0, 0.0, 0.0, 0.0],
    [0.0, 0.0, -1.0, 69.0],
    [0.0, 0.0, 0.0, 1.0]
],
  "dcmmeta_shape": [122, 122, 70, 31],
  "dcmmeta_slice_dim": 2,
  "dcmmeta_version": 0.6,
  "global": {
    "const": {
      "AccessionNumber": "qa",
      "AcquisitionMatrix": [122, 0, 0, 122],
      "AngioFlag": "N",
      "BitsAllocated": 16,
      "BitsStored": 12,
      "BodyPartExamined": "BRAIN",
      "Columns": 122,
      "EchoNumbers": 1,
      "EchoTime": 75.0,
      "EchoTrainLength": 61,
      "FlipAngle": 90.0,
      "HighBit": 11,
      "ImageOrientationPatient": [0.99898834224809, -0.0446300800141, 0.00551797158021, 0.04082205677398, 0.95146481135997, 0.3050381491297],
      "ImageType": [
        "ORIGINAL",
        "PRIMARY",
        "DIFFUSION",
        "NONE",
        "ND",
        "NORM"
],
      "ImagedNucleus": "1H",
      "ImagingFrequency": 123.252435,
      "InPlanePhaseEncodingDirection": "COL",
      "MRAcquisitionType": "2D",
      "MagneticFieldStrength": 3.0,
      "Manufacturer": "SIEMENS",
      "ManufacturerModelName": "Prisma",
      "Modality": "MR",
      "NumberOfAverages": 1.0,
      "NumberOfPhaseEncodingSteps": 122,
      "PercentPhaseFieldOfView": 100.0,
      "PercentSampling": 100.0,
      "PerformedProcedureStepStartTime": "093754.337000",
      "PhotometricInterpretation": "MONOCHROME2",
      "PixelBandwidth": 2050.0,
      "PixelRepresentation": 0,
      "PixelSpacing": [1.9672131538391, 1.9672131538391],
      "ProtocolName": "dwi_acq-DTI-30-p2",
      "RepetitionTime": 7700.0,
      "Rows": 122,
      "SAR": 0.10179601526852,
      "SamplesPerPixel": 1,
      "ScanOptions": "FS",
      "ScanningSequence": "EP",
      "SequenceVariant": [
        "SK",
        "SP"
],
      "SeriesDescription": "dwi_acq-DTI-30-p2",
      "SeriesNumber": 12,
      "SeriesTime": "100726.802000",
      "SliceThickness": 2.0,
      "SmallestImagePixelValue": 0,
      "SoftwareVersions": "syngo MR E11",
      "SpacingBetweenSlices": 2.0,
      "SpecificCharacterSet": "ISO_IR 100",
      "StudyID": "11",
      "StudyTime": "093754.266000",
      "TransmitCoilName": "Body",
      "VariableFlipAngleFlag": "N",
      "WindowCenterWidthExplanation": "Algo1",
      "dBdt": 0.0},
    "slices": {
      "AcquisitionTime": ["100719.185000", "100715.345000", "100719.295000", "100715.455000", "100719.405000", "100715.565000", "100719.515000", "100715.675000", "100719.625000", "100715.785000", "100719.735000", "100715.895000", "100719.845000", "100716.005000", "100719.955000", "100716.115000", "100720.062500", "100716.222500", "100720.172500", "100716.332500", "100720.282500", "100716.442500", "100720.392500", "100716.552500", "100720.502500", "100716.662500", "100720.612500", "100716.772500", "100720.722500", "100716.882500", "100720.832500", "100716.992500", "100720.940000", "100717.102500", "100721.050000", "100717.210000", "100721.160000", "100717.320000", "100721.270000", "100717.430000", "100721.380000", "100717.540000", "100721.490000", "100717.650000", "100721.600000", "100717.760000", "100721.710000", "100717.870000", "100721.820000", "100717.980000", "100721.927500", "100718.087500", "100722.037500", "100718.197500", "100722.147500", "100718.307500", "100722.257500", "100718.417500", "100722.367500", "100718.527500", "100722.477500", "100718.637500", "100722.587500", "100718.747500", "100722.697500", "100718.857500", "100722.805000", "100718.967500", "100722.915000", "100719.075000", "100726.885000", "100723.045000", "100726.995000", "100723.155000", "100727.105000", "100723.265000", "100727.215000", "100723.375000", "100727.325000", "100723.485000", "100727.435000", "100723.595000", "100727.545000", "100723.705000", "100727.655000", "100723.815000", "100727.762500", "100723.922500", "100727.872500", "100724.032500", "100727.982500", "100724.142500", "100728.092500", "100724.252500", "100728.202500", "100724.362500", "100728.312500", "100724.472500", "100728.422500", "100724.582500", "100728.532500", "100724.692500", "100728.640000", "100724.802500", "100728.750000", "100724.910000", "100728.860000", "100725.020000", "100728.970000", "100725.130000", "100729.080000", "100725.240000", "100729.190000", "100725.350000", "100729.300000", "100725.460000", "100729.410000", "100725.570000", "100729.520000", "100725.680000", "100729.627500", "100725.787500", "100729.737500", "100725.897500", "100729.847500", "100726.007500", "100729.957500", "100726.117500", "100730.067500", "100726.227500", "100730.177500", "100726.337500", "100730.287500", "100726.447500", "100730.397500", "100726.557500", "100730.505000", "100726.667500", "100730.615000", "100726.775000", "100734.585000", "100730.745000", "100734.695000", "100730.855000", "100734.805000", "100730.965000", "100734.915000", "100731.075000", "100735.025000", "100731.185000", "100735.135000", "100731.295000", "100735.245000", "100731.405000", "100735.355000", "100731.515000", "100735.462500", "100731.622500", "100735.572500", "100731.732500", "100735.682500", "100731.842500", "100735.792500", "100731.952500", "100735.902500", "100732.062500", "100736.012500", "100732.172500", "100736.122500", "100732.282500", "100736.232500", "100732.392500", "100736.340000", "100732.502500", "100736.450000", "100732.610000", "100736.560000", "100732.720000", "100736.670000", "100732.830000", "100736.780000", "100732.940000", "100736.890000", "100733.050000", "100737.000000", "100733.160000", "100737.110000", "100733.270000", "100737.220000", "100733.380000", "100737.327500", "100733.487500", "100737.437500", "100733.597500", "100737.547500", "100733.707500", "100737.657500", "100733.817500", "100737.767500", "100733.927500", "100737.877500", "100734.037500", "100737.987500", "100734.147500", "100738.097500", "100734.257500", "100738.205000", "100734.367500", "100738.315000", "100734.475000", "100742.285000", "100738.445000", "100742.395000", "100738.555000", "100742.505000", "100738.665000", "100742.615000", "100738.775000", "100742.725000", "100738.885000", "100742.835000", "100738.995000", "100742.945000", "100739.105000", "100743.055000", "100739.215000", "100743.162500", "100739.322500", "100743.272500", "100739.432500", "100743.382500", "100739.542500", "100743.492500", "100739.652500", "100743.602500", "100739.762500", "100743.712500", "100739.872500", "100743.822500", "100739.982500", "100743.932500", "100740.092500", "100744.040000", "100740.202500", "100744.150000", "100740.310000", "100744.260000", "100740.420000", "100744.370000", "100740.530000", "100744.480000", "100740.640000", "100744.590000", "100740.750000", "100744.700000", "100740.860000", "100744.810000", "100740.970000", "100744.920000", "100741.080000", "100745.027500", "100741.187500", "100745.137500", "100741.297500", "100745.247500", "100741.407500", "100745.357500", "100741.517500", "100745.467500", "100741.627500", "100745.577500", "100741.737500", "100745.687500", "100741.847500", "100745.797500", "100741.957500", "100745.905000", "100742.067500", "100746.015000", "100742.175000", "100749.985000", "100746.145000", "100750.095000", "100746.255000", "100750.205000", "100746.365000", "100750.315000", "100746.475000", "100750.425000", "100746.585000", "100750.535000", "100746.695000", "100750.645000", "100746.805000", "100750.755000", "100746.915000", "100750.862500", "100747.022500", "100750.972500", "100747.132500", "100751.082500", "100747.242500", "100751.192500", "100747.352500", "100751.302500", "100747.462500", "100751.412500", "100747.572500", "100751.522500", "100747.682500", "100751.632500", "100747.792500", "100751.740000", "100747.902500", "100751.850000", "100748.010000", "100751.960000", "100748.120000", "100752.070000", "100748.230000", "100752.180000", "100748.340000", "100752.290000", "100748.450000", "100752.400000", "100748.560000", "100752.510000", "100748.670000", "100752.620000", "100748.780000", "100752.727500", "100748.887500", "100752.837500", "100748.997500", "100752.947500", "100749.107500", "100753.057500", "100749.217500", "100753.167500", "100749.327500", "100753.277500", "100749.437500", "100753.387500", "100749.547500", "100753.497500", "100749.657500", "100753.605000", "100749.767500", "100753.715000", "100749.875000", "100757.685000", "100753.845000", "100757.795000", "100753.955000", "100757.905000", "100754.065000", "100758.015000", "100754.175000", "100758.125000", "100754.285000", "100758.235000", "100754.395000", "100758.345000", "100754.505000", "100758.455000", "100754.615000", "100758.562500", "100754.722500", "100758.672500", "100754.832500", "100758.782500", "100754.942500", "100758.892500", "100755.052500", "100759.002500", "100755.162500", "100759.112500", "100755.272500", "100759.222500", "100755.382500", "100759.332500", "100755.492500", "100759.440000", "100755.602500", "100759.550000", "100755.710000", "100759.660000", "100755.820000", "100759.770000", "100755.930000", "100759.880000", "100756.040000", "100759.990000", "100756.150000", "100800.100000", "100756.260000", "100800.210000", "100756.370000", "100800.320000", "100756.480000", "100800.427500", "100756.587500", "100800.537500", "100756.697500", "100800.647500", "100756.807500", "100800.757500", "100756.917500", "100800.867500", "100757.027500", "100800.977500", "100757.137500", "100801.087500", "100757.247500", "100801.197500", "100757.357500", "100801.305000", "100757.467500", "100801.415000", "100757.575000", "100805.385000", "100801.545000", "100805.495000", "100801.655000", "100805.605000", "100801.765000", "100805.715000", "100801.875000", "100805.825000", "100801.985000", "100805.935000", "100802.095000", "100806.045000", "100802.205000", "100806.155000", "100802.315000", "100806.262500", "100802.422500", "100806.372500", "100802.532500", "100806.482500", "100802.642500", "100806.592500", "100802.752500", "100806.702500", "100802.862500", "100806.812500", "100802.972500", "100806.922500", "100803.082500", "100807.032500", "100803.192500", "100807.140000", "100803.302500", "100807.250000", "100803.410000", "100807.360000", "100803.520000", "100807.470000", "100803.630000", "100807.580000", "100803.740000", "100807.690000", "100803.850000", "100807.800000", "100803.960000", "100807.910000", "100804.070000", "100808.020000", "100804.180000", "100808.127500", "100804.287500", "100808.237500", "100804.397500", "100808.347500", "100804.507500", "100808.457500", "100804.617500", "100808.567500", "100804.727500", "100808.677500", "100804.837500", "100808.787500", "100804.947500", "100808.897500", "100805.057500", "100809.005000", "100805.167500", "100809.115000", "100805.275000", "100813.085000", "100809.245000", "100813.195000", "100809.355000", "100813.305000", "100809.465000", "100813.415000", "100809.575000", "100813.525000", "100809.685000", "100813.635000", "100809.795000", "100813.745000", "100809.905000", "100813.855000", "100810.015000", "100813.962500", "100810.122500", "100814.072500", "100810.232500", "100814.182500", "100810.342500", "100814.292500", "100810.452500", "100814.402500", "100810.562500", "100814.512500", "100810.672500", "100814.622500", "100810.782500", "100814.732500", "100810.892500", "100814.840000", "100811.002500", "100814.950000", "100811.110000", "100815.060000", "100811.220000", "100815.170000", "100811.330000", "100815.280000", "100811.440000", "100815.390000", "100811.550000", "100815.500000", "100811.660000", "100815.610000", "100811.770000", "100815.720000", "100811.880000", "100815.827500", "100811.987500", "100815.937500", "100812.097500", "100816.047500", "100812.207500", "100816.157500", "100812.317500", "100816.267500", "100812.427500", "100816.377500", "100812.537500", "100816.487500", "100812.647500", "100816.597500", "100812.757500", "100816.705000", "100812.867500", "100816.815000", "100812.975000", "100820.785000", "100816.945000", "100820.895000", "100817.055000", "100821.005000", "100817.165000", "100821.115000", "100817.275000", "100821.225000", "100817.385000", "100821.335000", "100817.495000", "100821.445000", "100817.605000", "100821.555000", "100817.715000", "100821.662500", "100817.822500", "100821.772500", "100817.932500", "100821.882500", "100818.042500", "100821.992500", "100818.152500", "100822.102500", "100818.262500", "100822.212500", "100818.372500", "100822.322500", "100818.482500", "100822.432500", "100818.592500", "100822.540000", "100818.702500", "100822.650000", "100818.810000", "100822.760000", "100818.920000", "100822.870000", "100819.030000", "100822.980000", "100819.140000", "100823.090000", "100819.250000", "100823.200000", "100819.360000", "100823.310000", "100819.470000", "100823.420000", "100819.580000", "100823.527500", "100819.687500", "100823.637500", "100819.797500", "100823.747500", "100819.907500", "100823.857500", "100820.017500", "100823.967500", "100820.127500", "100824.077500", "100820.237500", "100824.187500", "100820.347500", "100824.297500", "100820.457500", "100824.405000", "100820.567500", "100824.515000", "100820.675000", "100828.485000", "100824.645000", "100828.595000", "100824.755000", "100828.705000", "100824.865000", "100828.815000", "100824.975000", "100828.925000", "100825.085000", "100829.035000", "100825.195000", "100829.145000", "100825.305000", "100829.255000", "100825.415000", "100829.362500", "100825.522500", "100829.472500", "100825.632500", "100829.582500", "100825.742500", "100829.692500", "100825.852500", "100829.802500", "100825.962500", "100829.912500", "100826.072500", "100830.022500", "100826.182500", "100830.132500", "100826.292500", "100830.240000", "100826.402500", "100830.350000", "100826.510000", "100830.460000", "100826.620000", "100830.570000", "100826.730000", "100830.680000", "100826.840000", "100830.790000", "100826.950000", "100830.900000", "100827.060000", "100831.010000", "100827.170000", "100831.120000", "100827.280000", "100831.227500", "100827.387500", "100831.337500", "100827.497500", "100831.447500", "100827.607500", "100831.557500", "100827.717500", "100831.667500", "100827.827500", "100831.777500", "100827.937500", "100831.887500", "100828.047500", "100831.997500", "100828.157500", "100832.105000", "100828.267500", "100832.215000", "100828.375000", "100836.185000", "100832.345000", "100836.295000", "100832.455000", "100836.405000", "100832.565000", "100836.515000", "100832.675000", "100836.625000", "100832.785000", "100836.735000", "100832.895000", "100836.845000", "100833.005000", "100836.955000", "100833.115000", "100837.062500", "100833.222500", "100837.172500", "100833.332500", "100837.282500", "100833.442500", "100837.392500", "100833.552500", "100837.502500", "100833.662500", "100837.612500", "100833.772500", "100837.722500", "100833.882500", "100837.832500", "100833.992500", "100837.940000", "100834.102500", "100838.050000", "100834.210000", "100838.160000", "100834.320000", "100838.270000", "100834.430000", "100838.380000", "100834.540000", "100838.490000", "100834.650000", "100838.600000", "100834.760000", "100838.710000", "100834.870000", "100838.820000", "100834.980000", "100838.927500", "100835.087500", "100839.037500", "100835.197500", "100839.147500", "100835.307500", "100839.257500", "100835.417500", "100839.367500", "100835.527500", "100839.477500", "100835.637500", "100839.587500", "100835.747500", "100839.697500", "100835.857500", "100839.805000", "100835.967500", "100839.915000", "100836.075000", "100843.885000", "100840.045000", "100843.995000", "100840.155000", "100844.105000", "100840.265000", "100844.215000", "100840.375000", "100844.325000", "100840.485000", "100844.435000", "100840.595000", "100844.545000", "100840.705000", "100844.655000", "100840.815000", "100844.762500", "100840.922500", "100844.872500", "100841.032500", "100844.982500", "100841.142500", "100845.092500", "100841.252500", "100845.202500", "100841.362500", "100845.312500", "100841.472500", "100845.422500", "100841.582500", "100845.532500", "100841.692500", "100845.640000", "100841.802500", "100845.750000", "100841.910000", "100845.860000", "100842.020000", "100845.970000", "100842.130000", "100846.080000", "100842.240000", "100846.190000", "100842.350000", "100846.300000", "100842.460000", "100846.410000", "100842.570000", "100846.520000", "100842.680000", "100846.627500", "100842.787500", "100846.737500", "100842.897500", "100846.847500", "100843.007500", "100846.957500", "100843.117500", "100847.067500", "100843.227500", "100847.177500", "100843.337500", "100847.287500", "100843.447500", "100847.397500", "100843.557500", "100847.505000", "100843.667500", "100847.615000", "100843.775000", "100851.585000", "100847.745000", "100851.695000", "100847.855000", "100851.805000", "100847.965000", "100851.915000", "100848.075000", "100852.025000", "100848.185000", "100852.135000", "100848.295000", "100852.245000", "100848.405000", "100852.355000", "100848.515000", "100852.462500", "100848.622500", "100852.572500", "100848.732500", "100852.682500", "100848.842500", "100852.792500", "100848.952500", "100852.902500", "100849.062500", "100853.012500", "100849.172500", "100853.122500", "100849.282500", "100853.232500", "100849.392500", "100853.340000", "100849.502500", "100853.450000", "100849.610000", "100853.560000", "100849.720000", "100853.670000", "100849.830000", "100853.780000", "100849.940000", "100853.890000", "100850.050000", "100854.000000", "100850.160000", "100854.110000", "100850.270000", "100854.220000", "100850.380000", "100854.327500", "100850.487500", "100854.437500", "100850.597500", "100854.547500", "100850.707500", "100854.657500", "100850.817500", "100854.767500", "100850.927500", "100854.877500", "100851.037500", "100854.987500", "100851.147500", "100855.097500", "100851.257500", "100855.205000", "100851.367500", "100855.315000", "100851.475000", "100859.285000", "100855.445000", "100859.395000", "100855.555000", "100859.505000", "100855.665000", "100859.615000", "100855.775000", "100859.725000", "100855.885000", "100859.835000", "100855.995000", "100859.945000", "100856.105000", "100900.055000", "100856.215000", "100900.162500", "100856.322500", "100900.272500", "100856.432500", "100900.382500", "100856.542500", "100900.492500", "100856.652500", "100900.602500", "100856.762500", "100900.712500", "100856.872500", "100900.822500", "100856.982500", "100900.932500", "100857.092500", "100901.040000", "100857.202500", "100901.150000", "100857.310000", "100901.260000", "100857.420000", "100901.370000", "100857.530000", "100901.480000", "100857.640000", "100901.590000", "100857.750000", "100901.700000", "100857.860000", "100901.810000", "100857.970000", "100901.920000", "100858.080000", "100902.027500", "100858.187500", "100902.137500", "100858.297500", "100902.247500", "100858.407500", "100902.357500", "100858.517500", "100902.467500", "100858.627500", "100902.577500", "100858.737500", "100902.687500", "100858.847500", "100902.797500", "100858.957500", "100902.905000", "100859.067500", "100903.015000", "100859.175000", "100906.985000", "100903.145000", "100907.095000", "100903.255000", "100907.205000", "100903.365000", "100907.315000", "100903.475000", "100907.425000", "100903.585000", "100907.535000", "100903.695000", "100907.645000", "100903.805000", "100907.755000", "100903.915000", "100907.862500", "100904.022500", "100907.972500", "100904.132500", "100908.082500", "100904.242500", "100908.192500", "100904.352500", "100908.302500", "100904.462500", "100908.412500", "100904.572500", "100908.522500", "100904.682500", "100908.632500", "100904.792500", "100908.740000", "100904.902500", "100908.850000", "100905.010000", "100908.960000", "100905.120000", "100909.070000", "100905.230000", "100909.180000", "100905.340000", "100909.290000", "100905.450000", "100909.400000", "100905.560000", "100909.510000", "100905.670000", "100909.620000", "100905.780000", "100909.727500", "100905.887500", "100909.837500", "100905.997500", "100909.947500", "100906.107500", "100910.057500", "100906.217500", "100910.167500", "100906.327500", "100910.277500", "100906.437500", "100910.387500", "100906.547500", "100910.497500", "100906.657500", "100910.605000", "100906.767500", "100910.715000", "100906.875000", "100914.685000", "100910.845000", "100914.795000", "100910.955000", "100914.905000", "100911.065000", "100915.015000", "100911.175000", "100915.125000", "100911.285000", "100915.235000", "100911.395000", "100915.345000", "100911.505000", "100915.455000", "100911.615000", "100915.562500", "100911.722500", "100915.672500", "100911.832500", "100915.782500", "100911.942500", "100915.892500", "100912.052500", "100916.002500", "100912.162500", "100916.112500", "100912.272500", "100916.222500", "100912.382500", "100916.332500", "100912.492500", "100916.440000", "100912.602500", "100916.550000", "100912.710000", "100916.660000", "100912.820000", "100916.770000", "100912.930000", "100916.880000", "100913.040000", "100916.990000", "100913.150000", "100917.100000", "100913.260000", "100917.210000", "100913.370000", "100917.320000", "100913.480000", "100917.427500", "100913.587500", "100917.537500", "100913.697500", "100917.647500", "100913.807500", "100917.757500", "100913.917500", "100917.867500", "100914.027500", "100917.977500", "100914.137500", "100918.087500", "100914.247500", "100918.197500", "100914.357500", "100918.305000", "100914.467500", "100918.415000", "100914.575000", "100922.385000", "100918.545000", "100922.495000", "100918.655000", "100922.605000", "100918.765000", "100922.715000", "100918.875000", "100922.825000", "100918.985000", "100922.935000", "100919.095000", "100923.045000", "100919.205000", "100923.155000", "100919.315000", "100923.262500", "100919.422500", "100923.372500", "100919.532500", "100923.482500", "100919.642500", "100923.592500", "100919.752500", "100923.702500", "100919.862500", "100923.812500", "100919.972500", "100923.922500", "100920.082500", "100924.032500", "100920.192500", "100924.140000", "100920.302500", "100924.250000", "100920.410000", "100924.360000", "100920.520000", "100924.470000", "100920.630000", "100924.580000", "100920.740000", "100924.690000", "100920.850000", "100924.800000", "100920.960000", "100924.910000", "100921.070000", "100925.020000", "100921.180000", "100925.127500", "100921.287500", "100925.237500", "100921.397500", "100925.347500", "100921.507500", "100925.457500", "100921.617500", "100925.567500", "100921.727500", "100925.677500", "100921.837500", "100925.787500", "100921.947500", "100925.897500", "100922.057500", "100926.005000", "100922.167500", "100926.115000", "100922.275000", "100930.085000", "100926.245000", "100930.195000", "100926.355000", "100930.305000", "100926.465000", "100930.415000", "100926.575000", "100930.525000", "100926.685000", "100930.635000", "100926.795000", "100930.745000", "100926.905000", "100930.855000", "100927.015000", "100930.962500", "100927.122500", "100931.072500", "100927.232500", "100931.182500", "100927.342500", "100931.292500", "100927.452500", "100931.402500", "100927.562500", "100931.512500", "100927.672500", "100931.622500", "100927.782500", "100931.732500", "100927.892500", "100931.840000", "100928.002500", "100931.950000", "100928.110000", "100932.060000", "100928.220000", "100932.170000", "100928.330000", "100932.280000", "100928.440000", "100932.390000", "100928.550000", "100932.500000", "100928.660000", "100932.610000", "100928.770000", "100932.720000", "100928.880000", "100932.827500", "100928.987500", "100932.937500", "100929.097500", "100933.047500", "100929.207500", "100933.157500", "100929.317500", "100933.267500", "100929.427500", "100933.377500", "100929.537500", "100933.487500", "100929.647500", "100933.597500", "100929.757500", "100933.705000", "100929.867500", "100933.815000", "100929.975000", "100937.785000", "100933.945000", "100937.895000", "100934.055000", "100938.005000", "100934.165000", "100938.115000", "100934.275000", "100938.225000", "100934.385000", "100938.335000", "100934.495000", "100938.445000", "100934.605000", "100938.555000", "100934.715000", "100938.662500", "100934.822500", "100938.772500", "100934.932500", "100938.882500", "100935.042500", "100938.992500", "100935.152500", "100939.102500", "100935.262500", "100939.212500", "100935.372500", "100939.322500", "100935.482500", "100939.432500", "100935.592500", "100939.540000", "100935.702500", "100939.650000", "100935.810000", "100939.760000", "100935.920000", "100939.870000", "100936.030000", "100939.980000", "100936.140000", "100940.090000", "100936.250000", "100940.200000", "100936.360000", "100940.310000", "100936.470000", "100940.420000", "100936.580000", "100940.527500", "100936.687500", "100940.637500", "100936.797500", "100940.747500", "100936.907500", "100940.857500", "100937.017500", "100940.967500", "100937.127500", "100941.077500", "100937.237500", "100941.187500", "100937.347500", "100941.297500", "100937.457500", "100941.405000", "100937.567500", "100941.515000", "100937.675000", "100945.485000", "100941.645000", "100945.595000", "100941.755000", "100945.705000", "100941.865000", "100945.815000", "100941.975000", "100945.925000", "100942.085000", "100946.035000", "100942.195000", "100946.145000", "100942.305000", "100946.255000", "100942.415000", "100946.362500", "100942.522500", "100946.472500", "100942.632500", "100946.582500", "100942.742500", "100946.692500", "100942.852500", "100946.802500", "100942.962500", "100946.912500", "100943.072500", "100947.022500", "100943.182500", "100947.132500", "100943.292500", "100947.240000", "100943.402500", "100947.350000", "100943.510000", "100947.460000", "100943.620000", "100947.570000", "100943.730000", "100947.680000", "100943.840000", "100947.790000", "100943.950000", "100947.900000", "100944.060000", "100948.010000", "100944.170000", "100948.120000", "100944.280000", "100948.227500", "100944.387500", "100948.337500", "100944.497500", "100948.447500", "100944.607500", "100948.557500", "100944.717500", "100948.667500", "100944.827500", "100948.777500", "100944.937500", "100948.887500", "100945.047500", "100948.997500", "100945.157500", "100949.105000", "100945.267500", "100949.215000", "100945.375000", "100953.185000", "100949.345000", "100953.295000", "100949.455000", "100953.405000", "100949.565000", "100953.515000", "100949.675000", "100953.625000", "100949.785000", "100953.735000", "100949.895000", "100953.845000", "100950.005000", "100953.955000", "100950.115000", "100954.062500", "100950.222500", "100954.172500", "100950.332500", "100954.282500", "100950.442500", "100954.392500", "100950.552500", "100954.502500", "100950.662500", "100954.612500", "100950.772500", "100954.722500", "100950.882500", "100954.832500", "100950.992500", "100954.940000", "100951.102500", "100955.050000", "1