{
  "AcquisitionMatrixPE": 122,
  "AcquisitionNumber": 1,
  "AcquisitionTime": "10:11:37.477500",
  "BandwidthPerPixelPhaseEncode": 27.785,
  "BaseResolution": 122,
  "BodyPartExamined": "BRAIN",
  "CoilCombinationMethod": "Adaptive Combine",
  "ConsistencyInfo": "N4_VE11C_LATEST_20160120",
  "ConversionSoftware": "dcm2niix",
  "ConversionSoftwareVersion": "v1.0.20220720",
  "DerivedVendorReportedEchoSpacing": 0.000590011,
  "DeviceSerialNumber": "66112",
  "DiffusionScheme": "Monopolar",
  "DwellTime": 2e-06,
  "EchoTime": 0.068,
  "EchoTrainLength": 61,
  "EffectiveEchoSpacing": 0.000295005,
  "FlipAngle": 90,
  "HeudiconvVersion": "0.13.1",
  "ImageOrientationPatientDICOM": [0.998988, -0.0446301, 0.00551797, 0.0408221, 0.951465, 0.305038],
  "ImageOrientationText": "Tra>Cor(17.7)>Sag(1.1)",
  "ImageType": [
    "ORIGINAL",
    "PRIMARY",
    "DIFFUSION",
    "NONE",
    "ND",
    "NORM"
],
  "ImagingFrequency": 123.252,
  "InPlanePhaseEncodingDirectionDICOM": "COL",
  "InstitutionAddress": "Maynard 3,Hanover,NH,US,03755",
  "InstitutionName": "Dartmouth College - PBS",
  "InstitutionalDepartmentName": "Department",
  "MRAcquisitionType": "2D",
  "MagneticFieldStrength": 3,
  "Manufacturer": "Siemens",
  "ManufacturersModelName": "Prisma",
  "Modality": "MR",
  "MultibandAccelerationFactor": 4,
  "NonlinearGradientCorrection": false,
  "ParallelReductionFactorInPlane": 2,
  "PartialFourier": 1,
  "PatientPosition": "HFS",
  "PercentPhaseFOV": 100,
  "PercentSampling": 100,
  "PhaseEncodingDirection": "j-",
  "PhaseEncodingSteps": 122,
  "PhaseResolution": 1,
  "PixelBandwidth": 2050,
  "ProcedureStepDescription": "dbic^QA",
  "ProtocolName": "dwi_acq-DTI-30-p2-s4",
  "PulseSequenceDetails": "%SiemensSeq%\\ep2d_diff",
  "ReceiveCoilActiveElements": "HEA;HEP",
  "ReceiveCoilName": "Head_32",
  "ReconMatrixPE": 122,
  "RefLinesPE": 38,
  "RepetitionTime": 3.6,
  "SAR": 0.161869,
  "ScanOptions": "FS",
  "ScanningSequence": "EP",
  "SequenceName": "*ep_b0",
  "SequenceVariant": "SK\\SP",
  "SeriesDescription": "dwi_acq-DTI-30-p2-s4",
  "SeriesNumber": 13,
  "ShimSetting": [4142, -7690, -7503, 284, -104, -163, -60, 51],
  "SliceThickness": 2,
  "SliceTiming": [2.58594, 0, 1.78906, 0.20312, 1.99219, 0.39844, 2.1875, 0.60156, 2.39062, 1, 2.78906, 1.19531, 2.98438, 1.39062, 3.1875, 1.59375, 3.38281, 0.79688, 2.58594, 0, 1.78906, 0.20312, 1.99219, 0.39844, 2.1875, 0.60156, 2.39062, 1, 2.78906, 1.19531, 2.98438, 1.39062, 3.1875, 1.59375, 3.38281, 0.79688, 2.58594, 0, 1.78906, 0.20312, 1.99219, 0.39844, 2.1875, 0.60156, 2.39062, 1, 2.78906, 1.19531, 2.98438, 1.39062, 3.1875, 1.59375, 3.38281, 0.79688, 2.58594, 0, 1.78906, 0.20312, 1.99219, 0.39844, 2.1875, 0.60156, 2.39062, 1, 2.78906, 1.19531, 2.98438, 1.39062, 3.1875, 1.59375, 3.38281, 0.79688],
  "SoftwareVersions": "syngo MR E11",
  "SpacingBetweenSlices": 2,
  "SpoilingState": true,
  "StationName": "AWP66112",
  "TotalReadoutTime": 0.0356956,
  "TxRefAmp": 240.8,
  "dcmmeta_affine": [
    [-1.965222954750061, 0.08030568808317184, 0.037728071212768555, 112.72642517089844],
    [0.0877968817949295, 1.8717341423034668, 0.6090087890625, -131.8778839111328],
    [0.010855026543140411, -0.6000750660896301, 1.9046478271484375, -25.347267150878906],
    [0.0, 0.0, 0.0, 1.0]
],
  "dcmmeta_reorient_transform": [
    [0.0, -1.0, 0.0, 121.0],
    [1.0, 0.0, 0.0, 0.0],
    [0.0, 0.0, -1.0, 71.0],
    [0.0, 0.0, 0.0, 1.0]
],
  "dcmmeta_shape": [122, 122, 72, 31],
  "dcmmeta_slice_dim": 2,
  "dcmmeta_version": 0.6,
  "global": {
    "const": {
      "AccessionNumber": "qa",
      "AcquisitionMatrix": [122, 0, 0, 122],
      "AngioFlag": "N",
      "BitsAllocated": 16,
      "BitsStored": 12,
      "BodyPartExamined": "BRAIN",
      "Columns": 122,
      "EchoNumbers": 1,
      "EchoTime": 68.0,
      "EchoTrainLength": 61,
      "FlipAngle": 90.0,
      "HighBit": 11,
      "ImageOrientationPatient": [0.99898834224809, -0.0446300800141, 0.00551797158021, 0.04082205677398, 0.95146481135997, 0.3050381491297],
      "ImageType": [
        "ORIGINAL",
        "PRIMARY",
        "DIFFUSION",
        "NONE",
        "ND",
        "NORM"
],
      "ImagedNucleus": "1H",
      "ImagingFrequency": 123.252438,
      "InPlanePhaseEncodingDirection": "COL",
      "MRAcquisitionType": "2D",
      "MagneticFieldStrength": 3.0,
      "Manufacturer": "SIEMENS",
      "ManufacturerModelName": "Prisma",
      "Modality": "MR",
      "NumberOfAverages": 1.0,
      "NumberOfPhaseEncodingSteps": 122,
      "PercentPhaseFieldOfView": 100.0,
      "PercentSampling": 100.0,
      "PerformedProcedureStepStartTime": "093754.337000",
      "PhotometricInterpretation": "MONOCHROME2",
      "PixelBandwidth": 2050.0,
      "PixelRepresentation": 0,
      "PixelSpacing": [1.9672131538391, 1.9672131538391],
      "ProtocolName": "dwi_acq-DTI-30-p2-s4",
      "RepetitionTime": 3600.0,
      "Rows": 122,
      "SAR": 0.16186929181776,
      "SamplesPerPixel": 1,
      "ScanOptions": "FS",
      "ScanningSequence": "EP",
      "SequenceVariant": [
        "SK",
        "SP"
],
      "SeriesDescription": "dwi_acq-DTI-30-p2-s4",
      "SeriesNumber": 13,
      "SeriesTime": "101146.651000",
      "SliceThickness": 2.0,
      "SmallestImagePixelValue": 0,
      "SoftwareVersions": "syngo MR E11",
      "SpacingBetweenSlices": 2.0,
      "SpecificCharacterSet": "ISO_IR 100",
      "StudyID": "11",
      "StudyTime": "093754.266000",
      "TransmitCoilName": "Body",
      "VariableFlipAngleFlag": "N",
      "WindowCenterWidthExplanation": "Algo1",
      "dBdt": 0.0},
    "slices": {
      "AcquisitionTime": ["101137.477500", "101134.892500", "101136.682500", "101135.092500", "101136.882500", "101135.290000", "101137.080000", "101135.490000", "101137.280000", "101135.887500", "101137.677500", "101136.085000", "101137.875000", "101136.285000", "101138.075000", "101136.482500", "101138.272500", "101135.687500", "101137.477500", "101134.892500", "101136.682500", "101135.092500", "101136.882500", "101135.290000", "101137.080000", "101135.490000", "101137.280000", "101135.887500", "101137.677500", "101136.085000", "101137.875000", "101136.285000", "101138.075000", "101136.482500", "101138.272500", "101135.687500", "101137.477500", "101134.892500", "101136.682500", "101135.092500", "101136.882500", "101135.290000", "101137.080000", "101135.490000", "101137.280000", "101135.887500", "101137.677500", "101136.085000", "101137.875000", "101136.285000", "101138.075000", "101136.482500", "101138.272500", "101135.687500", "101137.477500", "101134.892500", "101136.682500", "101135.092500", "101136.882500", "101135.290000", "101137.080000", "101135.490000", "101137.280000", "101135.887500", "101137.677500", "101136.085000", "101137.875000", "101136.285000", "101138.075000", "101136.482500", "101138.272500", "101135.687500", "101141.077500", "101138.492500", "101140.282500", "101138.692500", "101140.482500", "101138.890000", "101140.680000", "101139.090000", "101140.880000", "101139.487500", "101141.277500", "101139.685000", "101141.475000", "101139.885000", "101141.675000", "101140.082500", "101141.872500", "101139.287500", "101141.077500", "101138.492500", "101140.282500", "101138.692500", "101140.482500", "101138.890000", "101140.680000", "101139.090000", "101140.880000", "101139.487500", "101141.277500", "101139.685000", "101141.475000", "101139.885000", "101141.675000", "101140.082500", "101141.872500", "101139.287500", "101141.077500", "101138.492500", "101140.282500", "101138.692500", "101140.482500", "101138.890000", "101140.680000", "101139.090000", "101140.880000", "101139.487500", "101141.277500", "101139.685000", "101141.475000", "101139.885000", "101141.675000", "101140.082500", "101141.872500", "101139.287500", "101141.077500", "101138.492500", "101140.282500", "101138.692500", "101140.482500", "101138.890000", "101140.680000", "101139.090000", "101140.880000", "101139.487500", "101141.277500", "101139.685000", "101141.475000", "101139.885000", "101141.675000", "101140.082500", "101141.872500", "101139.287500", "101144.677500", "101142.092500", "101143.882500", "101142.292500", "101144.082500", "101142.490000", "101144.280000", "101142.690000", "101144.480000", "101143.087500", "101144.877500", "101143.285000", "101145.075000", "101143.485000", "101145.275000", "101143.682500", "101145.472500", "101142.887500", "101144.677500", "101142.092500", "101143.882500", "101142.292500", "101144.082500", "101142.490000", "101144.280000", "101142.690000", "101144.480000", "101143.087500", "101144.877500", "101143.285000", "101145.075000", "101143.485000", "101145.275000", "101143.682500", "101145.472500", "101142.887500", "101144.677500", "101142.092500", "101143.882500", "101142.292500", "101144.082500", "101142.490000", "101144.280000", "101142.690000", "101144.480000", "101143.087500", "101144.877500", "101143.285000", "101145.075000", "101143.485000", "101145.275000", "101143.682500", "101145.472500", "101142.887500", "101144.677500", "101142.092500", "101143.882500", "101142.292500", "101144.082500", "101142.490000", "101144.280000", "101142.690000", "101144.480000", "101143.087500", "101144.877500", "101143.285000", "101145.075000", "101143.485000", "101145.275000", "101143.682500", "101145.472500", "101142.887500", "101148.277500", "101145.692500", "101147.482500", "101145.892500", "101147.682500", "101146.090000", "101147.880000", "101146.290000", "101148.080000", "101146.687500", "101148.477500", "101146.885000", "101148.675000", "101147.085000", "101148.875000", "101147.282500", "101149.072500", "101146.487500", "101148.277500", "101145.692500", "101147.482500", "101145.892500", "101147.682500", "101146.090000", "101147.880000", "101146.290000", "101148.080000", "101146.687500", "101148.477500", "101146.885000", "101148.675000", "101147.085000", "101148.875000", "101147.282500", "101149.072500", "101146.487500", "101148.277500", "101145.692500", "101147.482500", "101145.892500", "101147.682500", "101146.090000", "101147.880000", "101146.290000", "101148.080000", "101146.687500", "101148.477500", "101146.885000", "101148.675000", "101147.085000", "101148.875000", "101147.282500", "101149.072500", "101146.487500", "101148.277500", "101145.692500", "101147.482500", "101145.892500", "101147.682500", "101146.090000", "101147.880000", "101146.290000", "101148.080000", "101146.687500", "101148.477500", "101146.885000", "101148.675000", "101147.085000", "101148.875000", "101147.282500", "101149.072500", "101146.487500", "101151.877500", "101149.292500", "101151.082500", "101149.492500", "101151.282500", "101149.690000", "101151.480000", "101149.890000", "101151.680000", "101150.287500", "101152.077500", "101150.485000", "101152.275000", "101150.685000", "101152.475000", "101150.882500", "101152.672500", "101150.087500", "101151.877500", "101149.292500", "101151.082500", "101149.492500", "101151.282500", "101149.690000", "101151.480000", "101149.890000", "101151.680000", "101150.287500", "101152.077500", "101150.485000", "101152.275000", "101150.685000", "101152.475000", "101150.882500", "101152.672500", "101150.087500", "101151.877500", "101149.292500", "101151.082500", "101149.492500", "101151.282500", "101149.690000", "101151.480000", "101149.890000", "101151.680000", "101150.287500", "101152.077500", "101150.485000", "101152.275000", "101150.685000", "101152.475000", "101150.882500", "101152.672500", "101150.087500", "101151.877500", "101149.292500", "101151.082500", "101149.492500", "101151.282500", "101149.690000", "101151.480000", "101149.890000", "101151.680000", "101150.287500", "101152.077500", "101150.485000", "101152.275000", "101150.685000", "101152.475000", "101150.882500", "101152.672500", "101150.087500", "101155.477500", "101152.892500", "101154.682500", "101153.092500", "101154.882500", "101153.290000", "101155.080000", "101153.490000", "101155.280000", "101153.887500", "101155.677500", "101154.085000", "101155.875000", "101154.285000", "101156.075000", "101154.482500", "101156.272500", "101153.687500", "101155.477500", "101152.892500", "101154.682500", "101153.092500", "101154.882500", "101153.290000", "101155.080000", "101153.490000", "101155.280000", "101153.887500", "101155.677500", "101154.085000", "101155.875000", "101154.285000", "101156.075000", "101154.482500", "101156.272500", "101153.687500", "101155.477500", "101152.892500", "101154.682500", "101153.092500", "101154.882500", "101153.290000", "101155.080000", "101153.490000", "101155.280000", "101153.887500", "101155.677500", "101154.085000", "101155.875000", "101154.285000", "101156.075000", "101154.482500", "101156.272500", "101153.687500", "101155.477500", "101152.892500", "101154.682500", "101153.092500", "101154.882500", "101153.290000", "101155.080000", "101153.490000", "101155.280000", "101153.887500", "101155.677500", "101154.085000", "101155.875000", "101154.285000", "101156.075000", "101154.482500", "101156.272500", "101153.687500", "101159.077500", "101156.492500", "101158.282500", "101156.692500", "101158.482500", "101156.890000", "101158.680000", "101157.090000", "101158.880000", "101157.487500", "101159.277500", "101157.685000", "101159.475000", "101157.885000", "101159.675000", "101158.082500", "101159.872500", "101157.287500", "101159.077500", "101156.492500", "101158.282500", "101156.692500", "101158.482500", "101156.890000", "101158.680000", "101157.090000", "101158.880000", "101157.487500", "101159.277500", "101157.685000", "101159.475000", "101157.885000", "101159.675000", "101158.082500", "101159.872500", "101157.287500", "101159.077500", "101156.492500", "101158.282500", "101156.692500", "101158.482500", "101156.890000", "101158.680000", "101157.090000", "101158.880000", "101157.487500", "101159.277500", "101157.685000", "101159.475000", "101157.885000", "101159.675000", "101158.082500", "101159.872500", "101157.287500", "101159.077500", "101156.492500", "101158.282500", "101156.692500", "101158.482500", "101156.890000", "101158.680000", "101157.090000", "101158.880000", "101157.487500", "101159.277500", "101157.685000", "101159.475000", "101157.885000", "101159.675000", "101158.082500", "101159.872500", "101157.287500", "101202.677500", "101200.092500", "101201.882500", "101200.292500", "101202.082500", "101200.490000", "101202.280000", "101200.690000", "101202.480000", "101201.087500", "101202.877500", "101201.285000", "101203.075000", "101201.485000", "101203.275000", "101201.682500", "101203.472500", "101200.887500", "101202.677500", "101200.092500", "101201.882500", "101200.292500", "101202.082500", "101200.490000", "101202.280000", "101200.690000", "101202.480000", "101201.087500", "101202.877500", "101201.285000", "101203.075000", "101201.485000", "101203.275000", "101201.682500", "101203.472500", "101200.887500", "101202.677500", "101200.092500", "101201.882500", "101200.292500", "101202.082500", "101200.490000", "101202.280000", "101200.690000", "101202.480000", "101201.087500", "101202.877500", "101201.285000", "101203.075000", "101201.485000", "101203.275000", "101201.682500", "101203.472500", "101200.887500", "101202.677500", "101200.092500", "101201.882500", "101200.292500", "101202.082500", "101200.490000", "101202.280000", "101200.690000", "101202.480000", "101201.087500", "101202.877500", "101201.285000", "101203.075000", "101201.485000", "101203.275000", "101201.682500", "101203.472500", "101200.887500", "101206.277500", "101203.692500", "101205.482500", "101203.892500", "101205.682500", "101204.090000", "101205.880000", "101204.290000", "101206.080000", "101204.687500", "101206.477500", "101204.885000", "101206.675000", "101205.085000", "101206.875000", "101205.282500", "101207.072500", "101204.487500", "101206.277500", "101203.692500", "101205.482500", "101203.892500", "101205.682500", "101204.090000", "101205.880000", "101204.290000", "101206.080000", "101204.687500", "101206.477500", "101204.885000", "101206.675000", "101205.085000", "101206.875000", "101205.282500", "101207.072500", "101204.487500", "101206.277500", "101203.692500", "101205.482500", "101203.892500", "101205.682500", "101204.090000", "101205.880000", "101204.290000", "101206.080000", "101204.687500", "101206.477500", "101204.885000", "101206.675000", "101205.085000", "101206.875000", "101205.282500", "101207.072500", "101204.487500", "101206.277500", "101203.692500", "101205.482500", "101203.892500", "101205.682500", "101204.090000", "101205.880000", "101204.290000", "101206.080000", "101204.687500", "101206.477500", "101204.885000", "101206.675000", "101205.085000", "101206.875000", "101205.282500", "101207.072500", "101204.487500", "101209.877500", "101207.292500", "101209.082500", "101207.492500", "101209.282500", "101207.690000", "101209.480000", "101207.890000", "101209.680000", "101208.287500", "101210.077500", "101208.485000", "101210.275000", "101208.685000", "101210.475000", "101208.882500", "101210.672500", "101208.087500", "101209.877500", "101207.292500", "101209.082500", "101207.492500", "101209.282500", "101207.690000", "101209.480000", "101207.890000", "101209.680000", "101208.287500", "101210.077500", "101208.485000", "101210.275000", "101208.685000", "101210.475000", "101208.882500", "101210.672500", "101208.087500", "101209.877500", "101207.292500", "101209.082500", "101207.492500", "101209.282500", "101207.690000", "101209.480000", "101207.890000", "101209.680000", "101208.287500", "101210.077500", "101208.485000", "101210.275000", "101208.685000", "101210.475000", "101208.882500", "101210.672500", "101208.087500", "101209.877500", "101207.292500", "101209.082500", "101207.492500", "101209.282500", "101207.690000", "101209.480000", "101207.890000", "101209.680000", "101208.287500", "101210.077500", "101208.485000", "101210.275000", "101208.685000", "101210.475000", "101208.882500", "101210.672500", "101208.087500", "101213.477500", "101210.892500", "101212.682500", "101211.092500", "101212.882500", "101211.290000", "101213.080000", "101211.490000", "101213.280000", "101211.887500", "101213.677500", "101212.085000", "101213.875000", "101212.285000", "101214.075000", "101212.482500", "101214.272500", "101211.687500", "101213.477500", "101210.892500", "101212.682500", "101211.092500", "101212.882500", "101211.290000", "101213.080000", "101211.490000", "101213.280000", "101211.887500", "101213.677500", "101212.085000", "101213.875000", "101212.285000", "101214.075000", "101212.482500", "101214.272500", "101211.687500", "101213.477500", "101210.892500", "101212.682500", "101211.092500", "101212.882500", "101211.290000", "101213.080000", "101211.490000", "101213.280000", "101211.887500", "101213.677500", "101212.085000", "101213.875000", "101212.285000", "101214.075000", "101212.482500", "101214.272500", "101211.687500", "101213.477500", "101210.892500", "101212.682500", "101211.092500", "101212.882500", "101211.290000", "101213.080000", "101211.490000", "101213.280000", "101211.887500", "101213.677500", "101212.085000", "101213.875000", "101212.285000", "101214.075000", "101212.482500", "101214.272500", "101211.687500", "101217.077500", "101214.492500", "101216.282500", "101214.692500", "101216.482500", "101214.890000", "101216.680000", "101215.090000", "101216.880000", "101215.487500", "101217.277500", "101215.685000", "101217.475000", "101215.885000", "101217.675000", "101216.082500", "101217.872500", "101215.287500", "101217.077500", "101214.492500", "101216.282500", "101214.692500", "101216.482500", "101214.890000", "101216.680000", "101215.090000", "101216.880000", "101215.487500", "101217.277500", "101215.685000", "101217.475000", "101215.885000", "101217.675000", "101216.082500", "101217.872500", "101215.287500", "101217.077500", "101214.492500", "101216.282500", "101214.692500", "101216.482500", "101214.890000", "101216.680000", "101215.090000", "101216.880000", "101215.487500", "101217.277500", "101215.685000", "101217.475000", "101215.885000", "101217.675000", "101216.082500", "101217.872500", "101215.287500", "101217.077500", "101214.492500", "101216.282500", "101214.692500", "101216.482500", "101214.890000", "101216.680000", "101215.090000", "101216.880000", "101215.487500", "101217.277500", "101215.685000", "101217.475000", "101215.885000", "101217.675000", "101216.082500", "101217.872500", "101215.287500", "101220.677500", "101218.092500", "101219.882500", "101218.292500", "101220.082500", "101218.490000", "101220.280000", "101218.690000", "101220.480000", "101219.087500", "101220.877500", "101219.285000", "101221.075000", "101219.485000", "101221.275000", "101219.682500", "101221.472500", "101218.887500", "101220.677500", "101218.092500", "101219.882500", "101218.292500", "101220.082500", "101218.490000", "101220.280000", "101218.690000", "101220.480000", "101219.087500", "101220.877500", "101219.285000", "101221.075000", "101219.485000", "101221.275000", "101219.682500", "101221.472500", "101218.887500", "101220.677500", "101218.092500", "101219.882500", "101218.292500", "101220.082500", "101218.490000", "101220.280000", "101218.690000", "101220.480000", "101219.087500", "101220.877500", "101219.285000", "101221.075000", "101219.485000", "101221.275000", "101219.682500", "101221.472500", "101218.887500", "101220.677500", "101218.092500", "101219.882500", "101218.292500", "101220.082500", "101218.490000", "101220.280000", "101218.690000", "101220.480000", "101219.087500", "101220.877500", "101219.285000", "101221.075000", "101219.485000", "101221.275000", "101219.682500", "101221.472500", "101218.887500", "101224.277500", "101221.692500", "101223.482500", "101221.892500", "101223.682500", "101222.090000", "101223.880000", "101222.290000", "101224.080000", "101222.687500", "101224.477500", "101222.885000", "101224.675000", "101223.085000", "101224.875000", "101223.282500", "101225.072500", "101222.487500", "101224.277500", "101221.692500", "101223.482500", "101221.892500", "101223.682500", "101222.090000", "101223.880000", "101222.290000", "101224.080000", "101222.687500", "101224.477500", "101222.885000", "101224.675000", "101223.085000", "101224.875000", "101223.282500", "101225.072500", "101222.487500", "101224.277500", "101221.692500", "101223.482500", "101221.892500", "101223.682500", "101222.090000", "101223.880000", "101222.290000", "101224.080000", "101222.687500", "101224.477500", "101222.885000", "101224.675000", "101223.085000", "101224.875000", "101223.282500", "101225.072500", "101222.487500", "101224.277500", "101221.692500", "101223.482500", "101221.892500", "101223.682500", "101222.090000", "101223.880000", "101222.290000", "101224.080000", "101222.687500", "101224.477500", "101222.885000", "101224.675000", "101223.085000", "101224.875000", "101223.282500", "101225.072500", "101222.487500", "101227.877500", "101225.292500", "101227.082500", "101225.492500", "101227.282500", "101225.690000", "101227.480000", "101225.890000", "101227.680000", "101226.287500", "101228.077500", "101226.485000", "101228.275000", "101226.685000", "101228.475000", "101226.882500", "101228.672500", "101226.087500", "101227.877500", "101225.292500", "101227.082500", "101225.492500", "101227.282500", "101225.690000", "101227.480000", "101225.890000", "101227.680000", "101226.287500", "101228.077500", "101226.485000", "101228.275000", "101226.685000", "101228.475000", "101226.882500", "101228.672500", "101226.087500", "101227.877500", "101225.292500", "101227.082500", "101225.492500", "101227.282500", "101225.690000", "101227.480000", "101225.890000", "101227.680000", "101226.287500", "101228.077500", "101226.485000", "101228.275000", "101226.685000", "101228.475000", "101226.882500", "101228.672500", "101226.087500", "101227.877500", "101225.292500", "101227.082500", "101225.492500", "101227.282500", "101225.690000", "101227.480000", "101225.890000", "101227.680000", "101226.287500", "101228.077500", "101226.485000", "101228.275000", "101226.685000", "101228.475000", "101226.882500", "101228.672500", "101226.087500", "101231.477500", "101228.892500", "101230.682500", "101229.092500", "101230.882500", "101229.290000", "101231.080000", "101229.490000", "101231.280000", "101229.887500", "101231.677500", "101230.085000", "101231.875000", "101230.285000", "101232.075000", "101230.482500", "101232.272500", "101229.687500", "101231.477500", "101228.892500", "101230.682500", "101229.092500", "101230.882500", "101229.290000", "101231.080000", "101229.490000", "101231.280000", "101229.887500", "101231.677500", "101230.085000", "101231.875000", "101230.285000", "101232.075000", "101230.482500", "101232.272500", "101229.687500", "101231.477500", "101228.892500", "101230.682500", "101229.092500", "101230.882500", "101229.290000", "101231.080000", "101229.490000", "101231.280000", "101229.887500", "101231.677500", "101230.085000", "101231.875000", "101230.285000", "101232.075000", "101230.482500", "101232.272500", "101229.687500", "101231.477500", "101228.892500", "101230.682500", "101229.092500", "101230.882500", "101229.290000", "101231.080000", "101229.490000", "101231.280000", "101229.887500", "101231.677500", "101230.085000", "101231.875000", "101230.285000", "101232.075000", "101230.482500", "101232.272500", "101229.687500", "101235.077500", "101232.492500", "101234.282500", "101232.692500", "101234.482500", "101232.890000", "101234.680000", "101233.090000", "101234.880000", "101233.487500", "101235.277500", "101233.685000", "101235.475000", "101233.885000", "101235.675000", "101234.082500", "101235.872500", "101233.287500", "101235.077500", "101232.492500", "101234.282500", "101232.692500", "101234.482500", "101232.890000", "101234.680000", "101233.090000", "101234.880000", "101233.487500", "101235.277500", "101233.685000", "101235.475000", "101233.885000", "101235.675000", "101234.082500", "101235.872500", "101233.287500", "101235.077500", "101232.492500", "101234.282500", "101232.692500", "101234.482500", "101232.890000", "101234.680000", "101233.090000", "101234.880000", "101233.487500", "101235.277500", "101233.685000", "101235.475000", "101233.885000", "101235.675000", "101234.082500", "101235.872500", "101233.287500", "101235.077500", "101232.492500", "101234.282500", "101232.692500", "101234.482500", "101232.890000", "101234.680000", "101233.090000", "101234.880000", "101233.487500", "101235.277500", "101233.685000", "101235.475000", "101233.885000", "101235.675000", "101234.082500", "101235.872500", "101233.287500", "101238.677500", "101236.092500", "101237.882500", "101236.292500", "101238.082500", "101236.490000", "101238.280000", "101236.690000", "101238.480000", "101237.087500", "101238.877500", "101237.285000", "101239.075000", "101237.485000", "101239.275000", "101237.682500", "101239.472500", "101236.887500", "101238.677500", "101236.092500", "101237.882500", "101236.292500", "101238.082500", "101236.490000", "101238.280000", "101236.690000", "101238.480000", "101237.087500", "101238.877500", "101237.285000", "101239.075000", "101237.485000", "101239.275000", "101237.682500", "101239.472500", "101236.887500", "101238.677500", "101236.092500", "101237.882500", "101236.292500", "101238.082500", "101236.490000", "101238.280000", "101236.690000", "101238.480000", "101237.087500", "101238.877500", "101237.285000", "101239.075000", "101237.485000", "101239.275000", "101237.682500", "101239.472500", "101236.887500", "101238.677500", "101236.092500", "101237.882500", "101236.292500", "101238.082500", "101236.490000", "101238.280000", "101236.690000", "101238.480000", "101237.087500", "101238.877500", "101237.285000", "101239.075000", "101237.485000", "101239.275000", "101237.682500", "101239.472500", "101236.887500", "101242.277500", "101239.692500", "101241.482500", "101239.892500", "101241.682500", "101240.090000", "101241.880000", "101240.290000", "101242.080000", "101240.687500", "101242.477500", "101240.885000", "101242.675000", "101241.085000", "101242.875000", "101241.282500", "101243.072500", "101240.487500", "101242.277500", "101239.692500", "101241.482500", "101239.892500", "101241.682500", "101240.090000", "101241.880000", "101240.290000", "101242.080000", "101240.687500", "101242.477500", "101240.885000", "101242.675000", "101241.085000", "101242.875000", "101241.282500", "101243.072500", "101240.487500", "101242.277500", "101239.692500", "101241.482500", "101239.892500", "101241.682500", "101240.090000", "101241.880000", "101240.290000", "101242.080000", "101240.687500", "101242.477500", "101240.885000", "101242.675000", "101241.085000", "101242.875000", "101241.282500", "101243.072500", "101240.487500", "101242.277500", "101239.692500", "101241.482500", "101239.892500", "101241.682500", "101240.090000", "101241.880000", "101240.290000", "101242.080000", "101240.687500", "101242.477500", "101240.885000", "101242.675000", "101241.085000", "101242.875000", "101241.282500", "101243.072500", "101240.487500", "101245.877500", "101243.292500", "101245.082500", "101243.492500", "101245.282500", "101243.690000", "101245.480000", "101243.890000", "101245.680000", "101244.287500", "101246.077500", "101244.485000", "101246.275000", "101244.685000", "101246.475000", "101244.882500", "101246.672500", "101244.087500", "101245.877500", "101243.292500", "101245.082500", "101243.492500", "101245.282500", "101243.690000", "101245.480000", "101243.890000", "101245.680000", "101244.287500", "101246.077500", "101244.485000", "101246.275000", "101244.685000", "101246.475000", "101244.882500", "101246.672500", "101244.087500", "101245.877500", "101243.292500", "101245.082500", "101243.492500", "101245.282500", "101243.690000", "101245.480000", "101243.890000", "101245.680000", "101244.287500", "101246.077500", "101244.485000", "101246.275000", "101244.685000", "101246.475000", "101244.882500", "101246.672500", "101244.087500", "101245.877500", "101243.292500", "101245.082500", "101243.492500", "101245.282500", "101243.690000", "101245.480000", "101243.890000", "101245.680000", "101244.287500", "101246.077500", "101244.485000", "101246.275000"