{
  "AcquisitionMatrixPE": 80,
  "AcquisitionNumber": 1,
  "AcquisitionTime": "09:07:54.777500",
  "BandwidthPerPixelPhaseEncode": 48.077,
  "BaseResolution": 80,
  "BodyPartExamined": "BRAIN",
  "CoilCombinationMethod": "Sum of Squares",
  "ConsistencyInfo": "N4_VE11C_LATEST_20160120",
  "ConversionSoftware": "dcm2niix",
  "ConversionSoftwareVersion": "v1.0.20220720",
  "DerivedVendorReportedEchoSpacing": 0.000519999,
  "DeviceSerialNumber": "66112",
  "DwellTime": 2.7e-06,
  "EchoTime": 0.035,
  "EchoTrainLength": 39,
  "EffectiveEchoSpacing": 0.00026,
  "FlipAngle": 90,
  "HeudiconvVersion": "0.13.1",
  "ImageOrientationPatientDICOM": [0.985083, -0.172058, -0.00256755, 0.16414, 0.935057, 0.314208],
  "ImageOrientationText": "Tra>Cor(18.1)>Sag(3.0)",
  "ImageType": [
    "ORIGINAL",
    "PRIMARY",
    "M",
    "ND",
    "NORM",
    "MOSAIC"
],
  "ImagingFrequency": 123.252,
  "InPlanePhaseEncodingDirectionDICOM": "COL",
  "InstitutionAddress": "Maynard 3,Hanover,NH,US,03755",
  "InstitutionName": "Dartmouth College - PBS",
  "InstitutionalDepartmentName": "Department",
  "MRAcquisitionType": "2D",
  "MagneticFieldStrength": 3,
  "Manufacturer": "Siemens",
  "ManufacturersModelName": "Prisma",
  "MatrixCoilMode": "GRAPPA",
  "Modality": "MR",
  "NonlinearGradientCorrection": false,
  "ParallelReductionFactorInPlane": 2,
  "PartialFourier": 1,
  "PatientPosition": "HFS",
  "PercentPhaseFOV": 100,
  "PercentSampling": 100,
  "PhaseEncodingDirection": "j-",
  "PhaseEncodingSteps": 79,
  "PhaseResolution": 1,
  "PixelBandwidth": 2315,
  "ProcedureStepDescription": "dbic^QA",
  "ProtocolName": "func-bold_task-rest_acq-p2",
  "PulseSequenceDetails": "%SiemensSeq%\\ep2d_bold",
  "ReceiveCoilActiveElements": "HC1-7;NC1,2",
  "ReceiveCoilName": "HeadNeck_64",
  "ReconMatrixPE": 80,
  "RefLinesPE": 24,
  "RepetitionTime": 2,
  "SAR": 0.0409867,
  "ScanOptions": "FS",
  "ScanningSequence": "EP",
  "SequenceName": "*epfid2d1_80",
  "SequenceVariant": "SK",
  "SeriesDescription": "func-bold_task-rest_acq-p2",
  "SeriesNumber": 5,
  "ShimSetting": [4141, -7700, -7519, 192, -82, -262, -36, 73],
  "SliceThickness": 3.5,
  "SliceTiming": [0.99, 0, 1.055, 0.065, 1.1225, 0.1325, 1.1875, 0.1975, 1.255, 0.265, 1.32, 0.33, 1.385, 0.395, 1.4525, 0.4625, 1.5175, 0.5275, 1.585, 0.595, 1.65, 0.66, 1.715, 0.725, 1.7825, 0.7925, 1.8475, 0.8575, 1.9125, 0.925],
  "SoftwareVersions": "syngo MR E11",
  "SpacingBetweenSlices": 3.99,
  "StationName": "AWP66112",
  "TaskName": "rest",
  "TotalReadoutTime": 0.02054,
  "TxRefAmp": 215.559,
  "dcmmeta_affine": [
    [-2.9552502632141113, 0.49241870641708374, 0.20612864196300507, 98.0984878540039],
    [0.5161752104759216, 2.805171012878418, 1.2366703748703003, -137.2233428955078],
    [-0.00770264957100153, -0.9426238536834717, 3.7879092693328857, -7.0705060958862305],
    [0.0, 0.0, 0.0, 1.0]
],
  "dcmmeta_reorient_transform": [
    [0.0, -1.0, 0.0, 79.0],
    [1.0, 0.0, 0.0, 0.0],
    [0.0, 0.0, 1.0, 0.0],
    [0.0, 0.0, 0.0, 1.0]
],
  "dcmmeta_shape": [80, 80, 30, 200],
  "dcmmeta_slice_dim": 2,
  "dcmmeta_version": 0.6,
  "global": {
    "const": {
      "AccessionNumber": "qa64",
      "AcquisitionMatrix": [80, 0, 0, 80],
      "AngioFlag": "N",
      "BitsAllocated": 16,
      "BitsStored": 12,
      "BodyPartExamined": "BRAIN",
      "Columns": 480,
      "EchoNumbers": 1,
      "EchoTime": 35.0,
      "EchoTrainLength": 39,
      "FlipAngle": 90.0,
      "HighBit": 11,
      "ImageOrientationPatient": [0.98508340337136, -0.1720584089489, -0.0025675498586, 0.16413956594416, 0.93505698832916, 0.31420794303847],
      "ImagePositionPatient": [-826.53334496169, -542.18431217957, -268.5220247094],
      "ImageType": [
        "ORIGINAL",
        "PRIMARY",
        "M",
        "ND",
        "NORM",
        "MOSAIC"
],
      "ImagedNucleus": "1H",
      "ImagingFrequency": 123.252367,
      "InPlanePhaseEncodingDirection": "COL",
      "MRAcquisitionType": "2D",
      "MagneticFieldStrength": 3.0,
      "Manufacturer": "SIEMENS",
      "ManufacturerModelName": "Prisma",
      "Modality": "MR",
      "NumberOfAverages": 1.0,
      "NumberOfPhaseEncodingSteps": 79,
      "PercentPhaseFieldOfView": 100.0,
      "PercentSampling": 100.0,
      "PerformedProcedureStepStartTime": "090507.214000",
      "PhotometricInterpretation": "MONOCHROME2",
      "PixelBandwidth": 2315.0,
      "PixelRepresentation": 0,
      "PixelSpacing": [3.0, 3.0],
      "ProtocolName": "func-bold_task-rest_acq-p2",
      "RepetitionTime": 2000.0,
      "Rows": 480,
      "SAR": 0.04098667705784,
      "SamplesPerPixel": 1,
      "ScanOptions": "FS",
      "ScanningSequence": "EP",
      "SequenceName": "*epfid2d1_80",
      "SequenceVariant": "SK",
      "SeriesDescription": "func-bold_task-rest_acq-p2",
      "SeriesNumber": 5,
      "SeriesTime": "090834.970000",
      "SliceLocation": -44.175834534854,
      "SliceThickness": 3.5,
      "SmallestImagePixelValue": 0,
      "SoftwareVersions": "syngo MR E11",
      "SpacingBetweenSlices": 3.9899999355766,
      "SpecificCharacterSet": "ISO_IR 100",
      "StudyID": "4",
      "StudyTime": "090507.151000",
      "TransmitCoilName": "Body",
      "VariableFlipAngleFlag": "N",
      "WindowCenterWidthExplanation": "Algo1",
      "dBdt": 0.0},
    "slices": {}
  },
  "time": {
    "samples": {
      "AcquisitionNumber": [1, 2, 3, 4, 5, 6, 7, 8, 9, 10, 11, 12, 13, 14, 15, 16, 17, 18, 19, 20, 21, 22, 23, 24, 25, 26, 27, 28, 29, 30, 31, 32, 33, 34, 35, 36, 37, 38, 39, 40, 41, 42, 43, 44, 45, 46, 47, 48, 49, 50, 51, 52, 53, 54, 55, 56, 57, 58, 59, 60, 61, 62, 63, 64, 65, 66, 67, 68, 69, 70, 71, 72, 73, 74, 75, 76, 77, 78, 79, 80, 81, 82, 83, 84, 85, 86, 87, 88, 89, 90, 91, 92, 93, 94, 95, 96, 97, 98, 99, 100, 101, 102, 103, 104, 105, 106, 107, 108, 109, 110, 111, 112, 113, 114, 115, 116, 117, 118, 119, 120, 121, 122, 123, 124, 125, 126, 127, 128, 129, 130, 131, 132, 133, 134, 135, 136, 137, 138, 139, 140, 141, 142, 143, 144, 145, 146, 147, 148, 149, 150, 151, 152, 153, 154, 155, 156, 157, 158, 159, 160, 161, 162, 163, 164, 165, 166, 167, 168, 169, 170, 171, 172, 173, 174, 175, 176, 177, 178, 179, 180, 181, 182, 183, 184, 185, 186, 187, 188, 189, 190, 191, 192, 193, 194, 195, 196, 197, 198, 199, 200],
      "AcquisitionTime": ["090754.777500", "090756.777500", "090758.777500", "090800.777500", "090802.777500", "090804.777500", "090806.777500", "090808.777500", "090810.777500", "090812.777500", "090814.777500", "090816.777500", "090818.777500", "090820.777500", "090822.777500", "090824.777500", "090826.777500", "090828.777500", "090830.777500", "090832.777500", "090834.777500", "090836.777500", "090838.777500", "090840.777500", "090842.777500", "090844.777500", "090846.777500", "090848.777500", "090850.777500", "090852.777500", "090854.777500", "090856.777500", "090858.777500", "090900.777500", "090902.777500", "090904.777500", "090906.777500", "090908.777500", "090910.777500", "090912.777500", "090914.777500", "090916.777500", "090918.777500", "090920.777500", "090922.777500", "090924.777500", "090926.777500", "090928.777500", "090930.777500", "090932.777500", "090934.777500", "090936.777500", "090938.777500", "090940.777500", "090942.777500", "090944.777500", "090946.777500", "090948.777500", "090950.777500", "090952.777500", "090954.777500", "090956.777500", "090958.777500", "091000.777500", "091002.777500", "091004.777500", "091006.777500", "091008.777500", "091010.777500", "091012.777500", "091014.777500", "091016.777500", "091018.777500", "091020.777500", "091022.777500", "091024.777500", "091026.777500", "091028.777500", "091030.777500", "091032.777500", "091034.777500", "091036.777500", "091038.777500", "091040.777500", "091042.777500", "091044.777500", "091046.777500", "091048.777500", "091050.777500", "091052.777500", "091054.777500", "091056.777500", "091058.777500", "091100.777500", "091102.777500", "091104.777500", "091106.777500", "091108.777500", "091110.777500", "091112.777500", "091114.777500", "091116.777500", "091118.777500", "091120.777500", "091122.777500", "091124.777500", "091126.777500", "091128.777500", "091130.777500", "091132.777500", "091134.777500", "091136.777500", "091138.777500", "091140.777500", "091142.777500", "091144.777500", "091146.777500", "091148.777500", "091150.777500", "091152.777500", "091154.777500", "091156.777500", "091158.777500", "091200.777500", "091202.777500", "091204.777500", "091206.777500", "091208.777500", "091210.777500", "091212.777500", "091214.777500", "091216.777500", "091218.777500", "091220.777500", "091222.777500", "091224.777500", "091226.777500", "091228.777500", "091230.777500", "091232.777500", "091234.777500", "091236.777500", "091238.777500", "091240.777500", "091242.777500", "091244.777500", "091246.777500", "091248.777500", "091250.777500", "091252.777500", "091254.777500", "091256.777500", "091258.777500", "091300.777500", "091302.777500", "091304.777500", "091306.777500", "091308.777500", "091310.777500", "091312.777500", "091314.777500", "091316.777500", "091318.777500", "091320.777500", "091322.777500", "091324.777500", "091326.777500", "091328.777500", "091330.777500", "091332.777500", "091334.777500", "091336.777500", "091338.777500", "091340.777500", "091342.777500", "091344.777500", "091346.777500", "091348.777500", "091350.777500", "091352.777500", "091354.777500", "091356.777500", "091358.777500", "091400.777500", "091402.777500", "091404.777500", "091406.777500", "091408.777500", "091410.777500", "091412.777500", "091414.777500", "091416.777500", "091418.777500", "091420.777500", "091422.777500", "091424.777500", "091426.777500", "091428.777500", "091430.777500", "091432.777500"],
      "ContentTime": ["090834.975000", "090834.979000", "090834.981000", "090834.984000", "090834.987000", "090834.989000", "090834.992000", "090834.995000", "090834.997000", "090835.000000", "090835.002000", "090835.005000", "090835.008000", "090835.010000", "090835.013000", "090835.016000", "090835.018000", "090835.021000", "090835.023000", "090835.026000", "090914.967000", "090914.970000", "090914.973000", "090914.976000", "090914.978000", "090914.981000", "090914.984000", "090914.986000", "090914.989000", "090914.991000", "090915.000000", "090915.003000", "090915.006000", "090915.008000", "090915.011000", "090915.014000", "090915.016000", "090915.019000", "090915.022000", "090915.024000", "090954.967000", "090954.970000", "090954.973000", "090954.976000", "090954.979000", "090954.981000", "090954.984000", "090954.986000", "090954.989000", "090954.999000", "090955.002000", "090955.005000", "090955.007000", "090955.010000", "090955.013000", "090955.015000", "090955.018000", "090955.021000", "090955.024000", "090955.026000", "091034.968000", "091034.971000", "091034.974000", "091034.976000", "091034.979000", "091034.982000", "091034.984000", "091034.987000", "091034.990000", "091034.992000", "091034.995000", "091034.998000", "091035.000000", "091035.003000", "091035.006000", "091035.008000", "091035.011000", "091035.013000", "091035.016000", "091035.019000", "091114.968000", "091114.971000", "091114.974000", "091114.976000", "091114.979000", "091114.982000", "091114.984000", "091114.987000", "091114.990000", "091115.007000", "091115.010000", "091115.013000", "091115.015000", "091115.018000", "091115.021000", "091115.023000", "091115.026000", "091115.028000", "091115.031000", "091115.034000", "091154.967000", "091154.970000", "091154.973000", "091154.976000", "091154.978000", "091154.981000", "091154.984000", "091154.986000", "091154.989000", "091154.991000", "091154.994000", "091154.997000", "091155.000000", "091155.003000", "091155.005000", "091155.008000", "091155.011000", "091155.013000", "091155.016000", "091155.019000", "091234.967000", "091234.970000", "091234.973000", "091234.975000", "091234.978000", "091234.981000", "091234.983000", "091234.986000", "091234.989000", "091234.991000", "091234.994000", "091234.997000", "091234.999000", "091235.002000", "091235.005000", "091235.007000", "091235.010000", "091235.013000", "091235.015000", "091235.018000", "091314.968000", "091314.971000", "091314.974000", "091314.977000", "091314.979000", "091314.982000", "091314.985000", "091314.987000", "091314.990000", "091314.993000", "091314.995000", "091314.998000", "091315.001000", "091315.003000", "091315.006000", "091315.009000", "091315.011000", "091315.014000", "091315.017000", "091315.019000", "091354.967000", "091354.970000", "091354.973000", "091354.976000", "091354.978000", "091354.981000", "091354.984000", "091354.986000", "091354.989000", "091354.992000", "091354.994000", "091354.997000", "091355.000000", "091355.002000", "091355.005000", "091355.008000", "091355.010000", "091355.013000", "091355.016000", "091355.018000", "091433.844000", "091433.847000", "091433.850000", "091433.853000", "091433.855000", "091433.858000", "091433.861000", "091433.864000", "091433.867000", "091433.869000", "091433.873000", "091433.877000", "091433.882000", "091433.885000", "091433.889000", "091433.896000", "091433.899000", "091433.902000", "091433.905000", "091433.908000"],
      "InstanceCreationTime": ["090834.975000", "090834.979000", "090834.981000", "090834.984000", "090834.987000", "090834.989000", "090834.992000", "090834.995000", "090834.997000", "090835.000000", "090835.002000", "090835.005000", "090835.008000", "090835.010000", "090835.013000", "090835.016000", "090835.018000", "090835.021000", "090835.023000", "090835.026000", "090914.967000", "090914.970000", "090914.973000", "090914.976000", "090914.978000", "090914.981000", "090914.984000", "090914.986000", "090914.989000", "090914.991000", "090915.000000", "090915.003000", "090915.006000", "090915.008000", "090915.011000", "090915.014000", "090915.016000", "090915.019000", "090915.022000", "090915.024000", "090954.967000", "090954.970000", "090954.973000", "090954.976000", "090954.979000", "090954.981000", "090954.984000", "090954.986000", "090954.989000", "090954.999000", "090955.002000", "090955.005000", "090955.007000", "090955.010000", "090955.013000", "090955.015000", "090955.018000", "090955.021000", "090955.024000", "090955.026000", "091034.968000", "091034.971000", "091034.974000", "091034.976000", "091034.979000", "091034.982000", "091034.984000", "091034.987000", "091034.990000", "091034.992000", "091034.995000", "091034.998000", "091035.000000", "091035.003000", "091035.006000", "091035.008000", "091035.011000", "091035.013000", "091035.016000", "091035.019000", "091114.968000", "091114.971000", "091114.974000", "091114.976000", "091114.979000", "091114.982000", "091114.984000", "091114.987000", "091114.990000", "091115.007000", "091115.010000", "091115.013000", "091115.015000", "091115.018000", "091115.021000", "091115.023000", "091115.026000", "091115.028000", "091115.031000", "091115.034000", "091154.967000", "091154.970000", "091154.973000", "091154.976000", "091154.978000", "091154.981000", "091154.984000", "091154.986000", "091154.989000", "091154.991000", "091154.994000", "091154.997000", "091155.000000", "091155.003000", "091155.005000", "091155.008000", "091155.011000", "091155.013000", "091155.016000", "091155.019000", "091234.967000", "091234.970000", "091234.973000", "091234.975000", "091234.978000", "091234.981000", "091234.983000", "091234.986000", "091234.989000", "091234.991000", "091234.994000", "091234.997000", "091234.999000", "091235.002000", "091235.005000", "091235.007000", "091235.010000", "091235.013000", "091235.015000", "091235.018000", "091314.968000", "091314.971000", "091314.974000", "091314.977000", "091314.979000", "091314.982000", "091314.985000", "091314.987000", "091314.990000", "091314.993000", "091314.995000", "091314.998000", "091315.001000", "091315.003000", "091315.006000", "091315.009000", "091315.011000", "091315.014000", "091315.017000", "091315.019000", "091354.967000", "091354.970000", "091354.973000", "091354.976000", "091354.978000", "091354.981000", "091354.984000", "091354.986000", "091354.989000", "091354.992000", "091354.994000", "091354.997000", "091355.000000", "091355.002000", "091355.005000", "091355.008000", "091355.010000", "091355.013000", "091355.016000", "091355.018000", "091433.844000", "091433.847000", "091433.850000", "091433.853000", "091433.855000", "091433.858000", "091433.861000", "091433.864000", "091433.867000", "091433.869000", "091433.873000", "091433.877000", "091433.882000", "091433.885000", "091433.889000", "091433.896000", "091433.899000", "091433.902000", "091433.905000", "091433.908000"],
      "InstanceNumber": [1, 2, 3, 4, 5, 6, 7, 8, 9, 10, 11, 12, 13, 14, 15, 16, 17, 18, 19, 20, 21, 22, 23, 24, 25, 26, 27, 28, 29, 30, 31, 32, 33, 34, 35, 36, 37, 38, 39, 40, 41, 42, 43, 44, 45, 46, 47, 48, 49, 50, 51, 52, 53, 54, 55, 56, 57, 58, 59, 60, 61, 62, 63, 64, 65, 66, 67, 68, 69, 70, 71, 72, 73, 74, 75, 76, 77, 78, 79, 80, 81, 82, 83, 84, 85, 86, 87, 88, 89, 90, 91, 92, 93, 94, 95, 96, 97, 98, 99, 100, 101, 102, 103, 104, 105, 106, 107, 108, 109, 110, 111, 112, 113, 114, 115, 116, 117, 118, 119, 120, 121, 122, 123, 124, 125, 126, 127, 128, 129, 130, 131, 132, 133, 134, 135, 136, 137, 138, 139, 140, 141, 142, 143, 144, 145, 146, 147, 148, 149, 150, 151, 152, 153, 154, 155, 156, 157, 158, 159, 160, 161, 162, 163, 164, 165, 166, 167, 168, 169, 170, 171, 172, 173, 174, 175, 176, 177, 178, 179, 180, 181, 182, 183, 184, 185, 186, 187, 188, 189, 190, 191, 192, 193, 194, 195, 196, 197, 198, 199, 200],
      "LargestImagePixelValue": [4069, 4066, 4072, 4071, 4081, 4070, 4064, 4081, 4081, 4068, 4072, 4074, 4070, 4074, 4071, 4084, 4070, 4070, 4074, 4074, 4079, 4083, 4068, 4069, 4084, 4075, 4069, 4067, 4078, 4068, 4075, 4071, 4079, 4071, 4070, 4073, 4064, 4069, 4092, 4067, 4083, 4069, 4061, 4070, 4066, 4073, 4062, 4075, 4074, 4070, 4075, 4079, 4066, 4070, 4074, 4068, 4076, 4075, 4060, 4076, 4067, 4077, 4083, 4063, 4066, 4063, 4075, 4082, 4065, 4072, 4056, 4062, 4071, 4065, 4087, 4077, 4080, 4067, 4076, 4061, 4068, 4075, 4073, 4082, 4074, 4070, 4073, 4080, 4076, 4073, 4063, 4075, 4073, 4065, 4076, 4079, 4066, 4072, 4083, 4068, 4075, 4078, 4073, 4076, 4071, 4068, 4076, 4073, 4079, 4070, 4080, 4076, 4076, 4066, 4072, 4078, 4064, 4079, 4062, 4079, 4070, 4075, 4074, 4086, 4073, 4069, 4076, 4073, 4081, 4066, 4071, 4079, 4085, 4065, 4079, 4070, 4073, 4069, 4073, 4065, 4073, 4066, 4069, 4074, 4064, 4064, 4085, 4079, 4061, 4075, 4072, 4076, 4079, 4072, 4078, 4085, 4080, 4082, 4077, 4076, 4072, 4072, 4072, 4066, 4070, 4066, 4071, 4063, 4076, 4077, 4086, 4075, 4092, 4088, 4075, 4082, 4066, 4073, 4077, 4071, 4059, 4064, 4058, 4075, 4072, 4085, 4071, 4075, 4078, 4073, 4064, 4076, 4079, 4076, 4079, 4077, 4084, 4073, 4084, 4057],
      "WindowCenter": [1499.0, 1499.0, 1498.0, 1498.0, 1498.0, 1499.0, 1497.0, 1498.0, 1497.0, 1498.0, 1498.0, 1498.0, 1498.0, 1497.0, 1498.0, 1498.0, 1499.0, 1498.0, 1499.0, 1498.0, 1498.0, 1498.0, 1498.0, 1499.0, 1499.0, 1498.0, 1499.0, 1499.0, 1498.0, 1498.0, 1498.0, 1498.0, 1498.0, 1499.0, 1499.0, 1497.0, 1498.0, 1499.0, 1499.0, 1499.0, 1499.0, 1499.0, 1499.0, 1498.0, 1499.0, 1498.0, 1499.0, 1498.0, 1498.0, 1498.0, 1498.0, 1498.0, 1498.0, 1498.0, 1498.0, 1498.0, 1498.0, 1498.0, 1498.0, 1499.0, 1498.0, 1499.0, 1498.0, 1498.0, 1498.0, 1498.0, 1498.0, 1498.0, 1498.0, 1498.0, 1498.0, 1499.0, 1498.0, 1497.0, 1499.0, 1499.0, 1498.0, 1498.0, 1498.0, 1499.0, 1498.0, 1498.0, 1498.0, 1498.0, 1498.0, 1498.0, 1498.0, 1498.0, 1499.0, 1499.0, 1499.0, 1498.0, 1499.0, 1499.0, 1499.0, 1498.0, 1498.0, 1498.0, 1499.0, 1498.0, 1498.0, 1499.0, 1498.0, 1498.0, 1499.0, 1498.0, 1498.0, 1499.0, 1498.0, 1498.0, 1499.0, 1498.0, 1498.0, 1498.0, 1498.0, 1498.0, 1498.0, 1498.0, 1498.0, 1499.0, 1498.0, 1498.0, 1499.0, 1498.0, 1499.0, 1499.0, 1498.0, 1497.0, 1497.0, 1498.0, 1498.0, 1498.0, 1497.0, 1498.0, 1499.0, 1498.0, 1497.0, 1498.0, 1498.0, 1497.0, 1498.0, 1498.0, 1497.0, 1498.0, 1497.0, 1497.0, 1497.0, 1498.0, 1498.0, 1498.0, 1497.0, 1497.0, 1497.0, 1497.0, 1497.0, 1497.0, 1497.0, 1497.0, 1497.0, 1497.0, 1496.0, 1496.0, 1497.0, 1496.0, 1496.0, 1496.0, 1496.0, 1498.0, 1496.0, 1497.0, 1497.0, 1497.0, 1497.0, 1497.0, 1497.0, 1496.0, 1496.0, 1497.0, 1496.0, 1497.0, 1497.0, 1496.0, 1496.0, 1496.0, 1496.0, 1496.0, 1497.0, 1496.0, 1497.0, 1496.0, 1496.0, 1497.0, 1497.0, 1496.0, 1496.0, 1496.0, 1496.0, 1496.0, 1496.0, 1496.0],
      "WindowWidth": [3371.0, 3369.0, 3369.0, 3369.0, 3369.0, 3369.0, 3369.0, 3369.0, 3369.0, 3369.0, 3369.0, 3368.0, 3369.0, 3369.0, 3369.0, 3369.0, 3369.0, 3369.0, 3369.0, 3369.0, 3370.0, 3370.0, 3370.0, 3369.0, 3369.0, 3369.0, 3369.0, 3369.0, 3370.0, 3369.0, 3369.0, 3370.0, 3370.0, 3369.0, 3369.0, 3370.0, 3370.0, 3369.0, 3369.0, 3369.0, 3369.0, 3369.0, 3369.0, 3370.0, 3369.0, 3370.0, 3369.0, 3370.0, 3370.0, 3370.0, 3370.0, 3370.0, 3370.0, 3370.0, 3369.0, 3369.0, 3369.0, 3369.0, 3369.0, 3369.0, 3369.0, 3369.0, 3369.0, 3368.0, 3368.0, 3368.0, 3368.0, 3368.0, 3368.0, 3368.0, 3368.0, 3367.0, 3368.0, 3368.0, 3368.0, 3369.0, 3368.0, 3369.0, 3369.0, 3369.0, 3369.0, 3369.0, 3369.0, 3369.0, 3369.0, 3369.0, 3368.0, 3369.0, 3368.0, 3368.0, 3369.0, 3369.0, 3369.0, 3369.0, 3369.0, 3369.0, 3369.0, 3369.0, 3369.0, 3369.0, 3369.0, 3369.0, 3369.0, 3369.0, 3368.0, 3369.0, 3369.0, 3368.0, 3368.0, 3369.0, 3369.0, 3369.0, 3369.0, 3369.0, 3369.0, 3369.0, 3369.0, 3369.0, 3368.0, 3368.0, 3368.0, 3369.0, 3368.0, 3369.0, 3368.0, 3368.0, 3368.0, 3368.0, 3368.0, 3368.0, 3368.0, 3368.0, 3368.0, 3368.0, 3368.0, 3368.0, 3368.0, 3368.0, 3368.0, 3368.0, 3368.0, 3368.0, 3368.0, 3368.0, 3368.0, 3368.0, 3368.0, 3368.0, 3368.0, 3368.0, 3368.0, 3368.0, 3368.0, 3368.0, 3368.0, 3367.0, 3368.0, 3367.0, 3367.0, 3367.0, 3368.0, 3368.0, 3367.0, 3368.0, 3368.0, 3368.0, 3368.0, 3367.0, 3367.0, 3367.0, 3367.0, 3368.0, 3367.0, 3367.0, 3367.0, 3367.0, 3367.0, 3367.0, 3367.0, 3367.0, 3367.0, 3367.0, 3367.0, 3367.0, 3368.0, 3367.0, 3367.0, 3368.0, 3367.0, 3367.0, 3367.0, 3367.0, 3368.0, 3368.0, 3368.0, 3368.0, 3368.0, 3367.0, 3367.0, 3367.0]
    },
    "slices": {}
  }
}