{
  "AcquisitionMatrixPE": 80,
  "AcquisitionNumber": 1,
  "AcquisitionTime": "09:21:31.527500",
  "BandwidthPerPixelPhaseEncode": 25,
  "BaseResolution": 80,
  "BodyPartExamined": "BRAIN",
  "CoilCombinationMethod": "Sum of Squares",
  "ConsistencyInfo": "N4_VE11C_LATEST_20160120",
  "ConversionSoftware": "dcm2niix",
  "ConversionSoftwareVersion": "v1.0.20220720",
  "DerivedVendorReportedEchoSpacing": 0.0005,
  "DeviceSerialNumber": "66112",
  "DwellTime": 2.7e-06,
  "EchoTime": 0.03,
  "EchoTrainLength": 80,
  "EffectiveEchoSpacing": 0.0005,
  "FlipAngle": 10,
  "HeudiconvVersion": "0.13.1",
  "ImageOrientationPatientDICOM": [0.985083, -0.172058, -0.00256755, 0.16414, 0.935057, 0.314208],
  "ImageOrientationText": "Tra>Cor(18.1)>Sag(3.0)",
  "ImageType": [
    "ORIGINAL",
    "PRIMARY",
    "M",
    "ND",
    "NORM",
    "MOSAIC"
],
  "ImagingFrequency": 123.252,
  "InPlanePhaseEncodingDirectionDICOM": "COL",
  "InstitutionAddress": "Maynard 3,Hanover,NH,US,03755",
  "InstitutionName": "Dartmouth College - PBS",
  "InstitutionalDepartmentName": "Department",
  "MRAcquisitionType": "2D",
  "MagneticFieldStrength": 3,
  "Manufacturer": "Siemens",
  "ManufacturersModelName": "Prisma",
  "MatrixCoilMode": "SENSE",
  "Modality": "MR",
  "NonlinearGradientCorrection": false,
  "PartialFourier": 1,
  "PatientPosition": "HFS",
  "PercentPhaseFOV": 100,
  "PercentSampling": 100,
  "PhaseEncodingDirection": "j-",
  "PhaseEncodingSteps": 80,
  "PhaseResolution": 1,
  "PixelBandwidth": 2315,
  "ProcedureStepDescription": "dbic^QA",
  "ProtocolName": "func-bold_fa-10",
  "PulseSequenceDetails": "%SiemensSeq%\\ep2d_bold",
  "ReceiveCoilActiveElements": "HC1-7;NC1,2",
  "ReceiveCoilName": "HeadNeck_64",
  "ReconMatrixPE": 80,
  "RepetitionTime": 2,
  "SAR": 0.00864014,
  "ScanOptions": "FS",
  "ScanningSequence": "EP",
  "SequenceName": "*epfid2d1_80",
  "SequenceVariant": "SK",
  "SeriesDescription": "func-bold_fa-10",
  "SeriesNumber": 9,
  "ShimSetting": [4141, -7700, -7519, 195, -81, -263, -35, 72],
  "SliceThickness": 3.5,
  "SliceTiming": [0.99, 0, 1.0575, 0.0675, 1.1225, 0.1325, 1.19, 0.2, 1.255, 0.265, 1.32, 0.33, 1.3875, 0.3975, 1.4525, 0.4625, 1.52, 0.53, 1.585, 0.595, 1.65, 0.66, 1.7175, 0.7275, 1.7825, 0.7925, 1.85, 0.86, 1.915, 0.925],
  "SoftwareVersions": "syngo MR E11",
  "SpacingBetweenSlices": 3.99,
  "StationName": "AWP66112",
  "TotalReadoutTime": 0.0395,
  "TxRefAmp": 215.559,
  "dcmmeta_affine": [
    [-2.9552502632141113, 0.49241870641708374, 0.20612864196300507, 96.58841705322266],
    [0.5161752104759216, 2.805171012878418, 1.2366703748703003, -134.70040893554688],
    [-0.00770264957100153, -0.9426238536834717, 3.7879092693328857, -6.465380668640137],
    [0.0, 0.0, 0.0, 1.0]
],
  "dcmmeta_reorient_transform": [
    [0.0, -1.0, 0.0, 79.0],
    [1.0, 0.0, 0.0, 0.0],
    [0.0, 0.0, 1.0, 0.0],
    [0.0, 0.0, 0.0, 1.0]
],
  "dcmmeta_shape": [80, 80, 30, 200],
  "dcmmeta_slice_dim": 2,
  "dcmmeta_version": 0.6,
  "global": {
    "const": {
      "AccessionNumber": "qa64",
      "AcquisitionMatrix": [80, 0, 0, 80],
      "AngioFlag": "N",
      "BitsAllocated": 16,
      "BitsStored": 12,
      "BodyPartExamined": "BRAIN",
      "Columns": 480,
      "EchoNumbers": 1,
      "EchoTime": 30.0,
      "EchoTrainLength": 80,
      "FlipAngle": 10.0,
      "HighBit": 11,
      "ImageOrientationPatient": [0.98508340337136, -0.1720584089489, -0.0025675498586, 0.16413956594416, 0.93505698832916, 0.31420794303847],
      "ImagePositionPatient": [-825.02327749877, -544.70724280168, -267.91689928216],
      "ImageType": [
        "ORIGINAL",
        "PRIMARY",
        "M",
        "ND",
        "NORM",
        "MOSAIC"
],
      "ImagedNucleus": "1H",
      "ImagingFrequency": 123.252368,
      "InPlanePhaseEncodingDirection": "COL",
      "MRAcquisitionType": "2D",
      "MagneticFieldStrength": 3.0,
      "Manufacturer": "SIEMENS",
      "ManufacturerModelName": "Prisma",
      "Modality": "MR",
      "NumberOfAverages": 1.0,
      "NumberOfPhaseEncodingSteps": 80,
      "PercentPhaseFieldOfView": 100.0,
      "PercentSampling": 100.0,
      "PerformedProcedureStepStartTime": "090507.214000",
      "PhotometricInterpretation": "MONOCHROME2",
      "PixelBandwidth": 2315.0,
      "PixelRepresentation": 0,
      "PixelSpacing": [3.0, 3.0],
      "ProtocolName": "func-bold_fa-10",
      "RepetitionTime": 2000.0,
      "Rows": 480,
      "SAR": 0.008640136041,
      "SamplesPerPixel": 1,
      "ScanOptions": "FS",
      "ScanningSequence": "EP",
      "SequenceName": "*epfid2d1_80",
      "SequenceVariant": "SK",
      "SeriesDescription": "func-bold_fa-10",
      "SeriesNumber": 9,
      "SeriesTime": "092214.898000",
      "SliceLocation": -42.897407007792,
      "SliceThickness": 3.5,
      "SmallestImagePixelValue": 0,
      "SoftwareVersions": "syngo MR E11",
      "SpacingBetweenSlices": 3.989999930905,
      "SpecificCharacterSet": "ISO_IR 100",
      "StudyID": "4",
      "StudyTime": "090507.151000",
      "TransmitCoilName": "Body",
      "VariableFlipAngleFlag": "N",
      "WindowCenterWidthExplanation": "Algo1",
      "dBdt": 0.0},
    "slices": {}
  },
  "time": {
    "samples": {
      "AcquisitionNumber": [1, 2, 3, 4, 5, 6, 7, 8, 9, 10, 11, 12, 13, 14, 15, 16, 17, 18, 19, 20, 21, 22, 23, 24, 25, 26, 27, 28, 29, 30, 31, 32, 33, 34, 35, 36, 37, 38, 39, 40, 41, 42, 43, 44, 45, 46, 47, 48, 49, 50, 51, 52, 53, 54, 55, 56, 57, 58, 59, 60, 61, 62, 63, 64, 65, 66, 67, 68, 69, 70, 71, 72, 73, 74, 75, 76, 77, 78, 79, 80, 81, 82, 83, 84, 85, 86, 87, 88, 89, 90, 91, 92, 93, 94, 95, 96, 97, 98, 99, 100, 101, 102, 103, 104, 105, 106, 107, 108, 109, 110, 111, 112, 113, 114, 115, 116, 117, 118, 119, 120, 121, 122, 123, 124, 125, 126, 127, 128, 129, 130, 131, 132, 133, 134, 135, 136, 137, 138, 139, 140, 141, 142, 143, 144, 145, 146, 147, 148, 149, 150, 151, 152, 153, 154, 155, 156, 157, 158, 159, 160, 161, 162, 163, 164, 165, 166, 167, 168, 169, 170, 171, 172, 173, 174, 175, 176, 177, 178, 179, 180, 181, 182, 183, 184, 185, 186, 187, 188, 189, 190, 191, 192, 193, 194, 195, 196, 197, 198, 199, 200],
      "AcquisitionTime": ["092131.527500", "092133.527500", "092135.527500", "092137.527500", "092139.527500", "092141.527500", "092143.527500", "092145.527500", "092147.527500", "092149.527500", "092151.527500", "092153.527500", "092155.527500", "092157.527500", "092159.527500", "092201.527500", "092203.527500", "092205.527500", "092207.527500", "092209.527500", "092211.527500", "092213.527500", "092215.527500", "092217.527500", "092219.527500", "092221.527500", "092223.527500", "092225.527500", "092227.527500", "092229.527500", "092231.527500", "092233.527500", "092235.527500", "092237.527500", "092239.527500", "092241.527500", "092243.527500", "092245.527500", "092247.527500", "092249.527500", "092251.527500", "092253.527500", "092255.527500", "092257.527500", "092259.527500", "092301.527500", "092303.527500", "092305.527500", "092307.527500", "092309.527500", "092311.527500", "092313.527500", "092315.527500", "092317.527500", "092319.527500", "092321.527500", "092323.527500", "092325.527500", "092327.527500", "092329.527500", "092331.527500", "092333.527500", "092335.527500", "092337.527500", "092339.527500", "092341.527500", "092343.527500", "092345.527500", "092347.527500", "092349.527500", "092351.527500", "092353.527500", "092355.527500", "092357.527500", "092359.527500", "092401.527500", "092403.527500", "092405.527500", "092407.527500", "092409.527500", "092411.527500", "092413.527500", "092415.527500", "092417.527500", "092419.527500", "092421.527500", "092423.527500", "092425.527500", "092427.527500", "092429.527500", "092431.527500", "092433.527500", "092435.527500", "092437.527500", "092439.527500", "092441.527500", "092443.527500", "092445.527500", "092447.527500", "092449.527500", "092451.527500", "092453.527500", "092455.527500", "092457.527500", "092459.527500", "092501.527500", "092503.527500", "092505.527500", "092507.527500", "092509.527500", "092511.527500", "092513.527500", "092515.527500", "092517.527500", "092519.527500", "092521.527500", "092523.527500", "092525.527500", "092527.527500", "092529.527500", "092531.527500", "092533.527500", "092535.527500", "092537.527500", "092539.527500", "092541.527500", "092543.527500", "092545.527500", "092547.527500", "092549.527500", "092551.527500", "092553.527500", "092555.527500", "092557.527500", "092559.527500", "092601.527500", "092603.527500", "092605.527500", "092607.527500", "092609.527500", "092611.527500", "092613.527500", "092615.527500", "092617.527500", "092619.527500", "092621.527500", "092623.527500", "092625.527500", "092627.527500", "092629.527500", "092631.527500", "092633.527500", "092635.527500", "092637.527500", "092639.527500", "092641.527500", "092643.527500", "092645.527500", "092647.527500", "092649.527500", "092651.527500", "092653.527500", "092655.527500", "092657.527500", "092659.527500", "092701.527500", "092703.527500", "092705.527500", "092707.527500", "092709.527500", "092711.527500", "092713.527500", "092715.527500", "092717.527500", "092719.527500", "092721.527500", "092723.527500", "092725.527500", "092727.527500", "092729.527500", "092731.527500", "092733.527500", "092735.527500", "092737.527500", "092739.527500", "092741.527500", "092743.527500", "092745.527500", "092747.527500", "092749.527500", "092751.527500", "092753.527500", "092755.527500", "092757.527500", "092759.527500", "092801.527500", "092803.527500", "092805.527500", "092807.527500", "092809.527500"],
      "ContentTime": ["092214.901000", "092214.905000", "092214.908000", "092214.910000", "092214.920000", "092214.923000", "092214.926000", "092214.928000", "092214.931000", "092214.933000", "092214.936000", "092214.938000", "092214.941000", "092214.943000", "092214.946000", "092214.949000", "092214.951000", "092214.954000", "092214.957000", "092214.959000", "092214.962000", "092254.895000", "092254.898000", "092254.904000", "092254.906000", "092254.909000", "092254.911000", "092254.914000", "092254.917000", "092254.919000", "092254.922000", "092254.924000", "092254.927000", "092254.930000", "092254.932000", "092254.935000", "092254.937000", "092254.940000", "092254.943000", "092254.945000", "092254.948000", "092334.895000", "092334.898000", "092334.901000", "092334.904000", "092334.906000", "092334.909000", "092334.912000", "092334.914000", "092334.917000", "092334.919000", "092334.922000", "092334.924000", "092334.927000", "092334.929000", "092334.932000", "092334.935000", "092334.937000", "092334.940000", "092334.942000", "092334.948000", "092414.896000", "092414.898000", "092414.901000", "092414.904000", "092414.906000", "092414.909000", "092414.912000", "092414.914000", "092414.917000", "092414.919000", "092414.922000", "092414.924000", "092414.927000", "092414.929000", "092414.932000", "092414.935000", "092414.937000", "092414.940000", "092414.943000", "092414.945000", "092434.897000", "092434.899000", "092434.902000", "092434.905000", "092434.907000", "092434.910000", "092434.913000", "092434.915000", "092434.918000", "092434.920000", "092514.895000", "092514.898000", "092514.901000", "092514.904000", "092514.906000", "092514.909000", "092514.911000", "092514.914000", "092514.916000", "092514.919000", "092514.922000", "092514.924000", "092514.927000", "092514.929000", "092514.932000", "092514.935000", "092514.937000", "092514.940000", "092514.943000", "092514.945000", "092554.896000", "092554.898000", "092554.901000", "092554.904000", "092554.906000", "092554.909000", "092554.912000", "092554.914000", "092554.917000", "092554.919000", "092554.922000", "092554.925000", "092554.927000", "092554.930000", "092554.932000", "092554.935000", "092554.938000", "092554.940000", "092554.943000", "092554.945000", "092634.896000", "092634.898000", "092634.901000", "092634.904000", "092634.906000", "092634.909000", "092634.912000", "092634.914000", "092634.917000", "092634.919000", "092634.922000", "092634.924000", "092634.927000", "092634.929000", "092634.932000", "092634.935000", "092634.937000", "092634.940000", "092634.942000", "092634.945000", "092714.896000", "092714.899000", "092714.902000", "092714.905000", "092714.907000", "092714.910000", "092714.913000", "092714.915000", "092714.918000", "092714.920000", "092714.923000", "092714.926000", "092714.928000", "092714.931000", "092714.933000", "092714.936000", "092714.938000", "092714.941000", "092714.944000", "092714.946000", "092754.896000", "092754.898000", "092754.901000", "092754.904000", "092754.906000", "092754.909000", "092754.912000", "092754.914000", "092754.917000", "092754.919000", "092754.922000", "092754.925000", "092754.927000", "092754.930000", "092754.932000", "092754.935000", "092754.938000", "092754.940000", "092754.943000", "092754.945000", "092811.447000", "092811.450000", "092811.452000", "092811.455000", "092811.458000", "092811.460000", "092811.463000", "092811.466000", "092811.469000"],
      "InstanceCreationTime": ["092214.901000", "092214.905000", "092214.908000", "092214.910000", "092214.920000", "092214.923000", "092214.926000", "092214.928000", "092214.931000", "092214.933000", "092214.936000", "092214.938000", "092214.941000", "092214.943000", "092214.946000", "092214.949000", "092214.951000", "092214.954000", "092214.957000", "092214.959000", "092214.962000", "092254.895000", "092254.898000", "092254.904000", "092254.906000", "092254.909000", "092254.911000", "092254.914000", "092254.917000", "092254.919000", "092254.922000", "092254.924000", "092254.927000", "092254.930000", "092254.932000", "092254.935000", "092254.937000", "092254.940000", "092254.943000", "092254.945000", "092254.948000", "092334.895000", "092334.898000", "092334.901000", "092334.904000", "092334.906000", "092334.909000", "092334.912000", "092334.914000", "092334.917000", "092334.919000", "092334.922000", "092334.924000", "092334.927000", "092334.929000", "092334.932000", "092334.935000", "092334.937000", "092334.940000", "092334.942000", "092334.948000", "092414.896000", "092414.898000", "092414.901000", "092414.904000", "092414.906000", "092414.909000", "092414.912000", "092414.914000", "092414.917000", "092414.919000", "092414.922000", "092414.924000", "092414.927000", "092414.929000", "092414.932000", "092414.935000", "092414.937000", "092414.940000", "092414.943000", "092414.945000", "092434.897000", "092434.899000", "092434.902000", "092434.905000", "092434.907000", "092434.910000", "092434.913000", "092434.915000", "092434.918000", "092434.920000", "092514.895000", "092514.898000", "092514.901000", "092514.904000", "092514.906000", "092514.909000", "092514.911000", "092514.914000", "092514.916000", "092514.919000", "092514.922000", "092514.924000", "092514.927000", "092514.929000", "092514.932000", "092514.935000", "092514.937000", "092514.940000", "092514.943000", "092514.945000", "092554.896000", "092554.898000", "092554.901000", "092554.904000", "092554.906000", "092554.909000", "092554.912000", "092554.914000", "092554.917000", "092554.919000", "092554.922000", "092554.925000", "092554.927000", "092554.930000", "092554.932000", "092554.935000", "092554.938000", "092554.940000", "092554.943000", "092554.945000", "092634.896000", "092634.898000", "092634.901000", "092634.904000", "092634.906000", "092634.909000", "092634.912000", "092634.914000", "092634.917000", "092634.919000", "092634.922000", "092634.924000", "092634.927000", "092634.929000", "092634.932000", "092634.935000", "092634.937000", "092634.940000", "092634.942000", "092634.945000", "092714.896000", "092714.899000", "092714.902000", "092714.905000", "092714.907000", "092714.910000", "092714.913000", "092714.915000", "092714.918000", "092714.920000", "092714.923000", "092714.926000", "092714.928000", "092714.931000", "092714.933000", "092714.936000", "092714.938000", "092714.941000", "092714.944000", "092714.946000", "092754.896000", "092754.898000", "092754.901000", "092754.904000", "092754.906000", "092754.909000", "092754.912000", "092754.914000", "092754.917000", "092754.919000", "092754.922000", "092754.925000", "092754.927000", "092754.930000", "092754.932000", "092754.935000", "092754.938000", "092754.940000", "092754.943000", "092754.945000", "092811.447000", "092811.450000", "092811.452000", "092811.455000", "092811.458000", "092811.460000", "092811.463000", "092811.466000", "092811.469000"],
      "InstanceNumber": [1, 2, 3, 4, 5, 6, 7, 8, 9, 10, 11, 12, 13, 14, 15, 16, 17, 18, 19, 20, 21, 22, 23, 24, 25, 26, 27, 28, 29, 30, 31, 32, 33, 34, 35, 36, 37, 38, 39, 40, 41, 42, 43, 44, 45, 46, 47, 48, 49, 50, 51, 52, 53, 54, 55, 56, 57, 58, 59, 60, 61, 62, 63, 64, 65, 66, 67, 68, 69, 70, 71, 72, 73, 74, 75, 76, 77, 78, 79, 80, 81, 82, 83, 84, 85, 86, 87, 88, 89, 90, 91, 92, 93, 94, 95, 96, 97, 98, 99, 100, 101, 102, 103, 104, 105, 106, 107, 108, 109, 110, 111, 112, 113, 114, 115, 116, 117, 118, 119, 120, 121, 122, 123, 124, 125, 126, 127, 128, 129, 130, 131, 132, 133, 134, 135, 136, 137, 138, 139, 140, 141, 142, 143, 144, 145, 146, 147, 148, 149, 150, 151, 152, 153, 154, 155, 156, 157, 158, 159, 160, 161, 162, 163, 164, 165, 166, 167, 168, 169, 170, 171, 172, 173, 174, 175, 176, 177, 178, 179, 180, 181, 182, 183, 184, 185, 186, 187, 188, 189, 190, 191, 192, 193, 194, 195, 196, 197, 198, 199, 200],
      "LargestImagePixelValue": [680, 679, 677, 683, 682, 679, 681, 680, 681, 681, 680, 680, 682, 678, 682, 679, 679, 679, 679, 681, 683, 679, 681, 677, 679, 682, 683, 682, 681, 683, 681, 680, 681, 682, 681, 681, 679, 680, 680, 679, 681, 681, 680, 679, 680, 683, 680, 678, 680, 681, 678, 680, 679, 683, 681, 678, 682, 680, 678, 679, 683, 680, 683, 682, 681, 680, 683, 678, 678, 679, 680, 682, 681, 677, 681, 679, 680, 680, 682, 680, 682, 680, 681, 680, 680, 681, 682, 678, 679, 679, 679, 681, 679, 677, 679, 681, 679, 682, 681, 677, 677, 682, 683, 677, 681, 680, 678, 681, 681, 678, 681, 679, 680, 680, 677, 678, 679, 682, 681, 680, 680, 679, 681, 680, 681, 680, 680, 681, 678, 681, 680, 682, 681, 681, 685, 681, 684, 679, 680, 680, 681, 681, 680, 682, 685, 679, 682, 680, 682, 685, 678, 680, 680, 681, 683, 684, 678, 680, 679, 680, 683, 680, 681, 681, 680, 681, 681, 680, 680, 682, 681, 677, 682, 677, 679, 679, 681, 683, 679, 681, 680, 680, 681, 679, 679, 680, 680, 680, 680, 678, 681, 683, 681, 678, 680, 682, 681, 681, 680, 678],
      "WindowCenter": [465.0, 465.0, 465.0, 465.0, 465.0, 465.0, 465.0, 465.0, 465.0, 465.0, 465.0, 465.0, 464.0, 465.0, 465.0, 465.0, 464.0, 465.0, 465.0, 465.0, 465.0, 465.0, 465.0, 465.0, 464.0, 464.0, 464.0, 464.0, 464.0, 464.0, 464.0, 464.0, 464.0, 464.0, 465.0, 465.0, 465.0, 464.0, 464.0, 464.0, 464.0, 464.0, 464.0, 465.0, 464.0, 464.0, 465.0, 464.0, 464.0, 464.0, 464.0, 464.0, 464.0, 464.0, 464.0, 464.0, 465.0, 464.0, 464.0, 464.0, 464.0, 464.0, 464.0, 464.0, 464.0, 464.0, 464.0, 464.0, 464.0, 464.0, 464.0, 464.0, 464.0, 464.0, 464.0, 464.0, 464.0, 464.0, 464.0, 464.0, 464.0, 464.0, 464.0, 464.0, 464.0, 464.0, 464.0, 464.0, 464.0, 464.0, 464.0, 464.0, 464.0, 464.0, 464.0, 464.0, 464.0, 464.0, 464.0, 464.0, 464.0, 464.0, 464.0, 464.0, 464.0, 464.0, 464.0, 464.0, 464.0, 464.0, 464.0, 464.0, 464.0, 464.0, 464.0, 464.0, 464.0, 464.0, 464.0, 464.0, 464.0, 464.0, 464.0, 464.0, 464.0, 464.0, 464.0, 464.0, 464.0, 464.0, 464.0, 464.0, 464.0, 464.0, 464.0, 464.0, 464.0, 463.0, 464.0, 464.0, 464.0, 464.0, 464.0, 464.0, 464.0, 464.0, 464.0, 464.0, 464.0, 464.0, 464.0, 464.0, 464.0, 464.0, 464.0, 464.0, 464.0, 464.0, 464.0, 464.0, 464.0, 464.0, 464.0, 464.0, 464.0, 464.0, 463.0, 464.0, 464.0, 463.0, 464.0, 464.0, 463.0, 464.0, 464.0, 463.0, 463.0, 464.0, 464.0, 464.0, 463.0, 464.0, 464.0, 463.0, 463.0, 464.0, 464.0, 463.0, 463.0, 463.0, 464.0, 464.0, 463.0, 464.0, 464.0, 464.0, 463.0, 463.0, 463.0, 463.0],
      "WindowWidth": [964.0, 964.0, 964.0, 964.0, 964.0, 964.0, 964.0, 964.0, 964.0, 964.0, 964.0, 964.0, 963.0, 964.0, 963.0, 963.0, 963.0, 963.0, 963.0, 963.0, 963.0, 964.0, 963.0, 963.0, 963.0, 963.0, 963.0, 963.0, 963.0, 963.0, 963.0, 963.0, 963.0, 963.0, 963.0, 963.0, 963.0, 962.0, 963.0, 963.0, 963.0, 963.0, 963.0, 963.0, 963.0, 963.0, 963.0, 962.0, 963.0, 963.0, 963.0, 962.0, 962.0, 962.0, 962.0, 962.0, 963.0, 963.0, 962.0, 962.0, 962.0, 962.0, 962.0, 962.0, 962.0, 962.0, 962.0, 962.0, 962.0, 962.0, 962.0, 962.0, 962.0, 962.0, 962.0, 962.0, 962.0, 962.0, 962.0, 962.0, 962.0, 962.0, 962.0, 962.0, 962.0, 962.0, 962.0, 962.0, 962.0, 962.0, 962.0, 962.0, 962.0, 962.0, 962.0, 962.0, 962.0, 962.0, 962.0, 962.0, 962.0, 962.0, 962.0, 962.0, 962.0, 962.0, 962.0, 962.0, 962.0, 962.0, 962.0, 962.0, 962.0, 962.0, 962.0, 962.0, 962.0, 962.0, 962.0, 962.0, 962.0, 962.0, 962.0, 962.0, 962.0, 962.0, 962.0, 962.0, 962.0, 962.0, 962.0, 962.0, 962.0, 962.0, 962.0, 962.0, 962.0, 961.0, 962.0, 962.0, 962.0, 962.0, 962.0, 962.0, 962.0, 962.0, 962.0, 962.0, 962.0, 962.0, 962.0, 962.0, 962.0, 962.0, 962.0, 962.0, 962.0, 962.0, 962.0, 962.0, 962.0, 962.0, 962.0, 962.0, 962.0, 962.0, 961.0, 962.0, 962.0, 961.0, 962.0, 962.0, 961.0, 962.0, 962.0, 961.0, 961.0, 962.0, 962.0, 962.0, 961.0, 962.0, 962.0, 961.0, 961.0, 962.0, 962.0, 961.0, 961.0, 961.0, 962.0, 962.0, 961.0, 962.0, 962.0, 962.0, 961.0, 961.0, 961.0, 961.0]
    },
    "slices": {}
  }
}