{
  "AcquisitionMatrixPE": 80,
  "AcquisitionNumber": 1,
  "AcquisitionTime": "09:14:45.565000",
  "BandwidthPerPixelPhaseEncode": 25,
  "BaseResolution": 80,
  "BodyPartExamined": "BRAIN",
  "CoilCombinationMethod": "Sum of Squares",
  "ConsistencyInfo": "N4_VE11C_LATEST_20160120",
  "ConversionSoftware": "dcm2niix",
  "ConversionSoftwareVersion": "v1.0.20220720",
  "DerivedVendorReportedEchoSpacing": 0.0005,
  "DeviceSerialNumber": "66112",
  "DwellTime": 2.7e-06,
  "EchoTime": 0.03,
  "EchoTrainLength": 80,
  "EffectiveEchoSpacing": 0.0005,
  "FlipAngle": 77,
  "HeudiconvVersion": "0.13.1",
  "ImageOrientationPatientDICOM": [0.985083, -0.172058, -0.00256755, 0.16414, 0.935057, 0.314208],
  "ImageOrientationText": "Tra>Cor(18.1)>Sag(3.0)",
  "ImageType": [
    "ORIGINAL",
    "PRIMARY",
    "M",
    "ND",
    "NORM",
    "MOSAIC"
],
  "ImagingFrequency": 123.252,
  "InPlanePhaseEncodingDirectionDICOM": "COL",
  "InstitutionAddress": "Maynard 3,Hanover,NH,US,03755",
  "InstitutionName": "Dartmouth College - PBS",
  "InstitutionalDepartmentName": "Department",
  "MRAcquisitionType": "2D",
  "MagneticFieldStrength": 3,
  "Manufacturer": "Siemens",
  "ManufacturersModelName": "Prisma",
  "MatrixCoilMode": "SENSE",
  "Modality": "MR",
  "NonlinearGradientCorrection": false,
  "PartialFourier": 1,
  "PatientPosition": "HFS",
  "PercentPhaseFOV": 100,
  "PercentSampling": 100,
  "PhaseEncodingDirection": "j-",
  "PhaseEncodingSteps": 80,
  "PhaseResolution": 1,
  "PixelBandwidth": 2315,
  "ProcedureStepDescription": "dbic^QA",
  "ProtocolName": "func-bold_fa-77",
  "PulseSequenceDetails": "%SiemensSeq%\\ep2d_bold",
  "ReceiveCoilActiveElements": "HC1-7;NC1,2",
  "ReceiveCoilName": "HeadNeck_64",
  "ReconMatrixPE": 80,
  "RepetitionTime": 2,
  "SAR": 0.0322094,
  "ScanOptions": "FS",
  "ScanningSequence": "EP",
  "SequenceName": "*epfid2d1_80",
  "SequenceVariant": "SK",
  "SeriesDescription": "func-bold_fa-77",
  "SeriesNumber": 7,
  "ShimSetting": [4141, -7700, -7519, 195, -81, -263, -35, 72],
  "SliceThickness": 3.5,
  "SliceTiming": [0.99, 0, 1.055, 0.065, 1.12, 0.13, 1.1875, 0.1975, 1.2525, 0.2625, 1.32, 0.33, 1.385, 0.395, 1.45, 0.46, 1.5175, 0.5275, 1.5825, 0.5925, 1.6475, 0.66, 1.715, 0.725, 1.78, 0.79, 1.8475, 0.8575, 1.9125, 0.9225],
  "SoftwareVersions": "syngo MR E11",
  "SpacingBetweenSlices": 3.99,
  "StationName": "AWP66112",
  "TotalReadoutTime": 0.0395,
  "TxRefAmp": 215.559,
  "dcmmeta_affine": [
    [-2.9552502632141113, 0.49241870641708374, 0.20612864196300507, 96.58841705322266],
    [0.5161752104759216, 2.805171012878418, 1.2366703748703003, -134.70040893554688],
    [-0.00770264957100153, -0.9426238536834717, 3.7879092693328857, -6.465380668640137],
    [0.0, 0.0, 0.0, 1.0]
],
  "dcmmeta_reorient_transform": [
    [0.0, -1.0, 0.0, 79.0],
    [1.0, 0.0, 0.0, 0.0],
    [0.0, 0.0, 1.0, 0.0],
    [0.0, 0.0, 0.0, 1.0]
],
  "dcmmeta_shape": [80, 80, 30, 200],
  "dcmmeta_slice_dim": 2,
  "dcmmeta_version": 0.6,
  "global": {
    "const": {
      "AccessionNumber": "qa64",
      "AcquisitionMatrix": [80, 0, 0, 80],
      "AngioFlag": "N",
      "BitsAllocated": 16,
      "BitsStored": 12,
      "BodyPartExamined": "BRAIN",
      "Columns": 480,
      "EchoNumbers": 1,
      "EchoTime": 30.0,
      "EchoTrainLength": 80,
      "FlipAngle": 77.0,
      "HighBit": 11,
      "ImageOrientationPatient": [0.98508340337136, -0.1720584089489, -0.0025675498586, 0.16413956594416, 0.93505698832916, 0.31420794303847],
      "ImagePositionPatient": [-825.02327749877, -544.70724280168, -267.91689928216],
      "ImageType": [
        "ORIGINAL",
        "PRIMARY",
        "M",
        "ND",
        "NORM",
        "MOSAIC"
],
      "ImagedNucleus": "1H",
      "ImagingFrequency": 123.252367,
      "InPlanePhaseEncodingDirection": "COL",
      "MRAcquisitionType": "2D",
      "MagneticFieldStrength": 3.0,
      "Manufacturer": "SIEMENS",
      "ManufacturerModelName": "Prisma",
      "Modality": "MR",
      "NumberOfAverages": 1.0,
      "NumberOfPhaseEncodingSteps": 80,
      "PercentPhaseFieldOfView": 100.0,
      "PercentSampling": 100.0,
      "PerformedProcedureStepStartTime": "090507.214000",
      "PhotometricInterpretation": "MONOCHROME2",
      "PixelBandwidth": 2315.0,
      "PixelRepresentation": 0,
      "PixelSpacing": [3.0, 3.0],
      "ProtocolName": "func-bold_fa-77",
      "RepetitionTime": 2000.0,
      "Rows": 480,
      "SAR": 0.03220937337508,
      "SamplesPerPixel": 1,
      "ScanOptions": "FS",
      "ScanningSequence": "EP",
      "SequenceName": "*epfid2d1_80",
      "SequenceVariant": "SK",
      "SeriesDescription": "func-bold_fa-77",
      "SeriesNumber": 7,
      "SeriesTime": "091534.827000",
      "SliceLocation": -42.897407007792,
      "SliceThickness": 3.5,
      "SmallestImagePixelValue": 0,
      "SoftwareVersions": "syngo MR E11",
      "SpacingBetweenSlices": 3.989999930905,
      "SpecificCharacterSet": "ISO_IR 100",
      "StudyID": "4",
      "StudyTime": "090507.151000",
      "TransmitCoilName": "Body",
      "VariableFlipAngleFlag": "N",
      "WindowCenterWidthExplanation": "Algo1",
      "dBdt": 0.0},
    "slices": {}
  },
  "time": {
    "samples": {
      "AcquisitionNumber": [1, 2, 3, 4, 5, 6, 7, 8, 9, 10, 11, 12, 13, 14, 15, 16, 17, 18, 19, 20, 21, 22, 23, 24, 25, 26, 27, 28, 29, 30, 31, 32, 33, 34, 35, 36, 37, 38, 39, 40, 41, 42, 43, 44, 45, 46, 47, 48, 49, 50, 51, 52, 53, 54, 55, 56, 57, 58, 59, 60, 61, 62, 63, 64, 65, 66, 67, 68, 69, 70, 71, 72, 73, 74, 75, 76, 77, 78, 79, 80, 81, 82, 83, 84, 85, 86, 87, 88, 89, 90, 91, 92, 93, 94, 95, 96, 97, 98, 99, 100, 101, 102, 103, 104, 105, 106, 107, 108, 109, 110, 111, 112, 113, 114, 115, 116, 117, 118, 119, 120, 121, 122, 123, 124, 125, 126, 127, 128, 129, 130, 131, 132, 133, 134, 135, 136, 137, 138, 139, 140, 141, 142, 143, 144, 145, 146, 147, 148, 149, 150, 151, 152, 153, 154, 155, 156, 157, 158, 159, 160, 161, 162, 163, 164, 165, 166, 167, 168, 169, 170, 171, 172, 173, 174, 175, 176, 177, 178, 179, 180, 181, 182, 183, 184, 185, 186, 187, 188, 189, 190, 191, 192, 193, 194, 195, 196, 197, 198, 199, 200],
      "AcquisitionTime": ["091445.565000", "091447.565000", "091449.565000", "091451.565000", "091453.565000", "091455.565000", "091457.565000", "091459.565000", "091501.565000", "091503.565000", "091505.565000", "091507.565000", "091509.565000", "091511.565000", "091513.565000", "091515.565000", "091517.565000", "091519.565000", "091521.565000", "091523.565000", "091525.565000", "091527.565000", "091529.565000", "091531.565000", "091533.565000", "091535.565000", "091537.565000", "091539.565000", "091541.565000", "091543.565000", "091545.565000", "091547.565000", "091549.565000", "091551.565000", "091553.565000", "091555.565000", "091557.565000", "091559.565000", "091601.565000", "091603.565000", "091605.565000", "091607.565000", "091609.565000", "091611.565000", "091613.565000", "091615.565000", "091617.565000", "091619.565000", "091621.565000", "091623.565000", "091625.565000", "091627.565000", "091629.565000", "091631.565000", "091633.565000", "091635.565000", "091637.565000", "091639.565000", "091641.565000", "091643.565000", "091645.565000", "091647.565000", "091649.565000", "091651.565000", "091653.565000", "091655.565000", "091657.565000", "091659.565000", "091701.565000", "091703.565000", "091705.565000", "091707.565000", "091709.565000", "091711.565000", "091713.565000", "091715.565000", "091717.565000", "091719.565000", "091721.565000", "091723.565000", "091725.565000", "091727.565000", "091729.565000", "091731.565000", "091733.565000", "091735.565000", "091737.565000", "091739.565000", "091741.565000", "091743.565000", "091745.565000", "091747.565000", "091749.565000", "091751.565000", "091753.565000", "091755.565000", "091757.565000", "091759.565000", "091801.565000", "091803.565000", "091805.565000", "091807.565000", "091809.565000", "091811.565000", "091813.565000", "091815.565000", "091817.565000", "091819.565000", "091821.565000", "091823.565000", "091825.565000", "091827.565000", "091829.565000", "091831.565000", "091833.565000", "091835.565000", "091837.565000", "091839.565000", "091841.565000", "091843.565000", "091845.565000", "091847.565000", "091849.565000", "091851.565000", "091853.565000", "091855.565000", "091857.565000", "091859.565000", "091901.565000", "091903.565000", "091905.565000", "091907.565000", "091909.565000", "091911.565000", "091913.565000", "091915.565000", "091917.565000", "091919.565000", "091921.565000", "091923.565000", "091925.565000", "091927.565000", "091929.565000", "091931.565000", "091933.565000", "091935.565000", "091937.565000", "091939.565000", "091941.565000", "091943.565000", "091945.565000", "091947.565000", "091949.565000", "091951.565000", "091953.565000", "091955.565000", "091957.565000", "091959.565000", "092001.565000", "092003.565000", "092005.565000", "092007.565000", "092009.565000", "092011.565000", "092013.565000", "092015.565000", "092017.565000", "092019.565000", "092021.565000", "092023.565000", "092025.565000", "092027.565000", "092029.565000", "092031.565000", "092033.565000", "092035.565000", "092037.565000", "092039.565000", "092041.565000", "092043.565000", "092045.565000", "092047.565000", "092049.565000", "092051.565000", "092053.565000", "092055.565000", "092057.565000", "092059.565000", "092101.565000", "092103.565000", "092105.565000", "092107.565000", "092109.565000", "092111.565000", "092113.565000", "092115.565000", "092117.565000", "092119.565000", "092121.565000", "092123.565000"],
      "ContentTime": ["091534.830000", "091534.834000", "091534.837000", "091534.839000", "091534.842000", "091534.845000", "091534.847000", "091534.852000", "091534.855000", "091534.857000", "091534.860000", "091534.863000", "091534.865000", "091534.868000", "091534.871000", "091534.873000", "091534.876000", "091534.878000", "091534.881000", "091534.884000", "091534.886000", "091534.889000", "091534.892000", "091534.894000", "091534.897000", "091614.825000", "091614.828000", "091614.830000", "091614.833000", "091614.835000", "091614.838000", "091614.841000", "091614.843000", "091614.846000", "091614.848000", "091614.851000", "091614.854000", "091614.856000", "091614.859000", "091614.862000", "091614.864000", "091614.870000", "091614.872000", "091614.875000", "091614.878000", "091654.824000", "091654.827000", "091654.830000", "091654.836000", "091654.839000", "091654.842000", "091654.844000", "091654.847000", "091654.850000", "091654.852000", "091654.855000", "091654.857000", "091654.860000", "091654.863000", "091654.865000", "091654.868000", "091654.870000", "091654.873000", "091654.876000", "091654.878000", "091734.826000", "091734.829000", "091734.831000", "091734.834000", "091734.836000", "091734.839000", "091734.842000", "091734.844000", "091734.847000", "091734.849000", "091734.852000", "091734.855000", "091734.857000", "091734.860000", "091734.862000", "091734.865000", "091734.867000", "091734.870000", "091734.873000", "091734.875000", "091814.826000", "091814.829000", "091814.831000", "091814.834000", "091814.836000", "091814.839000", "091814.842000", "091814.844000", "091814.847000", "091814.850000", "091814.852000", "091814.855000", "091814.857000", "091814.860000", "091814.863000", "091814.865000", "091814.868000", "091814.870000", "091814.873000", "091814.875000", "091854.824000", "091854.828000", "091854.830000", "091854.833000", "091854.835000", "091854.838000", "091854.841000", "091854.843000", "091854.846000", "091854.849000", "091854.851000", "091854.854000", "091854.856000", "091854.859000", "091854.862000", "091854.864000", "091854.867000", "091854.869000", "091854.872000", "091854.875000", "091934.825000", "091934.828000", "091934.830000", "091934.833000", "091934.849000", "091934.852000", "091934.855000", "091934.857000", "091934.860000", "091934.863000", "091934.865000", "091934.868000", "091934.870000", "091934.873000", "091934.876000", "091934.878000", "091934.881000", "091934.883000", "091934.886000", "091934.889000", "092014.826000", "092014.829000", "092014.831000", "092014.834000", "092014.836000", "092014.839000", "092014.842000", "092014.844000", "092014.847000", "092014.850000", "092014.852000", "092014.855000", "092014.857000", "092014.860000", "092014.863000", "092014.865000", "092014.868000", "092014.871000", "092014.873000", "092014.876000", "092054.824000", "092054.828000", "092054.830000", "092054.833000", "092054.835000", "092054.838000", "092054.841000", "092054.843000", "092054.846000", "092054.857000", "092054.859000", "092054.862000", "092054.865000", "092054.867000", "092054.870000", "092054.873000", "092054.875000", "092054.878000", "092054.880000", "092054.883000", "092124.672000", "092124.675000", "092124.678000", "092124.680000", "092124.683000", "092124.686000", "092124.688000", "092124.691000", "092124.694000", "092124.696000", "092124.699000", "092124.707000", "092124.711000", "092124.714000", "092124.718000"],
      "InstanceCreationTime": ["091534.830000", "091534.834000", "091534.837000", "091534.839000", "091534.842000", "091534.845000", "091534.847000", "091534.852000", "091534.855000", "091534.857000", "091534.860000", "091534.863000", "091534.865000", "091534.868000", "091534.871000", "091534.873000", "091534.876000", "091534.878000", "091534.881000", "091534.884000", "091534.886000", "091534.889000", "091534.892000", "091534.894000", "091534.897000", "091614.825000", "091614.828000", "091614.830000", "091614.833000", "091614.835000", "091614.838000", "091614.841000", "091614.843000", "091614.846000", "091614.848000", "091614.851000", "091614.854000", "091614.856000", "091614.859000", "091614.862000", "091614.864000", "091614.870000", "091614.872000", "091614.875000", "091614.878000", "091654.824000", "091654.827000", "091654.830000", "091654.836000", "091654.839000", "091654.842000", "091654.844000", "091654.847000", "091654.850000", "091654.852000", "091654.855000", "091654.857000", "091654.860000", "091654.863000", "091654.865000", "091654.868000", "091654.870000", "091654.873000", "091654.876000", "091654.878000", "091734.826000", "091734.829000", "091734.831000", "091734.834000", "091734.836000", "091734.839000", "091734.842000", "091734.844000", "091734.847000", "091734.849000", "091734.852000", "091734.855000", "091734.857000", "091734.860000", "091734.862000", "091734.865000", "091734.867000", "091734.870000", "091734.873000", "091734.875000", "091814.826000", "091814.829000", "091814.831000", "091814.834000", "091814.836000", "091814.839000", "091814.842000", "091814.844000", "091814.847000", "091814.850000", "091814.852000", "091814.855000", "091814.857000", "091814.860000", "091814.863000", "091814.865000", "091814.868000", "091814.870000", "091814.873000", "091814.875000", "091854.824000", "091854.828000", "091854.830000", "091854.833000", "091854.835000", "091854.838000", "091854.841000", "091854.843000", "091854.846000", "091854.849000", "091854.851000", "091854.854000", "091854.856000", "091854.859000", "091854.862000", "091854.864000", "091854.867000", "091854.869000", "091854.872000", "091854.875000", "091934.825000", "091934.828000", "091934.830000", "091934.833000", "091934.849000", "091934.852000", "091934.855000", "091934.857000", "091934.860000", "091934.863000", "091934.865000", "091934.868000", "091934.870000", "091934.873000", "091934.876000", "091934.878000", "091934.881000", "091934.883000", "091934.886000", "091934.889000", "092014.826000", "092014.829000", "092014.831000", "092014.834000", "092014.836000", "092014.839000", "092014.842000", "092014.844000", "092014.847000", "092014.850000", "092014.852000", "092014.855000", "092014.857000", "092014.860000", "092014.863000", "092014.865000", "092014.868000", "092014.871000", "092014.873000", "092014.876000", "092054.824000", "092054.828000", "092054.830000", "092054.833000", "092054.835000", "092054.838000", "092054.841000", "092054.843000", "092054.846000", "092054.857000", "092054.859000", "092054.862000", "092054.865000", "092054.867000", "092054.870000", "092054.873000", "092054.875000", "092054.878000", "092054.880000", "092054.883000", "092124.672000", "092124.675000", "092124.678000", "092124.680000", "092124.683000", "092124.686000", "092124.688000", "092124.691000", "092124.694000", "092124.696000", "092124.699000", "092124.707000", "092124.711000", "092124.714000", "092124.718000"],
      "InstanceNumber": [1, 2, 3, 4, 5, 6, 7, 8, 9, 10, 11, 12, 13, 14, 15, 16, 17, 18, 19, 20, 21, 22, 23, 24, 25, 26, 27, 28, 29, 30, 31, 32, 33, 34, 35, 36, 37, 38, 39, 40, 41, 42, 43, 44, 45, 46, 47, 48, 49, 50, 51, 52, 53, 54, 55, 56, 57, 58, 59, 60, 61, 62, 63, 64, 65, 66, 67, 68, 69, 70, 71, 72, 73, 74, 75, 76, 77, 78, 79, 80, 81, 82, 83, 84, 85, 86, 87, 88, 89, 90, 91, 92, 93, 94, 95, 96, 97, 98, 99, 100, 101, 102, 103, 104, 105, 106, 107, 108, 109, 110, 111, 112, 113, 114, 115, 116, 117, 118, 119, 120, 121, 122, 123, 124, 125, 126, 127, 128, 129, 130, 131, 132, 133, 134, 135, 136, 137, 138, 139, 140, 141, 142, 143, 144, 145, 146, 147, 148, 149, 150, 151, 152, 153, 154, 155, 156, 157, 158, 159, 160, 161, 162, 163, 164, 165, 166, 167, 168, 169, 170, 171, 172, 173, 174, 175, 176, 177, 178, 179, 180, 181, 182, 183, 184, 185, 186, 187, 188, 189, 190, 191, 192, 193, 194, 195, 196, 197, 198, 199, 200],
      "LargestImagePixelValue": [3963, 3969, 3966, 3975, 3967, 3968, 3967, 3966, 3968, 3966, 3964, 3966, 3970, 3964, 3966, 3967, 3971, 3969, 3966, 3962, 3968, 3970, 3962, 3967, 3967, 3968, 3965, 3969, 3964, 3964, 3966, 3967, 3968, 3964, 3967, 3967, 3967, 3967, 3966, 3966, 3965, 3965, 3967, 3963, 3966, 3965, 3962, 3966, 3967, 3968, 3966, 3963, 3964, 3967, 3967, 3962, 3965, 3968, 3966, 3963, 3964, 3964, 3966, 3966, 3963, 3966, 3968, 3966, 3962, 3963, 3969, 3966, 3967, 3970, 3963, 3968, 3963, 3964, 3964, 3962, 3966, 3962, 3966, 3965, 3963, 3962, 3966, 3964, 3966, 3963, 3964, 3962, 3966, 3965, 3964, 3965, 3965, 3965, 3963, 3964, 3965, 3962, 3964, 3965, 3963, 3966, 3965, 3963, 3965, 3965, 3965, 3963, 3961, 3963, 3965, 3968, 3962, 3966, 3958, 3963, 3962, 3961, 3964, 3963, 3965, 3963, 3963, 3962, 3964, 3964, 3959, 3966, 3964, 3963, 3962, 3964, 3964, 3966, 3962, 3963, 3965, 3962, 3966, 3965, 3966, 3965, 3963, 3957, 3963, 3964, 3960, 3963, 3965, 3965, 3963, 3965, 3962, 3965, 3963, 3963, 3963, 3964, 3963, 3962, 3963, 3968, 3960, 3963, 3961, 3959, 3961, 3964, 3963, 3962, 3962, 3961, 3962, 3962, 3961, 3960, 3961, 3961, 3962, 3962, 3963, 3961, 3965, 3964, 3962, 3963, 3958, 3959, 3962, 3961, 3961, 3955, 3962, 3960, 3961, 3964],
      "WindowCenter": [1417.0, 1417.0, 1417.0, 1417.0, 1417.0, 1416.0, 1417.0, 1416.0, 1416.0, 1416.0, 1416.0, 1416.0, 1416.0, 1416.0, 1416.0, 1416.0, 1416.0, 1416.0, 1417.0, 1415.0, 1415.0, 1416.0, 1415.0, 1416.0, 1416.0, 1416.0, 1415.0, 1416.0, 1416.0, 1416.0, 1416.0, 1416.0, 1415.0, 1416.0, 1416.0, 1416.0, 1415.0, 1416.0, 1416.0, 1416.0, 1416.0, 1416.0, 1416.0, 1415.0, 1415.0, 1415.0, 1414.0, 1415.0, 1415.0, 1415.0, 1415.0, 1415.0, 1415.0, 1415.0, 1415.0, 1416.0, 1415.0, 1415.0, 1415.0, 1415.0, 1415.0, 1414.0, 1415.0, 1414.0, 1415.0, 1415.0, 1414.0, 1415.0, 1415.0, 1415.0, 1415.0, 1415.0, 1414.0, 1413.0, 1414.0, 1415.0, 1414.0, 1414.0, 1414.0, 1414.0, 1414.0, 1414.0, 1414.0, 1414.0, 1414.0, 1414.0, 1414.0, 1414.0, 1414.0, 1414.0, 1414.0, 1414.0, 1414.0, 1415.0, 1414.0, 1414.0, 1414.0, 1414.0, 1414.0, 1415.0, 1414.0, 1414.0, 1414.0, 1413.0, 1414.0, 1414.0, 1415.0, 1414.0, 1414.0, 1414.0, 1414.0, 1414.0, 1414.0, 1413.0, 1414.0, 1413.0, 1413.0, 1414.0, 1413.0, 1413.0, 1414.0, 1414.0, 1413.0, 1413.0, 1413.0, 1414.0, 1413.0, 1413.0, 1414.0, 1413.0, 1413.0, 1414.0, 1413.0, 1413.0, 1413.0, 1413.0, 1413.0, 1413.0, 1413.0, 1414.0, 1414.0, 1414.0, 1413.0, 1414.0, 1413.0, 1413.0, 1413.0, 1413.0, 1413.0, 1413.0, 1414.0, 1412.0, 1413.0, 1413.0, 1413.0, 1413.0, 1413.0, 1413.0, 1413.0, 1412.0, 1412.0, 1413.0, 1413.0, 1413.0, 1413.0, 1413.0, 1413.0, 1412.0, 1412.0, 1413.0, 1413.0, 1412.0, 1412.0, 1412.0, 1412.0, 1412.0, 1413.0, 1413.0, 1412.0, 1412.0, 1412.0, 1413.0, 1412.0, 1412.0, 1413.0, 1412.0, 1413.0, 1412.0, 1412.0, 1412.0, 1412.0, 1412.0, 1412.0, 1412.0, 1412.0, 1412.0, 1412.0, 1412.0, 1412.0, 1412.0],
      "WindowWidth": [3341.0, 3341.0, 3341.0, 3341.0, 3341.0, 3341.0, 3341.0, 3341.0, 3341.0, 3341.0, 3341.0, 3341.0, 3341.0, 3341.0, 3341.0, 3341.0, 3340.0, 3340.0, 3341.0, 3341.0, 3341.0, 3341.0, 3341.0, 3341.0, 3341.0, 3341.0, 3341.0, 3340.0, 3341.0, 3341.0, 3341.0, 3341.0, 3341.0, 3341.0, 3340.0, 3340.0, 3340.0, 3340.0, 3340.0, 3340.0, 3340.0, 3340.0, 3340.0, 3340.0, 3340.0, 3340.0, 3340.0, 3341.0, 3341.0, 3341.0, 3340.0, 3340.0, 3340.0, 3340.0, 3340.0, 3340.0, 3340.0, 3340.0, 3340.0, 3340.0, 3340.0, 3340.0, 3340.0, 3340.0, 3339.0, 3339.0, 3340.0, 3340.0, 3340.0, 3340.0, 3340.0, 3340.0, 3340.0, 3340.0, 3340.0, 3340.0, 3340.0, 3340.0, 3340.0, 3340.0, 3340.0, 3339.0, 3339.0, 3340.0, 3339.0, 3340.0, 3339.0, 3340.0, 3340.0, 3340.0, 3340.0, 3340.0, 3340.0, 3339.0, 3340.0, 3340.0, 3340.0, 3340.0, 3340.0, 3340.0, 3340.0, 3340.0, 3340.0, 3340.0, 3339.0, 3339.0, 3339.0, 3339.0, 3340.0, 3339.0, 3340.0, 3339.0, 3339.0, 3340.0, 3339.0, 3340.0, 3339.0, 3339.0, 3340.0, 3339.0, 3339.0, 3339.0, 3339.0, 3339.0, 3340.0, 3339.0, 3339.0, 3340.0, 3339.0, 3339.0, 3339.0, 3340.0, 3340.0, 3340.0, 3339.0, 3340.0, 3340.0, 3340.0, 3340.0, 3340.0, 3340.0, 3340.0, 3340.0, 3340.0, 3340.0, 3340.0, 3339.0, 3339.0, 3339.0, 3340.0, 3339.0, 3339.0, 3340.0, 3339.0, 3340.0, 3340.0, 3339.0, 3339.0, 3340.0, 3339.0, 3339.0, 3340.0, 3340.0, 3339.0, 3339.0, 3339.0, 3339.0, 3339.0, 3339.0, 3339.0, 3339.0, 3339.0, 3339.0, 3339.0, 3339.0, 3339.0, 3339.0, 3339.0, 3339.0, 3339.0, 3339.0, 3339.0, 3339.0, 3339.0, 3339.0, 3339.0, 3339.0, 3339.0, 3339.0, 3339.0, 3339.0, 3339.0, 3338.0, 3339.0, 3339.0, 3339.0, 3339.0, 3339.0, 3339.0, 3339.0]
    },
    "slices": {}
  }
}