{
  "AcquisitionMatrixPE": 80,
  "AcquisitionNumber": 1,
  "AcquisitionTime": "09:15:40.555000",
  "BandwidthPerPixelPhaseEncode": 25,
  "BaseResolution": 80,
  "BodyPartExamined": "BRAIN",
  "CoilCombinationMethod": "Sum of Squares",
  "ConsistencyInfo": "N4_VE11C_LATEST_20160120",
  "ConversionSoftware": "dcm2niix",
  "ConversionSoftwareVersion": "v1.0.20220720",
  "DerivedVendorReportedEchoSpacing": 0.0005,
  "DeviceSerialNumber": "66112",
  "DwellTime": 2.7e-06,
  "EchoTime": 0.03,
  "EchoTrainLength": 80,
  "EffectiveEchoSpacing": 0.0005,
  "FlipAngle": 77,
  "HeudiconvVersion": "0.13.1",
  "ImageOrientationPatientDICOM": [0.987309, 0.158622, 0.00780087, -0.153196, 0.938286, 0.31008],
  "ImageOrientationText": "Tra>Cor(17.9)>Sag(-2.4)",
  "ImageType": [
    "ORIGINAL",
    "PRIMARY",
    "M",
    "ND",
    "NORM",
    "MOSAIC"
],
  "ImagingFrequency": 123.252,
  "InPlanePhaseEncodingDirectionDICOM": "COL",
  "InstitutionAddress": "Maynard 3,Hanover,NH,US,03755",
  "InstitutionName": "Dartmouth College - PBS",
  "InstitutionalDepartmentName": "Department",
  "MRAcquisitionType": "2D",
  "MagneticFieldStrength": 3,
  "Manufacturer": "Siemens",
  "ManufacturersModelName": "Prisma",
  "MatrixCoilMode": "SENSE",
  "Modality": "MR",
  "NonlinearGradientCorrection": false,
  "PartialFourier": 1,
  "PatientPosition": "HFS",
  "PercentPhaseFOV": 100,
  "PercentSampling": 100,
  "PhaseEncodingDirection": "j-",
  "PhaseEncodingSteps": 80,
  "PhaseResolution": 1,
  "PixelBandwidth": 2315,
  "ProcedureStepDescription": "dbic^QA",
  "ProtocolName": "func-bold_fa-77",
  "PulseSequenceDetails": "%SiemensSeq%\\ep2d_bold",
  "ReceiveCoilActiveElements": "HC1-7;NC1,2",
  "ReceiveCoilName": "HeadNeck_64",
  "ReconMatrixPE": 80,
  "RepetitionTime": 2,
  "SAR": 0.028421,
  "ScanOptions": "FS",
  "ScanningSequence": "EP",
  "SequenceName": "*epfid2d1_80",
  "SequenceVariant": "SK",
  "SeriesDescription": "func-bold_fa-77",
  "SeriesNumber": 7,
  "ShimSetting": [4140, -7693, -7504, 182, -61, -276, -54, 80],
  "SliceThickness": 3.5,
  "SliceTiming": [0.99, 0, 1.055, 0.065, 1.12, 0.13, 1.1875, 0.1975, 1.2525, 0.2625, 1.32, 0.33, 1.385, 0.395, 1.45, 0.46, 1.5175, 0.5275, 1.5825, 0.5925, 1.65, 0.66, 1.715, 0.725, 1.78, 0.79, 1.8475, 0.8575, 1.9125, 0.9225],
  "SoftwareVersions": "syngo MR E11",
  "SpacingBetweenSlices": 3.99,
  "StationName": "AWP66112",
  "TotalReadoutTime": 0.0395,
  "TxRefAmp": 213.066,
  "dcmmeta_affine": [
    [-2.961925506591797, -0.4595891237258911, -0.16704639792442322, 140.52230834960938],
    [-0.4758671522140503, 2.8148584365844727, 1.2262873649597168, -96.87751770019531],
    [0.02340259589254856, -0.9302415251731873, 3.7932064533233643, -34.29680633544922],
    [0.0, 0.0, 0.0, 1.0]
],
  "dcmmeta_reorient_transform": [
    [0.0, -1.0, 0.0, 79.0],
    [1.0, 0.0, 0.0, 0.0],
    [0.0, 0.0, 1.0, 0.0],
    [0.0, 0.0, 0.0, 1.0]
],
  "dcmmeta_shape": [80, 80, 30, 200],
  "dcmmeta_slice_dim": 2,
  "dcmmeta_version": 0.6,
  "global": {
    "const": {
      "AccessionNumber": "qa64",
      "AcquisitionMatrix": [80, 0, 0, 80],
      "AngioFlag": "N",
      "BitsAllocated": 16,
      "BitsStored": 12,
      "BodyPartExamined": "BRAIN",
      "Columns": 480,
      "EchoNumbers": 1,
      "EchoTime": 30.0,
      "EchoTrainLength": 80,
      "FlipAngle": 77.0,
      "HighBit": 11,
      "ImageOrientationPatient": [0.98730850574739, 0.15862238485288, 0.00780086549372, -0.1531963785211, 0.93828617833757, 0.3100805010779],
      "ImagePositionPatient": [-604.68203992969, -783.64144645721, -298.51470539153],
      "ImageType": [
        "ORIGINAL",
        "PRIMARY",
        "M",
        "ND",
        "NORM",
        "MOSAIC"
],
      "ImagedNucleus": "1H",
      "ImagingFrequency": 123.252355,
      "InPlanePhaseEncodingDirection": "COL",
      "MRAcquisitionType": "2D",
      "MagneticFieldStrength": 3.0,
      "Manufacturer": "SIEMENS",
      "ManufacturerModelName": "Prisma",
      "Modality": "MR",
      "NumberOfAverages": 1.0,
      "NumberOfPhaseEncodingSteps": 80,
      "PercentPhaseFieldOfView": 100.0,
      "PercentSampling": 100.0,
      "PerformedProcedureStepStartTime": "090710.732000",
      "PhotometricInterpretation": "MONOCHROME2",
      "PixelBandwidth": 2315.0,
      "PixelRepresentation": 0,
      "PixelSpacing": [3.0, 3.0],
      "ProtocolName": "func-bold_fa-77",
      "RepetitionTime": 2000.0,
      "Rows": 480,
      "SAR": 0.02842101049925,
      "SamplesPerPixel": 1,
      "ScanOptions": "FS",
      "ScanningSequence": "EP",
      "SequenceName": "*epfid2d1_80",
      "SequenceVariant": "SK",
      "SeriesDescription": "func-bold_fa-77",
      "SeriesNumber": 7,
      "SeriesTime": "091638.220000",
      "SliceLocation": -68.26272701469,
      "SliceThickness": 3.5,
      "SmallestImagePixelValue": 0,
      "SoftwareVersions": "syngo MR E11",
      "SpacingBetweenSlices": 3.9900000244527,
      "SpecificCharacterSet": "ISO_IR 100",
      "StudyID": "15",
      "StudyTime": "090710.659000",
      "TransmitCoilName": "Body",
      "VariableFlipAngleFlag": "N",
      "WindowCenterWidthExplanation": "Algo1",
      "dBdt": 0.0},
    "slices": {}
  },
  "time": {
    "samples": {
      "AcquisitionNumber": [1, 2, 3, 4, 5, 6, 7, 8, 9, 10, 11, 12, 13, 14, 15, 16, 17, 18, 19, 20, 21, 22, 23, 24, 25, 26, 27, 28, 29, 30, 31, 32, 33, 34, 35, 36, 37, 38, 39, 40, 41, 42, 43, 44, 45, 46, 47, 48, 49, 50, 51, 52, 53, 54, 55, 56, 57, 58, 59, 60, 61, 62, 63, 64, 65, 66, 67, 68, 69, 70, 71, 72, 73, 74, 75, 76, 77, 78, 79, 80, 81, 82, 83, 84, 85, 86, 87, 88, 89, 90, 91, 92, 93, 94, 95, 96, 97, 98, 99, 100, 101, 102, 103, 104, 105, 106, 107, 108, 109, 110, 111, 112, 113, 114, 115, 116, 117, 118, 119, 120, 121, 122, 123, 124, 125, 126, 127, 128, 129, 130, 131, 132, 133, 134, 135, 136, 137, 138, 139, 140, 141, 142, 143, 144, 145, 146, 147, 148, 149, 150, 151, 152, 153, 154, 155, 156, 157, 158, 159, 160, 161, 162, 163, 164, 165, 166, 167, 168, 169, 170, 171, 172, 173, 174, 175, 176, 177, 178, 179, 180, 181, 182, 183, 184, 185, 186, 187, 188, 189, 190, 191, 192, 193, 194, 195, 196, 197, 198, 199, 200],
      "AcquisitionTime": ["091540.555000", "091542.555000", "091544.555000", "091546.555000", "091548.555000", "091550.555000", "091552.555000", "091554.555000", "091556.555000", "091558.555000", "091600.555000", "091602.555000", "091604.555000", "091606.555000", "091608.555000", "091610.555000", "091612.555000", "091614.555000", "091616.555000", "091618.555000", "091620.555000", "091622.555000", "091624.555000", "091626.555000", "091628.555000", "091630.555000", "091632.555000", "091634.555000", "091636.555000", "091638.555000", "091640.555000", "091642.555000", "091644.555000", "091646.555000", "091648.555000", "091650.555000", "091652.555000", "091654.555000", "091656.555000", "091658.555000", "091700.555000", "091702.555000", "091704.555000", "091706.555000", "091708.555000", "091710.555000", "091712.555000", "091714.555000", "091716.555000", "091718.555000", "091720.555000", "091722.555000", "091724.555000", "091726.555000", "091728.555000", "091730.555000", "091732.555000", "091734.555000", "091736.555000", "091738.555000", "091740.555000", "091742.555000", "091744.555000", "091746.555000", "091748.555000", "091750.555000", "091752.555000", "091754.555000", "091756.555000", "091758.555000", "091800.555000", "091802.555000", "091804.555000", "091806.555000", "091808.555000", "091810.555000", "091812.555000", "091814.555000", "091816.555000", "091818.555000", "091820.555000", "091822.555000", "091824.555000", "091826.555000", "091828.555000", "091830.555000", "091832.555000", "091834.555000", "091836.555000", "091838.555000", "091840.555000", "091842.555000", "091844.555000", "091846.555000", "091848.555000", "091850.555000", "091852.555000", "091854.555000", "091856.555000", "091858.555000", "091900.555000", "091902.555000", "091904.555000", "091906.555000", "091908.555000", "091910.555000", "091912.555000", "091914.555000", "091916.555000", "091918.555000", "091920.555000", "091922.555000", "091924.555000", "091926.555000", "091928.555000", "091930.555000", "091932.555000", "091934.555000", "091936.555000", "091938.555000", "091940.555000", "091942.555000", "091944.555000", "091946.555000", "091948.555000", "091950.555000", "091952.555000", "091954.555000", "091956.555000", "091958.555000", "092000.555000", "092002.555000", "092004.555000", "092006.555000", "092008.555000", "092010.555000", "092012.555000", "092014.555000", "092016.555000", "092018.555000", "092020.555000", "092022.555000", "092024.555000", "092026.555000", "092028.555000", "092030.555000", "092032.555000", "092034.555000", "092036.555000", "092038.555000", "092040.555000", "092042.555000", "092044.555000", "092046.555000", "092048.555000", "092050.555000", "092052.555000", "092054.555000", "092056.555000", "092058.555000", "092100.555000", "092102.555000", "092104.555000", "092106.555000", "092108.555000", "092110.555000", "092112.555000", "092114.555000", "092116.555000", "092118.555000", "092120.555000", "092122.555000", "092124.555000", "092126.555000", "092128.555000", "092130.555000", "092132.555000", "092134.555000", "092136.555000", "092138.555000", "092140.555000", "092142.555000", "092144.555000", "092146.555000", "092148.555000", "092150.555000", "092152.555000", "092154.555000", "092156.555000", "092158.555000", "092200.555000", "092202.555000", "092204.555000", "092206.555000", "092208.555000", "092210.555000", "092212.555000", "092214.555000", "092216.555000", "092218.555000"],
      "ContentTime": ["091638.223000", "091638.227000", "091638.239000", "091638.241000", "091638.244000", "091638.247000", "091638.249000", "091638.252000", "091638.255000", "091638.257000", "091638.260000", "091638.262000", "091638.265000", "091638.267000", "091638.270000", "091638.273000", "091638.275000", "091638.278000", "091638.280000", "091638.283000", "091638.286000", "091638.288000", "091638.291000", "091638.299000", "091638.301000", "091638.304000", "091638.306000", "091638.309000", "091638.311000", "091718.217000", "091718.220000", "091718.223000", "091718.225000", "091718.228000", "091718.231000", "091718.233000", "091718.236000", "091718.238000", "091718.241000", "091718.243000", "091718.255000", "091718.257000", "091718.260000", "091718.262000", "091718.265000", "091718.267000", "091718.270000", "091718.272000", "091718.275000", "091758.218000", "091758.221000", "091758.224000", "091758.227000", "091758.229000", "091758.232000", "091758.235000", "091758.237000", "091758.240000", "091758.242000", "091758.245000", "091758.247000", "091758.250000", "091758.252000", "091758.255000", "091758.258000", "091758.260000", "091758.263000", "091758.272000", "091758.274000", "091838.219000", "091838.221000", "091838.224000", "091838.227000", "091838.229000", "091838.232000", "091838.234000", "091838.237000", "091838.239000", "091838.242000", "091838.245000", "091838.247000", "091838.250000", "091838.252000", "091838.255000", "091838.257000", "091838.260000", "091838.262000", "091838.265000", "091838.268000", "091918.217000", "091918.220000", "091918.223000", "091918.225000", "091918.228000", "091918.231000", "091918.233000", "091918.236000", "091918.238000", "091918.241000", "091918.243000", "091918.246000", "091918.248000", "091918.251000", "091918.254000", "091918.256000", "091918.259000", "091918.261000", "091918.264000", "091918.267000", "091958.219000", "091958.222000", "091958.225000", "091958.228000", "091958.230000", "091958.233000", "091958.235000", "091958.238000", "091958.240000", "091958.243000", "091958.246000", "091958.248000", "091958.251000", "091958.253000", "091958.256000", "091958.258000", "091958.261000", "091958.264000", "091958.266000", "091958.269000", "092038.219000", "092038.221000", "092038.224000", "092038.227000", "092038.229000", "092038.232000", "092038.234000", "092038.237000", "092038.240000", "092038.242000", "092038.245000", "092038.248000", "092038.250000", "092038.253000", "092038.255000", "092038.258000", "092038.260000", "092038.263000", "092038.266000", "092038.268000", "092118.218000", "092118.221000", "092118.224000", "092118.227000", "092118.230000", "092118.232000", "092118.235000", "092118.237000", "092118.240000", "092118.243000", "092118.245000", "092118.248000", "092118.250000", "092118.253000", "092118.255000", "092118.258000", "092118.260000", "092118.263000", "092118.266000", "092118.268000", "092158.218000", "092158.220000", "092158.223000", "092158.226000", "092158.228000", "092158.231000", "092158.233000", "092158.236000", "092158.239000", "092158.241000", "092158.244000", "092158.246000", "092158.249000", "092158.251000", "092158.254000", "092158.256000", "092158.259000", "092158.262000", "092158.264000", "092158.267000", "092219.654000", "092219.662000", "092219.664000", "092219.667000", "092219.670000", "092219.672000", "092219.675000", "092219.677000", "092219.680000", "092219.683000", "092219.686000"],
      "InstanceCreationTime": ["091638.223000", "091638.227000", "091638.239000", "091638.241000", "091638.244000", "091638.247000", "091638.249000", "091638.252000", "091638.255000", "091638.257000", "091638.260000", "091638.262000", "091638.265000", "091638.267000", "091638.270000", "091638.273000", "091638.275000", "091638.278000", "091638.280000", "091638.283000", "091638.286000", "091638.288000", "091638.291000", "091638.299000", "091638.301000", "091638.304000", "091638.306000", "091638.309000", "091638.311000", "091718.217000", "091718.220000", "091718.223000", "091718.225000", "091718.228000", "091718.231000", "091718.233000", "091718.236000", "091718.238000", "091718.241000", "091718.243000", "091718.255000", "091718.257000", "091718.260000", "091718.262000", "091718.265000", "091718.267000", "091718.270000", "091718.272000", "091718.275000", "091758.218000", "091758.221000", "091758.224000", "091758.227000", "091758.229000", "091758.232000", "091758.235000", "091758.237000", "091758.240000", "091758.242000", "091758.245000", "091758.247000", "091758.250000", "091758.252000", "091758.255000", "091758.258000", "091758.260000", "091758.263000", "091758.272000", "091758.274000", "091838.219000", "091838.221000", "091838.224000", "091838.227000", "091838.229000", "091838.232000", "091838.234000", "091838.237000", "091838.239000", "091838.242000", "091838.245000", "091838.247000", "091838.250000", "091838.252000", "091838.255000", "091838.257000", "091838.260000", "091838.262000", "091838.265000", "091838.268000", "091918.217000", "091918.220000", "091918.223000", "091918.225000", "091918.228000", "091918.231000", "091918.233000", "091918.236000", "091918.238000", "091918.241000", "091918.243000", "091918.246000", "091918.248000", "091918.251000", "091918.254000", "091918.256000", "091918.259000", "091918.261000", "091918.264000", "091918.267000", "091958.219000", "091958.222000", "091958.225000", "091958.228000", "091958.230000", "091958.233000", "091958.235000", "091958.238000", "091958.240000", "091958.243000", "091958.246000", "091958.248000", "091958.251000", "091958.253000", "091958.256000", "091958.258000", "091958.261000", "091958.264000", "091958.266000", "091958.269000", "092038.219000", "092038.221000", "092038.224000", "092038.227000", "092038.229000", "092038.232000", "092038.234000", "092038.237000", "092038.240000", "092038.242000", "092038.245000", "092038.248000", "092038.250000", "092038.253000", "092038.255000", "092038.258000", "092038.260000", "092038.263000", "092038.266000", "092038.268000", "092118.218000", "092118.221000", "092118.224000", "092118.227000", "092118.230000", "092118.232000", "092118.235000", "092118.237000", "092118.240000", "092118.243000", "092118.245000", "092118.248000", "092118.250000", "092118.253000", "092118.255000", "092118.258000", "092118.260000", "092118.263000", "092118.266000", "092118.268000", "092158.218000", "092158.220000", "092158.223000", "092158.226000", "092158.228000", "092158.231000", "092158.233000", "092158.236000", "092158.239000", "092158.241000", "092158.244000", "092158.246000", "092158.249000", "092158.251000", "092158.254000", "092158.256000", "092158.259000", "092158.262000", "092158.264000", "092158.267000", "092219.654000", "092219.662000", "092219.664000", "092219.667000", "092219.670000", "092219.672000", "092219.675000", "092219.677000", "092219.680000", "092219.683000", "092219.686000"],
      "InstanceNumber": [1, 2, 3, 4, 5, 6, 7, 8, 9, 10, 11, 12, 13, 14, 15, 16, 17, 18, 19, 20, 21, 22, 23, 24, 25, 26, 27, 28, 29, 30, 31, 32, 33, 34, 35, 36, 37, 38, 39, 40, 41, 42, 43, 44, 45, 46, 47, 48, 49, 50, 51, 52, 53, 54, 55, 56, 57, 58, 59, 60, 61, 62, 63, 64, 65, 66, 67, 68, 69, 70, 71, 72, 73, 74, 75, 76, 77, 78, 79, 80, 81, 82, 83, 84, 85, 86, 87, 88, 89, 90, 91, 92, 93, 94, 95, 96, 97, 98, 99, 100, 101, 102, 103, 104, 105, 106, 107, 108, 109, 110, 111, 112, 113, 114, 115, 116, 117, 118, 119, 120, 121, 122, 123, 124, 125, 126, 127, 128, 129, 130, 131, 132, 133, 134, 135, 136, 137, 138, 139, 140, 141, 142, 143, 144, 145, 146, 147, 148, 149, 150, 151, 152, 153, 154, 155, 156, 157, 158, 159, 160, 161, 162, 163, 164, 165, 166, 167, 168, 169, 170, 171, 172, 173, 174, 175, 176, 177, 178, 179, 180, 181, 182, 183, 184, 185, 186, 187, 188, 189, 190, 191, 192, 193, 194, 195, 196, 197, 198, 199, 200],
      "LargestImagePixelValue": [3657, 3662, 3655, 3657, 3658, 3656, 3659, 3651, 3660, 3656, 3654, 3649, 3652, 3656, 3653, 3651, 3654, 3651, 3654, 3656, 3651, 3653, 3658, 3651, 3656, 3652, 3654, 3660, 3654, 3657, 3651, 3650, 3654, 3650, 3650, 3651, 3650, 3650, 3651, 3653, 3653, 3653, 3653, 3650, 3648, 3646, 3650, 3653, 3651, 3648, 3650, 3646, 3650, 3650, 3655, 3649, 3645, 3651, 3647, 3652, 3648, 3647, 3649, 3649, 3648, 3649, 3649, 3653, 3651, 3651, 3651, 3647, 3649, 3650, 3647, 3652, 3649, 3646, 3649, 3648, 3648, 3651, 3648, 3649, 3650, 3648, 3652, 3653, 3653, 3647, 3649, 3648, 3648, 3650, 3646, 3648, 3649, 3642, 3650, 3652, 3651, 3653, 3648, 3651, 3650, 3650, 3651, 3647, 3648, 3643, 3646, 3648, 3649, 3651, 3646, 3651, 3647, 3648, 3649, 3649, 3649, 3645, 3646, 3647, 3646, 3648, 3644, 3650, 3645, 3650, 3656, 3652, 3649, 3643, 3650, 3646, 3647, 3648, 3647, 3648, 3648, 3646, 3650, 3645, 3646, 3646, 3646, 3643, 3647, 3644, 3648, 3643, 3647, 3646, 3648, 3643, 3644, 3643, 3649, 3646, 3642, 3645, 3642, 3646, 3646, 3646, 3643, 3642, 3647, 3646, 3644, 3644, 3644, 3644, 3644, 3646, 3646, 3642, 3647, 3647, 3643, 3641, 3641, 3643, 3646, 3642, 3645, 3642, 3644, 3643, 3643, 3641, 3641, 3647, 3646, 3645, 3642, 3639, 3645, 3644],
      "WindowCenter": [1363.0, 1364.0, 1363.0, 1364.0, 1363.0, 1364.0, 1363.0, 1364.0, 1364.0, 1364.0, 1363.0, 1363.0, 1362.0, 1362.0, 1362.0, 1362.0, 1362.0, 1362.0, 1362.0, 1363.0, 1362.0, 1362.0, 1363.0, 1363.0, 1362.0, 1362.0, 1362.0, 1362.0, 1362.0, 1362.0, 1362.0, 1362.0, 1362.0, 1362.0, 1362.0, 1361.0, 1361.0, 1361.0, 1361.0, 1362.0, 1361.0, 1362.0, 1361.0, 1362.0, 1361.0, 1361.0, 1362.0, 1361.0, 1362.0, 1361.0, 1361.0, 1361.0, 1361.0, 1360.0, 1361.0, 1361.0, 1361.0, 1361.0, 1360.0, 1361.0, 1360.0, 1360.0, 1360.0, 1361.0, 1360.0, 1360.0, 1360.0, 1360.0, 1360.0, 1360.0, 1360.0, 1361.0, 1360.0, 1360.0, 1361.0, 1360.0, 1360.0, 1360.0, 1360.0, 1360.0, 1361.0, 1361.0, 1360.0, 1360.0, 1360.0, 1359.0, 1360.0, 1360.0, 1360.0, 1360.0, 1359.0, 1360.0, 1360.0, 1360.0, 1359.0, 1359.0, 1359.0, 1359.0, 1360.0, 1360.0, 1360.0, 1360.0, 1359.0, 1360.0, 1359.0, 1359.0, 1359.0, 1359.0, 1359.0, 1360.0, 1359.0, 1359.0, 1359.0, 1359.0, 1359.0, 1359.0, 1359.0, 1359.0, 1359.0, 1359.0, 1359.0, 1359.0, 1359.0, 1359.0, 1359.0, 1359.0, 1359.0, 1359.0, 1359.0, 1359.0, 1360.0, 1359.0, 1359.0, 1358.0, 1358.0, 1358.0, 1358.0, 1359.0, 1358.0, 1358.0, 1358.0, 1359.0, 1358.0, 1358.0, 1358.0, 1359.0, 1358.0, 1358.0, 1358.0, 1358.0, 1358.0, 1358.0, 1359.0, 1358.0, 1358.0, 1358.0, 1358.0, 1358.0, 1358.0, 1358.0, 1358.0, 1358.0, 1358.0, 1358.0, 1357.0, 1357.0, 1358.0, 1357.0, 1357.0, 1358.0, 1358.0, 1357.0, 1358.0, 1358.0, 1358.0, 1358.0, 1358.0, 1358.0, 1358.0, 1358.0, 1358.0, 1357.0, 1357.0, 1357.0, 1357.0, 1357.0, 1357.0, 1357.0, 1357.0, 1357.0, 1357.0, 1357.0, 1357.0, 1357.0, 1358.0, 1357.0, 1357.0, 1357.0, 1357.0, 1357.0],
      "WindowWidth": [3264.0, 3263.0, 3264.0, 3264.0, 3264.0, 3263.0, 3263.0, 3263.0, 3263.0, 3263.0, 3263.0, 3262.0, 3262.0, 3262.0, 3262.0, 3262.0, 3262.0, 3262.0, 3262.0, 3263.0, 3261.0, 3261.0, 3262.0, 3262.0, 3262.0, 3262.0, 3261.0, 3261.0, 3261.0, 3261.0, 3261.0, 3261.0, 3261.0, 3261.0, 3261.0, 3261.0, 3261.0, 3260.0, 3260.0, 3261.0, 3260.0, 3260.0, 3261.0, 3260.0, 3260.0, 3260.0, 3260.0, 3260.0, 3261.0, 3260.0, 3260.0, 3260.0, 3260.0, 3260.0, 3260.0, 3260.0, 3259.0, 3260.0, 3259.0, 3260.0, 3259.0, 3259.0, 3259.0, 3259.0, 3259.0, 3259.0, 3259.0, 3259.0, 3259.0, 3259.0, 3259.0, 3258.0, 3259.0, 3259.0, 3258.0, 3259.0, 3259.0, 3259.0, 3259.0, 3259.0, 3259.0, 3259.0, 3259.0, 3259.0, 3259.0, 3259.0, 3258.0, 3259.0, 3259.0, 3258.0, 3258.0, 3258.0, 3258.0, 3258.0, 3258.0, 3258.0, 3258.0, 3258.0, 3258.0, 3258.0, 3260.0, 3259.0, 3258.0, 3258.0, 3258.0, 3258.0, 3258.0, 3258.0, 3258.0, 3258.0, 3258.0, 3258.0, 3258.0, 3258.0, 3258.0, 3258.0, 3258.0, 3258.0, 3258.0, 3258.0, 3258.0, 3257.0, 3258.0, 3257.0, 3257.0, 3258.0, 3257.0, 3257.0, 3257.0, 3258.0, 3259.0, 3258.0, 3257.0, 3257.0, 3257.0, 3257.0, 3257.0, 3257.0, 3257.0, 3257.0, 3257.0, 3256.0, 3256.0, 3257.0, 3256.0, 3256.0, 3257.0, 3256.0, 3256.0, 3256.0, 3256.0, 3256.0, 3256.0, 3256.0, 3256.0, 3256.0, 3256.0, 3256.0, 3256.0, 3256.0, 3256.0, 3256.0, 3256.0, 3256.0, 3256.0, 3256.0, 3255.0, 3256.0, 3256.0, 3256.0, 3255.0, 3256.0, 3255.0, 3255.0, 3255.0, 3255.0, 3255.0, 3255.0, 3255.0, 3256.0, 3256.0, 3256.0, 3255.0, 3255.0, 3255.0, 3255.0, 3255.0, 3255.0, 3255.0, 3255.0, 3255.0, 3255.0, 3255.0, 3255.0, 3255.0, 3255.0, 3255.0, 3255.0, 3255.0, 3255.0]
    },
    "slices": {}
  }
}