{
  "AcquisitionMatrixPE": 80,
  "AcquisitionNumber": 1,
  "AcquisitionTime": "09:22:26.507500",
  "BandwidthPerPixelPhaseEncode": 25,
  "BaseResolution": 80,
  "BodyPartExamined": "BRAIN",
  "CoilCombinationMethod": "Sum of Squares",
  "ConsistencyInfo": "N4_VE11C_LATEST_20160120",
  "ConversionSoftware": "dcm2niix",
  "ConversionSoftwareVersion": "v1.0.20220720",
  "DerivedVendorReportedEchoSpacing": 0.0005,
  "DeviceSerialNumber": "66112",
  "DwellTime": 2.7e-06,
  "EchoTime": 0.03,
  "EchoTrainLength": 80,
  "EffectiveEchoSpacing": 0.0005,
  "FlipAngle": 10,
  "HeudiconvVersion": "0.13.1",
  "ImageOrientationPatientDICOM": [0.987309, 0.158622, 0.00780087, -0.153196, 0.938286, 0.31008],
  "ImageOrientationText": "Tra>Cor(17.9)>Sag(-2.4)",
  "ImageType": [
    "ORIGINAL",
    "PRIMARY",
    "M",
    "ND",
    "NORM",
    "MOSAIC"
],
  "ImagingFrequency": 123.252,
  "InPlanePhaseEncodingDirectionDICOM": "COL",
  "InstitutionAddress": "Maynard 3,Hanover,NH,US,03755",
  "InstitutionName": "Dartmouth College - PBS",
  "InstitutionalDepartmentName": "Department",
  "MRAcquisitionType": "2D",
  "MagneticFieldStrength": 3,
  "Manufacturer": "Siemens",
  "ManufacturersModelName": "Prisma",
  "MatrixCoilMode": "SENSE",
  "Modality": "MR",
  "NonlinearGradientCorrection": false,
  "PartialFourier": 1,
  "PatientPosition": "HFS",
  "PercentPhaseFOV": 100,
  "PercentSampling": 100,
  "PhaseEncodingDirection": "j-",
  "PhaseEncodingSteps": 80,
  "PhaseResolution": 1,
  "PixelBandwidth": 2315,
  "ProcedureStepDescription": "dbic^QA",
  "ProtocolName": "func-bold_fa-10",
  "PulseSequenceDetails": "%SiemensSeq%\\ep2d_bold",
  "ReceiveCoilActiveElements": "HC1-7;NC1,2",
  "ReceiveCoilName": "HeadNeck_64",
  "ReconMatrixPE": 80,
  "RepetitionTime": 2,
  "SAR": 0.00762391,
  "ScanOptions": "FS",
  "ScanningSequence": "EP",
  "SequenceName": "*epfid2d1_80",
  "SequenceVariant": "SK",
  "SeriesDescription": "func-bold_fa-10",
  "SeriesNumber": 9,
  "ShimSetting": [4140, -7693, -7504, 182, -61, -276, -54, 80],
  "SliceThickness": 3.5,
  "SliceTiming": [0.99, 0, 1.055, 0.065, 1.12, 0.1325, 1.1875, 0.1975, 1.2525, 0.2625, 1.32, 0.33, 1.385, 0.395, 1.45, 0.4625, 1.5175, 0.5275, 1.5825, 0.5925, 1.65, 0.66, 1.715, 0.725, 1.78, 0.7925, 1.8475, 0.8575, 1.9125, 0.9225],
  "SoftwareVersions": "syngo MR E11",
  "SpacingBetweenSlices": 3.99,
  "StationName": "AWP66112",
  "TotalReadoutTime": 0.0395,
  "TxRefAmp": 213.066,
  "dcmmeta_affine": [
    [-2.961925506591797, -0.4595891237258911, -0.16704639792442322, 140.52230834960938],
    [-0.4758671522140503, 2.8148584365844727, 1.2262873649597168, -96.87751770019531],
    [0.02340259589254856, -0.9302415251731873, 3.7932064533233643, -34.29680633544922],
    [0.0, 0.0, 0.0, 1.0]
],
  "dcmmeta_reorient_transform": [
    [0.0, -1.0, 0.0, 79.0],
    [1.0, 0.0, 0.0, 0.0],
    [0.0, 0.0, 1.0, 0.0],
    [0.0, 0.0, 0.0, 1.0]
],
  "dcmmeta_shape": [80, 80, 30, 200],
  "dcmmeta_slice_dim": 2,
  "dcmmeta_version": 0.6,
  "global": {
    "const": {
      "AccessionNumber": "qa64",
      "AcquisitionMatrix": [80, 0, 0, 80],
      "AngioFlag": "N",
      "BitsAllocated": 16,
      "BitsStored": 12,
      "BodyPartExamined": "BRAIN",
      "Columns": 480,
      "EchoNumbers": 1,
      "EchoTime": 30.0,
      "EchoTrainLength": 80,
      "FlipAngle": 10.0,
      "HighBit": 11,
      "ImageOrientationPatient": [0.98730850574739, 0.15862238485288, 0.00780086549372, -0.1531963785211, 0.93828617833757, 0.3100805010779],
      "ImagePositionPatient": [-604.68203992969, -783.64144645721, -298.51470539153],
      "ImageType": [
        "ORIGINAL",
        "PRIMARY",
        "M",
        "ND",
        "NORM",
        "MOSAIC"
],
      "ImagedNucleus": "1H",
      "ImagingFrequency": 123.252356,
      "InPlanePhaseEncodingDirection": "COL",
      "MRAcquisitionType": "2D",
      "MagneticFieldStrength": 3.0,
      "Manufacturer": "SIEMENS",
      "ManufacturerModelName": "Prisma",
      "Modality": "MR",
      "NumberOfAverages": 1.0,
      "NumberOfPhaseEncodingSteps": 80,
      "PercentPhaseFieldOfView": 100.0,
      "PercentSampling": 100.0,
      "PerformedProcedureStepStartTime": "090710.732000",
      "PhotometricInterpretation": "MONOCHROME2",
      "PixelBandwidth": 2315.0,
      "PixelRepresentation": 0,
      "PixelSpacing": [3.0, 3.0],
      "ProtocolName": "func-bold_fa-10",
      "RepetitionTime": 2000.0,
      "Rows": 480,
      "SAR": 0.0076239110541,
      "SamplesPerPixel": 1,
      "ScanOptions": "FS",
      "ScanningSequence": "EP",
      "SequenceName": "*epfid2d1_80",
      "SequenceVariant": "SK",
      "SeriesDescription": "func-bold_fa-10",
      "SeriesNumber": 9,
      "SeriesTime": "092318.291000",
      "SliceLocation": -68.26272701469,
      "SliceThickness": 3.5,
      "SmallestImagePixelValue": 0,
      "SoftwareVersions": "syngo MR E11",
      "SpacingBetweenSlices": 3.9900000244527,
      "SpecificCharacterSet": "ISO_IR 100",
      "StudyID": "15",
      "StudyTime": "090710.659000",
      "TransmitCoilName": "Body",
      "VariableFlipAngleFlag": "N",
      "WindowCenterWidthExplanation": "Algo1",
      "dBdt": 0.0},
    "slices": {}
  },
  "time": {
    "samples": {
      "AcquisitionNumber": [1, 2, 3, 4, 5, 6, 7, 8, 9, 10, 11, 12, 13, 14, 15, 16, 17, 18, 19, 20, 21, 22, 23, 24, 25, 26, 27, 28, 29, 30, 31, 32, 33, 34, 35, 36, 37, 38, 39, 40, 41, 42, 43, 44, 45, 46, 47, 48, 49, 50, 51, 52, 53, 54, 55, 56, 57, 58, 59, 60, 61, 62, 63, 64, 65, 66, 67, 68, 69, 70, 71, 72, 73, 74, 75, 76, 77, 78, 79, 80, 81, 82, 83, 84, 85, 86, 87, 88, 89, 90, 91, 92, 93, 94, 95, 96, 97, 98, 99, 100, 101, 102, 103, 104, 105, 106, 107, 108, 109, 110, 111, 112, 113, 114, 115, 116, 117, 118, 119, 120, 121, 122, 123, 124, 125, 126, 127, 128, 129, 130, 131, 132, 133, 134, 135, 136, 137, 138, 139, 140, 141, 142, 143, 144, 145, 146, 147, 148, 149, 150, 151, 152, 153, 154, 155, 156, 157, 158, 159, 160, 161, 162, 163, 164, 165, 166, 167, 168, 169, 170, 171, 172, 173, 174, 175, 176, 177, 178, 179, 180, 181, 182, 183, 184, 185, 186, 187, 188, 189, 190, 191, 192, 193, 194, 195, 196, 197, 198, 199, 200],
      "AcquisitionTime": ["092226.507500", "092228.507500", "092230.507500", "092232.507500", "092234.507500", "092236.507500", "092238.507500", "092240.507500", "092242.507500", "092244.507500", "092246.507500", "092248.507500", "092250.507500", "092252.507500", "092254.507500", "092256.507500", "092258.507500", "092300.507500", "092302.507500", "092304.507500", "092306.507500", "092308.507500", "092310.507500", "092312.507500", "092314.507500", "092316.507500", "092318.507500", "092320.507500", "092322.507500", "092324.507500", "092326.507500", "092328.507500", "092330.507500", "092332.507500", "092334.507500", "092336.507500", "092338.507500", "092340.507500", "092342.507500", "092344.507500", "092346.507500", "092348.507500", "092350.507500", "092352.507500", "092354.507500", "092356.507500", "092358.507500", "092400.507500", "092402.507500", "092404.507500", "092406.507500", "092408.507500", "092410.507500", "092412.507500", "092414.507500", "092416.507500", "092418.507500", "092420.507500", "092422.507500", "092424.507500", "092426.507500", "092428.507500", "092430.507500", "092432.507500", "092434.507500", "092436.507500", "092438.507500", "092440.507500", "092442.507500", "092444.507500", "092446.507500", "092448.507500", "092450.507500", "092452.507500", "092454.507500", "092456.507500", "092458.507500", "092500.507500", "092502.507500", "092504.507500", "092506.507500", "092508.507500", "092510.507500", "092512.507500", "092514.507500", "092516.507500", "092518.507500", "092520.507500", "092522.507500", "092524.507500", "092526.507500", "092528.507500", "092530.507500", "092532.507500", "092534.507500", "092536.507500", "092538.507500", "092540.507500", "092542.507500", "092544.507500", "092546.507500", "092548.507500", "092550.507500", "092552.507500", "092554.507500", "092556.507500", "092558.507500", "092600.507500", "092602.507500", "092604.507500", "092606.507500", "092608.507500", "092610.507500", "092612.507500", "092614.507500", "092616.507500", "092618.507500", "092620.507500", "092622.507500", "092624.507500", "092626.507500", "092628.507500", "092630.507500", "092632.507500", "092634.507500", "092636.507500", "092638.507500", "092640.507500", "092642.507500", "092644.507500", "092646.507500", "092648.507500", "092650.507500", "092652.507500", "092654.507500", "092656.507500", "092658.507500", "092700.507500", "092702.507500", "092704.507500", "092706.507500", "092708.507500", "092710.507500", "092712.507500", "092714.507500", "092716.507500", "092718.507500", "092720.507500", "092722.507500", "092724.507500", "092726.507500", "092728.507500", "092730.507500", "092732.507500", "092734.507500", "092736.507500", "092738.507500", "092740.507500", "092742.507500", "092744.507500", "092746.507500", "092748.507500", "092750.507500", "092752.507500", "092754.507500", "092756.507500", "092758.507500", "092800.507500", "092802.507500", "092804.507500", "092806.507500", "092808.507500", "092810.507500", "092812.507500", "092814.507500", "092816.507500", "092818.507500", "092820.507500", "092822.507500", "092824.507500", "092826.507500", "092828.507500", "092830.507500", "092832.507500", "092834.507500", "092836.507500", "092838.507500", "092840.507500", "092842.507500", "092844.507500", "092846.507500", "092848.507500", "092850.507500", "092852.507500", "092854.507500", "092856.507500", "092858.507500", "092900.507500", "092902.507500", "092904.507500"],
      "ContentTime": ["092318.294000", "092318.298000", "092318.301000", "092318.303000", "092318.310000", "092318.312000", "092318.315000", "092318.317000", "092318.320000", "092318.322000", "092318.325000", "092318.327000", "092318.330000", "092318.332000", "092318.335000", "092318.338000", "092318.340000", "092318.343000", "092318.345000", "092318.352000", "092318.354000", "092318.357000", "092318.360000", "092318.362000", "092318.365000", "092318.367000", "092358.289000", "092358.291000", "092358.294000", "092358.297000", "092358.299000", "092358.302000", "092358.304000", "092358.307000", "092358.309000", "092358.312000", "092358.315000", "092358.317000", "092358.320000", "092358.322000", "092358.325000", "092358.338000", "092358.340000", "092358.343000", "092358.346000", "092358.353000", "092438.289000", "092438.298000", "092438.301000", "092438.303000", "092438.306000", "092438.308000", "092438.311000", "092438.314000", "092438.316000", "092438.319000", "092438.321000", "092438.324000", "092438.326000", "092438.329000", "092438.332000", "092438.334000", "092438.337000", "092438.339000", "092438.342000", "092438.345000", "092518.290000", "092518.292000", "092518.295000", "092518.301000", "092518.303000", "092518.306000", "092518.308000", "092518.311000", "092518.313000", "092518.316000", "092518.318000", "092518.321000", "092518.324000", "092518.326000", "092518.329000", "092518.331000", "092518.334000", "092518.336000", "092518.339000", "092518.341000", "092558.289000", "092558.292000", "092558.295000", "092558.297000", "092558.300000", "092558.303000", "092558.305000", "092558.308000", "092558.311000", "092558.313000", "092558.316000", "092558.318000", "092558.321000", "092558.323000", "092558.326000", "092558.328000", "092558.331000", "092558.333000", "092558.336000", "092558.338000", "092638.289000", "092638.291000", "092638.294000", "092638.296000", "092638.299000", "092638.302000", "092638.304000", "092638.307000", "092638.309000", "092638.312000", "092638.314000", "092638.317000", "092638.320000", "092638.322000", "092638.325000", "092638.327000", "092638.330000", "092638.332000", "092638.335000", "092638.337000", "092718.289000", "092718.292000", "092718.295000", "092718.297000", "092718.300000", "092718.302000", "092718.305000", "092718.307000", "092718.310000", "092718.313000", "092718.315000", "092718.318000", "092718.325000", "092718.328000", "092718.330000", "092718.333000", "092718.335000", "092718.338000", "092718.340000", "092718.343000", "092758.290000", "092758.292000", "092758.295000", "092758.297000", "092758.300000", "092758.303000", "092758.305000", "092758.308000", "092758.310000", "092758.313000", "092758.315000", "092758.318000", "092758.321000", "092758.323000", "092758.326000", "092758.328000", "092758.331000", "092758.333000", "092758.336000", "092758.338000", "092838.289000", "092838.291000", "092838.294000", "092838.297000", "092838.299000", "092838.304000", "092838.306000", "092838.309000", "092838.312000", "092838.314000", "092838.317000", "092838.319000", "092838.322000", "092838.324000", "092838.327000", "092838.330000", "092838.332000", "092838.335000", "092838.342000", "092838.346000", "092906.224000", "092906.227000", "092906.230000", "092906.233000", "092906.235000", "092906.238000", "092906.240000", "092906.243000", "092906.246000", "092906.248000", "092906.251000", "092906.254000", "092906.262000", "092906.267000"],
      "InstanceCreationTime": ["092318.294000", "092318.298000", "092318.301000", "092318.303000", "092318.310000", "092318.312000", "092318.315000", "092318.317000", "092318.320000", "092318.322000", "092318.325000", "092318.327000", "092318.330000", "092318.332000", "092318.335000", "092318.338000", "092318.340000", "092318.343000", "092318.345000", "092318.352000", "092318.354000", "092318.357000", "092318.360000", "092318.362000", "092318.365000", "092318.367000", "092358.289000", "092358.291000", "092358.294000", "092358.297000", "092358.299000", "092358.302000", "092358.304000", "092358.307000", "092358.309000", "092358.312000", "092358.315000", "092358.317000", "092358.320000", "092358.322000", "092358.325000", "092358.338000", "092358.340000", "092358.343000", "092358.346000", "092358.353000", "092438.289000", "092438.298000", "092438.301000", "092438.303000", "092438.306000", "092438.308000", "092438.311000", "092438.314000", "092438.316000", "092438.319000", "092438.321000", "092438.324000", "092438.326000", "092438.329000", "092438.332000", "092438.334000", "092438.337000", "092438.339000", "092438.342000", "092438.345000", "092518.290000", "092518.292000", "092518.295000", "092518.301000", "092518.303000", "092518.306000", "092518.308000", "092518.311000", "092518.313000", "092518.316000", "092518.318000", "092518.321000", "092518.324000", "092518.326000", "092518.329000", "092518.331000", "092518.334000", "092518.336000", "092518.339000", "092518.341000", "092558.289000", "092558.292000", "092558.295000", "092558.297000", "092558.300000", "092558.303000", "092558.305000", "092558.308000", "092558.311000", "092558.313000", "092558.316000", "092558.318000", "092558.321000", "092558.323000", "092558.326000", "092558.328000", "092558.331000", "092558.333000", "092558.336000", "092558.338000", "092638.289000", "092638.291000", "092638.294000", "092638.296000", "092638.299000", "092638.302000", "092638.304000", "092638.307000", "092638.309000", "092638.312000", "092638.314000", "092638.317000", "092638.320000", "092638.322000", "092638.325000", "092638.327000", "092638.330000", "092638.332000", "092638.335000", "092638.337000", "092718.289000", "092718.292000", "092718.295000", "092718.297000", "092718.300000", "092718.302000", "092718.305000", "092718.307000", "092718.310000", "092718.313000", "092718.315000", "092718.318000", "092718.325000", "092718.328000", "092718.330000", "092718.333000", "092718.335000", "092718.338000", "092718.340000", "092718.343000", "092758.290000", "092758.292000", "092758.295000", "092758.297000", "092758.300000", "092758.303000", "092758.305000", "092758.308000", "092758.310000", "092758.313000", "092758.315000", "092758.318000", "092758.321000", "092758.323000", "092758.326000", "092758.328000", "092758.331000", "092758.333000", "092758.336000", "092758.338000", "092838.289000", "092838.291000", "092838.294000", "092838.297000", "092838.299000", "092838.304000", "092838.306000", "092838.309000", "092838.312000", "092838.314000", "092838.317000", "092838.319000", "092838.322000", "092838.324000", "092838.327000", "092838.330000", "092838.332000", "092838.335000", "092838.342000", "092838.346000", "092906.224000", "092906.227000", "092906.230000", "092906.233000", "092906.235000", "092906.238000", "092906.240000", "092906.243000", "092906.246000", "092906.248000", "092906.251000", "092906.254000", "092906.262000", "092906.267000"],
      "InstanceNumber": [1, 2, 3, 4, 5, 6, 7, 8, 9, 10, 11, 12, 13, 14, 15, 16, 17, 18, 19, 20, 21, 22, 23, 24, 25, 26, 27, 28, 29, 30, 31, 32, 33, 34, 35, 36, 37, 38, 39, 40, 41, 42, 43, 44, 45, 46, 47, 48, 49, 50, 51, 52, 53, 54, 55, 56, 57, 58, 59, 60, 61, 62, 63, 64, 65, 66, 67, 68, 69, 70, 71, 72, 73, 74, 75, 76, 77, 78, 79, 80, 81, 82, 83, 84, 85, 86, 87, 88, 89, 90, 91, 92, 93, 94, 95, 96, 97, 98, 99, 100, 101, 102, 103, 104, 105, 106, 107, 108, 109, 110, 111, 112, 113, 114, 115, 116, 117, 118, 119, 120, 121, 122, 123, 124, 125, 126, 127, 128, 129, 130, 131, 132, 133, 134, 135, 136, 137, 138, 139, 140, 141, 142, 143, 144, 145, 146, 147, 148, 149, 150, 151, 152, 153, 154, 155, 156, 157, 158, 159, 160, 161, 162, 163, 164, 165, 166, 167, 168, 169, 170, 171, 172, 173, 174, 175, 176, 177, 178, 179, 180, 181, 182, 183, 184, 185, 186, 187, 188, 189, 190, 191, 192, 193, 194, 195, 196, 197, 198, 199, 200],
      "LargestImagePixelValue": [604, 602, 601, 600, 601, 603, 602, 601, 603, 601, 603, 600, 602, 607, 601, 604, 601, 601, 601, 603, 601, 601, 602, 601, 607, 606, 605, 608, 603, 605, 602, 608, 606, 610, 606, 607, 605, 605, 605, 606, 606, 608, 606, 608, 606, 606, 605, 605, 604, 608, 605, 604, 600, 605, 609, 606, 606, 604, 603, 605, 606, 605, 600, 608, 600, 601, 600, 601, 602, 602, 603, 600, 600, 606, 604, 606, 605, 611, 604, 606, 604, 604, 600, 602, 606, 608, 606, 604, 605, 603, 601, 603, 599, 600, 601, 604, 600, 601, 602, 603, 598, 601, 601, 600, 600, 601, 598, 601, 605, 601, 600, 598, 600, 602, 603, 606, 601, 602, 602, 601, 598, 604, 600, 607, 600, 601, 600, 599, 605, 605, 605, 606, 605, 607, 605, 607, 602, 606, 604, 605, 605, 608, 608, 604, 604, 610, 606, 603, 606, 605, 605, 614, 604, 605, 605, 605, 605, 604, 609, 608, 606, 605, 603, 603, 605, 602, 606, 605, 603, 604, 602, 604, 605, 606, 606, 604, 604, 604, 607, 604, 604, 603, 604, 603, 604, 606, 607, 603, 597, 604, 600, 601, 600, 602, 598, 600, 600, 599, 601, 603],
      "WindowCenter": [442.0, 442.0, 442.0, 442.0, 442.0, 442.0, 442.0, 442.0, 442.0, 442.0, 442.0, 442.0, 442.0, 443.0, 442.0, 442.0, 442.0, 442.0, 442.0, 442.0, 442.0, 442.0, 442.0, 442.0, 444.0, 444.0, 444.0, 444.0, 444.0, 444.0, 442.0, 444.0, 444.0, 445.0, 444.0, 444.0, 444.0, 444.0, 444.0, 444.0, 444.0, 444.0, 444.0, 444.0, 444.0, 444.0, 444.0, 444.0, 444.0, 444.0, 444.0, 444.0, 442.0, 443.0, 444.0, 444.0, 444.0, 444.0, 444.0, 444.0, 444.0, 444.0, 441.0, 441.0, 441.0, 441.0, 442.0, 441.0, 441.0, 441.0, 441.0, 441.0, 441.0, 444.0, 444.0, 444.0, 444.0, 445.0, 444.0, 444.0, 443.0, 444.0, 441.0, 441.0, 444.0, 444.0, 444.0, 443.0, 441.0, 441.0, 441.0, 441.0, 441.0, 442.0, 441.0, 442.0, 441.0, 441.0, 441.0, 441.0, 441.0, 441.0, 441.0, 441.0, 441.0, 441.0, 441.0, 441.0, 441.0, 441.0, 441.0, 441.0, 441.0, 441.0, 441.0, 443.0, 442.0, 441.0, 441.0, 441.0, 441.0, 441.0, 441.0, 442.0, 441.0, 441.0, 441.0, 441.0, 443.0, 443.0, 443.0, 443.0, 443.0, 443.0, 443.0, 443.0, 443.0, 443.0, 443.0, 443.0, 443.0, 443.0, 443.0, 443.0, 443.0, 444.0, 443.0, 443.0, 443.0, 443.0, 443.0, 444.0, 443.0, 443.0, 443.0, 443.0, 443.0, 443.0, 443.0, 443.0, 443.0, 443.0, 443.0, 443.0, 443.0, 443.0, 443.0, 443.0, 443.0, 443.0, 443.0, 443.0, 443.0, 443.0, 443.0, 443.0, 443.0, 443.0, 443.0, 443.0, 443.0, 443.0, 443.0, 443.0, 443.0, 443.0, 443.0, 443.0, 441.0, 441.0, 440.0, 441.0, 440.0, 441.0, 440.0, 440.0, 440.0, 441.0, 440.0, 442.0],
      "WindowWidth": [921.0, 921.0, 921.0, 921.0, 921.0, 921.0, 921.0, 921.0, 921.0, 921.0, 921.0, 921.0, 921.0, 923.0, 921.0, 921.0, 921.0, 921.0, 921.0, 922.0, 921.0, 921.0, 921.0, 921.0, 926.0, 926.0, 926.0, 926.0, 926.0, 925.0, 921.0, 925.0, 926.0, 926.0, 926.0, 925.0, 926.0, 926.0, 926.0, 926.0, 926.0, 925.0, 926.0, 926.0, 926.0, 926.0, 926.0, 925.0, 925.0, 925.0, 926.0, 925.0, 922.0, 922.0, 925.0, 926.0, 925.0, 925.0, 926.0, 925.0, 925.0, 924.0, 920.0, 920.0, 920.0, 920.0, 921.0, 920.0, 920.0, 920.0, 920.0, 920.0, 920.0, 924.0, 925.0, 925.0, 925.0, 926.0, 925.0, 925.0, 924.0, 925.0, 920.0, 920.0, 924.0, 925.0, 925.0, 923.0, 920.0, 920.0, 920.0, 920.0, 920.0, 921.0, 920.0, 921.0, 920.0, 920.0, 920.0, 920.0, 920.0, 920.0, 920.0, 920.0, 920.0, 920.0, 920.0, 920.0, 920.0, 920.0, 920.0, 920.0, 920.0, 920.0, 920.0, 923.0, 921.0, 920.0, 920.0, 920.0, 920.0, 920.0, 920.0, 921.0, 920.0, 920.0, 920.0, 920.0, 924.0, 924.0, 924.0, 924.0, 924.0, 924.0, 924.0, 924.0, 924.0, 924.0, 924.0, 924.0, 924.0, 923.0, 924.0, 924.0, 924.0, 925.0, 923.0, 924.0, 923.0, 924.0, 924.0, 925.0, 923.0, 923.0, 923.0, 924.0, 923.0, 923.0, 923.0, 923.0, 923.0, 924.0, 924.0, 923.0, 923.0, 923.0, 923.0, 923.0, 923.0, 923.0, 923.0, 924.0, 923.0, 923.0, 923.0, 923.0, 923.0, 924.0, 923.0, 923.0, 923.0, 923.0, 924.0, 923.0, 923.0, 923.0, 923.0, 923.0, 919.0, 920.0, 919.0, 920.0, 919.0, 919.0, 918.0, 919.0, 919.0, 919.0, 918.0, 921.0]
    },
    "slices": {}
  }
}