{
  "AcquisitionMatrixPE": 80,
  "AcquisitionNumber": 1,
  "AcquisitionTime": "09:27:56.155000",
  "BandwidthPerPixelPhaseEncode": 44.643,
  "BaseResolution": 80,
  "BodyPartExamined": "BRAIN",
  "CoilCombinationMethod": "Sum of Squares",
  "ConsistencyInfo": "N4_VE11C_LATEST_20160120",
  "ConversionSoftware": "dcm2niix",
  "ConversionSoftwareVersion": "v1.0.20220720",
  "DerivedVendorReportedEchoSpacing": 0.000559998,
  "DeviceSerialNumber": "66112",
  "DwellTime": 2.7e-06,
  "EchoTime": 0.035,
  "EchoTrainLength": 39,
  "EffectiveEchoSpacing": 0.000279999,
  "FlipAngle": 90,
  "HeudiconvVersion": "0.13.1",
  "ImageOrientationPatientDICOM": [0.989656, 0.14288, 0.0129036, -0.139792, 0.940218, 0.310561],
  "ImageOrientationText": "Tra>Cor(18.0)>Sag(-1.8)",
  "ImageType": [
    "ORIGINAL",
    "PRIMARY",
    "M",
    "ND",
    "NORM",
    "MOSAIC"
],
  "ImagingFrequency": 123.252,
  "InPlanePhaseEncodingDirectionDICOM": "COL",
  "InstitutionAddress": "Maynard 3,Hanover,NH,US,03755",
  "InstitutionName": "Dartmouth College - PBS",
  "InstitutionalDepartmentName": "Department",
  "MRAcquisitionType": "2D",
  "MagneticFieldStrength": 3,
  "Manufacturer": "Siemens",
  "ManufacturersModelName": "Prisma",
  "Modality": "MR",
  "MultibandAccelerationFactor": 4,
  "NonlinearGradientCorrection": false,
  "ParallelReductionFactorInPlane": 2,
  "PartialFourier": 1,
  "PatientPosition": "HFS",
  "PercentPhaseFOV": 100,
  "PercentSampling": 100,
  "PhaseEncodingDirection": "j-",
  "PhaseEncodingSteps": 79,
  "PhaseResolution": 1,
  "PixelBandwidth": 2315,
  "ProcedureStepDescription": "dbic^QA",
  "ProtocolName": "func-bold_task-rest_acq-p2-s4-3.5mm",
  "PulseSequenceDetails": "%SiemensSeq%\\ep2d_bold",
  "ReceiveCoilActiveElements": "HEA;HEP",
  "ReceiveCoilName": "Head_32",
  "ReconMatrixPE": 80,
  "RefLinesPE": 24,
  "RepetitionTime": 2,
  "SAR": 0.0208134,
  "ScanOptions": "FS",
  "ScanningSequence": "EP",
  "SequenceName": "*epfid2d1_80",
  "SequenceVariant": "SK",
  "SeriesDescription": "func-bold_task-rest_acq-p2-s4-3.5mm",
  "SeriesNumber": 7,
  "ShimSetting": [4145, -7692, -7511, 322, -17, -145, -50, 59],
  "SliceThickness": 3.5,
  "SliceTiming": [1.485, 0, 0.99, 0.2475, 1.2375, 0.7425, 1.7325, 0.495, 1.485, 0, 0.99, 0.2475, 1.2375, 0.7425, 1.7325, 0.495, 1.485, 0, 0.99, 0.2475, 1.2375, 0.7425, 1.7325, 0.495, 1.485, 0, 0.99, 0.2475, 1.2375, 0.7425, 1.7325, 0.495],
  "SoftwareVersions": "syngo MR E11",
  "SpacingBetweenSlices": 3.99,
  "StationName": "AWP66112",
  "TaskName": "rest",
  "TotalReadoutTime": 0.0221199,
  "TxRefAmp": 229.479,
  "dcmmeta_affine": [
    [-2.9689676761627197, -0.419374942779541, -0.12864084541797638, 139.00550842285156],
    [-0.4286397695541382, 2.8206539154052734, 1.2335196733474731, -105.36532592773438],
    [0.038710761815309525, -0.9316843748092651, 3.792358160018921, -22.61092185974121],
    [0.0, 0.0, 0.0, 1.0]
],
  "dcmmeta_reorient_transform": [
    [0.0, -1.0, 0.0, 79.0],
    [1.0, 0.0, 0.0, 0.0],
    [0.0, 0.0, 1.0, 0.0],
    [0.0, 0.0, 0.0, 1.0]
],
  "dcmmeta_shape": [80, 80, 32, 200],
  "dcmmeta_slice_dim": 2,
  "dcmmeta_version": 0.6,
  "global": {
    "const": {
      "AccessionNumber": "qa",
      "AcquisitionMatrix": [80, 0, 0, 80],
      "AngioFlag": "N",
      "BitsAllocated": 16,
      "BitsStored": 12,
      "BodyPartExamined": "BRAIN",
      "Columns": 480,
      "EchoNumbers": 1,
      "EchoTime": 35.0,
      "EchoTrainLength": 39,
      "FlipAngle": 90.0,
      "HighBit": 11,
      "ImageOrientationPatient": [0.98965591238316, 0.14287992347, 0.01290358687568, -0.1397916488891, 0.94021799452621, 0.31056145554461],
      "ImagePositionPatient": [-615.79343878693, -767.32508885553, -290.29301245789],
      "ImageType": [
        "ORIGINAL",
        "PRIMARY",
        "M",
        "ND",
        "NORM",
        "MOSAIC"
],
      "ImagedNucleus": "1H",
      "ImagingFrequency": 123.252434,
      "InPlanePhaseEncodingDirection": "COL",
      "MRAcquisitionType": "2D",
      "MagneticFieldStrength": 3.0,
      "Manufacturer": "SIEMENS",
      "ManufacturerModelName": "Prisma",
      "Modality": "MR",
      "NumberOfAverages": 1.0,
      "NumberOfPhaseEncodingSteps": 79,
      "PercentPhaseFieldOfView": 100.0,
      "PercentSampling": 100.0,
      "PerformedProcedureStepStartTime": "091917.899000",
      "PhotometricInterpretation": "MONOCHROME2",
      "PixelBandwidth": 2315.0,
      "PixelRepresentation": 0,
      "PixelSpacing": [3.0, 3.0],
      "ProtocolName": "func-bold_task-rest_acq-p2-s4-3.5mm",
      "RepetitionTime": 2000.0,
      "Rows": 480,
      "SAR": 0.02081339761123,
      "SamplesPerPixel": 1,
      "ScanOptions": "FS",
      "ScanningSequence": "EP",
      "SequenceName": "*epfid2d1_80",
      "SequenceVariant": "SK",
      "SeriesDescription": "func-bold_task-rest_acq-p2-s4-3.5mm",
      "SeriesNumber": 7,
      "SeriesTime": "092840.990000",
      "SliceLocation": -58.546541693794,
      "SliceThickness": 3.5,
      "SmallestImagePixelValue": 0,
      "SoftwareVersions": "syngo MR E11",
      "SpacingBetweenSlices": 3.9900000694952,
      "SpecificCharacterSet": "ISO_IR 100",
      "StudyID": "74",
      "StudyTime": "091917.809000",
      "TransmitCoilName": "Body",
      "VariableFlipAngleFlag": "N",
      "WindowCenter": 914.0,
      "WindowCenterWidthExplanation": "Algo1",
      "dBdt": 0.0},
    "slices": {}
  },
  "time": {
    "samples": {
      "AcquisitionNumber": [1, 2, 3, 4, 5, 6, 7, 8, 9, 10, 11, 12, 13, 14, 15, 16, 17, 18, 19, 20, 21, 22, 23, 24, 25, 26, 27, 28, 29, 30, 31, 32, 33, 34, 35, 36, 37, 38, 39, 40, 41, 42, 43, 44, 45, 46, 47, 48, 49, 50, 51, 52, 53, 54, 55, 56, 57, 58, 59, 60, 61, 62, 63, 64, 65, 66, 67, 68, 69, 70, 71, 72, 73, 74, 75, 76, 77, 78, 79, 80, 81, 82, 83, 84, 85, 86, 87, 88, 89, 90, 91, 92, 93, 94, 95, 96, 97, 98, 99, 100, 101, 102, 103, 104, 105, 106, 107, 108, 109, 110, 111, 112, 113, 114, 115, 116, 117, 118, 119, 120, 121, 122, 123, 124, 125, 126, 127, 128, 129, 130, 131, 132, 133, 134, 135, 136, 137, 138, 139, 140, 141, 142, 143, 144, 145, 146, 147, 148, 149, 150, 151, 152, 153, 154, 155, 156, 157, 158, 159, 160, 161, 162, 163, 164, 165, 166, 167, 168, 169, 170, 171, 172, 173, 174, 175, 176, 177, 178, 179, 180, 181, 182, 183, 184, 185, 186, 187, 188, 189, 190, 191, 192, 193, 194, 195, 196, 197, 198, 199, 200],
      "AcquisitionTime": ["092756.155000", "092758.155000", "092800.155000", "092802.155000", "092804.155000", "092806.155000", "092808.155000", "092810.155000", "092812.155000", "092814.155000", "092816.155000", "092818.155000", "092820.155000", "092822.155000", "092824.155000", "092826.155000", "092828.155000", "092830.155000", "092832.155000", "092834.155000", "092836.155000", "092838.155000", "092840.155000", "092842.155000", "092844.155000", "092846.155000", "092848.155000", "092850.155000", "092852.155000", "092854.155000", "092856.155000", "092858.155000", "092900.155000", "092902.155000", "092904.155000", "092906.155000", "092908.155000", "092910.155000", "092912.155000", "092914.155000", "092916.155000", "092918.155000", "092920.155000", "092922.155000", "092924.155000", "092926.155000", "092928.155000", "092930.155000", "092932.155000", "092934.155000", "092936.155000", "092938.155000", "092940.155000", "092942.155000", "092944.155000", "092946.155000", "092948.155000", "092950.155000", "092952.155000", "092954.155000", "092956.155000", "092958.155000", "093000.155000", "093002.155000", "093004.155000", "093006.155000", "093008.155000", "093010.155000", "093012.155000", "093014.155000", "093016.155000", "093018.155000", "093020.155000", "093022.155000", "093024.155000", "093026.155000", "093028.155000", "093030.155000", "093032.155000", "093034.155000", "093036.155000", "093038.155000", "093040.155000", "093042.155000", "093044.155000", "093046.155000", "093048.155000", "093050.155000", "093052.155000", "093054.155000", "093056.155000", "093058.155000", "093100.155000", "093102.155000", "093104.155000", "093106.155000", "093108.155000", "093110.155000", "093112.155000", "093114.155000", "093116.155000", "093118.155000", "093120.155000", "093122.155000", "093124.155000", "093126.155000", "093128.155000", "093130.155000", "093132.155000", "093134.155000", "093136.155000", "093138.155000", "093140.155000", "093142.155000", "093144.155000", "093146.155000", "093148.155000", "093150.155000", "093152.155000", "093154.155000", "093156.155000", "093158.155000", "093200.155000", "093202.155000", "093204.155000", "093206.155000", "093208.155000", "093210.155000", "093212.155000", "093214.155000", "093216.155000", "093218.155000", "093220.155000", "093222.155000", "093224.155000", "093226.155000", "093228.155000", "093230.155000", "093232.155000", "093234.155000", "093236.155000", "093238.155000", "093240.155000", "093242.155000", "093244.155000", "093246.155000", "093248.155000", "093250.155000", "093252.155000", "093254.155000", "093256.155000", "093258.155000", "093300.155000", "093302.155000", "093304.155000", "093306.155000", "093308.155000", "093310.155000", "093312.155000", "093314.155000", "093316.155000", "093318.155000", "093320.155000", "093322.155000", "093324.155000", "093326.155000", "093328.155000", "093330.155000", "093332.155000", "093334.155000", "093336.155000", "093338.155000", "093340.155000", "093342.155000", "093344.155000", "093346.155000", "093348.155000", "093350.155000", "093352.155000", "093354.155000", "093356.155000", "093358.155000", "093400.155000", "093402.155000", "093404.155000", "093406.155000", "093408.155000", "093410.155000", "093412.155000", "093414.155000", "093416.155000", "093418.155000", "093420.155000", "093422.155000", "093424.155000", "093426.155000", "093428.155000", "093430.155000", "093432.155000", "093434.155000"],
      "ContentTime": ["092841.001000", "092841.005000", "092841.008000", "092841.010000", "092841.013000", "092841.015000", "092841.018000", "092841.021000", "092841.023000", "092841.026000", "092841.028000", "092841.031000", "092841.033000", "092841.036000", "092841.039000", "092841.046000", "092841.051000", "092841.054000", "092841.056000", "092841.059000", "092841.061000", "092841.064000", "092920.989000", "092920.991000", "092920.994000", "092920.997000", "092921.000000", "092921.003000", "092921.006000", "092921.008000", "092921.011000", "092921.013000", "092921.016000", "092921.018000", "092921.021000", "092921.023000", "092921.026000", "092921.029000", "092921.031000", "092921.034000", "092921.036000", "092921.045000", "093000.990000", "093000.992000", "093000.995000", "093000.998000", "093001.001000", "093001.004000", "093001.006000", "093001.009000", "093001.011000", "093001.014000", "093001.017000", "093001.019000", "093001.022000", "093001.024000", "093001.034000", "093001.036000", "093001.039000", "093001.041000", "093001.044000", "093001.047000", "093040.988000", "093040.991000", "093040.994000", "093040.996000", "093041.000000", "093041.002000", "093041.005000", "093041.007000", "093041.018000", "093041.021000", "093041.023000", "093041.026000", "093041.028000", "093041.031000", "093041.033000", "093041.036000", "093041.038000", "093041.041000", "093041.043000", "093041.046000", "093120.988000", "093120.991000", "093120.994000", "093120.997000", "093121.000000", "093121.003000", "093121.005000", "093121.008000", "093121.010000", "093121.013000", "093121.015000", "093121.018000", "093121.020000", "093121.023000", "093121.025000", "093121.028000", "093121.031000", "093121.033000", "093121.036000", "093121.038000", "093200.990000", "093200.992000", "093200.995000", "093200.998000", "093201.007000", "093201.009000", "093201.021000", "093201.023000", "093201.026000", "093201.028000", "093201.031000", "093201.034000", "093201.036000", "093201.039000", "093201.041000", "093201.044000", "093201.046000", "093201.049000", "093201.052000", "093201.054000", "093240.989000", "093240.992000", "093240.995000", "093240.997000", "093241.001000", "093241.004000", "093241.006000", "093241.009000", "093241.011000", "093241.014000", "093241.016000", "093241.019000", "093241.021000", "093241.024000", "093241.026000", "093241.029000", "093241.032000", "093241.034000", "093241.037000", "093241.039000", "093320.988000", "093320.991000", "093320.994000", "093320.997000", "093321.000000", "093321.003000", "093321.005000", "093321.008000", "093321.010000", "093321.013000", "093321.016000", "093321.018000", "093321.021000", "093321.023000", "093321.026000", "093321.028000", "093321.031000", "093321.033000", "093321.036000", "093321.039000", "093400.989000", "093400.991000", "093400.994000", "093400.997000", "093401.000000", "093401.003000", "093401.006000", "093401.008000", "093401.011000", "093401.013000", "093401.016000", "093401.019000", "093401.021000", "093401.024000", "093401.026000", "093401.029000", "093401.031000", "093401.034000", "093401.036000", "093401.039000", "093435.454000", "093435.457000", "093435.460000", "093435.463000", "093435.465000", "093435.468000", "093435.471000", "093435.473000", "093435.476000", "093435.479000", "093435.482000", "093435.488000", "093435.493000", "093435.497000", "093435.502000", "093435.508000", "093435.511000", "093435.513000"],
      "InstanceCreationTime": ["092841.001000", "092841.005000", "092841.008000", "092841.010000", "092841.013000", "092841.015000", "092841.018000", "092841.021000", "092841.023000", "092841.026000", "092841.028000", "092841.031000", "092841.033000", "092841.036000", "092841.039000", "092841.046000", "092841.051000", "092841.054000", "092841.056000", "092841.059000", "092841.061000", "092841.064000", "092920.989000", "092920.991000", "092920.994000", "092920.997000", "092921.000000", "092921.003000", "092921.006000", "092921.008000", "092921.011000", "092921.013000", "092921.016000", "092921.018000", "092921.021000", "092921.023000", "092921.026000", "092921.029000", "092921.031000", "092921.034000", "092921.036000", "092921.045000", "093000.990000", "093000.992000", "093000.995000", "093000.998000", "093001.001000", "093001.004000", "093001.006000", "093001.009000", "093001.011000", "093001.014000", "093001.017000", "093001.019000", "093001.022000", "093001.024000", "093001.034000", "093001.036000", "093001.039000", "093001.041000", "093001.044000", "093001.047000", "093040.988000", "093040.991000", "093040.994000", "093040.996000", "093041.000000", "093041.002000", "093041.005000", "093041.007000", "093041.018000", "093041.021000", "093041.023000", "093041.026000", "093041.028000", "093041.031000", "093041.033000", "093041.036000", "093041.038000", "093041.041000", "093041.043000", "093041.046000", "093120.988000", "093120.991000", "093120.994000", "093120.997000", "093121.000000", "093121.003000", "093121.005000", "093121.008000", "093121.010000", "093121.013000", "093121.015000", "093121.018000", "093121.020000", "093121.023000", "093121.025000", "093121.028000", "093121.031000", "093121.033000", "093121.036000", "093121.038000", "093200.990000", "093200.992000", "093200.995000", "093200.998000", "093201.007000", "093201.009000", "093201.021000", "093201.023000", "093201.026000", "093201.028000", "093201.031000", "093201.034000", "093201.036000", "093201.039000", "093201.041000", "093201.044000", "093201.046000", "093201.049000", "093201.052000", "093201.054000", "093240.989000", "093240.992000", "093240.995000", "093240.997000", "093241.001000", "093241.004000", "093241.006000", "093241.009000", "093241.011000", "093241.014000", "093241.016000", "093241.019000", "093241.021000", "093241.024000", "093241.026000", "093241.029000", "093241.032000", "093241.034000", "093241.037000", "093241.039000", "093320.988000", "093320.991000", "093320.994000", "093320.997000", "093321.000000", "093321.003000", "093321.005000", "093321.008000", "093321.010000", "093321.013000", "093321.016000", "093321.018000", "093321.021000", "093321.023000", "093321.026000", "093321.028000", "093321.031000", "093321.033000", "093321.036000", "093321.039000", "093400.989000", "093400.991000", "093400.994000", "093400.997000", "093401.000000", "093401.003000", "093401.006000", "093401.008000", "093401.011000", "093401.013000", "093401.016000", "093401.019000", "093401.021000", "093401.024000", "093401.026000", "093401.029000", "093401.031000", "093401.034000", "093401.036000", "093401.039000", "093435.454000", "093435.457000", "093435.460000", "093435.463000", "093435.465000", "093435.468000", "093435.471000", "093435.473000", "093435.476000", "093435.479000", "093435.482000", "093435.488000", "093435.493000", "093435.497000", "093435.502000", "093435.508000", "093435.511000", "093435.513000"],
      "InstanceNumber": [1, 2, 3, 4, 5, 6, 7, 8, 9, 10, 11, 12, 13, 14, 15, 16, 17, 18, 19, 20, 21, 22, 23, 24, 25, 26, 27, 28, 29, 30, 31, 32, 33, 34, 35, 36, 37, 38, 39, 40, 41, 42, 43, 44, 45, 46, 47, 48, 49, 50, 51, 52, 53, 54, 55, 56, 57, 58, 59, 60, 61, 62, 63, 64, 65, 66, 67, 68, 69, 70, 71, 72, 73, 74, 75, 76, 77, 78, 79, 80, 81, 82, 83, 84, 85, 86, 87, 88, 89, 90, 91, 92, 93, 94, 95, 96, 97, 98, 99, 100, 101, 102, 103, 104, 105, 106, 107, 108, 109, 110, 111, 112, 113, 114, 115, 116, 117, 118, 119, 120, 121, 122, 123, 124, 125, 126, 127, 128, 129, 130, 131, 132, 133, 134, 135, 136, 137, 138, 139, 140, 141, 142, 143, 144, 145, 146, 147, 148, 149, 150, 151, 152, 153, 154, 155, 156, 157, 158, 159, 160, 161, 162, 163, 164, 165, 166, 167, 168, 169, 170, 171, 172, 173, 174, 175, 176, 177, 178, 179, 180, 181, 182, 183, 184, 185, 186, 187, 188, 189, 190, 191, 192, 193, 194, 195, 196, 197, 198, 199, 200],
      "LargestImagePixelValue": [2015, 2010, 2010, 2015, 2012, 2009, 2013, 2005, 2011, 2008, 2006, 2014, 2013, 2008, 2013, 2015, 2013, 2011, 2014, 2017, 2013, 2007, 2009, 2014, 2013, 2014, 2006, 2012, 2011, 2017, 2008, 2007, 2010, 2014, 2012, 2010, 2009, 2007, 2016, 2018, 2017, 2013, 2013, 2012, 2013, 2012, 2015, 2016, 2015, 2011, 2011, 2017, 2012, 2012, 2015, 2011, 2014, 2015, 2017, 2012, 2010, 2018, 2014, 2014, 2010, 2014, 2012, 2015, 2013, 2018, 2018, 2014, 2011, 2011, 2016, 2016, 2005, 2011, 2016, 2020, 2015, 2016, 2011, 2017, 2016, 2015, 2013, 2013, 2012, 2013, 2013, 2012, 2014, 2018, 2017, 2013, 2013, 2015, 2019, 2013, 2014, 2011, 2013, 2015, 2014, 2009, 2017, 2016, 2014, 2015, 2020, 2014, 2016, 2018, 2013, 2012, 2017, 2017, 2019, 2017, 2014, 2016, 2015, 2012, 2016, 2015, 2015, 2020, 2013, 2011, 2016, 2016, 2010, 2013, 2018, 2017, 2013, 2014, 2010, 2017, 2010, 2014, 2014, 2014, 2016, 2015, 2018, 2019, 2011, 2014, 2017, 2017, 2016, 2019, 2014, 2015, 2017, 2018, 2016, 2016, 2011, 2009, 2013, 2020, 2016, 2018, 2014, 2015, 2013, 2015, 2015, 2017, 2010, 2017, 2011, 2016, 2019, 2017, 2016, 2017, 2018, 2015, 2017, 2020, 2015, 2012, 2016, 2017, 2014, 2010, 2016, 2011, 2015, 2016, 2017, 2016, 2017, 2022, 2017, 2014],
      "WindowWidth": [2069.0, 2069.0, 2069.0, 2069.0, 2069.0, 2069.0, 2069.0, 2069.0, 2069.0, 2069.0, 2069.0, 2069.0, 2069.0, 2069.0, 2070.0, 2069.0, 2069.0, 2070.0, 2070.0, 2070.0, 2070.0, 2070.0, 2069.0, 2070.0, 2070.0, 2070.0, 2070.0, 2070.0, 2070.0, 2069.0, 2069.0, 2070.0, 2069.0, 2069.0, 2069.0, 2070.0, 2070.0, 2069.0, 2069.0, 2069.0, 2069.0, 2070.0, 2070.0, 2070.0, 2069.0, 2070.0, 2070.0, 2070.0, 2070.0, 2070.0, 2070.0, 2070.0, 2070.0, 2070.0, 2070.0, 2070.0, 2070.0, 2070.0, 2070.0, 2069.0, 2070.0, 2070.0, 2069.0, 2070.0, 2070.0, 2069.0, 2070.0, 2070.0, 2069.0, 2070.0, 2070.0, 2070.0, 2070.0, 2070.0, 2070.0, 2070.0, 2070.0, 2070.0, 2070.0, 2070.0, 2070.0, 2069.0, 2069.0, 2070.0, 2070.0, 2069.0, 2070.0, 2070.0, 2070.0, 2070.0, 2070.0, 2070.0, 2070.0, 2070.0, 2070.0, 2070.0, 2070.0, 2070.0, 2070.0, 2070.0, 2070.0, 2070.0, 2070.0, 2070.0, 2070.0, 2070.0, 2070.0, 2070.0, 2070.0, 2070.0, 2070.0, 2070.0, 2070.0, 2070.0, 2070.0, 2070.0, 2070.0, 2070.0, 2070.0, 2070.0, 2070.0, 2070.0, 2069.0, 2070.0, 2070.0, 2070.0, 2070.0, 2070.0, 2070.0, 2070.0, 2070.0, 2070.0, 2069.0, 2070.0, 2069.0, 2070.0, 2070.0, 2070.0, 2070.0, 2070.0, 2070.0, 2070.0, 2070.0, 2070.0, 2070.0, 2070.0, 2070.0, 2070.0, 2070.0, 2069.0, 2070.0, 2070.0, 2070.0, 2069.0, 2069.0, 2069.0, 2069.0, 2070.0, 2070.0, 2070.0, 2070.0, 2070.0, 2070.0, 2070.0, 2070.0, 2070.0, 2070.0, 2070.0, 2070.0, 2070.0, 2070.0, 2070.0, 2070.0, 2070.0, 2070.0, 2069.0, 2069.0, 2069.0, 2069.0, 2069.0, 2069.0, 2070.0, 2069.0, 2069.0, 2070.0, 2069.0, 2070.0, 2069.0, 2069.0, 2069.0, 2070.0, 2069.0, 2070.0, 2070.0, 2069.0, 2070.0, 2069.0, 2069.0, 2070.0, 2069.0]
    },
    "slices": {}
  }
}