{
  "AcquisitionMatrixPE": 122,
  "AcquisitionNumber": 1,
  "AcquisitionTime": "09:25:12.480000",
  "BandwidthPerPixelPhaseEncode": 27.785,
  "BaseResolution": 122,
  "BodyPartExamined": "BRAIN",
  "CoilCombinationMethod": "Adaptive Combine",
  "ConsistencyInfo": "N4_VE11C_LATEST_20160120",
  "ConversionSoftware": "dcm2niix",
  "ConversionSoftwareVersion": "v1.0.20220720",
  "DerivedVendorReportedEchoSpacing": 0.000590011,
  "DeviceSerialNumber": "66112",
  "DiffusionScheme": "Monopolar",
  "DwellTime": 2e-06,
  "EchoTime": 0.068,
  "EchoTrainLength": 61,
  "EffectiveEchoSpacing": 0.000295005,
  "FlipAngle": 90,
  "HeudiconvVersion": "0.13.1",
  "ImageOrientationPatientDICOM": [0.986259, 0.164682, 0.0131559, -0.160623, 0.937222, 0.309541],
  "ImageOrientationText": "Tra>Cor(17.9)>Sag(-2.2)",
  "ImageType": [
    "ORIGINAL",
    "PRIMARY",
    "DIFFUSION",
    "NONE",
    "ND",
    "NORM"
],
  "ImagingFrequency": 123.252,
  "InPlanePhaseEncodingDirectionDICOM": "COL",
  "InstitutionAddress": "Maynard 3,Hanover,NH,US,03755",
  "InstitutionName": "Dartmouth College - PBS",
  "InstitutionalDepartmentName": "Department",
  "MRAcquisitionType": "2D",
  "MagneticFieldStrength": 3,
  "Manufacturer": "Siemens",
  "ManufacturersModelName": "Prisma",
  "Modality": "MR",
  "MultibandAccelerationFactor": 4,
  "NonlinearGradientCorrection": false,
  "ParallelReductionFactorInPlane": 2,
  "PartialFourier": 1,
  "PatientPosition": "HFS",
  "PercentPhaseFOV": 100,
  "PercentSampling": 100,
  "PhaseEncodingDirection": "j-",
  "PhaseEncodingSteps": 122,
  "PhaseResolution": 1,
  "PixelBandwidth": 2050,
  "ProcedureStepDescription": "dbic^QA",
  "ProtocolName": "dwi_acq-DTI-30-p2-s4",
  "PulseSequenceDetails": "%SiemensSeq%\\ep2d_diff",
  "ReceiveCoilActiveElements": "HEA;HEP",
  "ReceiveCoilName": "Head_32",
  "ReconMatrixPE": 122,
  "RefLinesPE": 38,
  "RepetitionTime": 3.6,
  "SAR": 0.161561,
  "ScanOptions": "FS",
  "ScanningSequence": "EP",
  "SequenceName": "*ep_b0",
  "SequenceVariant": "SK\\SP",
  "SeriesDescription": "dwi_acq-DTI-30-p2-s4",
  "SeriesNumber": 9,
  "ShimSetting": [4156, -7689, -7510, 298, 15, -138, -21, 114],
  "SliceThickness": 2,
  "SliceTiming": [2.57812, 0, 1.78125, 0.19531, 1.98438, 0.39062, 2.1875, 0.59375, 2.38281, 0.99219, 2.78125, 1.1875, 2.97656, 1.38281, 3.17969, 1.58594, 3.375, 0.78906, 2.57812, 0, 1.78125, 0.19531, 1.98438, 0.39062, 2.1875, 0.59375, 2.38281, 0.99219, 2.78125, 1.1875, 2.97656, 1.38281, 3.17969, 1.58594, 3.375, 0.78906, 2.57812, 0, 1.78125, 0.19531, 1.98438, 0.39062, 2.1875, 0.59375, 2.38281, 0.99219, 2.78125, 1.1875, 2.97656, 1.38281, 3.17969, 1.58594, 3.375, 0.78906, 2.57812, 0, 1.78125, 0.19531, 1.98438, 0.39062, 2.1875, 0.59375, 2.38281, 0.99219, 2.78125, 1.1875, 2.97656, 1.38281, 3.17969, 1.58594, 3.375, 0.78906],
  "SoftwareVersions": "syngo MR E11",
  "SpacingBetweenSlices": 2,
  "SpoilingState": true,
  "StationName": "AWP66112",
  "TotalReadoutTime": 0.0356956,
  "TxRefAmp": 227.176,
  "dcmmeta_affine": [
    [-1.9401817321777344, -0.3159787952899933, -0.07729142904281616, 142.63714599609375],
    [-0.3239637315273285, 1.8437148332595825, 0.6148014068603516, -107.41520690917969],
    [0.02588052488863468, -0.6089338660240173, 1.9015884399414062, -43.6696662902832],
    [0.0, 0.0, 0.0, 1.0]
],
  "dcmmeta_reorient_transform": [
    [0.0, -1.0, 0.0, 121.0],
    [1.0, 0.0, 0.0, 0.0],
    [0.0, 0.0, -1.0, 71.0],
    [0.0, 0.0, 0.0, 1.0]
],
  "dcmmeta_shape": [122, 122, 72, 31],
  "dcmmeta_slice_dim": 2,
  "dcmmeta_version": 0.6,
  "global": {
    "const": {
      "AccessionNumber": "qa",
      "AcquisitionMatrix": [122, 0, 0, 122],
      "AngioFlag": "N",
      "BitsAllocated": 16,
      "BitsStored": 12,
      "BodyPartExamined": "BRAIN",
      "Columns": 122,
      "EchoNumbers": 1,
      "EchoTime": 68.0,
      "EchoTrainLength": 61,
      "FlipAngle": 90.0,
      "HighBit": 11,
      "ImageOrientationPatient": [0.98625904553161, 0.1646815610052, 0.01315593295704, -0.1606225469876, 0.93722171061498, 0.30954137453841],
      "ImageType": [
        "ORIGINAL",
        "PRIMARY",
        "DIFFUSION",
        "NONE",
        "ND",
        "NORM"
],
      "ImagedNucleus": "1H",
      "ImagingFrequency": 123.252435,
      "InPlanePhaseEncodingDirection": "COL",
      "MRAcquisitionType": "2D",
      "MagneticFieldStrength": 3.0,
      "Manufacturer": "SIEMENS",
      "ManufacturerModelName": "Prisma",
      "Modality": "MR",
      "NumberOfAverages": 1.0,
      "NumberOfPhaseEncodingSteps": 122,
      "PercentPhaseFieldOfView": 100.0,
      "PercentSampling": 100.0,
      "PerformedProcedureStepStartTime": "090433.633000",
      "PhotometricInterpretation": "MONOCHROME2",
      "PixelBandwidth": 2050.0,
      "PixelRepresentation": 0,
      "PixelSpacing": [1.9672131538391, 1.9672131538391],
      "ProtocolName": "dwi_acq-DTI-30-p2-s4",
      "RepetitionTime": 3600.0,
      "Rows": 122,
      "SAR": 0.16156143648874,
      "SamplesPerPixel": 1,
      "ScanOptions": "FS",
      "ScanningSequence": "EP",
      "SequenceVariant": [
        "SK",
        "SP"
],
      "SeriesDescription": "dwi_acq-DTI-30-p2-s4",
      "SeriesNumber": 9,
      "SeriesTime": "092521.868000",
      "SliceThickness": 2.0,
      "SmallestImagePixelValue": 0,
      "SoftwareVersions": "syngo MR E11",
      "SpacingBetweenSlices": 2.0,
      "SpecificCharacterSet": "ISO_IR 100",
      "StudyID": "97",
      "StudyTime": "090433.547000",
      "TransmitCoilName": "Body",
      "VariableFlipAngleFlag": "N",
      "WindowCenterWidthExplanation": "Algo1",
      "dBdt": 0.0},
    "slices": {
      "AcquisitionTime": ["092512.480000", "092509.895000", "092511.682500", "092510.092500", "092511.882500", "092510.292500", "092512.082500", "092510.490000", "092512.280000", "092510.887500", "092512.677500", "092511.087500", "092512.877500", "092511.285000", "092513.075000", "092511.485000", "092513.275000", "092510.690000", "092512.480000", "092509.895000", "092511.682500", "092510.092500", "092511.882500", "092510.292500", "092512.082500", "092510.490000", "092512.280000", "092510.887500", "092512.677500", "092511.087500", "092512.877500", "092511.285000", "092513.075000", "092511.485000", "092513.275000", "092510.690000", "092512.480000", "092509.895000", "092511.682500", "092510.092500", "092511.882500", "092510.292500", "092512.082500", "092510.490000", "092512.280000", "092510.887500", "092512.677500", "092511.087500", "092512.877500", "092511.285000", "092513.075000", "092511.485000", "092513.275000", "092510.690000", "092512.480000", "092509.895000", "092511.682500", "092510.092500", "092511.882500", "092510.292500", "092512.082500", "092510.490000", "092512.280000", "092510.887500", "092512.677500", "092511.087500", "092512.877500", "092511.285000", "092513.075000", "092511.485000", "092513.275000", "092510.690000", "092516.080000", "092513.495000", "092515.282500", "092513.692500", "092515.482500", "092513.892500", "092515.682500", "092514.090000", "092515.880000", "092514.487500", "092516.277500", "092514.687500", "092516.477500", "092514.885000", "092516.675000", "092515.085000", "092516.875000", "092514.290000", "092516.080000", "092513.495000", "092515.282500", "092513.692500", "092515.482500", "092513.892500", "092515.682500", "092514.090000", "092515.880000", "092514.487500", "092516.277500", "092514.687500", "092516.477500", "092514.885000", "092516.675000", "092515.085000", "092516.875000", "092514.290000", "092516.080000", "092513.495000", "092515.282500", "092513.692500", "092515.482500", "092513.892500", "092515.682500", "092514.090000", "092515.880000", "092514.487500", "092516.277500", "092514.687500", "092516.477500", "092514.885000", "092516.675000", "092515.085000", "092516.875000", "092514.290000", "092516.080000", "092513.495000", "092515.282500", "092513.692500", "092515.482500", "092513.892500", "092515.682500", "092514.090000", "092515.880000", "092514.487500", "092516.277500", "092514.687500", "092516.477500", "092514.885000", "092516.675000", "092515.085000", "092516.875000", "092514.290000", "092519.680000", "092517.095000", "092518.882500", "092517.292500", "092519.082500", "092517.492500", "092519.282500", "092517.690000", "092519.480000", "092518.087500", "092519.877500", "092518.287500", "092520.077500", "092518.485000", "092520.275000", "092518.685000", "092520.475000", "092517.890000", "092519.680000", "092517.095000", "092518.882500", "092517.292500", "092519.082500", "092517.492500", "092519.282500", "092517.690000", "092519.480000", "092518.087500", "092519.877500", "092518.287500", "092520.077500", "092518.485000", "092520.275000", "092518.685000", "092520.475000", "092517.890000", "092519.680000", "092517.095000", "092518.882500", "092517.292500", "092519.082500", "092517.492500", "092519.282500", "092517.690000", "092519.480000", "092518.087500", "092519.877500", "092518.287500", "092520.077500", "092518.485000", "092520.275000", "092518.685000", "092520.475000", "092517.890000", "092519.680000", "092517.095000", "092518.882500", "092517.292500", "092519.082500", "092517.492500", "092519.282500", "092517.690000", "092519.480000", "092518.087500", "092519.877500", "092518.287500", "092520.077500", "092518.485000", "092520.275000", "092518.685000", "092520.475000", "092517.890000", "092523.280000", "092520.695000", "092522.482500", "092520.892500", "092522.682500", "092521.092500", "092522.882500", "092521.290000", "092523.080000", "092521.687500", "092523.477500", "092521.887500", "092523.677500", "092522.085000", "092523.875000", "092522.285000", "092524.075000", "092521.490000", "092523.280000", "092520.695000", "092522.482500", "092520.892500", "092522.682500", "092521.092500", "092522.882500", "092521.290000", "092523.080000", "092521.687500", "092523.477500", "092521.887500", "092523.677500", "092522.085000", "092523.875000", "092522.285000", "092524.075000", "092521.490000", "092523.280000", "092520.695000", "092522.482500", "092520.892500", "092522.682500", "092521.092500", "092522.882500", "092521.290000", "092523.080000", "092521.687500", "092523.477500", "092521.887500", "092523.677500", "092522.085000", "092523.875000", "092522.285000", "092524.075000", "092521.490000", "092523.280000", "092520.695000", "092522.482500", "092520.892500", "092522.682500", "092521.092500", "092522.882500", "092521.290000", "092523.080000", "092521.687500", "092523.477500", "092521.887500", "092523.677500", "092522.085000", "092523.875000", "092522.285000", "092524.075000", "092521.490000", "092526.880000", "092524.295000", "092526.082500", "092524.492500", "092526.282500", "092524.692500", "092526.482500", "092524.890000", "092526.680000", "092525.287500", "092527.077500", "092525.487500", "092527.277500", "092525.685000", "092527.475000", "092525.885000", "092527.675000", "092525.090000", "092526.880000", "092524.295000", "092526.082500", "092524.492500", "092526.282500", "092524.692500", "092526.482500", "092524.890000", "092526.680000", "092525.287500", "092527.077500", "092525.487500", "092527.277500", "092525.685000", "092527.475000", "092525.885000", "092527.675000", "092525.090000", "092526.880000", "092524.295000", "092526.082500", "092524.492500", "092526.282500", "092524.692500", "092526.482500", "092524.890000", "092526.680000", "092525.287500", "092527.077500", "092525.487500", "092527.277500", "092525.685000", "092527.475000", "092525.885000", "092527.675000", "092525.090000", "092526.880000", "092524.295000", "092526.082500", "092524.492500", "092526.282500", "092524.692500", "092526.482500", "092524.890000", "092526.680000", "092525.287500", "092527.077500", "092525.487500", "092527.277500", "092525.685000", "092527.475000", "092525.885000", "092527.675000", "092525.090000", "092530.480000", "092527.895000", "092529.682500", "092528.092500", "092529.882500", "092528.292500", "092530.082500", "092528.490000", "092530.280000", "092528.887500", "092530.677500", "092529.087500", "092530.877500", "092529.285000", "092531.075000", "092529.485000", "092531.275000", "092528.690000", "092530.480000", "092527.895000", "092529.682500", "092528.092500", "092529.882500", "092528.292500", "092530.082500", "092528.490000", "092530.280000", "092528.887500", "092530.677500", "092529.087500", "092530.877500", "092529.285000", "092531.075000", "092529.485000", "092531.275000", "092528.690000", "092530.480000", "092527.895000", "092529.682500", "092528.092500", "092529.882500", "092528.292500", "092530.082500", "092528.490000", "092530.280000", "092528.887500", "092530.677500", "092529.087500", "092530.877500", "092529.285000", "092531.075000", "092529.485000", "092531.275000", "092528.690000", "092530.480000", "092527.895000", "092529.682500", "092528.092500", "092529.882500", "092528.292500", "092530.082500", "092528.490000", "092530.280000", "092528.887500", "092530.677500", "092529.087500", "092530.877500", "092529.285000", "092531.075000", "092529.485000", "092531.275000", "092528.690000", "092534.080000", "092531.495000", "092533.282500", "092531.692500", "092533.482500", "092531.892500", "092533.682500", "092532.090000", "092533.880000", "092532.487500", "092534.277500", "092532.687500", "092534.477500", "092532.885000", "092534.675000", "092533.085000", "092534.875000", "092532.290000", "092534.080000", "092531.495000", "092533.282500", "092531.692500", "092533.482500", "092531.892500", "092533.682500", "092532.090000", "092533.880000", "092532.487500", "092534.277500", "092532.687500", "092534.477500", "092532.885000", "092534.675000", "092533.085000", "092534.875000", "092532.290000", "092534.080000", "092531.495000", "092533.282500", "092531.692500", "092533.482500", "092531.892500", "092533.682500", "092532.090000", "092533.880000", "092532.487500", "092534.277500", "092532.687500", "092534.477500", "092532.885000", "092534.675000", "092533.085000", "092534.875000", "092532.290000", "092534.080000", "092531.495000", "092533.282500", "092531.692500", "092533.482500", "092531.892500", "092533.682500", "092532.090000", "092533.880000", "092532.487500", "092534.277500", "092532.687500", "092534.477500", "092532.885000", "092534.675000", "092533.085000", "092534.875000", "092532.290000", "092537.680000", "092535.095000", "092536.882500", "092535.292500", "092537.082500", "092535.492500", "092537.282500", "092535.690000", "092537.480000", "092536.087500", "092537.877500", "092536.287500", "092538.077500", "092536.485000", "092538.275000", "092536.685000", "092538.475000", "092535.890000", "092537.680000", "092535.095000", "092536.882500", "092535.292500", "092537.082500", "092535.492500", "092537.282500", "092535.690000", "092537.480000", "092536.087500", "092537.877500", "092536.287500", "092538.077500", "092536.485000", "092538.275000", "092536.685000", "092538.475000", "092535.890000", "092537.680000", "092535.095000", "092536.882500", "092535.292500", "092537.082500", "092535.492500", "092537.282500", "092535.690000", "092537.480000", "092536.087500", "092537.877500", "092536.287500", "092538.077500", "092536.485000", "092538.275000", "092536.685000", "092538.475000", "092535.890000", "092537.680000", "092535.095000", "092536.882500", "092535.292500", "092537.082500", "092535.492500", "092537.282500", "092535.690000", "092537.480000", "092536.087500", "092537.877500", "092536.287500", "092538.077500", "092536.485000", "092538.275000", "092536.685000", "092538.475000", "092535.890000", "092541.280000", "092538.695000", "092540.482500", "092538.892500", "092540.682500", "092539.092500", "092540.882500", "092539.290000", "092541.080000", "092539.687500", "092541.477500", "092539.887500", "092541.677500", "092540.085000", "092541.875000", "092540.285000", "092542.075000", "092539.490000", "092541.280000", "092538.695000", "092540.482500", "092538.892500", "092540.682500", "092539.092500", "092540.882500", "092539.290000", "092541.080000", "092539.687500", "092541.477500", "092539.887500", "092541.677500", "092540.085000", "092541.875000", "092540.285000", "092542.075000", "092539.490000", "092541.280000", "092538.695000", "092540.482500", "092538.892500", "092540.682500", "092539.092500", "092540.882500", "092539.290000", "092541.080000", "092539.687500", "092541.477500", "092539.887500", "092541.677500", "092540.085000", "092541.875000", "092540.285000", "092542.075000", "092539.490000", "092541.280000", "092538.695000", "092540.482500", "092538.892500", "092540.682500", "092539.092500", "092540.882500", "092539.290000", "092541.080000", "092539.687500", "092541.477500", "092539.887500", "092541.677500", "092540.085000", "092541.875000", "092540.285000", "092542.075000", "092539.490000", "092544.880000", "092542.295000", "092544.082500", "092542.492500", "092544.282500", "092542.692500", "092544.482500", "092542.890000", "092544.680000", "092543.287500", "092545.077500", "092543.487500", "092545.277500", "092543.685000", "092545.475000", "092543.885000", "092545.675000", "092543.090000", "092544.880000", "092542.295000", "092544.082500", "092542.492500", "092544.282500", "092542.692500", "092544.482500", "092542.890000", "092544.680000", "092543.287500", "092545.077500", "092543.487500", "092545.277500", "092543.685000", "092545.475000", "092543.885000", "092545.675000", "092543.090000", "092544.880000", "092542.295000", "092544.082500", "092542.492500", "092544.282500", "092542.692500", "092544.482500", "092542.890000", "092544.680000", "092543.287500", "092545.077500", "092543.487500", "092545.277500", "092543.685000", "092545.475000", "092543.885000", "092545.675000", "092543.090000", "092544.880000", "092542.295000", "092544.082500", "092542.492500", "092544.282500", "092542.692500", "092544.482500", "092542.890000", "092544.680000", "092543.287500", "092545.077500", "092543.487500", "092545.277500", "092543.685000", "092545.475000", "092543.885000", "092545.675000", "092543.090000", "092548.480000", "092545.895000", "092547.682500", "092546.092500", "092547.882500", "092546.292500", "092548.082500", "092546.490000", "092548.280000", "092546.887500", "092548.677500", "092547.087500", "092548.877500", "092547.285000", "092549.075000", "092547.485000", "092549.275000", "092546.690000", "092548.480000", "092545.895000", "092547.682500", "092546.092500", "092547.882500", "092546.292500", "092548.082500", "092546.490000", "092548.280000", "092546.887500", "092548.677500", "092547.087500", "092548.877500", "092547.285000", "092549.075000", "092547.485000", "092549.275000", "092546.690000", "092548.480000", "092545.895000", "092547.682500", "092546.092500", "092547.882500", "092546.292500", "092548.082500", "092546.490000", "092548.280000", "092546.887500", "092548.677500", "092547.087500", "092548.877500", "092547.285000", "092549.075000", "092547.485000", "092549.275000", "092546.690000", "092548.480000", "092545.895000", "092547.682500", "092546.092500", "092547.882500", "092546.292500", "092548.082500", "092546.490000", "092548.280000", "092546.887500", "092548.677500", "092547.087500", "092548.877500", "092547.285000", "092549.075000", "092547.485000", "092549.275000", "092546.690000", "092552.080000", "092549.495000", "092551.282500", "092549.692500", "092551.482500", "092549.892500", "092551.682500", "092550.090000", "092551.880000", "092550.487500", "092552.277500", "092550.687500", "092552.477500", "092550.885000", "092552.675000", "092551.085000", "092552.875000", "092550.290000", "092552.080000", "092549.495000", "092551.282500", "092549.692500", "092551.482500", "092549.892500", "092551.682500", "092550.090000", "092551.880000", "092550.487500", "092552.277500", "092550.687500", "092552.477500", "092550.885000", "092552.675000", "092551.085000", "092552.875000", "092550.290000", "092552.080000", "092549.495000", "092551.282500", "092549.692500", "092551.482500", "092549.892500", "092551.682500", "092550.090000", "092551.880000", "092550.487500", "092552.277500", "092550.687500", "092552.477500", "092550.885000", "092552.675000", "092551.085000", "092552.875000", "092550.290000", "092552.080000", "092549.495000", "092551.282500", "092549.692500", "092551.482500", "092549.892500", "092551.682500", "092550.090000", "092551.880000", "092550.487500", "092552.277500", "092550.687500", "092552.477500", "092550.885000", "092552.675000", "092551.085000", "092552.875000", "092550.290000", "092555.680000", "092553.095000", "092554.882500", "092553.292500", "092555.082500", "092553.492500", "092555.282500", "092553.690000", "092555.480000", "092554.087500", "092555.877500", "092554.287500", "092556.077500", "092554.485000", "092556.275000", "092554.685000", "092556.475000", "092553.890000", "092555.680000", "092553.095000", "092554.882500", "092553.292500", "092555.082500", "092553.492500", "092555.282500", "092553.690000", "092555.480000", "092554.087500", "092555.877500", "092554.287500", "092556.077500", "092554.485000", "092556.275000", "092554.685000", "092556.475000", "092553.890000", "092555.680000", "092553.095000", "092554.882500", "092553.292500", "092555.082500", "092553.492500", "092555.282500", "092553.690000", "092555.480000", "092554.087500", "092555.877500", "092554.287500", "092556.077500", "092554.485000", "092556.275000", "092554.685000", "092556.475000", "092553.890000", "092555.680000", "092553.095000", "092554.882500", "092553.292500", "092555.082500", "092553.492500", "092555.282500", "092553.690000", "092555.480000", "092554.087500", "092555.877500", "092554.287500", "092556.077500", "092554.485000", "092556.275000", "092554.685000", "092556.475000", "092553.890000", "092559.280000", "092556.695000", "092558.482500", "092556.892500", "092558.682500", "092557.092500", "092558.882500", "092557.290000", "092559.080000", "092557.687500", "092559.477500", "092557.887500", "092559.677500", "092558.085000", "092559.875000", "092558.285000", "092600.075000", "092557.490000", "092559.280000", "092556.695000", "092558.482500", "092556.892500", "092558.682500", "092557.092500", "092558.882500", "092557.290000", "092559.080000", "092557.687500", "092559.477500", "092557.887500", "092559.677500", "092558.085000", "092559.875000", "092558.285000", "092600.075000", "092557.490000", "092559.280000", "092556.695000", "092558.482500", "092556.892500", "092558.682500", "092557.092500", "092558.882500", "092557.290000", "092559.080000", "092557.687500", "092559.477500", "092557.887500", "092559.677500", "092558.085000", "092559.875000", "092558.285000", "092600.075000", "092557.490000", "092559.280000", "092556.695000", "092558.482500", "092556.892500", "092558.682500", "092557.092500", "092558.882500", "092557.290000", "092559.080000", "092557.687500", "092559.477500", "092557.887500", "092559.677500", "092558.085000", "092559.875000", "092558.285000", "092600.075000", "092557.490000", "092602.880000", "092600.295000", "092602.082500", "092600.492500", "092602.282500", "092600.692500", "092602.482500", "092600.890000", "092602.680000", "092601.287500", "092603.077500", "092601.487500", "092603.277500", "092601.685000", "092603.475000", "092601.885000", "092603.675000", "092601.090000", "092602.880000", "092600.295000", "092602.082500", "092600.492500", "092602.282500", "092600.692500", "092602.482500", "092600.890000", "092602.680000", "092601.287500", "092603.077500", "092601.487500", "092603.277500", "092601.685000", "092603.475000", "092601.885000", "092603.675000", "092601.090000", "092602.880000", "092600.295000", "092602.082500", "092600.492500", "092602.282500", "092600.692500", "092602.482500", "092600.890000", "092602.680000", "092601.287500", "092603.077500", "092601.487500", "092603.277500", "092601.685000", "092603.475000", "092601.885000", "092603.675000", "092601.090000", "092602.880000", "092600.295000", "092602.082500", "092600.492500", "092602.282500", "092600.692500", "092602.482500", "092600.890000", "092602.680000", "092601.287500", "092603.077500", "092601.487500", "092603.277500", "092601.685000", "092603.475000", "092601.885000", "092603.675000", "092601.090000", "092606.480000", "092603.895000", "092605.682500", "092604.092500", "092605.882500", "092604.292500", "092606.082500", "092604.490000", "092606.280000", "092604.887500", "092606.677500", "092605.087500", "092606.877500", "092605.285000", "092607.075000", "092605.485000", "092607.275000", "092604.690000", "092606.480000", "092603.895000", "092605.682500", "092604.092500", "092605.882500", "092604.292500", "092606.082500", "092604.490000", "092606.280000", "092604.887500", "092606.677500", "092605.087500", "092606.877500", "092605.285000", "092607.075000", "092605.485000", "092607.275000", "092604.690000", "092606.480000", "092603.895000", "092605.682500", "092604.092500", "092605.882500", "092604.292500", "092606.082500", "092604.490000", "092606.280000", "092604.887500", "092606.677500", "092605.087500", "092606.877500", "092605.285000", "092607.075000", "092605.485000", "092607.275000", "092604.690000", "092606.480000", "092603.895000", "092605.682500", "092604.092500", "092605.882500", "092604.292500", "092606.082500", "092604.490000", "092606.280000", "092604.887500", "092606.677500", "092605.087500", "092606.877500", "092605.285000", "092607.075000", "092605.485000", "092607.275000", "092604.690000", "092610.080000", "092607.495000", "092609.282500", "092607.692500", "092609.482500", "092607.892500", "092609.682500", "092608.090000", "092609.880000", "092608.487500", "092610.277500", "092608.687500", "092610.477500", "092608.885000", "092610.675000", "092609.085000", "092610.875000", "092608.290000", "092610.080000", "092607.495000", "092609.282500", "092607.692500", "092609.482500", "092607.892500", "092609.682500", "092608.090000", "092609.880000", "092608.487500", "092610.277500", "092608.687500", "092610.477500", "092608.885000", "092610.675000", "092609.085000", "092610.875000", "092608.290000", "092610.080000", "092607.495000", "092609.282500", "092607.692500", "092609.482500", "092607.892500", "092609.682500", "092608.090000", "092609.880000", "092608.487500", "092610.277500", "092608.687500", "092610.477500", "092608.885000", "092610.675000", "092609.085000", "092610.875000", "092608.290000", "092610.080000", "092607.495000", "092609.282500", "092607.692500", "092609.482500", "092607.892500", "092609.682500", "092608.090000", "092609.880000", "092608.487500", "092610.277500", "092608.687500", "092610.477500", "092608.885000", "092610.675000", "092609.085000", "092610.875000", "092608.290000", "092613.680000", "092611.095000", "092612.882500", "092611.292500", "092613.082500", "092611.492500", "092613.282500", "092611.690000", "092613.480000", "092612.087500", "092613.877500", "092612.287500", "092614.077500", "092612.485000", "092614.275000", "092612.685000", "092614.475000", "092611.890000", "092613.680000", "092611.095000", "092612.882500", "092611.292500", "092613.082500", "092611.492500", "092613.282500", "092611.690000", "092613.480000", "092612.087500", "092613.877500", "092612.287500", "092614.077500", "092612.485000", "092614.275000", "092612.685000", "092614.475000", "092611.890000", "092613.680000", "092611.095000", "092612.882500", "092611.292500", "092613.082500", "092611.492500", "092613.282500", "092611.690000", "092613.480000", "092612.087500", "092613.877500", "092612.287500", "092614.077500", "092612.485000", "092614.275000", "092612.685000", "092614.475000", "092611.890000", "092613.680000", "092611.095000", "092612.882500", "092611.292500", "092613.082500", "092611.492500", "092613.282500", "092611.690000", "092613.480000", "092612.087500", "092613.877500", "092612.287500", "092614.077500", "092612.485000", "092614.275000", "092612.685000", "092614.475000", "092611.890000", "092617.280000", "092614.695000", "092616.482500", "092614.892500", "092616.682500", "092615.092500", "092616.882500", "092615.290000", "092617.080000", "092615.687500", "092617.477500", "092615.887500", "092617.677500", "092616.085000", "092617.875000", "092616.285000", "092618.075000", "092615.490000", "092617.280000", "092614.695000", "092616.482500", "092614.892500", "092616.682500", "092615.092500", "092616.882500", "092615.290000", "092617.080000", "092615.687500", "092617.477500", "092615.887500", "092617.677500", "092616.085000", "092617.875000", "092616.285000", "092618.075000", "092615.490000", "092617.280000", "092614.695000", "092616.482500", "092614.892500", "092616.682500", "092615.092500", "092616.882500", "092615.290000", "092617.080000", "092615.687500", "092617.477500", "092615.887500", "092617.677500", "092616.085000", "092617.875000", "092616.285000", "092618.075000", "092615.490000", "092617.280000", "092614.695000", "092616.482500", "092614.892500", "092616.682500", "092615.092500", "092616.882500", "092615.290000", "092617.080000", "092615.687500", "092617.477500", "092615.887500", "092617.677500", "092616.085000", "092617.875000", "092616.285000", "092618.075000", "092615.490000", "092620.880000", "092618.295000", "092620.082500", "092618.492500", "092620.282500", "092618.692500", "092620.482500", "092618.890000", "092620.680000", "092619.287500", "092621.077500", "092619.487500", "092621.277500", "092619.685000", "092621.475000", "092619.885000", "092621.675000", "092619.090000", "092620.880000", "092618.295000", "092620.082500", "092618.492500", "092620.282500", "092618.692500", "092620.482500", "092618.890000", "092620.680000", "092619.287500", "092621.077500", "092619.487500", "092621.277500", "092619.685000", "092621.475000", "092619.885000", "092621.675000", "092619.090000", "092620.880000", "092618.295000", "092620.082500", "092618.492500", "092620.282500", "092618.692500", "092620.482500", "092618.890000", "092620.680000", "092619.287500", "092621.077500", "092619.487500", "092621.277500", "092619.685000", "092621.475000", "092619.885000", "092621.675000", "092619.090000", "092620.880000", "092618.295000", "092620.082500", "092618.492500", "092620.282500", "092618.692500", "092620.482500", "092618.890000", "092620.680000", "092619.287500", "092621.077500", "092619.487500",