{
  "AcquisitionMatrixPE": 80,
  "AcquisitionNumber": 1,
  "AcquisitionTime": "09:00:15.465000",
  "BandwidthPerPixelPhaseEncode": 25,
  "BaseResolution": 80,
  "BodyPartExamined": "BRAIN",
  "CoilCombinationMethod": "Sum of Squares",
  "ConsistencyInfo": "N4_VE11E_LATEST_20181129",
  "ConversionSoftware": "dcm2niix",
  "ConversionSoftwareVersion": "v1.0.20220720",
  "DerivedVendorReportedEchoSpacing": 0.0005,
  "DeviceSerialNumber": "66112",
  "DwellTime": 2.7e-06,
  "EchoTime": 0.03,
  "EchoTrainLength": 80,
  "EffectiveEchoSpacing": 0.0005,
  "FlipAngle": 10,
  "HeudiconvVersion": "0.13.1",
  "ImageOrientationPatientDICOM": [0.999929, 0.0115844, 0.0027445, -0.011868, 0.951777, 0.30656],
  "ImageOrientationText": "Tra>Cor(17.9)>Sag(-0.1)",
  "ImageType": [
    "ORIGINAL",
    "PRIMARY",
    "M",
    "ND",
    "NORM",
    "MOSAIC"
],
  "ImagingFrequency": 123.261,
  "InPlanePhaseEncodingDirectionDICOM": "COL",
  "InstitutionAddress": "Maynard 3,Hanover,NH,US,03755",
  "InstitutionName": "Dartmouth College - PBS",
  "InstitutionalDepartmentName": "Department",
  "MRAcquisitionType": "2D",
  "MagneticFieldStrength": 3,
  "Manufacturer": "Siemens",
  "ManufacturersModelName": "Prisma",
  "MatrixCoilMode": "SENSE",
  "Modality": "MR",
  "NonlinearGradientCorrection": false,
  "PartialFourier": 1,
  "PatientPosition": "HFS",
  "PercentPhaseFOV": 100,
  "PercentSampling": 100,
  "PhaseEncodingDirection": "j-",
  "PhaseEncodingSteps": 80,
  "PhaseResolution": 1,
  "PixelBandwidth": 2315,
  "ProcedureStepDescription": "dbic^QA",
  "ProtocolName": "func-bold_fa-10",
  "PulseSequenceDetails": "%SiemensSeq%\\ep2d_bold",
  "ReceiveCoilActiveElements": "HC1-7;NC1,2",
  "ReceiveCoilName": "HeadNeck_64",
  "ReconMatrixPE": 80,
  "RepetitionTime": 2,
  "SAR": 0.00755933,
  "ScanOptions": "FS",
  "ScanningSequence": "EP",
  "SequenceName": "*epfid2d1_80",
  "SequenceVariant": "SK",
  "SeriesDescription": "func-bold_fa-10",
  "SeriesNumber": 7,
  "ShimSetting": [4241, -7738, -7492, -140, -174, -282, -74, 127],
  "SliceThickness": 3.5,
  "SliceTiming": [0.99, 0, 1.0575, 0.0675, 1.1225, 0.1325, 1.1875, 0.1975, 1.255, 0.265, 1.32, 0.33, 1.3875, 0.3975, 1.4525, 0.4625, 1.5175, 0.5275, 1.585, 0.595, 1.65, 0.66, 1.7175, 0.7275, 1.7825, 0.7925, 1.8475, 0.8575, 1.915, 0.925],
  "SoftwareVersions": "syngo MR E11",
  "SpacingBetweenSlices": 3.99,
  "StationName": "AWP66112",
  "TotalReadoutTime": 0.0395,
  "TxRefAmp": 207.318,
  "dcmmeta_affine": [
    [-2.9997873306274414, -0.035603877156972885, -0.0037472466938197613, 121.80693054199219],
    [-0.034753184765577316, 2.8553318977355957, 1.223218321800232, -126.1235122680664],
    [0.008233504369854927, -0.9196804761886597, 3.7978708744049072, -26.8067569732666],
    [0.0, 0.0, 0.0, 1.0]
],
  "dcmmeta_reorient_transform": [
    [0.0, -1.0, 0.0, 79.0],
    [1.0, 0.0, 0.0, 0.0],
    [0.0, 0.0, 1.0, 0.0],
    [0.0, 0.0, 0.0, 1.0]
],
  "dcmmeta_shape": [80, 80, 30, 200],
  "dcmmeta_slice_dim": 2,
  "dcmmeta_version": 0.6,
  "global": {
    "const": {
      "AccessionNumber": "qa64",
      "AcquisitionMatrix": [80, 0, 0, 80],
      "AngioFlag": "N",
      "BitsAllocated": 16,
      "BitsStored": 12,
      "BodyPartExamined": "BRAIN",
      "Columns": 480,
      "EchoNumbers": 1,
      "EchoTime": 30.0,
      "EchoTrainLength": 80,
      "FlipAngle": 10.0,
      "HighBit": 11,
      "ImageOrientationPatient": [0.99992913224845, 0.01158439434759, 0.00274450149791, -0.0118679593945, 0.95177729556273, 0.30656015917127],
      "ImagePositionPatient": [-711.83092600657, -677.46472177388, -285.04431112615],
      "ImageType": [
        "ORIGINAL",
        "PRIMARY",
        "M",
        "ND",
        "NORM",
        "MOSAIC"
],
      "ImagedNucleus": "1H",
      "ImagingFrequency": 123.261239,
      "InPlanePhaseEncodingDirection": "COL",
      "MRAcquisitionType": "2D",
      "MagneticFieldStrength": 3.0,
      "Manufacturer": "SIEMENS",
      "ManufacturerModelName": "Prisma",
      "Modality": "MR",
      "NumberOfAverages": 1.0,
      "NumberOfPhaseEncodingSteps": 80,
      "PercentPhaseFieldOfView": 100.0,
      "PercentSampling": 100.0,
      "PerformedProcedureStepStartTime": "083746.544000",
      "PhotometricInterpretation": "MONOCHROME2",
      "PixelBandwidth": 2315.0,
      "PixelRepresentation": 0,
      "PixelSpacing": [3.0, 3.0],
      "ProtocolName": "func-bold_fa-10",
      "RepetitionTime": 2000.0,
      "Rows": 480,
      "SAR": 0.00755932941131,
      "SamplesPerPixel": 1,
      "ScanOptions": "FS",
      "ScanningSequence": "EP",
      "SequenceName": "*epfid2d1_80",
      "SequenceVariant": "SK",
      "SeriesDescription": "func-bold_fa-10",
      "SeriesNumber": 7,
      "SeriesTime": "090100.842000",
      "SliceLocation": -64.29614783689,
      "SliceThickness": 3.5,
      "SmallestImagePixelValue": 0,
      "SoftwareVersions": "syngo MR E11",
      "SpacingBetweenSlices": 3.9899999350147,
      "SpecificCharacterSet": "ISO_IR 100",
      "StudyID": "27",
      "StudyTime": "083746.442000",
      "TransmitCoilName": "Body",
      "VariableFlipAngleFlag": "N",
      "WindowCenterWidthExplanation": "Algo1"
    },
    "slices": {}
  },
  "time": {
    "samples": {
      "AcquisitionNumber": [1, 2, 3, 4, 5, 6, 7, 8, 9, 10, 11, 12, 13, 14, 15, 16, 17, 18, 19, 20, 21, 22, 23, 24, 25, 26, 27, 28, 29, 30, 31, 32, 33, 34, 35, 36, 37, 38, 39, 40, 41, 42, 43, 44, 45, 46, 47, 48, 49, 50, 51, 52, 53, 54, 55, 56, 57, 58, 59, 60, 61, 62, 63, 64, 65, 66, 67, 68, 69, 70, 71, 72, 73, 74, 75, 76, 77, 78, 79, 80, 81, 82, 83, 84, 85, 86, 87, 88, 89, 90, 91, 92, 93, 94, 95, 96, 97, 98, 99, 100, 101, 102, 103, 104, 105, 106, 107, 108, 109, 110, 111, 112, 113, 114, 115, 116, 117, 118, 119, 120, 121, 122, 123, 124, 125, 126, 127, 128, 129, 130, 131, 132, 133, 134, 135, 136, 137, 138, 139, 140, 141, 142, 143, 144, 145, 146, 147, 148, 149, 150, 151, 152, 153, 154, 155, 156, 157, 158, 159, 160, 161, 162, 163, 164, 165, 166, 167, 168, 169, 170, 171, 172, 173, 174, 175, 176, 177, 178, 179, 180, 181, 182, 183, 184, 185, 186, 187, 188, 189, 190, 191, 192, 193, 194, 195, 196, 197, 198, 199, 200],
      "AcquisitionTime": ["090015.465000", "090017.465000", "090019.465000", "090021.465000", "090023.465000", "090025.465000", "090027.465000", "090029.465000", "090031.465000", "090033.465000", "090035.465000", "090037.465000", "090039.465000", "090041.465000", "090043.465000", "090045.465000", "090047.465000", "090049.465000", "090051.465000", "090053.465000", "090055.465000", "090057.465000", "090059.465000", "090101.465000", "090103.465000", "090105.465000", "090107.465000", "090109.465000", "090111.465000", "090113.465000", "090115.465000", "090117.465000", "090119.465000", "090121.465000", "090123.465000", "090125.465000", "090127.465000", "090129.465000", "090131.465000", "090133.465000", "090135.465000", "090137.465000", "090139.465000", "090141.465000", "090143.465000", "090145.465000", "090147.465000", "090149.465000", "090151.465000", "090153.465000", "090155.465000", "090157.465000", "090159.465000", "090201.465000", "090203.465000", "090205.465000", "090207.465000", "090209.465000", "090211.465000", "090213.465000", "090215.465000", "090217.465000", "090219.465000", "090221.465000", "090223.465000", "090225.465000", "090227.465000", "090229.465000", "090231.465000", "090233.465000", "090235.465000", "090237.465000", "090239.465000", "090241.465000", "090243.465000", "090245.465000", "090247.465000", "090249.465000", "090251.465000", "090253.465000", "090255.465000", "090257.465000", "090259.465000", "090301.465000", "090303.465000", "090305.465000", "090307.465000", "090309.465000", "090311.465000", "090313.465000", "090315.465000", "090317.465000", "090319.465000", "090321.465000", "090323.465000", "090325.465000", "090327.465000", "090329.465000", "090331.465000", "090333.465000", "090335.465000", "090337.465000", "090339.465000", "090341.465000", "090343.465000", "090345.465000", "090347.465000", "090349.465000", "090351.465000", "090353.465000", "090355.465000", "090357.465000", "090359.465000", "090401.465000", "090403.465000", "090405.465000", "090407.465000", "090409.465000", "090411.465000", "090413.465000", "090415.465000", "090417.465000", "090419.465000", "090421.465000", "090423.465000", "090425.465000", "090427.465000", "090429.465000", "090431.465000", "090433.465000", "090435.465000", "090437.465000", "090439.465000", "090441.465000", "090443.465000", "090445.465000", "090447.465000", "090449.465000", "090451.465000", "090453.465000", "090455.465000", "090457.465000", "090459.465000", "090501.465000", "090503.465000", "090505.465000", "090507.465000", "090509.465000", "090511.465000", "090513.465000", "090515.465000", "090517.465000", "090519.465000", "090521.465000", "090523.465000", "090525.465000", "090527.465000", "090529.465000", "090531.465000", "090533.465000", "090535.465000", "090537.465000", "090539.465000", "090541.465000", "090543.465000", "090545.465000", "090547.465000", "090549.465000", "090551.465000", "090553.465000", "090555.465000", "090557.465000", "090559.465000", "090601.465000", "090603.465000", "090605.465000", "090607.465000", "090609.465000", "090611.465000", "090613.465000", "090615.465000", "090617.465000", "090619.465000", "090621.465000", "090623.465000", "090625.465000", "090627.465000", "090629.465000", "090631.465000", "090633.465000", "090635.465000", "090637.465000", "090639.465000", "090641.465000", "090643.465000", "090645.465000", "090647.465000", "090649.465000", "090651.465000", "090653.465000"],
      "ContentTime": ["090100.845000", "090100.848000", "090100.851000", "090100.853000", "090100.855000", "090100.863000", "090100.865000", "090100.869000", "090100.872000", "090100.874000", "090100.876000", "090100.879000", "090100.881000", "090100.883000", "090100.886000", "090100.888000", "090100.890000", "090100.892000", "090100.895000", "090100.897000", "090100.899000", "090100.902000", "090100.904000", "090140.841000", "090140.844000", "090140.846000", "090140.849000", "090140.851000", "090140.853000", "090140.856000", "090140.858000", "090140.860000", "090140.863000", "090140.865000", "090140.867000", "090140.870000", "090140.872000", "090140.874000", "090140.877000", "090140.879000", "090140.881000", "090140.884000", "090140.886000", "090220.840000", "090220.843000", "090220.845000", "090220.848000", "090220.855000", "090220.857000", "090220.859000", "090220.862000", "090220.864000", "090220.866000", "090220.869000", "090220.871000", "090220.873000", "090220.876000", "090220.878000", "090220.880000", "090220.883000", "090220.885000", "090220.887000", "090220.890000", "090300.840000", "090300.843000", "090300.845000", "090300.848000", "090300.850000", "090300.852000", "090300.855000", "090300.857000", "090300.859000", "090300.861000", "090300.864000", "090300.866000", "090300.868000", "090300.871000", "090300.873000", "090300.875000", "090300.878000", "090300.880000", "090300.882000", "090300.885000", "090340.840000", "090340.843000", "090340.845000", "090340.848000", "090340.850000", "090340.852000", "090340.855000", "090340.857000", "090340.859000", "090340.862000", "090340.864000", "090340.866000", "090340.869000", "090340.871000", "090340.873000", "090340.876000", "090340.878000", "090340.880000", "090340.882000", "090340.885000", "090420.840000", "090420.843000", "090420.845000", "090420.848000", "090420.850000", "090420.852000", "090420.855000", "090420.857000", "090420.859000", "090420.861000", "090420.864000", "090420.866000", "090420.868000", "090420.871000", "090420.873000", "090420.875000", "090420.878000", "090420.880000", "090420.882000", "090420.885000", "090500.840000", "090500.843000", "090500.845000", "090500.847000", "090500.850000", "090500.852000", "090500.854000", "090500.857000", "090500.859000", "090500.861000", "090500.864000", "090500.866000", "090500.868000", "090500.871000", "090500.873000", "090500.884000", "090500.886000", "090500.889000", "090500.891000", "090500.894000", "090540.840000", "090540.843000", "090540.845000", "090540.848000", "090540.850000", "090540.852000", "090540.855000", "090540.857000", "090540.859000", "090540.862000", "090540.864000", "090540.866000", "090540.869000", "090540.871000", "090540.874000", "090540.876000", "090540.878000", "090540.881000", "090540.883000", "090540.885000", "090620.841000", "090620.843000", "090620.846000", "090620.848000", "090620.851000", "090620.853000", "090620.855000", "090620.858000", "090620.860000", "090620.862000", "090620.865000", "090620.867000", "090620.869000", "090620.872000", "090620.874000", "090620.877000", "090620.879000", "090620.881000", "090620.884000", "090620.886000", "090654.639000", "090654.641000", "090654.644000", "090654.646000", "090654.649000", "090654.651000", "090654.653000", "090654.656000", "090654.658000", "090654.660000", "090654.663000", "090654.665000", "090654.667000", "090654.673000", "090654.677000", "090654.680000", "090654.683000"],
      "InstanceCreationTime": ["090100.845000", "090100.848000", "090100.851000", "090100.853000", "090100.855000", "090100.863000", "090100.865000", "090100.869000", "090100.872000", "090100.874000", "090100.876000", "090100.879000", "090100.881000", "090100.883000", "090100.886000", "090100.888000", "090100.890000", "090100.892000", "090100.895000", "090100.897000", "090100.899000", "090100.902000", "090100.904000", "090140.841000", "090140.844000", "090140.846000", "090140.849000", "090140.851000", "090140.853000", "090140.856000", "090140.858000", "090140.860000", "090140.863000", "090140.865000", "090140.867000", "090140.870000", "090140.872000", "090140.874000", "090140.877000", "090140.879000", "090140.881000", "090140.884000", "090140.886000", "090220.840000", "090220.843000", "090220.845000", "090220.848000", "090220.855000", "090220.857000", "090220.859000", "090220.862000", "090220.864000", "090220.866000", "090220.869000", "090220.871000", "090220.873000", "090220.876000", "090220.878000", "090220.880000", "090220.883000", "090220.885000", "090220.887000", "090220.890000", "090300.840000", "090300.843000", "090300.845000", "090300.848000", "090300.850000", "090300.852000", "090300.855000", "090300.857000", "090300.859000", "090300.861000", "090300.864000", "090300.866000", "090300.868000", "090300.871000", "090300.873000", "090300.875000", "090300.878000", "090300.880000", "090300.882000", "090300.885000", "090340.840000", "090340.843000", "090340.845000", "090340.848000", "090340.850000", "090340.852000", "090340.855000", "090340.857000", "090340.859000", "090340.862000", "090340.864000", "090340.866000", "090340.869000", "090340.871000", "090340.873000", "090340.876000", "090340.878000", "090340.880000", "090340.882000", "090340.885000", "090420.840000", "090420.843000", "090420.845000", "090420.848000", "090420.850000", "090420.852000", "090420.855000", "090420.857000", "090420.859000", "090420.861000", "090420.864000", "090420.866000", "090420.868000", "090420.871000", "090420.873000", "090420.875000", "090420.878000", "090420.880000", "090420.882000", "090420.885000", "090500.840000", "090500.843000", "090500.845000", "090500.847000", "090500.850000", "090500.852000", "090500.854000", "090500.857000", "090500.859000", "090500.861000", "090500.864000", "090500.866000", "090500.868000", "090500.871000", "090500.873000", "090500.884000", "090500.886000", "090500.889000", "090500.891000", "090500.894000", "090540.840000", "090540.843000", "090540.845000", "090540.848000", "090540.850000", "090540.852000", "090540.855000", "090540.857000", "090540.859000", "090540.862000", "090540.864000", "090540.866000", "090540.869000", "090540.871000", "090540.874000", "090540.876000", "090540.878000", "090540.881000", "090540.883000", "090540.885000", "090620.841000", "090620.843000", "090620.846000", "090620.848000", "090620.851000", "090620.853000", "090620.855000", "090620.858000", "090620.860000", "090620.862000", "090620.865000", "090620.867000", "090620.869000", "090620.872000", "090620.874000", "090620.877000", "090620.879000", "090620.881000", "090620.884000", "090620.886000", "090654.639000", "090654.641000", "090654.644000", "090654.646000", "090654.649000", "090654.651000", "090654.653000", "090654.656000", "090654.658000", "090654.660000", "090654.663000", "090654.665000", "090654.667000", "090654.673000", "090654.677000", "090654.680000", "090654.683000"],
      "InstanceNumber": [1, 2, 3, 4, 5, 6, 7, 8, 9, 10, 11, 12, 13, 14, 15, 16, 17, 18, 19, 20, 21, 22, 23, 24, 25, 26, 27, 28, 29, 30, 31, 32, 33, 34, 35, 36, 37, 38, 39, 40, 41, 42, 43, 44, 45, 46, 47, 48, 49, 50, 51, 52, 53, 54, 55, 56, 57, 58, 59, 60, 61, 62, 63, 64, 65, 66, 67, 68, 69, 70, 71, 72, 73, 74, 75, 76, 77, 78, 79, 80, 81, 82, 83, 84, 85, 86, 87, 88, 89, 90, 91, 92, 93, 94, 95, 96, 97, 98, 99, 100, 101, 102, 103, 104, 105, 106, 107, 108, 109, 110, 111, 112, 113, 114, 115, 116, 117, 118, 119, 120, 121, 122, 123, 124, 125, 126, 127, 128, 129, 130, 131, 132, 133, 134, 135, 136, 137, 138, 139, 140, 141, 142, 143, 144, 145, 146, 147, 148, 149, 150, 151, 152, 153, 154, 155, 156, 157, 158, 159, 160, 161, 162, 163, 164, 165, 166, 167, 168, 169, 170, 171, 172, 173, 174, 175, 176, 177, 178, 179, 180, 181, 182, 183, 184, 185, 186, 187, 188, 189, 190, 191, 192, 193, 194, 195, 196, 197, 198, 199, 200],
      "LargestImagePixelValue": [671, 669, 668, 668, 667, 664, 667, 668, 669, 671, 667, 669, 664, 665, 663, 669, 668, 667, 664, 666, 670, 668, 664, 668, 666, 670, 666, 669, 671, 669, 669, 670, 671, 669, 669, 668, 670, 674, 664, 670, 669, 673, 672, 667, 669, 666, 666, 668, 671, 672, 669, 667, 667, 667, 668, 669, 670, 667, 668, 672, 667, 671, 672, 666, 670, 668, 668, 665, 672, 673, 670, 664, 669, 672, 668, 671, 671, 671, 672, 667, 668, 670, 670, 672, 671, 671, 669, 668, 668, 669, 672, 663, 668, 670, 668, 666, 668, 672, 671, 667, 665, 670, 672, 667, 666, 669, 665, 673, 684, 685, 685, 685, 682, 687, 685, 682, 687, 681, 687, 683, 686, 687, 687, 685, 684, 687, 686, 686, 685, 684, 686, 686, 684, 687, 688, 687, 681, 681, 685, 683, 684, 684, 683, 683, 687, 684, 687, 685, 683, 683, 684, 689, 684, 683, 687, 684, 686, 684, 688, 686, 682, 683, 687, 688, 683, 683, 686, 687, 682, 685, 687, 688, 679, 686, 685, 681, 688, 684, 682, 688, 683, 680, 688, 686, 687, 688, 684, 686, 686, 681, 682, 687, 686, 686, 685, 682, 685, 686, 684, 690],
      "WindowCenter": [464.0, 463.0, 463.0, 463.0, 463.0, 463.0, 463.0, 463.0, 463.0, 464.0, 463.0, 463.0, 463.0, 463.0, 463.0, 463.0, 463.0, 463.0, 463.0, 463.0, 464.0, 463.0, 463.0, 463.0, 463.0, 464.0, 463.0, 463.0, 464.0, 463.0, 463.0, 464.0, 464.0, 462.0, 463.0, 463.0, 464.0, 464.0, 463.0, 464.0, 463.0, 464.0, 464.0, 463.0, 463.0, 463.0, 463.0, 463.0, 464.0, 463.0, 463.0, 463.0, 463.0, 462.0, 463.0, 463.0, 464.0, 463.0, 463.0, 464.0, 463.0, 463.0, 464.0, 463.0, 464.0, 462.0, 463.0, 463.0, 464.0, 463.0, 464.0, 463.0, 463.0, 463.0, 462.0, 464.0, 464.0, 463.0, 463.0, 463.0, 463.0, 463.0, 463.0, 464.0, 464.0, 463.0, 462.0, 462.0, 463.0, 462.0, 463.0, 463.0, 463.0, 463.0, 462.0, 462.0, 463.0, 463.0, 463.0, 462.0, 462.0, 463.0, 463.0, 462.0, 462.0, 462.0, 462.0, 463.0, 464.0, 464.0, 464.0, 464.0, 464.0, 464.0, 464.0, 464.0, 464.0, 464.0, 464.0, 464.0, 464.0, 464.0, 464.0, 464.0, 464.0, 464.0, 464.0, 464.0, 464.0, 464.0, 464.0, 464.0, 464.0, 464.0, 464.0, 464.0, 464.0, 464.0, 464.0, 464.0, 464.0, 464.0, 464.0, 464.0, 464.0, 464.0, 464.0, 464.0, 464.0, 464.0, 464.0, 464.0, 464.0, 464.0, 464.0, 464.0, 464.0, 464.0, 464.0, 464.0, 464.0, 464.0, 464.0, 464.0, 464.0, 464.0, 464.0, 464.0, 464.0, 464.0, 464.0, 464.0, 464.0, 464.0, 464.0, 464.0, 464.0, 464.0, 463.0, 464.0, 464.0, 464.0, 464.0, 464.0, 464.0, 464.0, 464.0, 464.0, 464.0, 464.0, 464.0, 464.0, 464.0, 464.0, 464.0, 464.0, 464.0, 464.0, 464.0, 464.0],
      "WindowWidth": [963.0, 962.0, 963.0, 962.0, 962.0, 962.0, 963.0, 962.0, 962.0, 963.0, 962.0, 962.0, 962.0, 962.0, 962.0, 962.0, 962.0, 962.0, 962.0, 962.0, 963.0, 962.0, 962.0, 962.0, 962.0, 963.0, 962.0, 962.0, 963.0, 961.0, 962.0, 963.0, 963.0, 961.0, 962.0, 962.0, 963.0, 963.0, 962.0, 963.0, 961.0, 963.0, 963.0, 962.0, 961.0, 961.0, 962.0, 962.0, 963.0, 962.0, 961.0, 962.0, 961.0, 960.0, 961.0, 962.0, 963.0, 961.0, 961.0, 963.0, 961.0, 962.0, 963.0, 961.0, 963.0, 960.0, 961.0, 961.0, 963.0, 962.0, 963.0, 961.0, 961.0, 962.0, 960.0, 963.0, 963.0, 962.0, 962.0, 961.0, 961.0, 962.0, 962.0, 963.0, 963.0, 962.0, 960.0, 961.0, 961.0, 960.0, 962.0, 961.0, 961.0, 962.0, 960.0, 960.0, 961.0, 962.0, 962.0, 960.0, 960.0, 962.0, 961.0, 960.0, 961.0, 960.0, 960.0, 962.0, 964.0, 963.0, 963.0, 963.0, 964.0, 964.0, 963.0, 963.0, 964.0, 963.0, 963.0, 963.0, 964.0, 963.0, 963.0, 963.0, 964.0, 963.0, 963.0, 963.0, 964.0, 964.0, 963.0, 963.0, 964.0, 963.0, 963.0, 963.0, 963.0, 963.0, 963.0, 963.0, 964.0, 963.0, 963.0, 963.0, 963.0, 963.0, 963.0, 963.0, 963.0, 963.0, 963.0, 963.0, 963.0, 964.0, 963.0, 963.0, 963.0, 963.0, 963.0, 963.0, 963.0, 963.0, 963.0, 963.0, 963.0, 963.0, 963.0, 963.0, 963.0, 963.0, 963.0, 963.0, 963.0, 963.0, 963.0, 963.0, 963.0, 963.0, 962.0, 963.0, 963.0, 963.0, 963.0, 963.0, 963.0, 963.0, 963.0, 963.0, 963.0, 963.0, 963.0, 963.0, 963.0, 963.0, 963.0, 963.0, 963.0, 963.0, 963.0, 963.0]
    },
    "slices": {}
  }
}