{
  "AcquisitionMatrixPE": 80,
  "AcquisitionNumber": 1,
  "AcquisitionTime": "08:42:46.790000",
  "BandwidthPerPixelPhaseEncode": 48.077,
  "BaseResolution": 80,
  "BodyPartExamined": "BRAIN",
  "CoilCombinationMethod": "Sum of Squares",
  "ConsistencyInfo": "N4_VE11E_LATEST_20181129",
  "ConversionSoftware": "dcm2niix",
  "ConversionSoftwareVersion": "v1.0.20220720",
  "DerivedVendorReportedEchoSpacing": 0.000519999,
  "DeviceSerialNumber": "66112",
  "DwellTime": 2.7e-06,
  "EchoTime": 0.035,
  "EchoTrainLength": 39,
  "EffectiveEchoSpacing": 0.00026,
  "FlipAngle": 90,
  "HeudiconvVersion": "0.13.1",
  "ImageOrientationPatientDICOM": [0.999929, 0.0115844, 0.0027445, -0.011868, 0.951777, 0.30656],
  "ImageOrientationText": "Tra>Cor(17.9)>Sag(-0.1)",
  "ImageType": [
    "ORIGINAL",
    "PRIMARY",
    "M",
    "ND",
    "NORM",
    "MOSAIC"
],
  "ImagingFrequency": 123.261,
  "InPlanePhaseEncodingDirectionDICOM": "COL",
  "InstitutionAddress": "Maynard 3,Hanover,NH,US,03755",
  "InstitutionName": "Dartmouth College - PBS",
  "InstitutionalDepartmentName": "Department",
  "MRAcquisitionType": "2D",
  "MagneticFieldStrength": 3,
  "Manufacturer": "Siemens",
  "ManufacturersModelName": "Prisma",
  "MatrixCoilMode": "GRAPPA",
  "Modality": "MR",
  "NonlinearGradientCorrection": false,
  "ParallelReductionFactorInPlane": 2,
  "PartialFourier": 1,
  "PatientPosition": "HFS",
  "PercentPhaseFOV": 100,
  "PercentSampling": 100,
  "PhaseEncodingDirection": "j-",
  "PhaseEncodingSteps": 79,
  "PhaseResolution": 1,
  "PixelBandwidth": 2315,
  "ProcedureStepDescription": "dbic^QA",
  "ProtocolName": "func-bold_task-rest_acq-p2",
  "PulseSequenceDetails": "%SiemensSeq%\\ep2d_bold",
  "ReceiveCoilActiveElements": "HC1-7;NC1,2",
  "ReceiveCoilName": "HeadNeck_64",
  "ReconMatrixPE": 80,
  "RefLinesPE": 24,
  "RepetitionTime": 2,
  "SAR": 0.0358596,
  "ScanOptions": "FS",
  "ScanningSequence": "EP",
  "SequenceName": "*epfid2d1_80",
  "SequenceVariant": "SK",
  "SeriesDescription": "func-bold_task-rest_acq-p2",
  "SeriesNumber": 5,
  "ShimSetting": [4241, -7737, -7493, -147, -175, -278, -75, 127],
  "SliceThickness": 3.5,
  "SliceTiming": [0.99, 0, 1.055, 0.065, 1.1225, 0.1325, 1.1875, 0.1975, 1.255, 0.265, 1.32, 0.33, 1.385, 0.395, 1.4525, 0.4625, 1.5175, 0.5275, 1.585, 0.595, 1.65, 0.66, 1.715, 0.725, 1.7825, 0.7925, 1.8475, 0.8575, 1.915, 0.925],
  "SoftwareVersions": "syngo MR E11",
  "SpacingBetweenSlices": 3.99,
  "StationName": "AWP66112",
  "TaskName": "rest",
  "TotalReadoutTime": 0.02054,
  "TxRefAmp": 207.318,
  "dcmmeta_affine": [
    [-2.9997873306274414, -0.035603877156972885, -0.0037472466938197613, 123.75066375732422],
    [-0.034753184765577316, 2.8553318977355957, 1.223218321800232, -128.3215789794922],
    [0.008233504369854927, -0.9196804761886597, 3.7978708744049072, -27.4398250579834],
    [0.0, 0.0, 0.0, 1.0]
],
  "dcmmeta_reorient_transform": [
    [0.0, -1.0, 0.0, 79.0],
    [1.0, 0.0, 0.0, 0.0],
    [0.0, 0.0, 1.0, 0.0],
    [0.0, 0.0, 0.0, 1.0]
],
  "dcmmeta_shape": [80, 80, 30, 200],
  "dcmmeta_slice_dim": 2,
  "dcmmeta_version": 0.6,
  "global": {
    "const": {
      "AccessionNumber": "qa64",
      "AcquisitionMatrix": [80, 0, 0, 80],
      "AngioFlag": "N",
      "BitsAllocated": 16,
      "BitsStored": 12,
      "BodyPartExamined": "BRAIN",
      "Columns": 480,
      "EchoNumbers": 1,
      "EchoTime": 35.0,
      "EchoTrainLength": 39,
      "FlipAngle": 90.0,
      "HighBit": 11,
      "ImageOrientationPatient": [0.99992913224845, 0.01158439434759, 0.00274450149791, -0.0118679593945, 0.95177729556273, 0.30656015917127],
      "ImagePositionPatient": [-713.77466375185, -675.26665887716, -285.67737921086],
      "ImageType": [
        "ORIGINAL",
        "PRIMARY",
        "M",
        "ND",
        "NORM",
        "MOSAIC"
],
      "ImagedNucleus": "1H",
      "ImagingFrequency": 123.261243,
      "InPlanePhaseEncodingDirection": "COL",
      "LargestImagePixelValue": 4095,
      "MRAcquisitionType": "2D",
      "MagneticFieldStrength": 3.0,
      "Manufacturer": "SIEMENS",
      "ManufacturerModelName": "Prisma",
      "Modality": "MR",
      "NumberOfAverages": 1.0,
      "NumberOfPhaseEncodingSteps": 79,
      "PercentPhaseFieldOfView": 100.0,
      "PercentSampling": 100.0,
      "PerformedProcedureStepStartTime": "083746.544000",
      "PhotometricInterpretation": "MONOCHROME2",
      "PixelBandwidth": 2315.0,
      "PixelRepresentation": 0,
      "PixelSpacing": [3.0, 3.0],
      "ProtocolName": "func-bold_task-rest_acq-p2",
      "RepetitionTime": 2000.0,
      "Rows": 480,
      "SAR": 0.03585959727151,
      "SamplesPerPixel": 1,
      "ScanOptions": "FS",
      "ScanningSequence": "EP",
      "SequenceName": "*epfid2d1_80",
      "SequenceVariant": "SK",
      "SeriesDescription": "func-bold_task-rest_acq-p2",
      "SeriesNumber": 5,
      "SeriesTime": "084340.928000",
      "SliceLocation": -65.574419834458,
      "SliceThickness": 3.5,
      "SmallestImagePixelValue": 0,
      "SoftwareVersions": "syngo MR E11",
      "SpacingBetweenSlices": 3.9899999350176,
      "SpecificCharacterSet": "ISO_IR 100",
      "StudyID": "27",
      "StudyTime": "083746.442000",
      "TransmitCoilName": "Body",
      "VariableFlipAngleFlag": "N",
      "WindowCenterWidthExplanation": "Algo1"
    },
    "slices": {}
  },
  "time": {
    "samples": {
      "AcquisitionNumber": [1, 2, 3, 4, 5, 6, 7, 8, 9, 10, 11, 12, 13, 14, 15, 16, 17, 18, 19, 20, 21, 22, 23, 24, 25, 26, 27, 28, 29, 30, 31, 32, 33, 34, 35, 36, 37, 38, 39, 40, 41, 42, 43, 44, 45, 46, 47, 48, 49, 50, 51, 52, 53, 54, 55, 56, 57, 58, 59, 60, 61, 62, 63, 64, 65, 66, 67, 68, 69, 70, 71, 72, 73, 74, 75, 76, 77, 78, 79, 80, 81, 82, 83, 84, 85, 86, 87, 88, 89, 90, 91, 92, 93, 94, 95, 96, 97, 98, 99, 100, 101, 102, 103, 104, 105, 106, 107, 108, 109, 110, 111, 112, 113, 114, 115, 116, 117, 118, 119, 120, 121, 122, 123, 124, 125, 126, 127, 128, 129, 130, 131, 132, 133, 134, 135, 136, 137, 138, 139, 140, 141, 142, 143, 144, 145, 146, 147, 148, 149, 150, 151, 152, 153, 154, 155, 156, 157, 158, 159, 160, 161, 162, 163, 164, 165, 166, 167, 168, 169, 170, 171, 172, 173, 174, 175, 176, 177, 178, 179, 180, 181, 182, 183, 184, 185, 186, 187, 188, 189, 190, 191, 192, 193, 194, 195, 196, 197, 198, 199, 200],
      "AcquisitionTime": ["084246.790000", "084248.790000", "084250.790000", "084252.790000", "084254.790000", "084256.790000", "084258.790000", "084300.790000", "084302.790000", "084304.790000", "084306.790000", "084308.790000", "084310.790000", "084312.790000", "084314.790000", "084316.790000", "084318.790000", "084320.790000", "084322.790000", "084324.790000", "084326.790000", "084328.790000", "084330.790000", "084332.790000", "084334.790000", "084336.790000", "084338.790000", "084340.790000", "084342.790000", "084344.790000", "084346.790000", "084348.790000", "084350.790000", "084352.790000", "084354.790000", "084356.790000", "084358.790000", "084400.790000", "084402.790000", "084404.790000", "084406.790000", "084408.790000", "084410.790000", "084412.790000", "084414.790000", "084416.790000", "084418.790000", "084420.790000", "084422.790000", "084424.790000", "084426.790000", "084428.790000", "084430.790000", "084432.790000", "084434.790000", "084436.790000", "084438.790000", "084440.790000", "084442.790000", "084444.790000", "084446.790000", "084448.790000", "084450.790000", "084452.790000", "084454.790000", "084456.790000", "084458.790000", "084500.790000", "084502.790000", "084504.790000", "084506.790000", "084508.790000", "084510.790000", "084512.790000", "084514.790000", "084516.790000", "084518.790000", "084520.790000", "084522.790000", "084524.790000", "084526.790000", "084528.790000", "084530.790000", "084532.790000", "084534.790000", "084536.790000", "084538.790000", "084540.790000", "084542.790000", "084544.790000", "084546.790000", "084548.790000", "084550.790000", "084552.790000", "084554.790000", "084556.790000", "084558.790000", "084600.790000", "084602.790000", "084604.790000", "084606.790000", "084608.790000", "084610.790000", "084612.790000", "084614.790000", "084616.790000", "084618.790000", "084620.790000", "084622.790000", "084624.790000", "084626.790000", "084628.790000", "084630.790000", "084632.790000", "084634.790000", "084636.790000", "084638.790000", "084640.790000", "084642.790000", "084644.790000", "084646.790000", "084648.790000", "084650.790000", "084652.790000", "084654.790000", "084656.790000", "084658.790000", "084700.790000", "084702.790000", "084704.790000", "084706.790000", "084708.790000", "084710.790000", "084712.790000", "084714.790000", "084716.790000", "084718.790000", "084720.790000", "084722.790000", "084724.790000", "084726.790000", "084728.790000", "084730.790000", "084732.790000", "084734.790000", "084736.790000", "084738.790000", "084740.790000", "084742.790000", "084744.790000", "084746.790000", "084748.790000", "084750.790000", "084752.790000", "084754.790000", "084756.790000", "084758.790000", "084800.790000", "084802.790000", "084804.790000", "084806.790000", "084808.790000", "084810.790000", "084812.790000", "084814.790000", "084816.790000", "084818.790000", "084820.790000", "084822.790000", "084824.790000", "084826.790000", "084828.790000", "084830.790000", "084832.790000", "084834.790000", "084836.790000", "084838.790000", "084840.790000", "084842.790000", "084844.790000", "084846.790000", "084848.790000", "084850.790000", "084852.790000", "084854.790000", "084856.790000", "084858.790000", "084900.790000", "084902.790000", "084904.790000", "084906.790000", "084908.790000", "084910.790000", "084912.790000", "084914.790000", "084916.790000", "084918.790000", "084920.790000", "084922.790000", "084924.790000"],
      "ContentTime": ["084340.932000", "084340.935000", "084340.940000", "084340.942000", "084340.945000", "084340.947000", "084340.950000", "084340.952000", "084340.954000", "084340.957000", "084340.959000", "084340.961000", "084340.963000", "084340.966000", "084340.968000", "084340.971000", "084340.976000", "084340.978000", "084340.980000", "084340.983000", "084340.985000", "084340.987000", "084340.990000", "084340.992000", "084340.994000", "084340.997000", "084340.999000", "084420.926000", "084420.929000", "084420.931000", "084420.934000", "084420.936000", "084420.938000", "084420.941000", "084420.943000", "084420.945000", "084420.948000", "084420.950000", "084420.952000", "084420.955000", "084420.957000", "084420.959000", "084420.962000", "084420.964000", "084420.966000", "084420.969000", "084420.971000", "084500.926000", "084500.929000", "084500.931000", "084500.934000", "084500.936000", "084500.938000", "084500.941000", "084500.943000", "084500.945000", "084500.948000", "084500.950000", "084500.952000", "084500.955000", "084500.957000", "084500.959000", "084500.962000", "084500.964000", "084500.966000", "084500.969000", "084500.971000", "084540.927000", "084540.930000", "084540.932000", "084540.935000", "084540.937000", "084540.939000", "084540.942000", "084540.944000", "084540.946000", "084540.949000", "084540.951000", "084540.954000", "084540.956000", "084540.958000", "084540.961000", "084540.963000", "084540.965000", "084540.968000", "084540.970000", "084540.972000", "084620.926000", "084620.929000", "084620.931000", "084620.934000", "084620.936000", "084620.938000", "084620.941000", "084620.943000", "084620.945000", "084620.947000", "084620.950000", "084620.952000", "084620.954000", "084620.957000", "084620.959000", "084620.961000", "084620.964000", "084620.966000", "084620.968000", "084620.971000", "084700.926000", "084700.929000", "084700.931000", "084700.933000", "084700.936000", "084700.938000", "084700.940000", "084700.943000", "084700.945000", "084700.947000", "084700.950000", "084700.952000", "084700.954000", "084700.957000", "084700.959000", "084700.961000", "084700.964000", "084700.966000", "084700.968000", "084700.970000", "084740.927000", "084740.930000", "084740.932000", "084740.934000", "084740.937000", "084740.939000", "084740.942000", "084740.944000", "084740.946000", "084740.949000", "084740.951000", "084740.953000", "084740.956000", "084740.958000", "084740.960000", "084740.962000", "084740.965000", "084740.967000", "084740.969000", "084740.972000", "084820.926000", "084820.929000", "084820.931000", "084820.933000", "084820.936000", "084820.938000", "084820.940000", "084820.943000", "084820.945000", "084820.947000", "084820.950000", "084820.952000", "084820.955000", "084820.957000", "084820.959000", "084820.962000", "084820.964000", "084820.966000", "084820.968000", "084820.971000", "084900.926000", "084900.932000", "084900.934000", "084900.936000", "084900.939000", "084900.941000", "084900.943000", "084900.946000", "084900.948000", "084900.950000", "084900.953000", "084900.955000", "084900.957000", "084900.960000", "084900.962000", "084900.964000", "084900.967000", "084900.969000", "084900.971000", "084900.974000", "084926.423000", "084926.426000", "084926.428000", "084926.431000", "084926.446000", "084926.449000", "084926.453000", "084926.458000", "084926.461000", "084926.465000", "084926.470000", "084926.473000", "084926.476000"],
      "InstanceCreationTime": ["084340.932000", "084340.935000", "084340.940000", "084340.942000", "084340.945000", "084340.947000", "084340.950000", "084340.952000", "084340.954000", "084340.957000", "084340.959000", "084340.961000", "084340.963000", "084340.966000", "084340.968000", "084340.971000", "084340.976000", "084340.978000", "084340.980000", "084340.983000", "084340.985000", "084340.987000", "084340.990000", "084340.992000", "084340.994000", "084340.997000", "084340.999000", "084420.926000", "084420.929000", "084420.931000", "084420.934000", "084420.936000", "084420.938000", "084420.941000", "084420.943000", "084420.945000", "084420.948000", "084420.950000", "084420.952000", "084420.955000", "084420.957000", "084420.959000", "084420.962000", "084420.964000", "084420.966000", "084420.969000", "084420.971000", "084500.926000", "084500.929000", "084500.931000", "084500.934000", "084500.936000", "084500.938000", "084500.941000", "084500.943000", "084500.945000", "084500.948000", "084500.950000", "084500.952000", "084500.955000", "084500.957000", "084500.959000", "084500.962000", "084500.964000", "084500.966000", "084500.969000", "084500.971000", "084540.927000", "084540.930000", "084540.932000", "084540.935000", "084540.937000", "084540.939000", "084540.942000", "084540.944000", "084540.946000", "084540.949000", "084540.951000", "084540.954000", "084540.956000", "084540.958000", "084540.961000", "084540.963000", "084540.965000", "084540.968000", "084540.970000", "084540.972000", "084620.926000", "084620.929000", "084620.931000", "084620.934000", "084620.936000", "084620.938000", "084620.941000", "084620.943000", "084620.945000", "084620.947000", "084620.950000", "084620.952000", "084620.954000", "084620.957000", "084620.959000", "084620.961000", "084620.964000", "084620.966000", "084620.968000", "084620.971000", "084700.926000", "084700.929000", "084700.931000", "084700.933000", "084700.936000", "084700.938000", "084700.940000", "084700.943000", "084700.945000", "084700.947000", "084700.950000", "084700.952000", "084700.954000", "084700.957000", "084700.959000", "084700.961000", "084700.964000", "084700.966000", "084700.968000", "084700.970000", "084740.927000", "084740.930000", "084740.932000", "084740.934000", "084740.937000", "084740.939000", "084740.942000", "084740.944000", "084740.946000", "084740.949000", "084740.951000", "084740.953000", "084740.956000", "084740.958000", "084740.960000", "084740.962000", "084740.965000", "084740.967000", "084740.969000", "084740.972000", "084820.926000", "084820.929000", "084820.931000", "084820.933000", "084820.936000", "084820.938000", "084820.940000", "084820.943000", "084820.945000", "084820.947000", "084820.950000", "084820.952000", "084820.955000", "084820.957000", "084820.959000", "084820.962000", "084820.964000", "084820.966000", "084820.968000", "084820.971000", "084900.926000", "084900.932000", "084900.934000", "084900.936000", "084900.939000", "084900.941000", "084900.943000", "084900.946000", "084900.948000", "084900.950000", "084900.953000", "084900.955000", "084900.957000", "084900.960000", "084900.962000", "084900.964000", "084900.967000", "084900.969000", "084900.971000", "084900.974000", "084926.423000", "084926.426000", "084926.428000", "084926.431000", "084926.446000", "084926.449000", "084926.453000", "084926.458000", "084926.461000", "084926.465000", "084926.470000", "084926.473000", "084926.476000"],
      "InstanceNumber": [1, 2, 3, 4, 5, 6, 7, 8, 9, 10, 11, 12, 13, 14, 15, 16, 17, 18, 19, 20, 21, 22, 23, 24, 25, 26, 27, 28, 29, 30, 31, 32, 33, 34, 35, 36, 37, 38, 39, 40, 41, 42, 43, 44, 45, 46, 47, 48, 49, 50, 51, 52, 53, 54, 55, 56, 57, 58, 59, 60, 61, 62, 63, 64, 65, 66, 67, 68, 69, 70, 71, 72, 73, 74, 75, 76, 77, 78, 79, 80, 81, 82, 83, 84, 85, 86, 87, 88, 89, 90, 91, 92, 93, 94, 95, 96, 97, 98, 99, 100, 101, 102, 103, 104, 105, 106, 107, 108, 109, 110, 111, 112, 113, 114, 115, 116, 117, 118, 119, 120, 121, 122, 123, 124, 125, 126, 127, 128, 129, 130, 131, 132, 133, 134, 135, 136, 137, 138, 139, 140, 141, 142, 143, 144, 145, 146, 147, 148, 149, 150, 151, 152, 153, 154, 155, 156, 157, 158, 159, 160, 161, 162, 163, 164, 165, 166, 167, 168, 169, 170, 171, 172, 173, 174, 175, 176, 177, 178, 179, 180, 181, 182, 183, 184, 185, 186, 187, 188, 189, 190, 191, 192, 193, 194, 195, 196, 197, 198, 199, 200],
      "WindowCenter": [1500.0, 1500.0, 1499.0, 1501.0, 1500.0, 1498.0, 1500.0, 1499.0, 1498.0, 1499.0, 1498.0, 1498.0, 1498.0, 1499.0, 1499.0, 1499.0, 1498.0, 1499.0, 1498.0, 1499.0, 1499.0, 1499.0, 1498.0, 1498.0, 1498.0, 1498.0, 1499.0, 1498.0, 1498.0, 1499.0, 1500.0, 1498.0, 1499.0, 1499.0, 1498.0, 1498.0, 1499.0, 1497.0, 1498.0, 1499.0, 1497.0, 1498.0, 1497.0, 1498.0, 1498.0, 1497.0, 1497.0, 1498.0, 1498.0, 1497.0, 1497.0, 1498.0, 1498.0, 1497.0, 1499.0, 1498.0, 1499.0, 1499.0, 1499.0, 1499.0, 1499.0, 1498.0, 1499.0, 1498.0, 1497.0, 1498.0, 1498.0, 1497.0, 1498.0, 1498.0, 1497.0, 1497.0, 1497.0, 1496.0, 1497.0, 1497.0, 1496.0, 1497.0, 1497.0, 1498.0, 1497.0, 1497.0, 1497.0, 1497.0, 1497.0, 1497.0, 1497.0, 1496.0, 1496.0, 1497.0, 1497.0, 1496.0, 1496.0, 1496.0, 1496.0, 1495.0, 1496.0, 1496.0, 1497.0, 1496.0, 1496.0, 1496.0, 1497.0, 1496.0, 1496.0, 1496.0, 1496.0, 1496.0, 1496.0, 1495.0, 1495.0, 1496.0, 1496.0, 1495.0, 1495.0, 1495.0, 1495.0, 1495.0, 1495.0, 1494.0, 1496.0, 1496.0, 1495.0, 1495.0, 1494.0, 1495.0, 1495.0, 1495.0, 1496.0, 1495.0, 1495.0, 1495.0, 1495.0, 1494.0, 1495.0, 1495.0, 1495.0, 1495.0, 1495.0, 1495.0, 1494.0, 1495.0, 1494.0, 1495.0, 1494.0, 1494.0, 1495.0, 1494.0, 1494.0, 1494.0, 1495.0, 1495.0, 1495.0, 1495.0, 1495.0, 1495.0, 1495.0, 1495.0, 1496.0, 1494.0, 1496.0, 1495.0, 1495.0, 1495.0, 1495.0, 1495.0, 1495.0, 1495.0, 1495.0, 1495.0, 1496.0, 1496.0, 1495.0, 1495.0, 1495.0, 1495.0, 1495.0, 1495.0, 1495.0, 1495.0, 1495.0, 1495.0, 1493.0, 1495.0, 1494.0, 1495.0, 1495.0, 1495.0, 1495.0, 1495.0, 1495.0, 1493.0, 1495.0, 1494.0, 1494.0, 1494.0, 1494.0, 1495.0, 1494.0, 1494.0],
      "WindowWidth": [3415.0, 3415.0, 3415.0, 3415.0, 3414.0, 3415.0, 3414.0, 3414.0, 3414.0, 3413.0, 3414.0, 3414.0, 3414.0, 3413.0, 3413.0, 3413.0, 3414.0, 3413.0, 3413.0, 3413.0, 3413.0, 3413.0, 3413.0, 3413.0, 3413.0, 3413.0, 3413.0, 3413.0, 3413.0, 3413.0, 3413.0, 3413.0, 3413.0, 3413.0, 3413.0, 3413.0, 3413.0, 3413.0, 3413.0, 3412.0, 3413.0, 3413.0, 3413.0, 3413.0, 3412.0, 3412.0, 3412.0, 3413.0, 3412.0, 3412.0, 3412.0, 3412.0, 3412.0, 3413.0, 3412.0, 3412.0, 3412.0, 3412.0, 3412.0, 3412.0, 3412.0, 3412.0, 3412.0, 3412.0, 3412.0, 3412.0, 3411.0, 3412.0, 3411.0, 3411.0, 3411.0, 3412.0, 3411.0, 3412.0, 3411.0, 3411.0, 3412.0, 3411.0, 3411.0, 3411.0, 3411.0, 3411.0, 3411.0, 3411.0, 3411.0, 3411.0, 3411.0, 3411.0, 3411.0, 3411.0, 3411.0, 3411.0, 3411.0, 3411.0, 3411.0, 3411.0, 3411.0, 3411.0, 3411.0, 3411.0, 3411.0, 3411.0, 3411.0, 3410.0, 3411.0, 3411.0, 3410.0, 3410.0, 3410.0, 3411.0, 3411.0, 3411.0, 3410.0, 3411.0, 3411.0, 3411.0, 3410.0, 3411.0, 3411.0, 3411.0, 3410.0, 3410.0, 3410.0, 3410.0, 3411.0, 3410.0, 3410.0, 3410.0, 3410.0, 3410.0, 3410.0, 3410.0, 3410.0, 3411.0, 3410.0, 3410.0, 3410.0, 3410.0, 3410.0, 3410.0, 3410.0, 3410.0, 3410.0, 3410.0, 3410.0, 3410.0, 3410.0, 3410.0, 3410.0, 3410.0, 3410.0, 3410.0, 3410.0, 3410.0, 3410.0, 3410.0, 3410.0, 3410.0, 3409.0, 3410.0, 3409.0, 3410.0, 3410.0, 3410.0, 3410.0, 3410.0, 3410.0, 3410.0, 3410.0, 3410.0, 3409.0, 3409.0, 3410.0, 3409.0, 3410.0, 3410.0, 3410.0, 3410.0, 3410.0, 3410.0, 3410.0, 3410.0, 3410.0, 3410.0, 3410.0, 3409.0, 3409.0, 3409.0, 3409.0, 3409.0, 3409.0, 3410.0, 3410.0, 3410.0, 3410.0, 3410.0, 3410.0, 3410.0, 3410.0, 3410.0]
    },
    "slices": {}
  }
}