{
  "AcquisitionMatrixPE": 80,
  "AcquisitionNumber": 1,
  "AcquisitionTime": "08:53:28.545000",
  "BandwidthPerPixelPhaseEncode": 25,
  "BaseResolution": 80,
  "BodyPartExamined": "BRAIN",
  "CoilCombinationMethod": "Sum of Squares",
  "ConsistencyInfo": "N4_VE11E_LATEST_20181129",
  "ConversionSoftware": "dcm2niix",
  "ConversionSoftwareVersion": "v1.0.20220720",
  "DerivedVendorReportedEchoSpacing": 0.0005,
  "DeviceSerialNumber": "66112",
  "DwellTime": 2.7e-06,
  "EchoTime": 0.03,
  "EchoTrainLength": 80,
  "EffectiveEchoSpacing": 0.0005,
  "FlipAngle": 77,
  "HeudiconvVersion": "0.13.1",
  "ImageOrientationPatientDICOM": [0.999929, 0.0115844, 0.0027445, -0.011868, 0.951777, 0.30656],
  "ImageOrientationText": "Tra>Cor(17.9)>Sag(-0.1)",
  "ImageType": [
    "ORIGINAL",
    "PRIMARY",
    "M",
    "ND",
    "NORM",
    "MOSAIC"
],
  "ImagingFrequency": 123.261,
  "InPlanePhaseEncodingDirectionDICOM": "COL",
  "InstitutionAddress": "Maynard 3,Hanover,NH,US,03755",
  "InstitutionName": "Dartmouth College - PBS",
  "InstitutionalDepartmentName": "Department",
  "MRAcquisitionType": "2D",
  "MagneticFieldStrength": 3,
  "Manufacturer": "Siemens",
  "ManufacturersModelName": "Prisma",
  "MatrixCoilMode": "SENSE",
  "Modality": "MR",
  "NonlinearGradientCorrection": false,
  "PartialFourier": 1,
  "PatientPosition": "HFS",
  "PercentPhaseFOV": 100,
  "PercentSampling": 100,
  "PhaseEncodingDirection": "j-",
  "PhaseEncodingSteps": 80,
  "PhaseResolution": 1,
  "PixelBandwidth": 2315,
  "ProcedureStepDescription": "dbic^QA",
  "ProtocolName": "func-bold_fa-77",
  "PulseSequenceDetails": "%SiemensSeq%\\ep2d_bold",
  "ReceiveCoilActiveElements": "HC1-7;NC1,2",
  "ReceiveCoilName": "HeadNeck_64",
  "ReconMatrixPE": 80,
  "RepetitionTime": 2,
  "SAR": 0.0281803,
  "ScanOptions": "FS",
  "ScanningSequence": "EP",
  "SequenceName": "*epfid2d1_80",
  "SequenceVariant": "SK",
  "SeriesDescription": "func-bold_fa-77",
  "SeriesNumber": 6,
  "ShimSetting": [4241, -7738, -7492, -140, -174, -282, -74, 127],
  "SliceThickness": 3.5,
  "SliceTiming": [0.99, 0, 1.055, 0.065, 1.1225, 0.1325, 1.1875, 0.1975, 1.255, 0.265, 1.32, 0.33, 1.385, 0.395, 1.4525, 0.4625, 1.5175, 0.5275, 1.5825, 0.595, 1.65, 0.66, 1.715, 0.725, 1.7825, 0.7925, 1.8475, 0.8575, 1.9125, 0.925],
  "SoftwareVersions": "syngo MR E11",
  "SpacingBetweenSlices": 3.99,
  "StationName": "AWP66112",
  "TotalReadoutTime": 0.0395,
  "TxRefAmp": 207.318,
  "dcmmeta_affine": [
    [-2.9997873306274414, -0.035603877156972885, -0.0037472466938197613, 121.80693054199219],
    [-0.034753184765577316, 2.8553318977355957, 1.223218321800232, -126.1235122680664],
    [0.008233504369854927, -0.9196804761886597, 3.7978708744049072, -26.8067569732666],
    [0.0, 0.0, 0.0, 1.0]
],
  "dcmmeta_reorient_transform": [
    [0.0, -1.0, 0.0, 79.0],
    [1.0, 0.0, 0.0, 0.0],
    [0.0, 0.0, 1.0, 0.0],
    [0.0, 0.0, 0.0, 1.0]
],
  "dcmmeta_shape": [80, 80, 30, 200],
  "dcmmeta_slice_dim": 2,
  "dcmmeta_version": 0.6,
  "global": {
    "const": {
      "AccessionNumber": "qa64",
      "AcquisitionMatrix": [80, 0, 0, 80],
      "AngioFlag": "N",
      "BitsAllocated": 16,
      "BitsStored": 12,
      "BodyPartExamined": "BRAIN",
      "Columns": 480,
      "EchoNumbers": 1,
      "EchoTime": 30.0,
      "EchoTrainLength": 80,
      "FlipAngle": 77.0,
      "HighBit": 11,
      "ImageOrientationPatient": [0.99992913224845, 0.01158439434759, 0.00274450149791, -0.0118679593945, 0.95177729556273, 0.30656015917127],
      "ImagePositionPatient": [-711.83092600657, -677.46472177388, -285.04431112615],
      "ImageType": [
        "ORIGINAL",
        "PRIMARY",
        "M",
        "ND",
        "NORM",
        "MOSAIC"
],
      "ImagedNucleus": "1H",
      "ImagingFrequency": 123.261237,
      "InPlanePhaseEncodingDirection": "COL",
      "MRAcquisitionType": "2D",
      "MagneticFieldStrength": 3.0,
      "Manufacturer": "SIEMENS",
      "ManufacturerModelName": "Prisma",
      "Modality": "MR",
      "NumberOfAverages": 1.0,
      "NumberOfPhaseEncodingSteps": 80,
      "PercentPhaseFieldOfView": 100.0,
      "PercentSampling": 100.0,
      "PerformedProcedureStepStartTime": "083746.544000",
      "PhotometricInterpretation": "MONOCHROME2",
      "PixelBandwidth": 2315.0,
      "PixelRepresentation": 0,
      "PixelSpacing": [3.0, 3.0],
      "ProtocolName": "func-bold_fa-77",
      "RepetitionTime": 2000.0,
      "Rows": 480,
      "SAR": 0.02818026211702,
      "SamplesPerPixel": 1,
      "ScanOptions": "FS",
      "ScanningSequence": "EP",
      "SequenceName": "*epfid2d1_80",
      "SequenceVariant": "SK",
      "SeriesDescription": "func-bold_fa-77",
      "SeriesNumber": 6,
      "SeriesTime": "085421.017000",
      "SliceLocation": -64.29614783689,
      "SliceThickness": 3.5,
      "SmallestImagePixelValue": 0,
      "SoftwareVersions": "syngo MR E11",
      "SpacingBetweenSlices": 3.9899999350147,
      "SpecificCharacterSet": "ISO_IR 100",
      "StudyID": "27",
      "StudyTime": "083746.442000",
      "TransmitCoilName": "Body",
      "VariableFlipAngleFlag": "N",
      "WindowCenterWidthExplanation": "Algo1"
    },
    "slices": {}
  },
  "time": {
    "samples": {
      "AcquisitionNumber": [1, 2, 3, 4, 5, 6, 7, 8, 9, 10, 11, 12, 13, 14, 15, 16, 17, 18, 19, 20, 21, 22, 23, 24, 25, 26, 27, 28, 29, 30, 31, 32, 33, 34, 35, 36, 37, 38, 39, 40, 41, 42, 43, 44, 45, 46, 47, 48, 49, 50, 51, 52, 53, 54, 55, 56, 57, 58, 59, 60, 61, 62, 63, 64, 65, 66, 67, 68, 69, 70, 71, 72, 73, 74, 75, 76, 77, 78, 79, 80, 81, 82, 83, 84, 85, 86, 87, 88, 89, 90, 91, 92, 93, 94, 95, 96, 97, 98, 99, 100, 101, 102, 103, 104, 105, 106, 107, 108, 109, 110, 111, 112, 113, 114, 115, 116, 117, 118, 119, 120, 121, 122, 123, 124, 125, 126, 127, 128, 129, 130, 131, 132, 133, 134, 135, 136, 137, 138, 139, 140, 141, 142, 143, 144, 145, 146, 147, 148, 149, 150, 151, 152, 153, 154, 155, 156, 157, 158, 159, 160, 161, 162, 163, 164, 165, 166, 167, 168, 169, 170, 171, 172, 173, 174, 175, 176, 177, 178, 179, 180, 181, 182, 183, 184, 185, 186, 187, 188, 189, 190, 191, 192, 193, 194, 195, 196, 197, 198, 199, 200],
      "AcquisitionTime": ["085328.545000", "085330.545000", "085332.545000", "085334.545000", "085336.545000", "085338.545000", "085340.545000", "085342.545000", "085344.545000", "085346.545000", "085348.545000", "085350.545000", "085352.545000", "085354.545000", "085356.545000", "085358.545000", "085400.545000", "085402.545000", "085404.545000", "085406.545000", "085408.545000", "085410.545000", "085412.545000", "085414.545000", "085416.545000", "085418.545000", "085420.545000", "085422.545000", "085424.545000", "085426.545000", "085428.545000", "085430.545000", "085432.545000", "085434.545000", "085436.545000", "085438.545000", "085440.545000", "085442.545000", "085444.545000", "085446.545000", "085448.545000", "085450.545000", "085452.545000", "085454.545000", "085456.545000", "085458.545000", "085500.545000", "085502.545000", "085504.545000", "085506.545000", "085508.545000", "085510.545000", "085512.545000", "085514.545000", "085516.545000", "085518.545000", "085520.545000", "085522.545000", "085524.545000", "085526.545000", "085528.545000", "085530.545000", "085532.545000", "085534.545000", "085536.545000", "085538.545000", "085540.545000", "085542.545000", "085544.545000", "085546.545000", "085548.545000", "085550.545000", "085552.545000", "085554.545000", "085556.545000", "085558.545000", "085600.545000", "085602.545000", "085604.545000", "085606.545000", "085608.545000", "085610.545000", "085612.545000", "085614.545000", "085616.545000", "085618.545000", "085620.545000", "085622.545000", "085624.545000", "085626.545000", "085628.545000", "085630.545000", "085632.545000", "085634.545000", "085636.545000", "085638.545000", "085640.545000", "085642.545000", "085644.545000", "085646.545000", "085648.545000", "085650.545000", "085652.545000", "085654.545000", "085656.545000", "085658.545000", "085700.545000", "085702.545000", "085704.545000", "085706.545000", "085708.545000", "085710.545000", "085712.545000", "085714.545000", "085716.545000", "085718.545000", "085720.545000", "085722.545000", "085724.545000", "085726.545000", "085728.545000", "085730.545000", "085732.545000", "085734.545000", "085736.545000", "085738.545000", "085740.545000", "085742.545000", "085744.545000", "085746.545000", "085748.545000", "085750.545000", "085752.545000", "085754.545000", "085756.545000", "085758.545000", "085800.545000", "085802.545000", "085804.545000", "085806.545000", "085808.545000", "085810.545000", "085812.545000", "085814.545000", "085816.545000", "085818.545000", "085820.545000", "085822.545000", "085824.545000", "085826.545000", "085828.545000", "085830.545000", "085832.545000", "085834.545000", "085836.545000", "085838.545000", "085840.545000", "085842.545000", "085844.545000", "085846.545000", "085848.545000", "085850.545000", "085852.545000", "085854.545000", "085856.545000", "085858.545000", "085900.545000", "085902.545000", "085904.545000", "085906.545000", "085908.545000", "085910.545000", "085912.545000", "085914.545000", "085916.545000", "085918.545000", "085920.545000", "085922.545000", "085924.545000", "085926.545000", "085928.545000", "085930.545000", "085932.545000", "085934.545000", "085936.545000", "085938.545000", "085940.545000", "085942.545000", "085944.545000", "085946.545000", "085948.545000", "085950.545000", "085952.545000", "085954.545000", "085956.545000", "085958.545000", "090000.545000", "090002.545000", "090004.545000", "090006.545000"],
      "ContentTime": ["085421.020000", "085421.024000", "085421.026000", "085421.028000", "085421.030000", "085421.033000", "085421.035000", "085421.049000", "085421.058000", "085421.061000", "085421.063000", "085421.065000", "085421.068000", "085421.070000", "085421.073000", "085421.075000", "085421.077000", "085421.079000", "085421.082000", "085421.084000", "085421.086000", "085421.089000", "085421.091000", "085421.093000", "085421.096000", "085421.098000", "085501.015000", "085501.018000", "085501.020000", "085501.023000", "085501.025000", "085501.027000", "085501.030000", "085501.032000", "085501.034000", "085501.036000", "085501.039000", "085501.041000", "085501.043000", "085501.046000", "085501.048000", "085501.050000", "085501.052000", "085501.055000", "085501.057000", "085501.059000", "085541.015000", "085541.027000", "085541.029000", "085541.031000", "085541.034000", "085541.036000", "085541.038000", "085541.040000", "085541.043000", "085541.045000", "085541.047000", "085541.050000", "085541.052000", "085541.054000", "085541.057000", "085541.059000", "085541.061000", "085541.063000", "085541.066000", "085541.068000", "085621.015000", "085621.018000", "085621.020000", "085621.022000", "085621.025000", "085621.027000", "085621.029000", "085621.032000", "085621.034000", "085621.036000", "085621.039000", "085621.041000", "085621.043000", "085621.046000", "085621.048000", "085621.050000", "085621.052000", "085621.055000", "085621.057000", "085621.059000", "085701.016000", "085701.019000", "085701.021000", "085701.023000", "085701.026000", "085701.028000", "085701.030000", "085701.033000", "085701.035000", "085701.037000", "085701.039000", "085701.042000", "085701.044000", "085701.046000", "085701.049000", "085701.051000", "085701.053000", "085701.056000", "085701.058000", "085701.060000", "085741.015000", "085741.018000", "085741.020000", "085741.022000", "085741.025000", "085741.027000", "085741.029000", "085741.032000", "085741.034000", "085741.036000", "085741.038000", "085741.041000", "085741.043000", "085741.045000", "085741.048000", "085741.050000", "085741.052000", "085741.055000", "085741.057000", "085741.059000", "085821.015000", "085821.018000", "085821.020000", "085821.022000", "085821.025000", "085821.027000", "085821.029000", "085821.032000", "085821.034000", "085821.036000", "085821.039000", "085821.041000", "085821.043000", "085821.045000", "085821.048000", "085821.050000", "085821.052000", "085821.055000", "085821.057000", "085821.059000", "085901.015000", "085901.018000", "085901.020000", "085901.022000", "085901.025000", "085901.027000", "085901.029000", "085901.032000", "085901.034000", "085901.036000", "085901.038000", "085901.041000", "085901.043000", "085901.045000", "085901.048000", "085901.050000", "085901.052000", "085901.055000", "085901.057000", "085901.059000", "085941.015000", "085941.018000", "085941.020000", "085941.023000", "085941.025000", "085941.027000", "085941.030000", "085941.032000", "085941.034000", "085941.037000", "085941.039000", "085941.042000", "085941.044000", "085941.046000", "085941.048000", "085941.051000", "085941.053000", "085941.055000", "085941.058000", "085941.060000", "090007.927000", "090007.930000", "090007.932000", "090007.935000", "090007.938000", "090007.940000", "090007.942000", "090007.945000", "090007.947000", "090007.950000", "090007.952000", "090007.954000", "090007.960000", "090007.963000"],
      "InstanceCreationTime": ["085421.020000", "085421.024000", "085421.026000", "085421.028000", "085421.030000", "085421.033000", "085421.035000", "085421.049000", "085421.058000", "085421.061000", "085421.063000", "085421.065000", "085421.068000", "085421.070000", "085421.073000", "085421.075000", "085421.077000", "085421.079000", "085421.082000", "085421.084000", "085421.086000", "085421.089000", "085421.091000", "085421.093000", "085421.096000", "085421.098000", "085501.015000", "085501.018000", "085501.020000", "085501.023000", "085501.025000", "085501.027000", "085501.030000", "085501.032000", "085501.034000", "085501.036000", "085501.039000", "085501.041000", "085501.043000", "085501.046000", "085501.048000", "085501.050000", "085501.052000", "085501.055000", "085501.057000", "085501.059000", "085541.015000", "085541.027000", "085541.029000", "085541.031000", "085541.034000", "085541.036000", "085541.038000", "085541.040000", "085541.043000", "085541.045000", "085541.047000", "085541.050000", "085541.052000", "085541.054000", "085541.057000", "085541.059000", "085541.061000", "085541.063000", "085541.066000", "085541.068000", "085621.015000", "085621.018000", "085621.020000", "085621.022000", "085621.025000", "085621.027000", "085621.029000", "085621.032000", "085621.034000", "085621.036000", "085621.039000", "085621.041000", "085621.043000", "085621.046000", "085621.048000", "085621.050000", "085621.052000", "085621.055000", "085621.057000", "085621.059000", "085701.016000", "085701.019000", "085701.021000", "085701.023000", "085701.026000", "085701.028000", "085701.030000", "085701.033000", "085701.035000", "085701.037000", "085701.039000", "085701.042000", "085701.044000", "085701.046000", "085701.049000", "085701.051000", "085701.053000", "085701.056000", "085701.058000", "085701.060000", "085741.015000", "085741.018000", "085741.020000", "085741.022000", "085741.025000", "085741.027000", "085741.029000", "085741.032000", "085741.034000", "085741.036000", "085741.038000", "085741.041000", "085741.043000", "085741.045000", "085741.048000", "085741.050000", "085741.052000", "085741.055000", "085741.057000", "085741.059000", "085821.015000", "085821.018000", "085821.020000", "085821.022000", "085821.025000", "085821.027000", "085821.029000", "085821.032000", "085821.034000", "085821.036000", "085821.039000", "085821.041000", "085821.043000", "085821.045000", "085821.048000", "085821.050000", "085821.052000", "085821.055000", "085821.057000", "085821.059000", "085901.015000", "085901.018000", "085901.020000", "085901.022000", "085901.025000", "085901.027000", "085901.029000", "085901.032000", "085901.034000", "085901.036000", "085901.038000", "085901.041000", "085901.043000", "085901.045000", "085901.048000", "085901.050000", "085901.052000", "085901.055000", "085901.057000", "085901.059000", "085941.015000", "085941.018000", "085941.020000", "085941.023000", "085941.025000", "085941.027000", "085941.030000", "085941.032000", "085941.034000", "085941.037000", "085941.039000", "085941.042000", "085941.044000", "085941.046000", "085941.048000", "085941.051000", "085941.053000", "085941.055000", "085941.058000", "085941.060000", "090007.927000", "090007.930000", "090007.932000", "090007.935000", "090007.938000", "090007.940000", "090007.942000", "090007.945000", "090007.947000", "090007.950000", "090007.952000", "090007.954000", "090007.960000", "090007.963000"],
      "InstanceNumber": [1, 2, 3, 4, 5, 6, 7, 8, 9, 10, 11, 12, 13, 14, 15, 16, 17, 18, 19, 20, 21, 22, 23, 24, 25, 26, 27, 28, 29, 30, 31, 32, 33, 34, 35, 36, 37, 38, 39, 40, 41, 42, 43, 44, 45, 46, 47, 48, 49, 50, 51, 52, 53, 54, 55, 56, 57, 58, 59, 60, 61, 62, 63, 64, 65, 66, 67, 68, 69, 70, 71, 72, 73, 74, 75, 76, 77, 78, 79, 80, 81, 82, 83, 84, 85, 86, 87, 88, 89, 90, 91, 92, 93, 94, 95, 96, 97, 98, 99, 100, 101, 102, 103, 104, 105, 106, 107, 108, 109, 110, 111, 112, 113, 114, 115, 116, 117, 118, 119, 120, 121, 122, 123, 124, 125, 126, 127, 128, 129, 130, 131, 132, 133, 134, 135, 136, 137, 138, 139, 140, 141, 142, 143, 144, 145, 146, 147, 148, 149, 150, 151, 152, 153, 154, 155, 156, 157, 158, 159, 160, 161, 162, 163, 164, 165, 166, 167, 168, 169, 170, 171, 172, 173, 174, 175, 176, 177, 178, 179, 180, 181, 182, 183, 184, 185, 186, 187, 188, 189, 190, 191, 192, 193, 194, 195, 196, 197, 198, 199, 200],
      "LargestImagePixelValue": [4016, 4009, 4016, 4010, 4009, 4007, 4008, 4013, 4010, 4006, 4012, 4005, 4012, 4022, 4014, 4011, 4014, 4019, 4009, 4009, 4008, 4016, 4027, 4011, 4004, 4016, 4013, 4024, 4012, 4012, 4013, 4011, 4013, 4016, 4016, 4019, 4022, 4023, 4019, 4020, 4012, 4015, 4019, 4021, 4023, 4015, 4020, 4021, 4017, 4014, 4015, 4018, 4026, 4014, 4012, 4016, 4016, 4011, 4006, 4004, 4003, 4004, 4009, 4012, 4007, 4014, 4018, 4020, 4024, 4018, 4011, 4006, 4021, 4018, 4017, 4022, 4025, 4020, 4017, 4009, 4010, 4015, 4017, 4019, 4024, 4021, 4015, 4015, 4023, 4015, 4020, 4024, 4028, 4027, 4015, 4026, 4027, 4023, 4019, 4017, 4023, 4017, 4020, 4023, 4020, 4025, 4027, 4028, 4022, 4033, 4028, 4020, 4023, 4019, 4028, 4031, 4033, 4030, 4030, 4027, 4036, 4030, 4033, 4035, 4031, 4042, 4030, 4033, 4039, 4031, 4034, 4027, 4031, 4031, 4024, 4034, 4025, 4032, 4027, 4034, 4031, 4039, 4040, 4025, 4042, 4038, 4034, 4040, 4035, 4033, 4038, 4040, 4033, 4035, 4038, 4032, 4038, 4031, 4036, 4035, 4034, 4031, 4030, 4037, 4032, 4034, 4029, 4032, 4037, 4036, 4041, 4038, 4035, 4037, 4039, 4043, 4035, 4038, 4046, 4045, 4042, 4036, 4034, 4034, 4034, 4040, 4035, 4046, 4043, 4039, 4038, 4040, 4037, 4043, 4044, 4041, 4045, 4047, 4048, 4040],
      "WindowCenter": [1419.0, 1419.0, 1419.0, 1418.0, 1419.0, 1418.0, 1419.0, 1418.0, 1419.0, 1419.0, 1418.0, 1418.0, 1418.0, 1419.0, 1418.0, 1418.0, 1418.0, 1418.0, 1418.0, 1418.0, 1418.0, 1418.0, 1418.0, 1418.0, 1418.0, 1418.0, 1417.0, 1418.0, 1417.0, 1417.0, 1418.0, 1417.0, 1417.0, 1417.0, 1417.0, 1418.0, 1417.0, 1416.0, 1417.0, 1416.0, 1416.0, 1417.0, 1417.0, 1417.0, 1416.0, 1417.0, 1417.0, 1417.0, 1417.0, 1417.0, 1417.0, 1416.0, 1415.0, 1415.0, 1415.0, 1415.0, 1415.0, 1415.0, 1415.0, 1415.0, 1415.0, 1415.0, 1415.0, 1415.0, 1415.0, 1415.0, 1415.0, 1414.0, 1414.0, 1414.0, 1414.0, 1415.0, 1414.0, 1414.0, 1414.0, 1414.0, 1414.0, 1415.0, 1414.0, 1414.0, 1414.0, 1414.0, 1414.0, 1415.0, 1414.0, 1413.0, 1413.0, 1414.0, 1413.0, 1413.0, 1413.0, 1413.0, 1413.0, 1413.0, 1413.0, 1414.0, 1413.0, 1413.0, 1413.0, 1413.0, 1413.0, 1414.0, 1414.0, 1413.0, 1413.0, 1413.0, 1413.0, 1413.0, 1413.0, 1412.0, 1413.0, 1412.0, 1412.0, 1413.0, 1412.0, 1413.0, 1412.0, 1412.0, 1412.0, 1412.0, 1413.0, 1412.0, 1412.0, 1412.0, 1412.0, 1412.0, 1412.0, 1412.0, 1412.0, 1412.0, 1412.0, 1412.0, 1411.0, 1411.0, 1412.0, 1411.0, 1412.0, 1412.0, 1412.0, 1412.0, 1412.0, 1412.0, 1412.0, 1412.0, 1412.0, 1412.0, 1412.0, 1411.0, 1411.0, 1411.0, 1411.0, 1411.0, 1411.0, 1411.0, 1412.0, 1411.0, 1411.0, 1410.0, 1411.0, 1410.0, 1411.0, 1410.0, 1411.0, 1411.0, 1411.0, 1411.0, 1411.0, 1411.0, 1411.0, 1411.0, 1411.0, 1411.0, 1410.0, 1410.0, 1411.0, 1411.0, 1410.0, 1411.0, 1411.0, 1411.0, 1410.0, 1411.0, 1410.0, 1410.0, 1410.0, 1410.0, 1410.0, 1410.0, 1410.0, 1410.0, 1411.0, 1410.0, 1410.0, 1410.0, 1410.0, 1410.0, 1410.0, 1410.0, 1409.0, 1409.0],
      "WindowWidth": [3358.0, 3358.0, 3358.0, 3358.0, 3358.0, 3357.0, 3358.0, 3357.0, 3358.0, 3357.0, 3357.0, 3357.0, 3357.0, 3358.0, 3358.0, 3357.0, 3358.0, 3358.0, 3358.0, 3357.0, 3358.0, 3357.0, 3357.0, 3357.0, 3358.0, 3358.0, 3357.0, 3357.0, 3358.0, 3358.0, 3357.0, 3358.0, 3358.0, 3358.0, 3358.0, 3357.0, 3357.0, 3358.0, 3358.0, 3358.0, 3358.0, 3358.0, 3357.0, 3358.0, 3358.0, 3357.0, 3358.0, 3357.0, 3357.0, 3357.0, 3358.0, 3358.0, 3357.0, 3357.0, 3357.0, 3357.0, 3357.0, 3357.0, 3357.0, 3357.0, 3357.0, 3357.0, 3357.0, 3357.0, 3357.0, 3357.0, 3357.0, 3357.0, 3356.0, 3357.0, 3356.0, 3356.0, 3356.0, 3356.0, 3356.0, 3356.0, 3356.0, 3356.0, 3356.0, 3356.0, 3356.0, 3356.0, 3356.0, 3356.0, 3356.0, 3356.0, 3356.0, 3356.0, 3356.0, 3356.0, 3356.0, 3356.0, 3356.0, 3356.0, 3356.0, 3356.0, 3356.0, 3356.0, 3356.0, 3356.0, 3356.0, 3356.0, 3356.0, 3356.0, 3356.0, 3356.0, 3356.0, 3356.0, 3356.0, 3356.0, 3356.0, 3356.0, 3356.0, 3356.0, 3356.0, 3355.0, 3355.0, 3355.0, 3355.0, 3355.0, 3355.0, 3355.0, 3355.0, 3356.0, 3356.0, 3356.0, 3355.0, 3355.0, 3355.0, 3355.0, 3355.0, 3355.0, 3356.0, 3356.0, 3355.0, 3356.0, 3355.0, 3355.0, 3355.0, 3355.0, 3355.0, 3355.0, 3355.0, 3355.0, 3355.0, 3355.0, 3355.0, 3355.0, 3355.0, 3355.0, 3355.0, 3355.0, 3355.0, 3355.0, 3355.0, 3355.0, 3355.0, 3355.0, 3356.0, 3355.0, 3355.0, 3355.0, 3355.0, 3355.0, 3355.0, 3355.0, 3355.0, 3355.0, 3355.0, 3355.0, 3355.0, 3355.0, 3355.0, 3355.0, 3355.0, 3355.0, 3355.0, 3355.0, 3355.0, 3355.0, 3355.0, 3355.0, 3355.0, 3355.0, 3355.0, 3355.0, 3355.0, 3355.0, 3355.0, 3355.0, 3354.0, 3355.0, 3355.0, 3354.0, 3355.0, 3354.0, 3355.0, 3355.0, 3355.0, 3355.0]
    },
    "slices": {}
  }
}