{
  "AcquisitionMatrixPE": 80,
  "AcquisitionNumber": 1,
  "AcquisitionTime": "08:49:1.022500",
  "BandwidthPerPixelPhaseEncode": 48.077,
  "BaseResolution": 80,
  "BodyPartExamined": "BRAIN",
  "CoilCombinationMethod": "Sum of Squares",
  "ConsistencyInfo": "N4_VE11C_LATEST_20160120",
  "ConversionSoftware": "dcm2niix",
  "ConversionSoftwareVersion": "v1.0.20220720",
  "DerivedVendorReportedEchoSpacing": 0.000519999,
  "DeviceSerialNumber": "66112",
  "DwellTime": 2.7e-06,
  "EchoTime": 0.035,
  "EchoTrainLength": 39,
  "EffectiveEchoSpacing": 0.00026,
  "FlipAngle": 90,
  "HeudiconvVersion": "0.13.1",
  "ImageOrientationPatientDICOM": [0.999053, -0.0434764, 0.00158063, 0.0399514, 0.931222, 0.362256],
  "ImageOrientationText": "Tra>Cor(21.2)>Sag(1.0)",
  "ImageType": [
    "ORIGINAL",
    "PRIMARY",
    "M",
    "ND",
    "NORM",
    "MOSAIC"
],
  "ImagingFrequency": 123.252,
  "InPlanePhaseEncodingDirectionDICOM": "COL",
  "InstitutionAddress": "Maynard 3,Hanover,NH,US,03755",
  "InstitutionName": "Dartmouth College - PBS",
  "InstitutionalDepartmentName": "Department",
  "MRAcquisitionType": "2D",
  "MagneticFieldStrength": 3,
  "Manufacturer": "Siemens",
  "ManufacturersModelName": "Prisma",
  "MatrixCoilMode": "GRAPPA",
  "Modality": "MR",
  "NonlinearGradientCorrection": false,
  "ParallelReductionFactorInPlane": 2,
  "PartialFourier": 1,
  "PatientPosition": "HFS",
  "PercentPhaseFOV": 100,
  "PercentSampling": 100,
  "PhaseEncodingDirection": "j-",
  "PhaseEncodingSteps": 79,
  "PhaseResolution": 1,
  "PixelBandwidth": 2315,
  "ProcedureStepDescription": "dbic^QA",
  "ProtocolName": "func-bold_task-rest_acq-p2",
  "PulseSequenceDetails": "%SiemensSeq%\\ep2d_bold",
  "ReceiveCoilActiveElements": "HEA;HEP",
  "ReceiveCoilName": "Head_32",
  "ReconMatrixPE": 80,
  "RefLinesPE": 24,
  "RepetitionTime": 2,
  "SAR": 0.0556964,
  "ScanOptions": "FS",
  "ScanningSequence": "EP",
  "SequenceName": "*epfid2d1_80",
  "SequenceVariant": "SK",
  "SeriesDescription": "func-bold_task-rest_acq-p2",
  "SeriesNumber": 5,
  "ShimSetting": [4144, -7696, -7524, 231, -81, -199, 7, 60],
  "SliceThickness": 3.5,
  "SliceTiming": [0.99, 0, 1.0575, 0.0675, 1.1225, 0.1325, 1.19, 0.2, 1.255, 0.265, 1.32, 0.33, 1.3875, 0.3975, 1.4525, 0.4625, 1.52, 0.53, 1.585, 0.595, 1.65, 0.66, 1.7175, 0.7275, 1.7825, 0.7925, 1.85, 0.86, 1.915, 0.925],
  "SoftwareVersions": "syngo MR E11",
  "SpacingBetweenSlices": 3.99,
  "StationName": "AWP66112",
  "TaskName": "rest",
  "TotalReadoutTime": 0.02054,
  "TxRefAmp": 229.727,
  "dcmmeta_affine": [
    [-2.997159719467163, 0.11985430866479874, 0.06871382892131805, 114.19033813476562],
    [0.13042926788330078, 2.793666124343872, 1.443780779838562, -129.57681274414062],
    [0.004741894081234932, -1.0867679119110107, 3.7189884185791016, -7.247692108154297],
    [0.0, 0.0, 0.0, 1.0]
],
  "dcmmeta_reorient_transform": [
    [0.0, -1.0, 0.0, 79.0],
    [1.0, 0.0, 0.0, 0.0],
    [0.0, 0.0, 1.0, 0.0],
    [0.0, 0.0, 0.0, 1.0]
],
  "dcmmeta_shape": [80, 80, 30, 200],
  "dcmmeta_slice_dim": 2,
  "dcmmeta_version": 0.6,
  "global": {
    "const": {
      "AccessionNumber": "qa",
      "AcquisitionMatrix": [80, 0, 0, 80],
      "AngioFlag": "N",
      "BitsAllocated": 16,
      "BitsStored": 12,
      "BodyPartExamined": "BRAIN",
      "Columns": 480,
      "EchoNumbers": 1,
      "EchoTime": 35.0,
      "EchoTrainLength": 39,
      "FlipAngle": 90.0,
      "HighBit": 11,
      "ImageOrientationPatient": [0.9990532029485, -0.0434764221461, 0.00158063142788, 0.03995143567952, 0.93122204929862, 0.36225595604107],
      "ImagePositionPatient": [-747.06161487283, -623.77018765515, -311.40430617345],
      "ImageType": [
        "ORIGINAL",
        "PRIMARY",
        "M",
        "ND",
        "NORM",
        "MOSAIC"
],
      "ImagedNucleus": "1H",
      "ImagingFrequency": 123.252473,
      "InPlanePhaseEncodingDirection": "COL",
      "MRAcquisitionType": "2D",
      "MagneticFieldStrength": 3.0,
      "Manufacturer": "SIEMENS",
      "ManufacturerModelName": "Prisma",
      "Modality": "MR",
      "NumberOfAverages": 1.0,
      "NumberOfPhaseEncodingSteps": 79,
      "PercentPhaseFieldOfView": 100.0,
      "PercentSampling": 100.0,
      "PerformedProcedureStepStartTime": "084106.272000",
      "PhotometricInterpretation": "MONOCHROME2",
      "PixelBandwidth": 2315.0,
      "PixelRepresentation": 0,
      "PixelSpacing": [3.0, 3.0],
      "ProtocolName": "func-bold_task-rest_acq-p2",
      "RepetitionTime": 2000.0,
      "Rows": 480,
      "SAR": 0.05569635172775,
      "SamplesPerPixel": 1,
      "ScanOptions": "FS",
      "ScanningSequence": "EP",
      "SequenceName": "*epfid2d1_80",
      "SequenceVariant": "SK",
      "SeriesDescription": "func-bold_task-rest_acq-p2",
      "SeriesNumber": 5,
      "SeriesTime": "084944.012000",
      "SliceLocation": -51.676226654703,
      "SliceThickness": 3.5,
      "SmallestImagePixelValue": 0,
      "SoftwareVersions": "syngo MR E11",
      "SpacingBetweenSlices": 3.9899999815438,
      "SpecificCharacterSet": "ISO_IR 100",
      "StudyID": "39",
      "StudyTime": "084106.162000",
      "TransmitCoilName": "Body",
      "VariableFlipAngleFlag": "N",
      "WindowCenterWidthExplanation": "Algo1",
      "dBdt": 0.0},
    "slices": {}
  },
  "time": {
    "samples": {
      "AcquisitionNumber": [1, 2, 3, 4, 5, 6, 7, 8, 9, 10, 11, 12, 13, 14, 15, 16, 17, 18, 19, 20, 21, 22, 23, 24, 25, 26, 27, 28, 29, 30, 31, 32, 33, 34, 35, 36, 37, 38, 39, 40, 41, 42, 43, 44, 45, 46, 47, 48, 49, 50, 51, 52, 53, 54, 55, 56, 57, 58, 59, 60, 61, 62, 63, 64, 65, 66, 67, 68, 69, 70, 71, 72, 73, 74, 75, 76, 77, 78, 79, 80, 81, 82, 83, 84, 85, 86, 87, 88, 89, 90, 91, 92, 93, 94, 95, 96, 97, 98, 99, 100, 101, 102, 103, 104, 105, 106, 107, 108, 109, 110, 111, 112, 113, 114, 115, 116, 117, 118, 119, 120, 121, 122, 123, 124, 125, 126, 127, 128, 129, 130, 131, 132, 133, 134, 135, 136, 137, 138, 139, 140, 141, 142, 143, 144, 145, 146, 147, 148, 149, 150, 151, 152, 153, 154, 155, 156, 157, 158, 159, 160, 161, 162, 163, 164, 165, 166, 167, 168, 169, 170, 171, 172, 173, 174, 175, 176, 177, 178, 179, 180, 181, 182, 183, 184, 185, 186, 187, 188, 189, 190, 191, 192, 193, 194, 195, 196, 197, 198, 199, 200],
      "AcquisitionTime": ["084901.022500", "084903.022500", "084905.022500", "084907.022500", "084909.022500", "084911.022500", "084913.022500", "084915.022500", "084917.022500", "084919.022500", "084921.022500", "084923.022500", "084925.022500", "084927.022500", "084929.022500", "084931.022500", "084933.022500", "084935.022500", "084937.022500", "084939.022500", "084941.022500", "084943.022500", "084945.022500", "084947.022500", "084949.022500", "084951.022500", "084953.022500", "084955.022500", "084957.022500", "084959.022500", "085001.022500", "085003.022500", "085005.022500", "085007.022500", "085009.022500", "085011.022500", "085013.022500", "085015.022500", "085017.022500", "085019.022500", "085021.022500", "085023.022500", "085025.022500", "085027.022500", "085029.022500", "085031.022500", "085033.022500", "085035.022500", "085037.022500", "085039.022500", "085041.022500", "085043.022500", "085045.022500", "085047.022500", "085049.022500", "085051.022500", "085053.022500", "085055.022500", "085057.022500", "085059.022500", "085101.022500", "085103.022500", "085105.022500", "085107.022500", "085109.022500", "085111.022500", "085113.022500", "085115.022500", "085117.022500", "085119.022500", "085121.022500", "085123.022500", "085125.022500", "085127.022500", "085129.022500", "085131.022500", "085133.022500", "085135.022500", "085137.022500", "085139.022500", "085141.022500", "085143.022500", "085145.022500", "085147.022500", "085149.022500", "085151.022500", "085153.022500", "085155.022500", "085157.022500", "085159.022500", "085201.022500", "085203.022500", "085205.022500", "085207.022500", "085209.022500", "085211.022500", "085213.022500", "085215.022500", "085217.022500", "085219.022500", "085221.022500", "085223.022500", "085225.022500", "085227.022500", "085229.022500", "085231.022500", "085233.022500", "085235.022500", "085237.022500", "085239.022500", "085241.022500", "085243.022500", "085245.022500", "085247.022500", "085249.022500", "085251.022500", "085253.022500", "085255.022500", "085257.022500", "085259.022500", "085301.022500", "085303.022500", "085305.022500", "085307.022500", "085309.022500", "085311.022500", "085313.022500", "085315.022500", "085317.022500", "085319.022500", "085321.022500", "085323.022500", "085325.022500", "085327.022500", "085329.022500", "085331.022500", "085333.022500", "085335.022500", "085337.022500", "085339.022500", "085341.022500", "085343.022500", "085345.022500", "085347.022500", "085349.022500", "085351.022500", "085353.022500", "085355.022500", "085357.022500", "085359.022500", "085401.022500", "085403.022500", "085405.022500", "085407.022500", "085409.022500", "085411.022500", "085413.022500", "085415.022500", "085417.022500", "085419.022500", "085421.022500", "085423.022500", "085425.022500", "085427.022500", "085429.022500", "085431.022500", "085433.022500", "085435.022500", "085437.022500", "085439.022500", "085441.022500", "085443.022500", "085445.022500", "085447.022500", "085449.022500", "085451.022500", "085453.022500", "085455.022500", "085457.022500", "085459.022500", "085501.022500", "085503.022500", "085505.022500", "085507.022500", "085509.022500", "085511.022500", "085513.022500", "085515.022500", "085517.022500", "085519.022500", "085521.022500", "085523.022500", "085525.022500", "085527.022500", "085529.022500", "085531.022500", "085533.022500", "085535.022500", "085537.022500", "085539.022500"],
      "ContentTime": ["084944.017000", "084944.020000", "084944.023000", "084944.026000", "084944.028000", "084944.031000", "084944.033000", "084944.036000", "084944.038000", "084944.041000", "084944.043000", "084944.046000", "084944.048000", "084944.051000", "084944.053000", "084944.056000", "084944.058000", "084944.061000", "084944.063000", "084944.066000", "084944.073000", "085024.010000", "085024.013000", "085024.021000", "085024.023000", "085024.026000", "085024.028000", "085024.031000", "085024.034000", "085024.036000", "085024.039000", "085024.041000", "085024.044000", "085024.046000", "085024.049000", "085024.051000", "085024.054000", "085024.056000", "085024.059000", "085024.061000", "085024.064000", "085104.010000", "085104.013000", "085104.016000", "085104.018000", "085104.021000", "085104.023000", "085104.029000", "085104.031000", "085104.034000", "085104.036000", "085104.039000", "085104.041000", "085104.044000", "085104.046000", "085104.049000", "085104.051000", "085104.054000", "085104.056000", "085104.059000", "085104.061000", "085144.010000", "085144.013000", "085144.016000", "085144.018000", "085144.021000", "085144.023000", "085144.026000", "085144.028000", "085144.031000", "085144.033000", "085144.036000", "085144.038000", "085144.041000", "085144.044000", "085144.046000", "085144.049000", "085144.051000", "085144.054000", "085144.056000", "085144.059000", "085224.010000", "085224.013000", "085224.016000", "085224.018000", "085224.021000", "085224.023000", "085224.026000", "085224.028000", "085224.031000", "085224.033000", "085224.036000", "085224.039000", "085224.041000", "085224.044000", "085224.046000", "085224.049000", "085224.051000", "085224.054000", "085224.056000", "085224.059000", "085304.010000", "085304.013000", "085304.016000", "085304.018000", "085304.021000", "085304.023000", "085304.026000", "085304.028000", "085304.031000", "085304.033000", "085304.036000", "085304.039000", "085304.041000", "085304.044000", "085304.046000", "085304.049000", "085304.051000", "085304.054000", "085304.056000", "085304.059000", "085344.010000", "085344.013000", "085344.016000", "085344.018000", "085344.021000", "085344.023000", "085344.026000", "085344.029000", "085344.031000", "085344.034000", "085344.036000", "085344.039000", "085344.041000", "085344.044000", "085344.047000", "085344.049000", "085344.052000", "085344.054000", "085344.057000", "085344.059000", "085424.010000", "085424.013000", "085424.016000", "085424.018000", "085424.021000", "085424.023000", "085424.026000", "085424.028000", "085424.031000", "085424.033000", "085424.036000", "085424.038000", "085424.041000", "085424.044000", "085424.047000", "085424.050000", "085424.052000", "085424.054000", "085424.057000", "085424.060000", "085504.010000", "085504.013000", "085504.016000", "085504.018000", "085504.021000", "085504.023000", "085504.026000", "085504.029000", "085504.031000", "085504.034000", "085504.037000", "085504.039000", "085504.042000", "085504.044000", "085504.047000", "085504.050000", "085504.052000", "085504.055000", "085504.058000", "085504.060000", "085540.527000", "085540.530000", "085540.532000", "085540.535000", "085540.538000", "085540.540000", "085540.543000", "085540.545000", "085540.548000", "085540.551000", "085540.553000", "085540.562000", "085540.566000", "085540.570000", "085540.576000", "085540.579000", "085540.582000", "085540.585000", "085540.588000"],
      "InstanceCreationTime": ["084944.017000", "084944.020000", "084944.023000", "084944.026000", "084944.028000", "084944.031000", "084944.033000", "084944.036000", "084944.038000", "084944.041000", "084944.043000", "084944.046000", "084944.048000", "084944.051000", "084944.053000", "084944.056000", "084944.058000", "084944.061000", "084944.063000", "084944.066000", "084944.073000", "085024.010000", "085024.013000", "085024.021000", "085024.023000", "085024.026000", "085024.028000", "085024.031000", "085024.034000", "085024.036000", "085024.039000", "085024.041000", "085024.044000", "085024.046000", "085024.049000", "085024.051000", "085024.054000", "085024.056000", "085024.059000", "085024.061000", "085024.064000", "085104.010000", "085104.013000", "085104.016000", "085104.018000", "085104.021000", "085104.023000", "085104.029000", "085104.031000", "085104.034000", "085104.036000", "085104.039000", "085104.041000", "085104.044000", "085104.046000", "085104.049000", "085104.051000", "085104.054000", "085104.056000", "085104.059000", "085104.061000", "085144.010000", "085144.013000", "085144.016000", "085144.018000", "085144.021000", "085144.023000", "085144.026000", "085144.028000", "085144.031000", "085144.033000", "085144.036000", "085144.038000", "085144.041000", "085144.044000", "085144.046000", "085144.049000", "085144.051000", "085144.054000", "085144.056000", "085144.059000", "085224.010000", "085224.013000", "085224.016000", "085224.018000", "085224.021000", "085224.023000", "085224.026000", "085224.028000", "085224.031000", "085224.033000", "085224.036000", "085224.039000", "085224.041000", "085224.044000", "085224.046000", "085224.049000", "085224.051000", "085224.054000", "085224.056000", "085224.059000", "085304.010000", "085304.013000", "085304.016000", "085304.018000", "085304.021000", "085304.023000", "085304.026000", "085304.028000", "085304.031000", "085304.033000", "085304.036000", "085304.039000", "085304.041000", "085304.044000", "085304.046000", "085304.049000", "085304.051000", "085304.054000", "085304.056000", "085304.059000", "085344.010000", "085344.013000", "085344.016000", "085344.018000", "085344.021000", "085344.023000", "085344.026000", "085344.029000", "085344.031000", "085344.034000", "085344.036000", "085344.039000", "085344.041000", "085344.044000", "085344.047000", "085344.049000", "085344.052000", "085344.054000", "085344.057000", "085344.059000", "085424.010000", "085424.013000", "085424.016000", "085424.018000", "085424.021000", "085424.023000", "085424.026000", "085424.028000", "085424.031000", "085424.033000", "085424.036000", "085424.038000", "085424.041000", "085424.044000", "085424.047000", "085424.050000", "085424.052000", "085424.054000", "085424.057000", "085424.060000", "085504.010000", "085504.013000", "085504.016000", "085504.018000", "085504.021000", "085504.023000", "085504.026000", "085504.029000", "085504.031000", "085504.034000", "085504.037000", "085504.039000", "085504.042000", "085504.044000", "085504.047000", "085504.050000", "085504.052000", "085504.055000", "085504.058000", "085504.060000", "085540.527000", "085540.530000", "085540.532000", "085540.535000", "085540.538000", "085540.540000", "085540.543000", "085540.545000", "085540.548000", "085540.551000", "085540.553000", "085540.562000", "085540.566000", "085540.570000", "085540.576000", "085540.579000", "085540.582000", "085540.585000", "085540.588000"],
      "InstanceNumber": [1, 2, 3, 4, 5, 6, 7, 8, 9, 10, 11, 12, 13, 14, 15, 16, 17, 18, 19, 20, 21, 22, 23, 24, 25, 26, 27, 28, 29, 30, 31, 32, 33, 34, 35, 36, 37, 38, 39, 40, 41, 42, 43, 44, 45, 46, 47, 48, 49, 50, 51, 52, 53, 54, 55, 56, 57, 58, 59, 60, 61, 62, 63, 64, 65, 66, 67, 68, 69, 70, 71, 72, 73, 74, 75, 76, 77, 78, 79, 80, 81, 82, 83, 84, 85, 86, 87, 88, 89, 90, 91, 92, 93, 94, 95, 96, 97, 98, 99, 100, 101, 102, 103, 104, 105, 106, 107, 108, 109, 110, 111, 112, 113, 114, 115, 116, 117, 118, 119, 120, 121, 122, 123, 124, 125, 126, 127, 128, 129, 130, 131, 132, 133, 134, 135, 136, 137, 138, 139, 140, 141, 142, 143, 144, 145, 146, 147, 148, 149, 150, 151, 152, 153, 154, 155, 156, 157, 158, 159, 160, 161, 162, 163, 164, 165, 166, 167, 168, 169, 170, 171, 172, 173, 174, 175, 176, 177, 178, 179, 180, 181, 182, 183, 184, 185, 186, 187, 188, 189, 190, 191, 192, 193, 194, 195, 196, 197, 198, 199, 200],
      "LargestImagePixelValue": [2092, 2084, 2088, 2093, 2089, 2088, 2095, 2093, 2094, 2092, 2091, 2082, 2086, 2093, 2089, 2091, 2085, 2084, 2087, 2083, 2084, 2082, 2087, 2083, 2094, 2088, 2086, 2086, 2083, 2087, 2085, 2090, 2085, 2087, 2088, 2087, 2095, 2087, 2089, 2084, 2084, 2088, 2087, 2088, 2088, 2087, 2085, 2089, 2089, 2077, 2088, 2084, 2084, 2085, 2081, 2085, 2087, 2083, 2088, 2085, 2090, 2091, 2087, 2089, 2087, 2087, 2087, 2086, 2081, 2083, 2089, 2091, 2090, 2082, 2085, 2083, 2084, 2091, 2090, 2084, 2085, 2090, 2088, 2088, 2089, 2092, 2080, 2084, 2087, 2087, 2087, 2082, 2089, 2084, 2084, 2085, 2085, 2086, 2086, 2082, 2085, 2085, 2083, 2092, 2085, 2089, 2088, 2085, 2087, 2089, 2089, 2090, 2096, 2083, 2084, 2089, 2089, 2084, 2093, 2083, 2092, 2091, 2086, 2088, 2089, 2085, 2092, 2089, 2085, 2088, 2089, 2088, 2081, 2082, 2087, 2092, 2087, 2088, 2087, 2084, 2090, 2087, 2088, 2088, 2084, 2088, 2086, 2086, 2082, 2086, 2085, 2082, 2087, 2093, 2086, 2082, 2083, 2086, 2085, 2083, 2083, 2089, 2088, 2087, 2090, 2087, 2085, 2090, 2087, 2087, 2087, 2088, 2088, 2088, 2085, 2090, 2089, 2082, 2089, 2086, 2092, 2091, 2085, 2087, 2087, 2087, 2090, 2087, 2086, 2086, 2086, 2094, 2087, 2090, 2088, 2089, 2088, 2087, 2088, 2088],
      "WindowCenter": [1016.0, 1017.0, 1016.0, 1016.0, 1016.0, 1016.0, 1016.0, 1016.0, 1016.0, 1017.0, 1016.0, 1016.0, 1016.0, 1016.0, 1016.0, 1016.0, 1016.0, 1016.0, 1016.0, 1017.0, 1016.0, 1016.0, 1016.0, 1016.0, 1016.0, 1016.0, 1016.0, 1016.0, 1016.0, 1016.0, 1016.0, 1016.0, 1016.0, 1016.0, 1016.0, 1016.0, 1016.0, 1017.0, 1016.0, 1017.0, 1016.0, 1016.0, 1016.0, 1017.0, 1016.0, 1016.0, 1016.0, 1016.0, 1016.0, 1016.0, 1016.0, 1016.0, 1016.0, 1016.0, 1016.0, 1016.0, 1016.0, 1016.0, 1018.0, 1017.0, 1016.0, 1016.0, 1016.0, 1016.0, 1016.0, 1016.0, 1016.0, 1016.0, 1016.0, 1016.0, 1016.0, 1016.0, 1016.0, 1016.0, 1016.0, 1016.0, 1017.0, 1017.0, 1016.0, 1016.0, 1016.0, 1016.0, 1016.0, 1016.0, 1017.0, 1017.0, 1016.0, 1016.0, 1017.0, 1018.0, 1016.0, 1016.0, 1017.0, 1016.0, 1016.0, 1016.0, 1016.0, 1017.0, 1016.0, 1017.0, 1016.0, 1016.0, 1016.0, 1016.0, 1017.0, 1016.0, 1016.0, 1016.0, 1016.0, 1017.0, 1016.0, 1017.0, 1016.0, 1016.0, 1016.0, 1016.0, 1016.0, 1016.0, 1016.0, 1016.0, 1016.0, 1016.0, 1016.0, 1016.0, 1016.0, 1016.0, 1016.0, 1016.0, 1016.0, 1016.0, 1017.0, 1016.0, 1016.0, 1016.0, 1018.0, 1016.0, 1017.0, 1016.0, 1016.0, 1016.0, 1016.0, 1016.0, 1017.0, 1016.0, 1016.0, 1017.0, 1016.0, 1016.0, 1016.0, 1016.0, 1016.0, 1016.0, 1016.0, 1016.0, 1016.0, 1016.0, 1017.0, 1016.0, 1016.0, 1017.0, 1016.0, 1016.0, 1017.0, 1016.0, 1017.0, 1017.0, 1016.0, 1016.0, 1016.0, 1016.0, 1016.0, 1016.0, 1016.0, 1017.0, 1017.0, 1017.0, 1016.0, 1016.0, 1017.0, 1016.0, 1016.0, 1016.0, 1016.0, 1016.0, 1016.0, 1016.0, 1016.0, 1017.0, 1016.0, 1016.0, 1016.0, 1016.0, 1016.0, 1016.0, 1016.0, 1016.0, 1017.0, 1016.0, 1016.0, 1016.0],
      "WindowWidth": [2244.0, 2245.0, 2244.0, 2244.0, 2244.0, 2244.0, 2244.0, 2244.0, 2244.0, 2245.0, 2244.0, 2244.0, 2243.0, 2244.0, 2244.0, 2244.0, 2244.0, 2244.0, 2244.0, 2245.0, 2244.0, 2244.0, 2244.0, 2244.0, 2243.0, 2244.0, 2244.0, 2244.0, 2244.0, 2244.0, 2244.0, 2244.0, 2244.0, 2244.0, 2244.0, 2244.0, 2244.0, 2245.0, 2243.0, 2245.0, 2244.0, 2244.0, 2243.0, 2245.0, 2244.0, 2244.0, 2244.0, 2244.0, 2244.0, 2244.0, 2244.0, 2244.0, 2244.0, 2243.0, 2244.0, 2244.0, 2244.0, 2243.0, 2245.0, 2244.0, 2244.0, 2244.0, 2244.0, 2244.0, 2244.0, 2244.0, 2244.0, 2244.0, 2244.0, 2244.0, 2244.0, 2244.0, 2244.0, 2243.0, 2244.0, 2244.0, 2244.0, 2244.0, 2243.0, 2243.0, 2243.0, 2243.0, 2243.0, 2244.0, 2244.0, 2244.0, 2243.0, 2243.0, 2244.0, 2245.0, 2244.0, 2243.0, 2244.0, 2244.0, 2244.0, 2243.0, 2243.0, 2244.0, 2243.0, 2244.0, 2244.0, 2243.0, 2243.0, 2243.0, 2244.0, 2243.0, 2243.0, 2243.0, 2243.0, 2244.0, 2243.0, 2244.0, 2244.0, 2243.0, 2243.0, 2243.0, 2243.0, 2244.0, 2243.0, 2243.0, 2243.0, 2243.0, 2243.0, 2243.0, 2243.0, 2243.0, 2243.0, 2243.0, 2244.0, 2243.0, 2244.0, 2244.0, 2243.0, 2243.0, 2245.0, 2243.0, 2244.0, 2243.0, 2243.0, 2243.0, 2243.0, 2244.0, 2244.0, 2243.0, 2244.0, 2244.0, 2244.0, 2244.0, 2243.0, 2243.0, 2243.0, 2243.0, 2243.0, 2243.0, 2243.0, 2243.0, 2244.0, 2244.0, 2243.0, 2244.0, 2243.0, 2244.0, 2244.0, 2243.0, 2244.0, 2244.0, 2243.0, 2244.0, 2243.0, 2243.0, 2243.0, 2243.0, 2243.0, 2244.0, 2244.0, 2244.0, 2243.0, 2243.0, 2244.0, 2243.0, 2243.0, 2243.0, 2243.0, 2243.0, 2243.0, 2243.0, 2243.0, 2244.0, 2243.0, 2243.0, 2244.0, 2243.0, 2243.0, 2243.0, 2243.0, 2243.0, 2244.0, 2243.0, 2243.0, 2244.0]
    },
    "slices": {}
  }
}