{
  "AcquisitionMatrixPE": 80,
  "AcquisitionNumber": 1,
  "AcquisitionTime": "08:55:55.135000",
  "BandwidthPerPixelPhaseEncode": 44.643,
  "BaseResolution": 80,
  "BodyPartExamined": "BRAIN",
  "CoilCombinationMethod": "Sum of Squares",
  "ConsistencyInfo": "N4_VE11C_LATEST_20160120",
  "ConversionSoftware": "dcm2niix",
  "ConversionSoftwareVersion": "v1.0.20220720",
  "DerivedVendorReportedEchoSpacing": 0.000559998,
  "DeviceSerialNumber": "66112",
  "DwellTime": 2.7e-06,
  "EchoTime": 0.035,
  "EchoTrainLength": 39,
  "EffectiveEchoSpacing": 0.000279999,
  "FlipAngle": 90,
  "HeudiconvVersion": "0.13.1",
  "ImageOrientationPatientDICOM": [0.999053, -0.0434764, 0.00158063, 0.0399514, 0.931222, 0.362256],
  "ImageOrientationText": "Tra>Cor(21.2)>Sag(1.0)",
  "ImageType": [
    "ORIGINAL",
    "PRIMARY",
    "M",
    "ND",
    "NORM",
    "MOSAIC"
],
  "ImagingFrequency": 123.252,
  "InPlanePhaseEncodingDirectionDICOM": "COL",
  "InstitutionAddress": "Maynard 3,Hanover,NH,US,03755",
  "InstitutionName": "Dartmouth College - PBS",
  "InstitutionalDepartmentName": "Department",
  "MRAcquisitionType": "2D",
  "MagneticFieldStrength": 3,
  "Manufacturer": "Siemens",
  "ManufacturersModelName": "Prisma",
  "Modality": "MR",
  "MultibandAccelerationFactor": 4,
  "NonlinearGradientCorrection": false,
  "ParallelReductionFactorInPlane": 2,
  "PartialFourier": 1,
  "PatientPosition": "HFS",
  "PercentPhaseFOV": 100,
  "PercentSampling": 100,
  "PhaseEncodingDirection": "j-",
  "PhaseEncodingSteps": 79,
  "PhaseResolution": 1,
  "PixelBandwidth": 2315,
  "ProcedureStepDescription": "dbic^QA",
  "ProtocolName": "func-bold_task-rest_acq-p2-s4-3.5mm",
  "PulseSequenceDetails": "%SiemensSeq%\\ep2d_bold",
  "ReceiveCoilActiveElements": "HEA;HEP",
  "ReceiveCoilName": "Head_32",
  "ReconMatrixPE": 80,
  "RefLinesPE": 24,
  "RepetitionTime": 2,
  "SAR": 0.0209435,
  "ScanOptions": "FS",
  "ScanningSequence": "EP",
  "SequenceName": "*epfid2d1_80",
  "SequenceVariant": "SK",
  "SeriesDescription": "func-bold_task-rest_acq-p2-s4-3.5mm",
  "SeriesNumber": 7,
  "ShimSetting": [4144, -7696, -7523, 228, -80, -196, 6, 56],
  "SliceThickness": 3.5,
  "SliceTiming": [1.485, 0, 0.99, 0.2475, 1.2375, 0.7425, 1.7325, 0.495, 1.485, 0, 0.99, 0.2475, 1.2375, 0.7425, 1.7325, 0.495, 1.485, 0, 0.99, 0.2475, 1.2375, 0.7425, 1.7325, 0.495, 1.485, 0, 0.99, 0.2475, 1.2375, 0.7425, 1.7325, 0.495],
  "SoftwareVersions": "syngo MR E11",
  "SpacingBetweenSlices": 3.99,
  "StationName": "AWP66112",
  "TaskName": "rest",
  "TotalReadoutTime": 0.0221199,
  "TxRefAmp": 229.727,
  "dcmmeta_affine": [
    [-2.997159719467163, 0.11985430866479874, 0.06871382892131805, 114.12162780761719],
    [0.13042926788330078, 2.793666124343872, 1.443780779838562, -131.02059936523438],
    [0.004741894081234932, -1.0867679119110107, 3.7189884185791016, -10.966682434082031],
    [0.0, 0.0, 0.0, 1.0]
],
  "dcmmeta_reorient_transform": [
    [0.0, -1.0, 0.0, 79.0],
    [1.0, 0.0, 0.0, 0.0],
    [0.0, 0.0, 1.0, 0.0],
    [0.0, 0.0, 0.0, 1.0]
],
  "dcmmeta_shape": [80, 80, 32, 200],
  "dcmmeta_slice_dim": 2,
  "dcmmeta_version": 0.6,
  "global": {
    "const": {
      "AccessionNumber": "qa",
      "AcquisitionMatrix": [80, 0, 0, 80],
      "AngioFlag": "N",
      "BitsAllocated": 16,
      "BitsStored": 12,
      "BodyPartExamined": "BRAIN",
      "Columns": 480,
      "EchoNumbers": 1,
      "EchoTime": 35.0,
      "EchoTrainLength": 39,
      "FlipAngle": 90.0,
      "HighBit": 11,
      "ImageOrientationPatient": [0.9990532029485, -0.0434764221461, 0.00158063142788, 0.03995143567952, 0.93122204929862, 0.36225595604107],
      "ImagePositionPatient": [-746.9929009694, -622.32640675611, -315.12329649937],
      "ImageType": [
        "ORIGINAL",
        "PRIMARY",
        "M",
        "ND",
        "NORM",
        "MOSAIC"
],
      "ImagedNucleus": "1H",
      "ImagingFrequency": 123.25247,
      "InPlanePhaseEncodingDirection": "COL",
      "MRAcquisitionType": "2D",
      "MagneticFieldStrength": 3.0,
      "Manufacturer": "SIEMENS",
      "ManufacturerModelName": "Prisma",
      "Modality": "MR",
      "NumberOfAverages": 1.0,
      "NumberOfPhaseEncodingSteps": 79,
      "PercentPhaseFieldOfView": 100.0,
      "PercentSampling": 100.0,
      "PerformedProcedureStepStartTime": "084106.272000",
      "PhotometricInterpretation": "MONOCHROME2",
      "PixelBandwidth": 2315.0,
      "PixelRepresentation": 0,
      "PixelSpacing": [3.0, 3.0],
      "ProtocolName": "func-bold_task-rest_acq-p2-s4-3.5mm",
      "RepetitionTime": 2000.0,
      "Rows": 480,
      "SAR": 0.02094345074687,
      "SamplesPerPixel": 1,
      "ScanOptions": "FS",
      "ScanningSequence": "EP",
      "SequenceName": "*epfid2d1_80",
      "SequenceVariant": "SK",
      "SeriesDescription": "func-bold_task-rest_acq-p2-s4-3.5mm",
      "SeriesNumber": 7,
      "SeriesTime": "085643.870000",
      "SliceLocation": -55.666228400232,
      "SliceThickness": 3.5,
      "SmallestImagePixelValue": 0,
      "SoftwareVersions": "syngo MR E11",
      "SpacingBetweenSlices": 3.9899999806196,
      "SpecificCharacterSet": "ISO_IR 100",
      "StudyID": "39",
      "StudyTime": "084106.162000",
      "TransmitCoilName": "Body",
      "VariableFlipAngleFlag": "N",
      "WindowCenterWidthExplanation": "Algo1",
      "dBdt": 0.0},
    "slices": {}
  },
  "time": {
    "samples": {
      "AcquisitionNumber": [1, 2, 3, 4, 5, 6, 7, 8, 9, 10, 11, 12, 13, 14, 15, 16, 17, 18, 19, 20, 21, 22, 23, 24, 25, 26, 27, 28, 29, 30, 31, 32, 33, 34, 35, 36, 37, 38, 39, 40, 41, 42, 43, 44, 45, 46, 47, 48, 49, 50, 51, 52, 53, 54, 55, 56, 57, 58, 59, 60, 61, 62, 63, 64, 65, 66, 67, 68, 69, 70, 71, 72, 73, 74, 75, 76, 77, 78, 79, 80, 81, 82, 83, 84, 85, 86, 87, 88, 89, 90, 91, 92, 93, 94, 95, 96, 97, 98, 99, 100, 101, 102, 103, 104, 105, 106, 107, 108, 109, 110, 111, 112, 113, 114, 115, 116, 117, 118, 119, 120, 121, 122, 123, 124, 125, 126, 127, 128, 129, 130, 131, 132, 133, 134, 135, 136, 137, 138, 139, 140, 141, 142, 143, 144, 145, 146, 147, 148, 149, 150, 151, 152, 153, 154, 155, 156, 157, 158, 159, 160, 161, 162, 163, 164, 165, 166, 167, 168, 169, 170, 171, 172, 173, 174, 175, 176, 177, 178, 179, 180, 181, 182, 183, 184, 185, 186, 187, 188, 189, 190, 191, 192, 193, 194, 195, 196, 197, 198, 199, 200],
      "AcquisitionTime": ["085555.135000", "085557.135000", "085559.135000", "085601.135000", "085603.135000", "085605.135000", "085607.135000", "085609.135000", "085611.135000", "085613.135000", "085615.135000", "085617.135000", "085619.135000", "085621.135000", "085623.135000", "085625.135000", "085627.135000", "085629.135000", "085631.135000", "085633.135000", "085635.135000", "085637.135000", "085639.135000", "085641.135000", "085643.135000", "085645.135000", "085647.135000", "085649.135000", "085651.135000", "085653.135000", "085655.135000", "085657.135000", "085659.135000", "085701.135000", "085703.135000", "085705.135000", "085707.135000", "085709.135000", "085711.135000", "085713.135000", "085715.135000", "085717.135000", "085719.135000", "085721.135000", "085723.135000", "085725.135000", "085727.135000", "085729.135000", "085731.135000", "085733.135000", "085735.135000", "085737.135000", "085739.135000", "085741.135000", "085743.135000", "085745.135000", "085747.135000", "085749.135000", "085751.135000", "085753.135000", "085755.135000", "085757.135000", "085759.135000", "085801.135000", "085803.135000", "085805.135000", "085807.135000", "085809.135000", "085811.135000", "085813.135000", "085815.135000", "085817.135000", "085819.135000", "085821.135000", "085823.135000", "085825.135000", "085827.135000", "085829.135000", "085831.135000", "085833.135000", "085835.135000", "085837.135000", "085839.135000", "085841.135000", "085843.135000", "085845.135000", "085847.135000", "085849.135000", "085851.135000", "085853.135000", "085855.135000", "085857.135000", "085859.135000", "085901.135000", "085903.135000", "085905.135000", "085907.135000", "085909.135000", "085911.135000", "085913.135000", "085915.135000", "085917.135000", "085919.135000", "085921.135000", "085923.135000", "085925.135000", "085927.135000", "085929.135000", "085931.135000", "085933.135000", "085935.135000", "085937.135000", "085939.135000", "085941.135000", "085943.135000", "085945.135000", "085947.135000", "085949.135000", "085951.135000", "085953.135000", "085955.135000", "085957.135000", "085959.135000", "090001.135000", "090003.135000", "090005.135000", "090007.135000", "090009.135000", "090011.135000", "090013.135000", "090015.135000", "090017.135000", "090019.135000", "090021.135000", "090023.135000", "090025.135000", "090027.135000", "090029.135000", "090031.135000", "090033.135000", "090035.135000", "090037.135000", "090039.135000", "090041.135000", "090043.135000", "090045.135000", "090047.135000", "090049.135000", "090051.135000", "090053.135000", "090055.135000", "090057.135000", "090059.135000", "090101.135000", "090103.135000", "090105.135000", "090107.135000", "090109.135000", "090111.135000", "090113.135000", "090115.135000", "090117.135000", "090119.135000", "090121.135000", "090123.135000", "090125.135000", "090127.135000", "090129.135000", "090131.135000", "090133.135000", "090135.135000", "090137.135000", "090139.135000", "090141.135000", "090143.135000", "090145.135000", "090147.135000", "090149.135000", "090151.135000", "090153.135000", "090155.135000", "090157.135000", "090159.135000", "090201.135000", "090203.135000", "090205.135000", "090207.135000", "090209.135000", "090211.135000", "090213.135000", "090215.135000", "090217.135000", "090219.135000", "090221.135000", "090223.135000", "090225.135000", "090227.135000", "090229.135000", "090231.135000", "090233.135000"],
      "ContentTime": ["085643.874000", "085643.878000", "085643.880000", "085643.883000", "085643.885000", "085643.895000", "085643.898000", "085643.900000", "085643.903000", "085643.905000", "085643.908000", "085643.910000", "085643.913000", "085643.918000", "085643.921000", "085643.927000", "085643.929000", "085643.932000", "085643.934000", "085643.937000", "085643.939000", "085643.942000", "085643.945000", "085643.947000", "085723.868000", "085723.871000", "085723.874000", "085723.876000", "085723.879000", "085723.882000", "085723.884000", "085723.887000", "085723.889000", "085723.892000", "085723.894000", "085723.897000", "085723.899000", "085723.902000", "085723.905000", "085723.913000", "085723.916000", "085723.918000", "085723.921000", "085723.924000", "085803.868000", "085803.871000", "085803.874000", "085803.876000", "085803.879000", "085803.881000", "085803.884000", "085803.886000", "085803.889000", "085803.891000", "085803.902000", "085803.904000", "085803.907000", "085803.909000", "085803.912000", "085803.915000", "085803.917000", "085803.920000", "085803.922000", "085803.925000", "085843.868000", "085843.871000", "085843.874000", "085843.876000", "085843.879000", "085843.881000", "085843.884000", "085843.887000", "085843.889000", "085843.892000", "085843.894000", "085843.897000", "085843.899000", "085843.902000", "085843.904000", "085843.907000", "085843.909000", "085843.912000", "085843.914000", "085843.917000", "085923.868000", "085923.871000", "085923.874000", "085923.876000", "085923.879000", "085923.881000", "085923.884000", "085923.887000", "085923.889000", "085923.892000", "085923.894000", "085923.897000", "085923.899000", "085923.902000", "085923.904000", "085923.907000", "085923.910000", "085923.912000", "085923.915000", "085923.917000", "090003.868000", "090003.871000", "090003.874000", "090003.876000", "090003.879000", "090003.881000", "090003.884000", "090003.887000", "090003.889000", "090003.892000", "090003.894000", "090003.897000", "090003.900000", "090003.902000", "090003.905000", "090003.907000", "090003.910000", "090003.912000", "090003.915000", "090003.918000", "090043.868000", "090043.871000", "090043.874000", "090043.876000", "090043.879000", "090043.881000", "090043.884000", "090043.893000", "090043.895000", "090043.898000", "090043.900000", "090043.903000", "090043.905000", "090043.908000", "090043.910000", "090043.913000", "090043.916000", "090043.918000", "090043.921000", "090043.923000", "090123.868000", "090123.871000", "090123.874000", "090123.876000", "090123.879000", "090123.881000", "090123.884000", "090123.887000", "090123.889000", "090123.892000", "090123.894000", "090123.897000", "090123.899000", "090123.902000", "090123.905000", "090123.907000", "090123.910000", "090123.912000", "090123.915000", "090123.917000", "090203.868000", "090203.871000", "090203.874000", "090203.876000", "090203.879000", "090203.882000", "090203.884000", "090203.887000", "090203.889000", "090203.892000", "090203.894000", "090203.897000", "090203.900000", "090203.902000", "090203.905000", "090203.907000", "090203.910000", "090203.912000", "090203.915000", "090203.917000", "090234.465000", "090234.468000", "090234.471000", "090234.473000", "090234.476000", "090234.479000", "090234.481000", "090234.484000", "090234.486000", "090234.489000", "090234.491000", "090234.495000", "090234.500000", "090234.504000", "090234.507000", "090234.510000"],
      "InstanceCreationTime": ["085643.874000", "085643.878000", "085643.880000", "085643.883000", "085643.885000", "085643.895000", "085643.898000", "085643.900000", "085643.903000", "085643.905000", "085643.908000", "085643.910000", "085643.913000", "085643.918000", "085643.921000", "085643.927000", "085643.929000", "085643.932000", "085643.934000", "085643.937000", "085643.939000", "085643.942000", "085643.945000", "085643.947000", "085723.868000", "085723.871000", "085723.874000", "085723.876000", "085723.879000", "085723.882000", "085723.884000", "085723.887000", "085723.889000", "085723.892000", "085723.894000", "085723.897000", "085723.899000", "085723.902000", "085723.905000", "085723.913000", "085723.916000", "085723.918000", "085723.921000", "085723.924000", "085803.868000", "085803.871000", "085803.874000", "085803.876000", "085803.879000", "085803.881000", "085803.884000", "085803.886000", "085803.889000", "085803.891000", "085803.902000", "085803.904000", "085803.907000", "085803.909000", "085803.912000", "085803.915000", "085803.917000", "085803.920000", "085803.922000", "085803.925000", "085843.868000", "085843.871000", "085843.874000", "085843.876000", "085843.879000", "085843.881000", "085843.884000", "085843.887000", "085843.889000", "085843.892000", "085843.894000", "085843.897000", "085843.899000", "085843.902000", "085843.904000", "085843.907000", "085843.909000", "085843.912000", "085843.914000", "085843.917000", "085923.868000", "085923.871000", "085923.874000", "085923.876000", "085923.879000", "085923.881000", "085923.884000", "085923.887000", "085923.889000", "085923.892000", "085923.894000", "085923.897000", "085923.899000", "085923.902000", "085923.904000", "085923.907000", "085923.910000", "085923.912000", "085923.915000", "085923.917000", "090003.868000", "090003.871000", "090003.874000", "090003.876000", "090003.879000", "090003.881000", "090003.884000", "090003.887000", "090003.889000", "090003.892000", "090003.894000", "090003.897000", "090003.900000", "090003.902000", "090003.905000", "090003.907000", "090003.910000", "090003.912000", "090003.915000", "090003.918000", "090043.868000", "090043.871000", "090043.874000", "090043.876000", "090043.879000", "090043.881000", "090043.884000", "090043.893000", "090043.895000", "090043.898000", "090043.900000", "090043.903000", "090043.905000", "090043.908000", "090043.910000", "090043.913000", "090043.916000", "090043.918000", "090043.921000", "090043.923000", "090123.868000", "090123.871000", "090123.874000", "090123.876000", "090123.879000", "090123.881000", "090123.884000", "090123.887000", "090123.889000", "090123.892000", "090123.894000", "090123.897000", "090123.899000", "090123.902000", "090123.905000", "090123.907000", "090123.910000", "090123.912000", "090123.915000", "090123.917000", "090203.868000", "090203.871000", "090203.874000", "090203.876000", "090203.879000", "090203.882000", "090203.884000", "090203.887000", "090203.889000", "090203.892000", "090203.894000", "090203.897000", "090203.900000", "090203.902000", "090203.905000", "090203.907000", "090203.910000", "090203.912000", "090203.915000", "090203.917000", "090234.465000", "090234.468000", "090234.471000", "090234.473000", "090234.476000", "090234.479000", "090234.481000", "090234.484000", "090234.486000", "090234.489000", "090234.491000", "090234.495000", "090234.500000", "090234.504000", "090234.507000", "090234.510000"],
      "InstanceNumber": [1, 2, 3, 4, 5, 6, 7, 8, 9, 10, 11, 12, 13, 14, 15, 16, 17, 18, 19, 20, 21, 22, 23, 24, 25, 26, 27, 28, 29, 30, 31, 32, 33, 34, 35, 36, 37, 38, 39, 40, 41, 42, 43, 44, 45, 46, 47, 48, 49, 50, 51, 52, 53, 54, 55, 56, 57, 58, 59, 60, 61, 62, 63, 64, 65, 66, 67, 68, 69, 70, 71, 72, 73, 74, 75, 76, 77, 78, 79, 80, 81, 82, 83, 84, 85, 86, 87, 88, 89, 90, 91, 92, 93, 94, 95, 96, 97, 98, 99, 100, 101, 102, 103, 104, 105, 106, 107, 108, 109, 110, 111, 112, 113, 114, 115, 116, 117, 118, 119, 120, 121, 122, 123, 124, 125, 126, 127, 128, 129, 130, 131, 132, 133, 134, 135, 136, 137, 138, 139, 140, 141, 142, 143, 144, 145, 146, 147, 148, 149, 150, 151, 152, 153, 154, 155, 156, 157, 158, 159, 160, 161, 162, 163, 164, 165, 166, 167, 168, 169, 170, 171, 172, 173, 174, 175, 176, 177, 178, 179, 180, 181, 182, 183, 184, 185, 186, 187, 188, 189, 190, 191, 192, 193, 194, 195, 196, 197, 198, 199, 200],
      "LargestImagePixelValue": [2071, 2071, 2070, 2068, 2070, 2069, 2073, 2070, 2073, 2065, 2068, 2070, 2069, 2067, 2069, 2069, 2073, 2071, 2067, 2067, 2070, 2073, 2071, 2066, 2066, 2067, 2070, 2070, 2063, 2071, 2065, 2069, 2066, 2065, 2066, 2069, 2070, 2071, 2069, 2067, 2063, 2066, 2068, 2067, 2066, 2067, 2070, 2069, 2067, 2063, 2069, 2066, 2064, 2067, 2070, 2069, 2068, 2059, 2070, 2065, 2066, 2068, 2063, 2068, 2068, 2067, 2069, 2069, 2066, 2066, 2067, 2068, 2065, 2067, 2069, 2066, 2066, 2065, 2066, 2066, 2065, 2067, 2067, 2064, 2069, 2063, 2064, 2067, 2067, 2067, 2068, 2067, 2068, 2061, 2063, 2068, 2067, 2065, 2060, 2066, 2066, 2061, 2064, 2065, 2065, 2063, 2064, 2061, 2067, 2064, 2069, 2065, 2061, 2068, 2068, 2069, 2070, 2063, 2066, 2067, 2066, 2064, 2067, 2066, 2065, 2063, 2066, 2067, 2069, 2061, 2065, 2062, 2063, 2066, 2064, 2065, 2062, 2062, 2065, 2064, 2069, 2064, 2063, 2065, 2069, 2065, 2064, 2069, 2063, 2072, 2063, 2065, 2064, 2065, 2063, 2064, 2067, 2069, 2068, 2063, 2060, 2063, 2061, 2063, 2065, 2063, 2065, 2065, 2069, 2060, 2066, 2064, 2060, 2060, 2066, 2059, 2063, 2067, 2066, 2063, 2063, 2065, 2063, 2067, 2065, 2063, 2064, 2061, 2065, 2064, 2069, 2065, 2068, 2067, 2060, 2069, 2065, 2069, 2065, 2061],
      "WindowCenter": [945.0, 945.0, 945.0, 945.0, 945.0, 945.0, 945.0, 946.0, 946.0, 946.0, 946.0, 945.0, 946.0, 946.0, 946.0, 946.0, 945.0, 946.0, 946.0, 946.0, 946.0, 946.0, 946.0, 946.0, 946.0, 946.0, 946.0, 946.0, 946.0, 946.0, 946.0, 946.0, 946.0, 946.0, 946.0, 946.0, 946.0, 946.0, 946.0, 946.0, 946.0, 946.0, 946.0, 946.0, 946.0, 946.0, 946.0, 946.0, 946.0, 946.0, 946.0, 946.0, 946.0, 946.0, 946.0, 946.0, 946.0, 946.0, 946.0, 946.0, 946.0, 946.0, 946.0, 946.0, 946.0, 946.0, 946.0, 946.0, 946.0, 946.0, 946.0, 946.0, 946.0, 946.0, 946.0, 946.0, 946.0, 946.0, 946.0, 946.0, 946.0, 946.0, 946.0, 946.0, 946.0, 946.0, 946.0, 946.0, 946.0, 946.0, 946.0, 946.0, 946.0, 946.0, 946.0, 946.0, 946.0, 946.0, 946.0, 946.0, 946.0, 946.0, 946.0, 946.0, 946.0, 946.0, 946.0, 946.0, 946.0, 946.0, 946.0, 946.0, 946.0, 946.0, 946.0, 946.0, 946.0, 946.0, 946.0, 946.0, 946.0, 946.0, 946.0, 946.0, 946.0, 946.0, 946.0, 946.0, 946.0, 946.0, 946.0, 946.0, 946.0, 946.0, 946.0, 946.0, 946.0, 946.0, 946.0, 946.0, 946.0, 946.0, 946.0, 946.0, 946.0, 946.0, 946.0, 946.0, 946.0, 946.0, 946.0, 946.0, 946.0, 946.0, 946.0, 946.0, 946.0, 946.0, 946.0, 946.0, 946.0, 946.0, 946.0, 946.0, 946.0, 946.0, 946.0, 946.0, 946.0, 946.0, 946.0, 946.0, 946.0, 946.0, 946.0, 946.0, 946.0, 946.0, 946.0, 946.0, 946.0, 946.0, 946.0, 946.0, 946.0, 946.0, 946.0, 946.0, 946.0, 946.0, 946.0, 946.0, 946.0, 946.0, 946.0, 946.0, 946.0, 946.0, 946.0, 946.0],
      "WindowWidth": [2181.0, 2181.0, 2181.0, 2181.0, 2181.0, 2181.0, 2181.0, 2181.0, 2181.0, 2181.0, 2181.0, 2181.0, 2181.0, 2181.0, 2182.0, 2182.0, 2182.0, 2181.0, 2182.0, 2181.0, 2182.0, 2182.0, 2182.0, 2181.0, 2182.0, 2182.0, 2182.0, 2181.0, 2182.0, 2181.0, 2182.0, 2182.0, 2182.0, 2182.0, 2182.0, 2181.0, 2182.0, 2182.0, 2181.0, 2181.0, 2182.0, 2182.0, 2182.0, 2182.0, 2182.0, 2182.0, 2182.0, 2181.0, 2181.0, 2181.0, 2182.0, 2181.0, 2182.0, 2182.0, 2181.0, 2182.0, 2181.0, 2182.0, 2182.0, 2181.0, 2182.0, 2181.0, 2182.0, 2181.0, 2181.0, 2181.0, 2182.0, 2181.0, 2181.0, 2181.0, 2181.0, 2181.0, 2182.0, 2181.0, 2181.0, 2181.0, 2181.0, 2181.0, 2181.0, 2181.0, 2181.0, 2181.0, 2181.0, 2181.0, 2181.0, 2181.0, 2181.0, 2181.0, 2181.0, 2181.0, 2181.0, 2181.0, 2181.0, 2181.0, 2181.0, 2181.0, 2181.0, 2181.0, 2181.0, 2181.0, 2181.0, 2181.0, 2181.0, 2181.0, 2181.0, 2181.0, 2181.0, 2181.0, 2181.0, 2181.0, 2181.0, 2181.0, 2181.0, 2181.0, 2181.0, 2181.0, 2181.0, 2181.0, 2181.0, 2181.0, 2181.0, 2181.0, 2181.0, 2181.0, 2181.0, 2181.0, 2181.0, 2181.0, 2181.0, 2181.0, 2181.0, 2181.0, 2181.0, 2181.0, 2181.0, 2181.0, 2181.0, 2180.0, 2181.0, 2181.0, 2181.0, 2181.0, 2181.0, 2181.0, 2181.0, 2181.0, 2181.0, 2181.0, 2181.0, 2181.0, 2181.0, 2181.0, 2181.0, 2181.0, 2181.0, 2181.0, 2181.0, 2181.0, 2181.0, 2181.0, 2181.0, 2181.0, 2181.0, 2181.0, 2181.0, 2181.0, 2181.0, 2181.0, 2181.0, 2181.0, 2181.0, 2181.0, 2181.0, 2181.0, 2181.0, 2181.0, 2181.0, 2181.0, 2181.0, 2181.0, 2181.0, 2181.0, 2181.0, 2181.0, 2181.0, 2181.0, 2181.0, 2181.0, 2180.0, 2181.0, 2181.0, 2181.0, 2181.0, 2181.0, 2181.0, 2181.0, 2181.0, 2181.0, 2181.0, 2181.0]
    },
    "slices": {}
  }
}