{
  "AcquisitionMatrixPE": 122,
  "AcquisitionNumber": 1,
  "AcquisitionTime": "11:42:20.590000",
  "BandwidthPerPixelPhaseEncode": 28.76,
  "BaseResolution": 122,
  "BodyPartExamined": "BRAIN",
  "CoilCombinationMethod": "Adaptive Combine",
  "ConsistencyInfo": "N4_VE11C_LATEST_20160120",
  "ConversionSoftware": "dcm2niix",
  "ConversionSoftwareVersion": "v1.0.20220720",
  "DerivedVendorReportedEchoSpacing": 0.000570008,
  "DeviceSerialNumber": "66112",
  "DiffusionScheme": "Monopolar",
  "DwellTime": 2e-06,
  "EchoTime": 0.075,
  "EchoTrainLength": 61,
  "EffectiveEchoSpacing": 0.000285004,
  "FlipAngle": 90,
  "HeudiconvVersion": "0.13.1",
  "ImageOrientationPatientDICOM": [0.984859, 0.173222, 0.00686961, -0.167107, 0.938057, 0.303521],
  "ImageOrientationText": "Tra>Cor(17.5)>Sag(-2.6)",
  "ImageType": [
    "ORIGINAL",
    "PRIMARY",
    "DIFFUSION",
    "NONE",
    "ND",
    "NORM"
],
  "ImagingFrequency": 123.252,
  "InPlanePhaseEncodingDirectionDICOM": "COL",
  "InstitutionAddress": "Maynard 3,Hanover,NH,US,03755",
  "InstitutionName": "Dartmouth College - PBS",
  "InstitutionalDepartmentName": "Department",
  "MRAcquisitionType": "2D",
  "MagneticFieldStrength": 3,
  "Manufacturer": "Siemens",
  "ManufacturersModelName": "Prisma",
  "MatrixCoilMode": "GRAPPA",
  "Modality": "MR",
  "NonlinearGradientCorrection": false,
  "ParallelReductionFactorInPlane": 2,
  "PartialFourier": 1,
  "PatientPosition": "HFS",
  "PercentPhaseFOV": 100,
  "PercentSampling": 100,
  "PhaseEncodingDirection": "j-",
  "PhaseEncodingSteps": 122,
  "PhaseResolution": 1,
  "PixelBandwidth": 2050,
  "ProcedureStepDescription": "dbic^QA",
  "ProtocolName": "dwi_acq-DTI-30-p2",
  "PulseSequenceDetails": "%SiemensSeq%\\ep2d_diff",
  "ReceiveCoilActiveElements": "HEA;HEP",
  "ReceiveCoilName": "Head_32",
  "ReconMatrixPE": 122,
  "RefLinesPE": 38,
  "RepetitionTime": 7.7,
  "SAR": 0.0875978,
  "ScanOptions": "FS",
  "ScanningSequence": "EP",
  "SequenceName": "*ep_b0",
  "SequenceVariant": "SK\\SP",
  "SeriesDescription": "dwi_acq-DTI-30-p2",
  "SeriesNumber": 12,
  "ShimSetting": [4131, -7707, -7526, 251, -125, -105, 2, 25],
  "SliceThickness": 2,
  "SliceTiming": [3.84375, 0, 3.94531, 0.10938, 4.05469, 0.21875, 4.16406, 0.32812, 4.28125, 0.4375, 4.39062, 0.54688, 4.5, 0.65625, 4.60938, 0.76562, 4.71875, 0.875, 4.82812, 0.98438, 4.9375, 1.09375, 5.04688, 1.20312, 5.15625, 1.3125, 5.26562, 1.42188, 5.375, 1.53125, 5.48438, 1.64844, 5.59375, 1.75781, 5.70312, 1.86719, 5.8125, 1.97656, 5.92188, 2.08594, 6.03125, 2.19531, 6.14062, 2.30469, 6.25, 2.41406, 6.35938, 2.52344, 6.46875, 2.63281, 6.58594, 2.74219, 6.69531, 2.85156, 6.79688, 2.96094, 6.90625, 3.07031, 7.02344, 3.17969, 7.13281, 3.28906, 7.24219, 3.39844, 7.35156, 3.50781, 7.46094, 3.61719, 7.57031, 3.72656],
  "SoftwareVersions": "syngo MR E11",
  "SpacingBetweenSlices": 2,
  "SpoilingState": true,
  "StationName": "AWP66112",
  "TotalReadoutTime": 0.0344855,
  "TxRefAmp": 222.123,
  "dcmmeta_affine": [
    [-1.9374274015426636, -0.328734815120697, -0.09226459264755249, 143.4026336669922],
    [-0.3407636880874634, 1.8453574180603027, 0.6001472473144531, -98.35619354248047],
    [0.013513986952602863, -0.5970904231071472, 1.9056015014648438, -30.00466537475586],
    [0.0, 0.0, 0.0, 1.0]
],
  "dcmmeta_reorient_transform": [
    [0.0, -1.0, 0.0, 121.0],
    [1.0, 0.0, 0.0, 0.0],
    [0.0, 0.0, -1.0, 69.0],
    [0.0, 0.0, 0.0, 1.0]
],
  "dcmmeta_shape": [122, 122, 70, 31],
  "dcmmeta_slice_dim": 2,
  "dcmmeta_version": 0.6,
  "global": {
    "const": {
      "AccessionNumber": "qa",
      "AcquisitionMatrix": [122, 0, 0, 122],
      "AngioFlag": "N",
      "BitsAllocated": 16,
      "BitsStored": 12,
      "BodyPartExamined": "BRAIN",
      "Columns": 122,
      "EchoNumbers": 1,
      "EchoTime": 75.0,
      "EchoTrainLength": 61,
      "FlipAngle": 90.0,
      "HighBit": 11,
      "ImageOrientationPatient": [0.98485892869339, 0.17322153165976, 0.00686961005902, -0.1671068617509, 0.93805667628916, 0.30352095286008],
      "ImageType": [
        "ORIGINAL",
        "PRIMARY",
        "DIFFUSION",
        "NONE",
        "ND",
        "NORM"
],
      "ImagedNucleus": "1H",
      "ImagingFrequency": 123.252324,
      "InPlanePhaseEncodingDirection": "COL",
      "MRAcquisitionType": "2D",
      "MagneticFieldStrength": 3.0,
      "Manufacturer": "SIEMENS",
      "ManufacturerModelName": "Prisma",
      "Modality": "MR",
      "NumberOfAverages": 1.0,
      "NumberOfPhaseEncodingSteps": 122,
      "PercentPhaseFieldOfView": 100.0,
      "PercentSampling": 100.0,
      "PerformedProcedureStepStartTime": "101533.154000",
      "PhotometricInterpretation": "MONOCHROME2",
      "PixelBandwidth": 2050.0,
      "PixelRepresentation": 0,
      "PixelSpacing": [1.9672131538391, 1.9672131538391],
      "ProtocolName": "dwi_acq-DTI-30-p2",
      "RepetitionTime": 7700.0,
      "Rows": 122,
      "SAR": 0.08759776410382,
      "SamplesPerPixel": 1,
      "ScanOptions": "FS",
      "ScanningSequence": "EP",
      "SequenceVariant": [
        "SK",
        "SP"
],
      "SeriesDescription": "dwi_acq-DTI-30-p2",
      "SeriesNumber": 12,
      "SeriesTime": "114220.506000",
      "SliceThickness": 2.0,
      "SmallestImagePixelValue": 0,
      "SoftwareVersions": "syngo MR E11",
      "SpacingBetweenSlices": 2.0,
      "SpecificCharacterSet": "ISO_IR 100",
      "StudyID": "67",
      "StudyTime": "101533.098000",
      "TransmitCoilName": "Body",
      "VariableFlipAngleFlag": "N",
      "WindowCenterWidthExplanation": "Algo1",
      "dBdt": 0.0},
    "slices": {
      "AcquisitionTime": ["114220.590000", "114216.750000", "114220.697500", "114216.857500", "114220.807500", "114216.967500", "114220.917500", "114217.077500", "114221.027500", "114217.187500", "114221.137500", "114217.297500", "114221.247500", "114217.407500", "114221.357500", "114217.517500", "114221.467500", "114217.627500", "114221.577500", "114217.737500", "114221.685000", "114217.845000", "114221.795000", "114217.955000", "114221.905000", "114218.065000", "114222.015000", "114218.175000", "114222.125000", "114218.285000", "114222.235000", "114218.395000", "114222.345000", "114218.505000", "114222.455000", "114218.615000", "114222.562500", "114218.725000", "114222.672500", "114218.832500", "114222.782500", "114218.942500", "114222.892500", "114219.052500", "114223.002500", "114219.162500", "114223.112500", "114219.272500", "114223.222500", "114219.382500", "114223.332500", "114219.492500", "114223.442500", "114219.602500", "114223.550000", "114219.710000", "114223.660000", "114219.820000", "114223.770000", "114219.930000", "114223.880000", "114220.040000", "114223.990000", "114220.150000", "114224.100000", "114220.260000", "114224.210000", "114220.370000", "114224.320000", "114220.480000", "114228.290000", "114224.450000", "114228.397500", "114224.557500", "114228.507500", "114224.667500", "114228.617500", "114224.777500", "114228.727500", "114224.887500", "114228.837500", "114224.997500", "114228.947500", "114225.107500", "114229.057500", "114225.217500", "114229.167500", "114225.327500", "114229.277500", "114225.437500", "114229.385000", "114225.545000", "114229.495000", "114225.655000", "114229.605000", "114225.765000", "114229.715000", "114225.875000", "114229.825000", "114225.985000", "114229.935000", "114226.095000", "114230.045000", "114226.205000", "114230.155000", "114226.315000", "114230.262500", "114226.425000", "114230.372500", "114226.532500", "114230.482500", "114226.642500", "114230.592500", "114226.752500", "114230.702500", "114226.862500", "114230.812500", "114226.972500", "114230.922500", "114227.082500", "114231.032500", "114227.192500", "114231.142500", "114227.302500", "114231.250000", "114227.410000", "114231.360000", "114227.520000", "114231.470000", "114227.630000", "114231.580000", "114227.740000", "114231.690000", "114227.850000", "114231.800000", "114227.960000", "114231.910000", "114228.070000", "114232.020000", "114228.180000", "114235.990000", "114232.150000", "114236.097500", "114232.257500", "114236.207500", "114232.367500", "114236.317500", "114232.477500", "114236.427500", "114232.587500", "114236.537500", "114232.697500", "114236.647500", "114232.807500", "114236.757500", "114232.917500", "114236.867500", "114233.027500", "114236.977500", "114233.137500", "114237.085000", "114233.245000", "114237.195000", "114233.355000", "114237.305000", "114233.465000", "114237.415000", "114233.575000", "114237.525000", "114233.685000", "114237.635000", "114233.795000", "114237.745000", "114233.905000", "114237.855000", "114234.015000", "114237.962500", "114234.125000", "114238.072500", "114234.232500", "114238.182500", "114234.342500", "114238.292500", "114234.452500", "114238.402500", "114234.562500", "114238.512500", "114234.672500", "114238.622500", "114234.782500", "114238.732500", "114234.892500", "114238.842500", "114235.002500", "114238.950000", "114235.110000", "114239.060000", "114235.220000", "114239.170000", "114235.330000", "114239.280000", "114235.440000", "114239.390000", "114235.550000", "114239.500000", "114235.660000", "114239.610000", "114235.770000", "114239.720000", "114235.880000", "114243.690000", "114239.850000", "114243.797500", "114239.957500", "114243.907500", "114240.067500", "114244.017500", "114240.177500", "114244.127500", "114240.287500", "114244.237500", "114240.397500", "114244.347500", "114240.507500", "114244.457500", "114240.617500", "114244.567500", "114240.727500", "114244.677500", "114240.837500", "114244.785000", "114240.945000", "114244.895000", "114241.055000", "114245.005000", "114241.165000", "114245.115000", "114241.275000", "114245.225000", "114241.385000", "114245.335000", "114241.495000", "114245.445000", "114241.605000", "114245.555000", "114241.715000", "114245.662500", "114241.825000", "114245.772500", "114241.932500", "114245.882500", "114242.042500", "114245.992500", "114242.152500", "114246.102500", "114242.262500", "114246.212500", "114242.372500", "114246.322500", "114242.482500", "114246.432500", "114242.592500", "114246.542500", "114242.702500", "114246.650000", "114242.810000", "114246.760000", "114242.920000", "114246.870000", "114243.030000", "114246.980000", "114243.140000", "114247.090000", "114243.250000", "114247.200000", "114243.360000", "114247.310000", "114243.470000", "114247.420000", "114243.580000", "114251.390000", "114247.550000", "114251.497500", "114247.657500", "114251.607500", "114247.767500", "114251.717500", "114247.877500", "114251.827500", "114247.987500", "114251.937500", "114248.097500", "114252.047500", "114248.207500", "114252.157500", "114248.317500", "114252.267500", "114248.427500", "114252.377500", "114248.537500", "114252.485000", "114248.645000", "114252.595000", "114248.755000", "114252.705000", "114248.865000", "114252.815000", "114248.975000", "114252.925000", "114249.085000", "114253.035000", "114249.195000", "114253.145000", "114249.305000", "114253.255000", "114249.415000", "114253.362500", "114249.525000", "114253.472500", "114249.632500", "114253.582500", "114249.742500", "114253.692500", "114249.852500", "114253.802500", "114249.962500", "114253.912500", "114250.072500", "114254.022500", "114250.182500", "114254.132500", "114250.292500", "114254.242500", "114250.402500", "114254.350000", "114250.510000", "114254.460000", "114250.620000", "114254.570000", "114250.730000", "114254.680000", "114250.840000", "114254.790000", "114250.950000", "114254.900000", "114251.060000", "114255.010000", "114251.170000", "114255.120000", "114251.280000", "114259.090000", "114255.250000", "114259.197500", "114255.357500", "114259.307500", "114255.467500", "114259.417500", "114255.577500", "114259.527500", "114255.687500", "114259.637500", "114255.797500", "114259.747500", "114255.907500", "114259.857500", "114256.017500", "114259.967500", "114256.127500", "114300.077500", "114256.237500", "114300.185000", "114256.345000", "114300.295000", "114256.455000", "114300.405000", "114256.565000", "114300.515000", "114256.675000", "114300.625000", "114256.785000", "114300.735000", "114256.895000", "114300.845000", "114257.005000", "114300.955000", "114257.115000", "114301.062500", "114257.225000", "114301.172500", "114257.332500", "114301.282500", "114257.442500", "114301.392500", "114257.552500", "114301.502500", "114257.662500", "114301.612500", "114257.772500", "114301.722500", "114257.882500", "114301.832500", "114257.992500", "114301.942500", "114258.102500", "114302.050000", "114258.210000", "114302.160000", "114258.320000", "114302.270000", "114258.430000", "114302.380000", "114258.540000", "114302.490000", "114258.650000", "114302.600000", "114258.760000", "114302.710000", "114258.870000", "114302.820000", "114258.980000", "114306.790000", "114302.950000", "114306.897500", "114303.057500", "114307.007500", "114303.167500", "114307.117500", "114303.277500", "114307.227500", "114303.387500", "114307.337500", "114303.497500", "114307.447500", "114303.607500", "114307.557500", "114303.717500", "114307.667500", "114303.827500", "114307.777500", "114303.937500", "114307.885000", "114304.045000", "114307.995000", "114304.155000", "114308.105000", "114304.265000", "114308.215000", "114304.375000", "114308.325000", "114304.485000", "114308.435000", "114304.595000", "114308.545000", "114304.705000", "114308.655000", "114304.815000", "114308.762500", "114304.925000", "114308.872500", "114305.032500", "114308.982500", "114305.142500", "114309.092500", "114305.252500", "114309.202500", "114305.362500", "114309.312500", "114305.472500", "114309.422500", "114305.582500", "114309.532500", "114305.692500", "114309.642500", "114305.802500", "114309.750000", "114305.910000", "114309.860000", "114306.020000", "114309.970000", "114306.130000", "114310.080000", "114306.240000", "114310.190000", "114306.350000", "114310.300000", "114306.460000", "114310.410000", "114306.570000", "114310.520000", "114306.680000", "114314.490000", "114310.650000", "114314.597500", "114310.757500", "114314.707500", "114310.867500", "114314.817500", "114310.977500", "114314.927500", "114311.087500", "114315.037500", "114311.197500", "114315.147500", "114311.307500", "114315.257500", "114311.417500", "114315.367500", "114311.527500", "114315.477500", "114311.637500", "114315.585000", "114311.745000", "114315.695000", "114311.855000", "114315.805000", "114311.965000", "114315.915000", "114312.075000", "114316.025000", "114312.185000", "114316.135000", "114312.295000", "114316.245000", "114312.405000", "114316.355000", "114312.515000", "114316.462500", "114312.625000", "114316.572500", "114312.732500", "114316.682500", "114312.842500", "114316.792500", "114312.952500", "114316.902500", "114313.062500", "114317.012500", "114313.172500", "114317.122500", "114313.282500", "114317.232500", "114313.392500", "114317.342500", "114313.502500", "114317.450000", "114313.610000", "114317.560000", "114313.720000", "114317.670000", "114313.830000", "114317.780000", "114313.940000", "114317.890000", "114314.050000", "114318.000000", "114314.160000", "114318.110000", "114314.270000", "114318.220000", "114314.380000", "114322.190000", "114318.350000", "114322.297500", "114318.457500", "114322.407500", "114318.567500", "114322.517500", "114318.677500", "114322.627500", "114318.787500", "114322.737500", "114318.897500", "114322.847500", "114319.007500", "114322.957500", "114319.117500", "114323.067500", "114319.227500", "114323.177500", "114319.337500", "114323.285000", "114319.445000", "114323.395000", "114319.555000", "114323.505000", "114319.665000", "114323.615000", "114319.775000", "114323.725000", "114319.885000", "114323.835000", "114319.995000", "114323.945000", "114320.105000", "114324.055000", "114320.215000", "114324.162500", "114320.325000", "114324.272500", "114320.432500", "114324.382500", "114320.542500", "114324.492500", "114320.652500", "114324.602500", "114320.762500", "114324.712500", "114320.872500", "114324.822500", "114320.982500", "114324.932500", "114321.092500", "114325.042500", "114321.202500", "114325.150000", "114321.310000", "114325.260000", "114321.420000", "114325.370000", "114321.530000", "114325.480000", "114321.640000", "114325.590000", "114321.750000", "114325.700000", "114321.860000", "114325.810000", "114321.970000", "114325.920000", "114322.080000", "114329.890000", "114326.050000", "114329.997500", "114326.157500", "114330.107500", "114326.267500", "114330.217500", "114326.377500", "114330.327500", "114326.487500", "114330.437500", "114326.597500", "114330.547500", "114326.707500", "114330.657500", "114326.817500", "114330.767500", "114326.927500", "114330.877500", "114327.037500", "114330.985000", "114327.145000", "114331.095000", "114327.255000", "114331.205000", "114327.365000", "114331.315000", "114327.475000", "114331.425000", "114327.585000", "114331.535000", "114327.695000", "114331.645000", "114327.805000", "114331.755000", "114327.915000", "114331.862500", "114328.025000", "114331.972500", "114328.132500", "114332.082500", "114328.242500", "114332.192500", "114328.352500", "114332.302500", "114328.462500", "114332.412500", "114328.572500", "114332.522500", "114328.682500", "114332.632500", "114328.792500", "114332.742500", "114328.902500", "114332.850000", "114329.010000", "114332.960000", "114329.120000", "114333.070000", "114329.230000", "114333.180000", "114329.340000", "114333.290000", "114329.450000", "114333.400000", "114329.560000", "114333.510000", "114329.670000", "114333.620000", "114329.780000", "114337.590000", "114333.750000", "114337.697500", "114333.857500", "114337.807500", "114333.967500", "114337.917500", "114334.077500", "114338.027500", "114334.187500", "114338.137500", "114334.297500", "114338.247500", "114334.407500", "114338.357500", "114334.517500", "114338.467500", "114334.627500", "114338.577500", "114334.737500", "114338.685000", "114334.845000", "114338.795000", "114334.955000", "114338.905000", "114335.065000", "114339.015000", "114335.175000", "114339.125000", "114335.285000", "114339.235000", "114335.395000", "114339.345000", "114335.505000", "114339.455000", "114335.615000", "114339.562500", "114335.725000", "114339.672500", "114335.832500", "114339.782500", "114335.942500", "114339.892500", "114336.052500", "114340.002500", "114336.162500", "114340.112500", "114336.272500", "114340.222500", "114336.382500", "114340.332500", "114336.492500", "114340.442500", "114336.602500", "114340.550000", "114336.710000", "114340.660000", "114336.820000", "114340.770000", "114336.930000", "114340.880000", "114337.040000", "114340.990000", "114337.150000", "114341.100000", "114337.260000", "114341.210000", "114337.370000", "114341.320000", "114337.480000", "114345.290000", "114341.450000", "114345.397500", "114341.557500", "114345.507500", "114341.667500", "114345.617500", "114341.777500", "114345.727500", "114341.887500", "114345.837500", "114341.997500", "114345.947500", "114342.107500", "114346.057500", "114342.217500", "114346.167500", "114342.327500", "114346.277500", "114342.437500", "114346.385000", "114342.545000", "114346.495000", "114342.655000", "114346.605000", "114342.765000", "114346.715000", "114342.875000", "114346.825000", "114342.985000", "114346.935000", "114343.095000", "114347.045000", "114343.205000", "114347.155000", "114343.315000", "114347.262500", "114343.425000", "114347.372500", "114343.532500", "114347.482500", "114343.642500", "114347.592500", "114343.752500", "114347.702500", "114343.862500", "114347.812500", "114343.972500", "114347.922500", "114344.082500", "114348.032500", "114344.192500", "114348.142500", "114344.302500", "114348.250000", "114344.410000", "114348.360000", "114344.520000", "114348.470000", "114344.630000", "114348.580000", "114344.740000", "114348.690000", "114344.850000", "114348.800000", "114344.960000", "114348.910000", "114345.070000", "114349.020000", "114345.180000", "114352.990000", "114349.150000", "114353.097500", "114349.257500", "114353.207500", "114349.367500", "114353.317500", "114349.477500", "114353.427500", "114349.587500", "114353.537500", "114349.697500", "114353.647500", "114349.807500", "114353.757500", "114349.917500", "114353.867500", "114350.027500", "114353.977500", "114350.137500", "114354.085000", "114350.245000", "114354.195000", "114350.355000", "114354.305000", "114350.465000", "114354.415000", "114350.575000", "114354.525000", "114350.685000", "114354.635000", "114350.795000", "114354.745000", "114350.905000", "114354.855000", "114351.015000", "114354.962500", "114351.125000", "114355.072500", "114351.232500", "114355.182500", "114351.342500", "114355.292500", "114351.452500", "114355.402500", "114351.562500", "114355.512500", "114351.672500", "114355.622500", "114351.782500", "114355.732500", "114351.892500", "114355.842500", "114352.002500", "114355.950000", "114352.110000", "114356.060000", "114352.220000", "114356.170000", "114352.330000", "114356.280000", "114352.440000", "114356.390000", "114352.550000", "114356.500000", "114352.660000", "114356.610000", "114352.770000", "114356.720000", "114352.880000", "114400.690000", "114356.850000", "114400.797500", "114356.957500", "114400.907500", "114357.067500", "114401.017500", "114357.177500", "114401.127500", "114357.287500", "114401.237500", "114357.397500", "114401.347500", "114357.507500", "114401.457500", "114357.617500", "114401.567500", "114357.727500", "114401.677500", "114357.837500", "114401.785000", "114357.945000", "114401.895000", "114358.055000", "114402.005000", "114358.165000", "114402.115000", "114358.275000", "114402.225000", "114358.385000", "114402.335000", "114358.495000", "114402.445000", "114358.605000", "114402.555000", "114358.715000", "114402.662500", "114358.825000", "114402.772500", "114358.932500", "114402.882500", "114359.042500", "114402.992500", "114359.152500", "114403.102500", "114359.262500", "114403.212500", "114359.372500", "114403.322500", "114359.482500", "114403.432500", "114359.592500", "114403.542500", "114359.702500", "114403.650000", "114359.810000", "114403.760000", "114359.920000", "114403.870000", "114400.030000", "114403.980000", "114400.140000", "114404.090000", "114400.250000", "114404.200000", "114400.360000", "114404.310000", "114400.470000", "114404.420000", "114400.580000", "114408.390000", "114404.550000", "114408.497500", "114404.657500", "114408.607500", "114404.767500", "114408.717500", "114404.877500", "114408.827500", "114404.987500", "114408.937500", "114405.097500", "114409.047500", "114405.207500", "114409.157500", "114405.317500", "114409.267500", "114405.427500", "114409.377500", "114405.537500", "114409.485000", "114405.645000", "114409.595000", "114405.755000", "114409.705000", "114405.865000", "114409.815000", "114405.975000", "114409.925000", "114406.085000", "114410.035000", "114406.195000", "114410.145000", "114406.305000", "114410.255000", "114406.415000", "114410.362500", "114406.525000", "114410.472500", "114406.632500", "114410.582500", "114406.742500", "114410.692500", "114406.852500", "114410.802500", "114406.962500", "114410.912500", "114407.072500", "114411.022500", "114407.182500", "114411.132500", "114407.292500", "114411.242500", "114407.402500", "114411.350000", "114407.510000", "114411.460000", "114407.620000", "114411.570000", "114407.730000", "114411.680000", "114407.840000", "114411.790000", "114407.950000", "114411.900000", "114408.060000", "114412.010000", "114408.170000", "114412.120000", "114408.280000", "114416.090000", "114412.250000", "114416.197500", "114412.357500", "114416.307500", "114412.467500", "114416.417500", "114412.577500", "114416.527500", "114412.687500", "114416.637500", "114412.797500", "114416.747500", "114412.907500", "114416.857500", "114413.017500", "114416.967500", "114413.127500", "114417.077500", "114413.237500", "114417.185000", "114413.345000", "114417.295000", "114413.455000", "114417.405000", "114413.565000", "114417.515000", "114413.675000", "114417.625000", "114413.785000", "114417.735000", "114413.895000", "114417.845000", "114414.005000", "114417.955000", "114414.115000", "114418.062500", "114414.225000", "114418.172500", "114414.332500", "114418.282500", "114414.442500", "114418.392500", "114414.552500", "114418.502500", "114414.662500", "114418.612500", "114414.772500", "114418.722500", "114414.882500", "114418.832500", "114414.992500", "114418.942500", "114415.102500", "114419.050000", "114415.210000", "114419.160000", "114415.320000", "114419.270000", "114415.430000", "114419.380000", "114415.540000", "114419.490000", "114415.650000", "114419.600000", "114415.760000", "114419.710000", "114415.870000", "114419.820000", "114415.980000", "114423.790000", "114419.950000", "114423.897500", "114420.057500", "114424.007500", "114420.167500", "114424.117500", "114420.277500", "114424.227500", "114420.387500", "114424.337500", "114420.497500", "114424.447500", "114420.607500", "114424.557500", "114420.717500", "114424.667500", "114420.827500", "114424.777500", "114420.937500", "114424.885000", "114421.045000", "114424.995000", "114421.155000", "114425.105000", "114421.265000", "114425.215000", "114421.375000", "114425.325000", "114421.485000", "114425.435000", "114421.595000", "114425.545000", "114421.705000", "114425.655000", "114421.815000", "114425.762500", "114421.925000", "114425.872500", "114422.032500", "114425.982500", "114422.142500", "114426.092500", "114422.252500", "114426.202500", "114422.362500", "114426.312500", "114422.472500", "114426.422500", "114422.582500", "114426.532500", "114422.692500", "114426.642500", "114422.802500", "114426.750000", "114422.910000", "114426.860000", "114423.020000", "114426.970000", "114423.130000", "114427.080000", "114423.240000", "114427.190000", "114423.350000", "114427.300000", "114423.460000", "114427.410000", "114423.570000", "114427.520000", "114423.680000", "114431.490000", "114427.650000", "114431.597500", "114427.757500", "114431.707500", "114427.867500", "114431.817500", "114427.977500", "114431.927500", "114428.087500", "114432.037500", "114428.197500", "114432.147500", "114428.307500", "114432.257500", "114428.417500", "114432.367500", "114428.527500", "114432.477500", "114428.637500", "114432.585000", "114428.745000", "114432.695000", "114428.855000", "114432.805000", "114428.965000", "114432.915000", "114429.075000", "114433.025000", "114429.185000", "114433.135000", "114429.295000", "114433.245000", "114429.405000", "114433.355000", "114429.515000", "114433.462500", "114429.625000", "114433.572500", "114429.732500", "114433.682500", "114429.842500", "114433.792500", "114429.952500", "114433.902500", "114430.062500", "114434.012500", "114430.172500", "114434.122500", "114430.282500", "114434.232500", "114430.392500", "114434.342500", "114430.502500", "114434.450000", "114430.610000", "114434.560000", "114430.720000", "114434.670000", "114430.830000", "114434.780000", "114430.940000", "114434.890000", "114431.050000", "114435.000000", "114431.160000", "114435.110000", "114431.270000", "114435.220000", "114431.380000", "114439.190000", "114435.350000", "114439.297500", "114435.457500", "114439.407500", "114435.567500", "114439.517500", "114435.677500", "114439.627500", "114435.787500", "114439.737500", "114435.897500", "114439.847500", "114436.007500", "114439.957500", "114436.117500", "114440.067500", "114436.227500", "114440.177500", "114436.337500", "114440.285000", "114436.445000", "114440.395000", "114436.555000", "114440.505000", "114436.665000", "114440.615000", "114436.775000", "114440.725000", "114436.885000", "114440.835000", "114436.995000", "114440.945000", "114437.105000", "114441.055000", "114437.215000", "114441.162500", "114437.325000", "114441.272500", "114437.432500", "114441.382500", "114437.542500", "114441.492500", "114437.652500", "114441.602500", "114437.762500", "114441.712500", "114437.872500", "114441.822500", "114437.982500", "114441.932500", "114438.092500", "114442.042500", "114438.202500", "114442.150000", "114438.310000", "114442.260000", "114438.420000", "114442.370000", "114438.530000", "114442.480000", "114438.640000", "114442.590000", "114438.750000", "114442.700000", "114438.860000", "114442.810000", "114438.970000", "114442.920000", "114439.080000", "114446.890000", "114443.050000", "114446.997500", "114443.157500", "114447.107500", "114443.267500", "114447.217500", "114443.377500", "114447.327500", "114443.487500", "114447.437500", "114443.597500", "114447.547500", "114443.707500", "114447.657500", "114443.817500", "114447.767500", "114443.927500", "114447.877500", "114444.037500", "114447.985000", "114444.145000", "114448.095000", "114444.255000", "114448.205000", "114444.365000", "114448.315000", "114444.475000", "114448.425000", "114444.585000", "114448.535000", "114444.695000", "114448.645000", "114444.805000", "114448.755000", "114444.915000", "114448.862500", "114445.025000", "114448.972500", "114445.132500", "114449.082500", "114445.242500", "114449.192500", "114445.352500", "114449.302500", "114445.462500", "114449.412500", "114445.572500", "114449.522500", "114445.682500", "114449.632500", "114445.792500", "114449.742500", "114445.902500", "114449.850000", "114446.010000", "114449.960000", "114446.120000", "114450.070000", "114446.230000", "114450.180000", "114446.340000", "114450.290000", "114446.450000", "114450.400000", "114446.560000", "114450.510000", "114446.670000", "114450.620000", "114446.780000", "114454.590000", "114450.750000", "114454.697500", "114450.857500", "114454.807500", "114450.967500", "114454.917500", "114451.077500", "114455.027500", "114451.187500", "114455.137500", "114451.297500", "114455.247500", "114451.407500", "114455.357500", "114451.517500", "114455.467500", "114451.627500", "114455.577500", "114451.737500", "114455.685000", "114451.845000", "114455.795000", "114451.955000", "114455.905000", "114452.065000", "114456.015000", "114452.175000", "114456.125000", "114452.285000", "114456.235000", "114452.395000", "114456.345000", "114452.505000", "114456.455000