{
  "AcquisitionMatrixPE": 80,
  "AcquisitionNumber": 1,
  "AcquisitionTime": "09:08:58.742500",
  "BandwidthPerPixelPhaseEncode": 48.077,
  "BaseResolution": 80,
  "BodyPartExamined": "BRAIN",
  "CoilCombinationMethod": "Sum of Squares",
  "ConsistencyInfo": "N4_VE11E_LATEST_20181129",
  "ConversionSoftware": "dcm2niix",
  "ConversionSoftwareVersion": "v1.0.20220720",
  "DerivedVendorReportedEchoSpacing": 0.000519999,
  "DeviceSerialNumber": "66112",
  "DwellTime": 2.7e-06,
  "EchoTime": 0.035,
  "EchoTrainLength": 39,
  "EffectiveEchoSpacing": 0.00026,
  "FlipAngle": 90,
  "HeudiconvVersion": "0.13.1",
  "ImageOrientationPatientDICOM": [0.999963, 0.00849573, 0.00149247, -0.00855198, 0.953857, 0.300138],
  "ImageOrientationText": "Tra>Cor(17.5)>Sag(-0.1)",
  "ImageType": [
    "ORIGINAL",
    "PRIMARY",
    "M",
    "ND",
    "NORM",
    "MOSAIC"
],
  "ImagingFrequency": 123.261,
  "InPlanePhaseEncodingDirectionDICOM": "COL",
  "InstitutionAddress": "Maynard 3,Hanover,NH,US,03755",
  "InstitutionName": "Dartmouth College - PBS",
  "InstitutionalDepartmentName": "Department",
  "MRAcquisitionType": "2D",
  "MagneticFieldStrength": 3,
  "Manufacturer": "Siemens",
  "ManufacturersModelName": "Prisma",
  "MatrixCoilMode": "GRAPPA",
  "Modality": "MR",
  "NonlinearGradientCorrection": false,
  "ParallelReductionFactorInPlane": 2,
  "PartialFourier": 1,
  "PatientPosition": "HFS",
  "PercentPhaseFOV": 100,
  "PercentSampling": 100,
  "PhaseEncodingDirection": "j-",
  "PhaseEncodingSteps": 79,
  "PhaseResolution": 1,
  "PixelBandwidth": 2315,
  "ProcedureStepDescription": "dbic^QA",
  "ProtocolName": "func-bold_task-rest_acq-p2",
  "PulseSequenceDetails": "%SiemensSeq%\\ep2d_bold",
  "ReceiveCoilActiveElements": "HC1-7;NC1,2",
  "ReceiveCoilName": "HeadNeck_64",
  "ReconMatrixPE": 80,
  "RefLinesPE": 24,
  "RepetitionTime": 2,
  "SAR": 0.0356846,
  "ScanOptions": "FS",
  "ScanningSequence": "EP",
  "SequenceName": "*epfid2d1_80",
  "SequenceVariant": "SK",
  "SeriesDescription": "func-bold_task-rest_acq-p2",
  "SeriesNumber": 5,
  "ShimSetting": [4242, -7737, -7488, -114, -168, -248, -47, 133],
  "SliceThickness": 3.5,
  "SliceTiming": [0.99, 0, 1.055, 0.065, 1.12, 0.13, 1.1875, 0.1975, 1.2525, 0.2625, 1.32, 0.33, 1.385, 0.395, 1.45, 0.46, 1.5175, 0.5275, 1.5825, 0.5925, 1.65, 0.66, 1.715, 0.725, 1.78, 0.79, 1.8475, 0.8575, 1.9125, 0.9225],
  "SoftwareVersions": "syngo MR E11",
  "SpacingBetweenSlices": 3.99,
  "StationName": "AWP66112",
  "TaskName": "rest",
  "TotalReadoutTime": 0.02054,
  "TxRefAmp": 208.721,
  "dcmmeta_affine": [
    [-2.9998884201049805, -0.025655942037701607, -0.004493912681937218, 123.23150634765625],
    [-0.025487195700407028, 2.861572265625, 1.197557806968689, -127.35944366455078],
    [0.004477398470044136, -0.9004146456718445, 3.806039333343506, -23.716386795043945],
    [0.0, 0.0, 0.0, 1.0]
],
  "dcmmeta_reorient_transform": [
    [0.0, -1.0, 0.0, 79.0],
    [1.0, 0.0, 0.0, 0.0],
    [0.0, 0.0, 1.0, 0.0],
    [0.0, 0.0, 0.0, 1.0]
],
  "dcmmeta_shape": [80, 80, 30, 200],
  "dcmmeta_slice_dim": 2,
  "dcmmeta_version": 0.6,
  "global": {
    "const": {
      "AccessionNumber": "qa64",
      "AcquisitionMatrix": [80, 0, 0, 80],
      "AngioFlag": "N",
      "BitsAllocated": 16,
      "BitsStored": 12,
      "BodyPartExamined": "BRAIN",
      "Columns": 480,
      "EchoNumbers": 1,
      "EchoTime": 35.0,
      "EchoTrainLength": 39,
      "FlipAngle": 90.0,
      "HighBit": 11,
      "ImageOrientationPatient": [0.99996279685052, 0.00849573185576, 0.00149246612347, -0.0085519808796, 0.95385738971895, 0.30013820766704],
      "ImagePositionPatient": [-716.05117983113, -676.11662721824, -275.82754658547],
      "ImageType": [
        "ORIGINAL",
        "PRIMARY",
        "M",
        "ND",
        "NORM",
        "MOSAIC"
],
      "ImagedNucleus": "1H",
      "ImagingFrequency": 123.261258,
      "InPlanePhaseEncodingDirection": "COL",
      "LargestImagePixelValue": 4095,
      "MRAcquisitionType": "2D",
      "MagneticFieldStrength": 3.0,
      "Manufacturer": "SIEMENS",
      "ManufacturerModelName": "Prisma",
      "Modality": "MR",
      "NumberOfAverages": 1.0,
      "NumberOfPhaseEncodingSteps": 79,
      "PercentPhaseFieldOfView": 100.0,
      "PercentSampling": 100.0,
      "PerformedProcedureStepStartTime": "090649.655000",
      "PhotometricInterpretation": "MONOCHROME2",
      "PixelBandwidth": 2315.0,
      "PixelRepresentation": 0,
      "PixelSpacing": [3.0, 3.0],
      "ProtocolName": "func-bold_task-rest_acq-p2",
      "RepetitionTime": 2000.0,
      "Rows": 480,
      "SAR": 0.03568461872764,
      "SamplesPerPixel": 1,
      "ScanOptions": "FS",
      "ScanningSequence": "EP",
      "SequenceName": "*epfid2d1_80",
      "SequenceVariant": "SK",
      "SeriesDescription": "func-bold_task-rest_acq-p2",
      "SeriesNumber": 5,
      "SeriesTime": "090950.911000",
      "SliceLocation": -60.987367124306,
      "SliceThickness": 3.5,
      "SmallestImagePixelValue": 0,
      "SoftwareVersions": "syngo MR E11",
      "SpacingBetweenSlices": 3.9899999393654,
      "SpecificCharacterSet": "ISO_IR 100",
      "StudyID": "24",
      "StudyTime": "090649.495000",
      "TransmitCoilName": "Body",
      "VariableFlipAngleFlag": "N",
      "WindowCenterWidthExplanation": "Algo1"
    },
    "slices": {}
  },
  "time": {
    "samples": {
      "AcquisitionNumber": [1, 2, 3, 4, 5, 6, 7, 8, 9, 10, 11, 12, 13, 14, 15, 16, 17, 18, 19, 20, 21, 22, 23, 24, 25, 26, 27, 28, 29, 30, 31, 32, 33, 34, 35, 36, 37, 38, 39, 40, 41, 42, 43, 44, 45, 46, 47, 48, 49, 50, 51, 52, 53, 54, 55, 56, 57, 58, 59, 60, 61, 62, 63, 64, 65, 66, 67, 68, 69, 70, 71, 72, 73, 74, 75, 76, 77, 78, 79, 80, 81, 82, 83, 84, 85, 86, 87, 88, 89, 90, 91, 92, 93, 94, 95, 96, 97, 98, 99, 100, 101, 102, 103, 104, 105, 106, 107, 108, 109, 110, 111, 112, 113, 114, 115, 116, 117, 118, 119, 120, 121, 122, 123, 124, 125, 126, 127, 128, 129, 130, 131, 132, 133, 134, 135, 136, 137, 138, 139, 140, 141, 142, 143, 144, 145, 146, 147, 148, 149, 150, 151, 152, 153, 154, 155, 156, 157, 158, 159, 160, 161, 162, 163, 164, 165, 166, 167, 168, 169, 170, 171, 172, 173, 174, 175, 176, 177, 178, 179, 180, 181, 182, 183, 184, 185, 186, 187, 188, 189, 190, 191, 192, 193, 194, 195, 196, 197, 198, 199, 200],
      "AcquisitionTime": ["090858.742500", "090900.742500", "090902.742500", "090904.742500", "090906.742500", "090908.742500", "090910.742500", "090912.742500", "090914.742500", "090916.742500", "090918.742500", "090920.742500", "090922.742500", "090924.742500", "090926.742500", "090928.742500", "090930.742500", "090932.742500", "090934.742500", "090936.742500", "090938.742500", "090940.742500", "090942.742500", "090944.742500", "090946.742500", "090948.742500", "090950.742500", "090952.742500", "090954.742500", "090956.742500", "090958.742500", "091000.742500", "091002.742500", "091004.742500", "091006.742500", "091008.742500", "091010.742500", "091012.742500", "091014.742500", "091016.742500", "091018.742500", "091020.742500", "091022.742500", "091024.742500", "091026.742500", "091028.742500", "091030.742500", "091032.742500", "091034.742500", "091036.742500", "091038.742500", "091040.742500", "091042.742500", "091044.742500", "091046.742500", "091048.742500", "091050.742500", "091052.742500", "091054.742500", "091056.742500", "091058.742500", "091100.742500", "091102.742500", "091104.742500", "091106.742500", "091108.742500", "091110.742500", "091112.742500", "091114.742500", "091116.742500", "091118.742500", "091120.742500", "091122.742500", "091124.742500", "091126.742500", "091128.742500", "091130.742500", "091132.742500", "091134.742500", "091136.742500", "091138.742500", "091140.742500", "091142.742500", "091144.742500", "091146.742500", "091148.742500", "091150.742500", "091152.742500", "091154.742500", "091156.742500", "091158.742500", "091200.742500", "091202.742500", "091204.742500", "091206.742500", "091208.742500", "091210.742500", "091212.742500", "091214.742500", "091216.742500", "091218.742500", "091220.742500", "091222.742500", "091224.742500", "091226.742500", "091228.742500", "091230.742500", "091232.742500", "091234.742500", "091236.742500", "091238.742500", "091240.742500", "091242.742500", "091244.742500", "091246.742500", "091248.742500", "091250.742500", "091252.742500", "091254.742500", "091256.742500", "091258.742500", "091300.742500", "091302.742500", "091304.742500", "091306.742500", "091308.742500", "091310.742500", "091312.742500", "091314.742500", "091316.742500", "091318.742500", "091320.742500", "091322.742500", "091324.742500", "091326.742500", "091328.742500", "091330.742500", "091332.742500", "091334.742500", "091336.742500", "091338.742500", "091340.742500", "091342.742500", "091344.742500", "091346.742500", "091348.742500", "091350.742500", "091352.742500", "091354.742500", "091356.742500", "091358.742500", "091400.742500", "091402.742500", "091404.742500", "091406.742500", "091408.742500", "091410.742500", "091412.742500", "091414.742500", "091416.742500", "091418.742500", "091420.742500", "091422.742500", "091424.742500", "091426.742500", "091428.742500", "091430.742500", "091432.742500", "091434.742500", "091436.742500", "091438.742500", "091440.742500", "091442.742500", "091444.742500", "091446.742500", "091448.742500", "091450.742500", "091452.742500", "091454.742500", "091456.742500", "091458.742500", "091500.742500", "091502.742500", "091504.742500", "091506.742500", "091508.742500", "091510.742500", "091512.742500", "091514.742500", "091516.742500", "091518.742500", "091520.742500", "091522.742500", "091524.742500", "091526.742500", "091528.742500", "091530.742500", "091532.742500", "091534.742500", "091536.742500"],
      "ContentTime": ["090950.915000", "090950.918000", "090950.927000", "090950.929000", "090950.932000", "090950.934000", "090950.936000", "090950.939000", "090950.941000", "090950.946000", "090950.948000", "090950.951000", "090950.953000", "090950.963000", "090950.965000", "090950.967000", "090950.970000", "090950.972000", "090950.974000", "090950.977000", "090950.979000", "090950.981000", "090950.984000", "090950.986000", "090950.988000", "090950.991000", "091030.908000", "091030.911000", "091030.913000", "091030.915000", "091030.918000", "091030.920000", "091030.922000", "091030.925000", "091030.927000", "091030.929000", "091030.932000", "091030.934000", "091030.936000", "091030.939000", "091030.941000", "091030.943000", "091030.946000", "091030.948000", "091030.950000", "091030.952000", "091110.909000", "091110.912000", "091110.914000", "091110.916000", "091110.919000", "091110.921000", "091110.923000", "091110.926000", "091110.928000", "091110.930000", "091110.933000", "091110.935000", "091110.937000", "091110.940000", "091110.942000", "091110.944000", "091110.947000", "091110.949000", "091110.951000", "091110.954000", "091150.909000", "091150.912000", "091150.914000", "091150.916000", "091150.919000", "091150.921000", "091150.923000", "091150.926000", "091150.928000", "091150.930000", "091150.932000", "091150.935000", "091150.937000", "091150.939000", "091150.942000", "091150.944000", "091150.946000", "091150.949000", "091150.951000", "091150.953000", "091230.909000", "091230.912000", "091230.914000", "091230.916000", "091230.919000", "091230.921000", "091230.923000", "091230.926000", "091230.928000", "091230.930000", "091230.933000", "091230.935000", "091230.937000", "091230.939000", "091230.942000", "091230.944000", "091230.946000", "091230.949000", "091230.951000", "091230.953000", "091310.932000", "091310.935000", "091310.937000", "091310.940000", "091310.942000", "091310.945000", "091310.947000", "091310.949000", "091310.952000", "091310.954000", "091310.956000", "091310.958000", "091310.961000", "091310.963000", "091310.965000", "091310.968000", "091310.970000", "091310.972000", "091310.975000", "091310.977000", "091350.909000", "091350.912000", "091350.915000", "091350.917000", "091350.919000", "091350.922000", "091350.924000", "091350.926000", "091350.929000", "091350.931000", "091350.933000", "091350.935000", "091350.938000", "091350.940000", "091350.942000", "091350.945000", "091350.947000", "091350.949000", "091350.952000", "091350.954000", "091430.909000", "091430.912000", "091430.914000", "091430.917000", "091430.919000", "091430.921000", "091430.924000", "091430.926000", "091430.928000", "091430.931000", "091430.933000", "091430.935000", "091430.938000", "091430.940000", "091430.942000", "091430.945000", "091430.947000", "091430.949000", "091430.952000", "091430.954000", "091510.908000", "091510.911000", "091510.913000", "091510.916000", "091510.918000", "091510.920000", "091510.923000", "091510.925000", "091510.927000", "091510.930000", "091510.933000", "091510.935000", "091510.938000", "091510.940000", "091510.942000", "091510.945000", "091510.947000", "091510.949000", "091510.952000", "091510.954000", "091538.537000", "091538.540000", "091538.542000", "091538.544000", "091538.547000", "091538.549000", "091538.551000", "091538.554000", "091538.557000", "091538.559000", "091538.562000", "091538.564000", "091538.567000", "091538.571000"],
      "InstanceCreationTime": ["090950.915000", "090950.918000", "090950.927000", "090950.929000", "090950.932000", "090950.934000", "090950.936000", "090950.939000", "090950.941000", "090950.946000", "090950.948000", "090950.951000", "090950.953000", "090950.963000", "090950.965000", "090950.967000", "090950.970000", "090950.972000", "090950.974000", "090950.977000", "090950.979000", "090950.981000", "090950.984000", "090950.986000", "090950.988000", "090950.991000", "091030.908000", "091030.911000", "091030.913000", "091030.915000", "091030.918000", "091030.920000", "091030.922000", "091030.925000", "091030.927000", "091030.929000", "091030.932000", "091030.934000", "091030.936000", "091030.939000", "091030.941000", "091030.943000", "091030.946000", "091030.948000", "091030.950000", "091030.952000", "091110.909000", "091110.912000", "091110.914000", "091110.916000", "091110.919000", "091110.921000", "091110.923000", "091110.926000", "091110.928000", "091110.930000", "091110.933000", "091110.935000", "091110.937000", "091110.940000", "091110.942000", "091110.944000", "091110.947000", "091110.949000", "091110.951000", "091110.954000", "091150.909000", "091150.912000", "091150.914000", "091150.916000", "091150.919000", "091150.921000", "091150.923000", "091150.926000", "091150.928000", "091150.930000", "091150.932000", "091150.935000", "091150.937000", "091150.939000", "091150.942000", "091150.944000", "091150.946000", "091150.949000", "091150.951000", "091150.953000", "091230.909000", "091230.912000", "091230.914000", "091230.916000", "091230.919000", "091230.921000", "091230.923000", "091230.926000", "091230.928000", "091230.930000", "091230.933000", "091230.935000", "091230.937000", "091230.939000", "091230.942000", "091230.944000", "091230.946000", "091230.949000", "091230.951000", "091230.953000", "091310.932000", "091310.935000", "091310.937000", "091310.940000", "091310.942000", "091310.945000", "091310.947000", "091310.949000", "091310.952000", "091310.954000", "091310.956000", "091310.958000", "091310.961000", "091310.963000", "091310.965000", "091310.968000", "091310.970000", "091310.972000", "091310.975000", "091310.977000", "091350.909000", "091350.912000", "091350.915000", "091350.917000", "091350.919000", "091350.922000", "091350.924000", "091350.926000", "091350.929000", "091350.931000", "091350.933000", "091350.935000", "091350.938000", "091350.940000", "091350.942000", "091350.945000", "091350.947000", "091350.949000", "091350.952000", "091350.954000", "091430.909000", "091430.912000", "091430.914000", "091430.917000", "091430.919000", "091430.921000", "091430.924000", "091430.926000", "091430.928000", "091430.931000", "091430.933000", "091430.935000", "091430.938000", "091430.940000", "091430.942000", "091430.945000", "091430.947000", "091430.949000", "091430.952000", "091430.954000", "091510.908000", "091510.911000", "091510.913000", "091510.916000", "091510.918000", "091510.920000", "091510.923000", "091510.925000", "091510.927000", "091510.930000", "091510.933000", "091510.935000", "091510.938000", "091510.940000", "091510.942000", "091510.945000", "091510.947000", "091510.949000", "091510.952000", "091510.954000", "091538.537000", "091538.540000", "091538.542000", "091538.544000", "091538.547000", "091538.549000", "091538.551000", "091538.554000", "091538.557000", "091538.559000", "091538.562000", "091538.564000", "091538.567000", "091538.571000"],
      "InstanceNumber": [1, 2, 3, 4, 5, 6, 7, 8, 9, 10, 11, 12, 13, 14, 15, 16, 17, 18, 19, 20, 21, 22, 23, 24, 25, 26, 27, 28, 29, 30, 31, 32, 33, 34, 35, 36, 37, 38, 39, 40, 41, 42, 43, 44, 45, 46, 47, 48, 49, 50, 51, 52, 53, 54, 55, 56, 57, 58, 59, 60, 61, 62, 63, 64, 65, 66, 67, 68, 69, 70, 71, 72, 73, 74, 75, 76, 77, 78, 79, 80, 81, 82, 83, 84, 85, 86, 87, 88, 89, 90, 91, 92, 93, 94, 95, 96, 97, 98, 99, 100, 101, 102, 103, 104, 105, 106, 107, 108, 109, 110, 111, 112, 113, 114, 115, 116, 117, 118, 119, 120, 121, 122, 123, 124, 125, 126, 127, 128, 129, 130, 131, 132, 133, 134, 135, 136, 137, 138, 139, 140, 141, 142, 143, 144, 145, 146, 147, 148, 149, 150, 151, 152, 153, 154, 155, 156, 157, 158, 159, 160, 161, 162, 163, 164, 165, 166, 167, 168, 169, 170, 171, 172, 173, 174, 175, 176, 177, 178, 179, 180, 181, 182, 183, 184, 185, 186, 187, 188, 189, 190, 191, 192, 193, 194, 195, 196, 197, 198, 199, 200],
      "WindowCenter": [1510.0, 1512.0, 1511.0, 1511.0, 1511.0, 1510.0, 1510.0, 1510.0, 1509.0, 1510.0, 1509.0, 1509.0, 1509.0, 1509.0, 1509.0, 1509.0, 1508.0, 1508.0, 1508.0, 1509.0, 1507.0, 1507.0, 1508.0, 1507.0, 1507.0, 1508.0, 1507.0, 1507.0, 1507.0, 1507.0, 1507.0, 1507.0, 1506.0, 1506.0, 1507.0, 1506.0, 1505.0, 1506.0, 1506.0, 1507.0, 1505.0, 1506.0, 1506.0, 1506.0, 1506.0, 1506.0, 1505.0, 1504.0, 1505.0, 1505.0, 1505.0, 1505.0, 1505.0, 1504.0, 1505.0, 1505.0, 1505.0, 1505.0, 1504.0, 1505.0, 1504.0, 1504.0, 1504.0, 1504.0, 1503.0, 1504.0, 1504.0, 1504.0, 1503.0, 1503.0, 1504.0, 1503.0, 1504.0, 1503.0, 1503.0, 1503.0, 1503.0, 1503.0, 1503.0, 1503.0, 1503.0, 1503.0, 1503.0, 1502.0, 1502.0, 1502.0, 1502.0, 1503.0, 1503.0, 1503.0, 1503.0, 1502.0, 1502.0, 1503.0, 1502.0, 1502.0, 1502.0, 1501.0, 1502.0, 1502.0, 1501.0, 1502.0, 1501.0, 1502.0, 1501.0, 1501.0, 1501.0, 1501.0, 1500.0, 1502.0, 1501.0, 1501.0, 1501.0, 1500.0, 1500.0, 1501.0, 1501.0, 1501.0, 1500.0, 1500.0, 1500.0, 1500.0, 1500.0, 1499.0, 1500.0, 1500.0, 1500.0, 1500.0, 1499.0, 1499.0, 1499.0, 1500.0, 1499.0, 1499.0, 1499.0, 1499.0, 1499.0, 1499.0, 1499.0, 1500.0, 1499.0, 1500.0, 1499.0, 1499.0, 1498.0, 1499.0, 1499.0, 1499.0, 1500.0, 1499.0, 1498.0, 1498.0, 1498.0, 1498.0, 1499.0, 1499.0, 1498.0, 1498.0, 1498.0, 1497.0, 1498.0, 1498.0, 1498.0, 1498.0, 1499.0, 1498.0, 1498.0, 1498.0, 1498.0, 1498.0, 1498.0, 1498.0, 1497.0, 1498.0, 1498.0, 1497.0, 1497.0, 1498.0, 1498.0, 1498.0, 1499.0, 1497.0, 1498.0, 1498.0, 1497.0, 1497.0, 1498.0, 1497.0, 1497.0, 1497.0, 1498.0, 1496.0, 1496.0, 1496.0, 1498.0, 1498.0, 1497.0, 1497.0, 1497.0, 1498.0],
      "WindowWidth": [3416.0, 3414.0, 3415.0, 3415.0, 3414.0, 3414.0, 3414.0, 3414.0, 3414.0, 3413.0, 3414.0, 3413.0, 3413.0, 3413.0, 3413.0, 3413.0, 3413.0, 3413.0, 3413.0, 3413.0, 3413.0, 3413.0, 3412.0, 3413.0, 3412.0, 3412.0, 3412.0, 3412.0, 3412.0, 3412.0, 3412.0, 3412.0, 3412.0, 3412.0, 3411.0, 3412.0, 3412.0, 3412.0, 3412.0, 3411.0, 3412.0, 3411.0, 3411.0, 3411.0, 3411.0, 3411.0, 3411.0, 3411.0, 3411.0, 3411.0, 3411.0, 3411.0, 3411.0, 3411.0, 3411.0, 3411.0, 3411.0, 3411.0, 3411.0, 3411.0, 3411.0, 3411.0, 3411.0, 3411.0, 3411.0, 3411.0, 3411.0, 3411.0, 3411.0, 3411.0, 3411.0, 3411.0, 3410.0, 3411.0, 3410.0, 3410.0, 3410.0, 3410.0, 3410.0, 3410.0, 3410.0, 3410.0, 3410.0, 3410.0, 3410.0, 3410.0, 3410.0, 3410.0, 3410.0, 3410.0, 3410.0, 3410.0, 3410.0, 3410.0, 3410.0, 3410.0, 3410.0, 3410.0, 3410.0, 3410.0, 3410.0, 3410.0, 3410.0, 3410.0, 3410.0, 3409.0, 3409.0, 3409.0, 3409.0, 3409.0, 3409.0, 3409.0, 3409.0, 3409.0, 3409.0, 3409.0, 3409.0, 3409.0, 3409.0, 3408.0, 3409.0, 3409.0, 3409.0, 3408.0, 3408.0, 3409.0, 3409.0, 3409.0, 3408.0, 3408.0, 3409.0, 3409.0, 3409.0, 3409.0, 3409.0, 3409.0, 3409.0, 3409.0, 3409.0, 3408.0, 3408.0, 3408.0, 3409.0, 3409.0, 3409.0, 3409.0, 3409.0, 3408.0, 3408.0, 3408.0, 3408.0, 3408.0, 3408.0, 3408.0, 3408.0, 3408.0, 3408.0, 3408.0, 3408.0, 3408.0, 3408.0, 3408.0, 3408.0, 3408.0, 3407.0, 3408.0, 3408.0, 3408.0, 3408.0, 3408.0, 3408.0, 3408.0, 3408.0, 3408.0, 3408.0, 3408.0, 3408.0, 3408.0, 3408.0, 3408.0, 3408.0, 3408.0, 3407.0, 3408.0, 3408.0, 3408.0, 3407.0, 3408.0, 3408.0, 3408.0, 3407.0, 3408.0, 3408.0, 3408.0, 3407.0, 3407.0, 3407.0, 3407.0, 3408.0, 3407.0]
    },
    "slices": {}
  }
}