{
  "AcquisitionMatrixPE": 80,
  "AcquisitionNumber": 1,
  "AcquisitionTime": "09:22:36.495000",
  "BandwidthPerPixelPhaseEncode": 25,
  "BaseResolution": 80,
  "BodyPartExamined": "BRAIN",
  "CoilCombinationMethod": "Sum of Squares",
  "ConsistencyInfo": "N4_VE11E_LATEST_20181129",
  "ConversionSoftware": "dcm2niix",
  "ConversionSoftwareVersion": "v1.0.20220720",
  "DerivedVendorReportedEchoSpacing": 0.0005,
  "DeviceSerialNumber": "66112",
  "DwellTime": 2.7e-06,
  "EchoTime": 0.03,
  "EchoTrainLength": 80,
  "EffectiveEchoSpacing": 0.0005,
  "FlipAngle": 10,
  "HeudiconvVersion": "0.13.1",
  "ImageOrientationPatientDICOM": [0.999963, 0.00849573, 0.00149247, -0.00855198, 0.953857, 0.300138],
  "ImageOrientationText": "Tra>Cor(17.5)>Sag(-0.1)",
  "ImageType": [
    "ORIGINAL",
    "PRIMARY",
    "M",
    "ND",
    "NORM",
    "MOSAIC"
],
  "ImagingFrequency": 123.261,
  "InPlanePhaseEncodingDirectionDICOM": "COL",
  "InstitutionAddress": "Maynard 3,Hanover,NH,US,03755",
  "InstitutionName": "Dartmouth College - PBS",
  "InstitutionalDepartmentName": "Department",
  "MRAcquisitionType": "2D",
  "MagneticFieldStrength": 3,
  "Manufacturer": "Siemens",
  "ManufacturersModelName": "Prisma",
  "MatrixCoilMode": "SENSE",
  "Modality": "MR",
  "NonlinearGradientCorrection": false,
  "PartialFourier": 1,
  "PatientPosition": "HFS",
  "PercentPhaseFOV": 100,
  "PercentSampling": 100,
  "PhaseEncodingDirection": "j-",
  "PhaseEncodingSteps": 80,
  "PhaseResolution": 1,
  "PixelBandwidth": 2315,
  "ProcedureStepDescription": "dbic^QA",
  "ProtocolName": "func-bold_fa-10",
  "PulseSequenceDetails": "%SiemensSeq%\\ep2d_bold",
  "ReceiveCoilActiveElements": "HC1-7;NC1,2",
  "ReceiveCoilName": "HeadNeck_64",
  "ReconMatrixPE": 80,
  "RepetitionTime": 2,
  "SAR": 0.00752244,
  "ScanOptions": "FS",
  "ScanningSequence": "EP",
  "SequenceName": "*epfid2d1_80",
  "SequenceVariant": "SK",
  "SeriesDescription": "func-bold_fa-10",
  "SeriesNumber": 7,
  "ShimSetting": [4242, -7737, -7488, -117, -172, -250, -48, 135],
  "SliceThickness": 3.5,
  "SliceTiming": [0.99, 0, 1.055, 0.065, 1.1225, 0.1325, 1.1875, 0.1975, 1.255, 0.265, 1.32, 0.33, 1.385, 0.395, 1.4525, 0.4625, 1.5175, 0.5275, 1.585, 0.595, 1.65, 0.66, 1.715, 0.725, 1.7825, 0.7925, 1.8475, 0.8575, 1.915, 0.925],
  "SoftwareVersions": "syngo MR E11",
  "SpacingBetweenSlices": 3.99,
  "StationName": "AWP66112",
  "TotalReadoutTime": 0.0395,
  "TxRefAmp": 208.721,
  "dcmmeta_affine": [
    [-2.9998884201049805, -0.025655942037701607, -0.004493912681937218, 121.28236389160156],
    [-0.025487195700407028, 2.861572265625, 1.197557806968689, -124.6728744506836],
    [0.004477398470044136, -0.9004146456718445, 3.806039333343506, -27.920408248901367],
    [0.0, 0.0, 0.0, 1.0]
],
  "dcmmeta_reorient_transform": [
    [0.0, -1.0, 0.0, 79.0],
    [1.0, 0.0, 0.0, 0.0],
    [0.0, 0.0, 1.0, 0.0],
    [0.0, 0.0, 0.0, 1.0]
],
  "dcmmeta_shape": [80, 80, 30, 200],
  "dcmmeta_slice_dim": 2,
  "dcmmeta_version": 0.6,
  "global": {
    "const": {
      "AccessionNumber": "qa64",
      "AcquisitionMatrix": [80, 0, 0, 80],
      "AngioFlag": "N",
      "BitsAllocated": 16,
      "BitsStored": 12,
      "BodyPartExamined": "BRAIN",
      "Columns": 480,
      "EchoNumbers": 1,
      "EchoTime": 30.0,
      "EchoTrainLength": 80,
      "FlipAngle": 10.0,
      "HighBit": 11,
      "ImageOrientationPatient": [0.99996279685052, 0.00849573185576, 0.00149246612347, -0.0085519808796, 0.95385738971895, 0.30013820766704],
      "ImagePositionPatient": [-714.10203081856, -678.80319929313, -280.03156803932],
      "ImageType": [
        "ORIGINAL",
        "PRIMARY",
        "M",
        "ND",
        "NORM",
        "MOSAIC"
],
      "ImagedNucleus": "1H",
      "ImagingFrequency": 123.261255,
      "InPlanePhaseEncodingDirection": "COL",
      "MRAcquisitionType": "2D",
      "MagneticFieldStrength": 3.0,
      "Manufacturer": "SIEMENS",
      "ManufacturerModelName": "Prisma",
      "Modality": "MR",
      "NumberOfAverages": 1.0,
      "NumberOfPhaseEncodingSteps": 80,
      "PercentPhaseFieldOfView": 100.0,
      "PercentSampling": 100.0,
      "PerformedProcedureStepStartTime": "090649.655000",
      "PhotometricInterpretation": "MONOCHROME2",
      "PixelBandwidth": 2315.0,
      "PixelRepresentation": 0,
      "PixelSpacing": [3.0, 3.0],
      "ProtocolName": "func-bold_fa-10",
      "RepetitionTime": 2000.0,
      "Rows": 480,
      "SAR": 0.00752244366842,
      "SamplesPerPixel": 1,
      "ScanOptions": "FS",
      "ScanningSequence": "EP",
      "SequenceName": "*epfid2d1_80",
      "SequenceVariant": "SK",
      "SeriesDescription": "func-bold_fa-10",
      "SeriesNumber": 7,
      "SeriesTime": "092330.825000",
      "SliceLocation": -64.189017779564,
      "SliceThickness": 3.5,
      "SmallestImagePixelValue": 0,
      "SoftwareVersions": "syngo MR E11",
      "SpacingBetweenSlices": 3.9900000549752,
      "SpecificCharacterSet": "ISO_IR 100",
      "StudyID": "24",
      "StudyTime": "090649.495000",
      "TransmitCoilName": "Body",
      "VariableFlipAngleFlag": "N",
      "WindowCenterWidthExplanation": "Algo1"
    },
    "slices": {}
  },
  "time": {
    "samples": {
      "AcquisitionNumber": [1, 2, 3, 4, 5, 6, 7, 8, 9, 10, 11, 12, 13, 14, 15, 16, 17, 18, 19, 20, 21, 22, 23, 24, 25, 26, 27, 28, 29, 30, 31, 32, 33, 34, 35, 36, 37, 38, 39, 40, 41, 42, 43, 44, 45, 46, 47, 48, 49, 50, 51, 52, 53, 54, 55, 56, 57, 58, 59, 60, 61, 62, 63, 64, 65, 66, 67, 68, 69, 70, 71, 72, 73, 74, 75, 76, 77, 78, 79, 80, 81, 82, 83, 84, 85, 86, 87, 88, 89, 90, 91, 92, 93, 94, 95, 96, 97, 98, 99, 100, 101, 102, 103, 104, 105, 106, 107, 108, 109, 110, 111, 112, 113, 114, 115, 116, 117, 118, 119, 120, 121, 122, 123, 124, 125, 126, 127, 128, 129, 130, 131, 132, 133, 134, 135, 136, 137, 138, 139, 140, 141, 142, 143, 144, 145, 146, 147, 148, 149, 150, 151, 152, 153, 154, 155, 156, 157, 158, 159, 160, 161, 162, 163, 164, 165, 166, 167, 168, 169, 170, 171, 172, 173, 174, 175, 176, 177, 178, 179, 180, 181, 182, 183, 184, 185, 186, 187, 188, 189, 190, 191, 192, 193, 194, 195, 196, 197, 198, 199, 200],
      "AcquisitionTime": ["092236.495000", "092238.495000", "092240.495000", "092242.495000", "092244.495000", "092246.495000", "092248.495000", "092250.495000", "092252.495000", "092254.495000", "092256.495000", "092258.495000", "092300.495000", "092302.495000", "092304.495000", "092306.495000", "092308.495000", "092310.495000", "092312.495000", "092314.495000", "092316.495000", "092318.495000", "092320.495000", "092322.495000", "092324.495000", "092326.495000", "092328.495000", "092330.495000", "092332.495000", "092334.495000", "092336.495000", "092338.495000", "092340.495000", "092342.495000", "092344.495000", "092346.495000", "092348.495000", "092350.495000", "092352.495000", "092354.495000", "092356.495000", "092358.495000", "092400.495000", "092402.495000", "092404.495000", "092406.495000", "092408.495000", "092410.495000", "092412.495000", "092414.495000", "092416.495000", "092418.495000", "092420.495000", "092422.495000", "092424.495000", "092426.495000", "092428.495000", "092430.495000", "092432.495000", "092434.495000", "092436.495000", "092438.495000", "092440.495000", "092442.495000", "092444.495000", "092446.495000", "092448.495000", "092450.495000", "092452.495000", "092454.495000", "092456.495000", "092458.495000", "092500.495000", "092502.495000", "092504.495000", "092506.495000", "092508.495000", "092510.495000", "092512.495000", "092514.495000", "092516.495000", "092518.495000", "092520.495000", "092522.495000", "092524.495000", "092526.495000", "092528.495000", "092530.495000", "092532.495000", "092534.495000", "092536.495000", "092538.495000", "092540.495000", "092542.495000", "092544.495000", "092546.495000", "092548.495000", "092550.495000", "092552.495000", "092554.495000", "092556.495000", "092558.495000", "092600.495000", "092602.495000", "092604.495000", "092606.495000", "092608.495000", "092610.495000", "092612.495000", "092614.495000", "092616.495000", "092618.495000", "092620.495000", "092622.495000", "092624.495000", "092626.495000", "092628.495000", "092630.495000", "092632.495000", "092634.495000", "092636.495000", "092638.495000", "092640.495000", "092642.495000", "092644.495000", "092646.495000", "092648.495000", "092650.495000", "092652.495000", "092654.495000", "092656.495000", "092658.495000", "092700.495000", "092702.495000", "092704.495000", "092706.495000", "092708.495000", "092710.495000", "092712.495000", "092714.495000", "092716.495000", "092718.495000", "092720.495000", "092722.495000", "092724.495000", "092726.495000", "092728.495000", "092730.495000", "092732.495000", "092734.495000", "092736.495000", "092738.495000", "092740.495000", "092742.495000", "092744.495000", "092746.495000", "092748.495000", "092750.495000", "092752.495000", "092754.495000", "092756.495000", "092758.495000", "092800.495000", "092802.495000", "092804.495000", "092806.495000", "092808.495000", "092810.495000", "092812.495000", "092814.495000", "092816.495000", "092818.495000", "092820.495000", "092822.495000", "092824.495000", "092826.495000", "092828.495000", "092830.495000", "092832.495000", "092834.495000", "092836.495000", "092838.495000", "092840.495000", "092842.495000", "092844.495000", "092846.495000", "092848.495000", "092850.495000", "092852.495000", "092854.495000", "092856.495000", "092858.495000", "092900.495000", "092902.495000", "092904.495000", "092906.495000", "092908.495000", "092910.495000", "092912.495000", "092914.495000"],
      "ContentTime": ["092330.828000", "092330.831000", "092330.834000", "092330.836000", "092330.838000", "092330.841000", "092330.843000", "092330.845000", "092330.847000", "092330.850000", "092330.852000", "092330.854000", "092330.856000", "092330.864000", "092330.866000", "092330.868000", "092330.871000", "092330.873000", "092330.875000", "092330.877000", "092330.880000", "092330.882000", "092330.884000", "092330.887000", "092330.889000", "092330.891000", "092330.894000", "092410.823000", "092410.826000", "092410.828000", "092410.830000", "092410.833000", "092410.835000", "092410.837000", "092410.840000", "092410.842000", "092410.844000", "092410.847000", "092410.849000", "092410.851000", "092410.853000", "092410.856000", "092410.858000", "092410.860000", "092410.869000", "092410.872000", "092410.874000", "092450.823000", "092450.826000", "092450.828000", "092450.831000", "092450.833000", "092450.835000", "092450.838000", "092450.840000", "092450.842000", "092450.845000", "092450.847000", "092450.849000", "092450.851000", "092450.854000", "092450.856000", "092450.858000", "092450.860000", "092450.863000", "092450.865000", "092450.868000", "092510.823000", "092510.826000", "092510.828000", "092510.830000", "092510.832000", "092510.835000", "092510.837000", "092510.839000", "092510.841000", "092510.844000", "092550.824000", "092550.826000", "092550.828000", "092550.831000", "092550.833000", "092550.835000", "092550.838000", "092550.840000", "092550.842000", "092550.844000", "092550.847000", "092550.849000", "092550.851000", "092550.854000", "092550.856000", "092550.858000", "092550.861000", "092550.863000", "092550.865000", "092550.867000", "092630.823000", "092630.826000", "092630.828000", "092630.831000", "092630.833000", "092630.835000", "092630.837000", "092630.840000", "092630.842000", "092630.844000", "092630.846000", "092630.849000", "092630.851000", "092630.853000", "092630.856000", "092630.858000", "092630.868000", "092630.871000", "092630.873000", "092630.875000", "092710.823000", "092710.826000", "092710.828000", "092710.830000", "092710.833000", "092710.835000", "092710.837000", "092710.839000", "092710.842000", "092710.844000", "092710.846000", "092710.849000", "092710.851000", "092710.853000", "092710.856000", "092710.868000", "092710.882000", "092710.884000", "092710.887000", "092710.889000", "092750.823000", "092750.826000", "092750.828000", "092750.830000", "092750.833000", "092750.835000", "092750.837000", "092750.839000", "092750.842000", "092750.844000", "092750.847000", "092750.849000", "092750.851000", "092750.853000", "092750.856000", "092750.858000", "092750.860000", "092750.863000", "092750.865000", "092750.867000", "092830.823000", "092830.826000", "092830.828000", "092830.830000", "092830.833000", "092830.835000", "092830.837000", "092830.840000", "092830.842000", "092830.844000", "092830.846000", "092830.849000", "092830.851000", "092830.853000", "092830.856000", "092830.858000", "092830.860000", "092830.863000", "092830.865000", "092830.867000", "092910.822000", "092910.825000", "092910.827000", "092910.830000", "092910.832000", "092910.834000", "092910.836000", "092910.839000", "092910.841000", "092910.843000", "092910.846000", "092910.848000", "092910.850000", "092910.853000", "092910.855000", "092910.857000", "092910.860000", "092910.862000", "092910.864000", "092910.866000", "092916.248000", "092916.251000", "092916.253000"],
      "InstanceCreationTime": ["092330.828000", "092330.831000", "092330.834000", "092330.836000", "092330.838000", "092330.841000", "092330.843000", "092330.845000", "092330.847000", "092330.850000", "092330.852000", "092330.854000", "092330.856000", "092330.864000", "092330.866000", "092330.868000", "092330.871000", "092330.873000", "092330.875000", "092330.877000", "092330.880000", "092330.882000", "092330.884000", "092330.887000", "092330.889000", "092330.891000", "092330.894000", "092410.823000", "092410.826000", "092410.828000", "092410.830000", "092410.833000", "092410.835000", "092410.837000", "092410.840000", "092410.842000", "092410.844000", "092410.847000", "092410.849000", "092410.851000", "092410.853000", "092410.856000", "092410.858000", "092410.860000", "092410.869000", "092410.872000", "092410.874000", "092450.823000", "092450.826000", "092450.828000", "092450.831000", "092450.833000", "092450.835000", "092450.838000", "092450.840000", "092450.842000", "092450.845000", "092450.847000", "092450.849000", "092450.851000", "092450.854000", "092450.856000", "092450.858000", "092450.860000", "092450.863000", "092450.865000", "092450.868000", "092510.823000", "092510.826000", "092510.828000", "092510.830000", "092510.832000", "092510.835000", "092510.837000", "092510.839000", "092510.841000", "092510.844000", "092550.824000", "092550.826000", "092550.828000", "092550.831000", "092550.833000", "092550.835000", "092550.838000", "092550.840000", "092550.842000", "092550.844000", "092550.847000", "092550.849000", "092550.851000", "092550.854000", "092550.856000", "092550.858000", "092550.861000", "092550.863000", "092550.865000", "092550.867000", "092630.823000", "092630.826000", "092630.828000", "092630.831000", "092630.833000", "092630.835000", "092630.837000", "092630.840000", "092630.842000", "092630.844000", "092630.846000", "092630.849000", "092630.851000", "092630.853000", "092630.856000", "092630.858000", "092630.868000", "092630.871000", "092630.873000", "092630.875000", "092710.823000", "092710.826000", "092710.828000", "092710.830000", "092710.833000", "092710.835000", "092710.837000", "092710.839000", "092710.842000", "092710.844000", "092710.846000", "092710.849000", "092710.851000", "092710.853000", "092710.856000", "092710.868000", "092710.882000", "092710.884000", "092710.887000", "092710.889000", "092750.823000", "092750.826000", "092750.828000", "092750.830000", "092750.833000", "092750.835000", "092750.837000", "092750.839000", "092750.842000", "092750.844000", "092750.847000", "092750.849000", "092750.851000", "092750.853000", "092750.856000", "092750.858000", "092750.860000", "092750.863000", "092750.865000", "092750.867000", "092830.823000", "092830.826000", "092830.828000", "092830.830000", "092830.833000", "092830.835000", "092830.837000", "092830.840000", "092830.842000", "092830.844000", "092830.846000", "092830.849000", "092830.851000", "092830.853000", "092830.856000", "092830.858000", "092830.860000", "092830.863000", "092830.865000", "092830.867000", "092910.822000", "092910.825000", "092910.827000", "092910.830000", "092910.832000", "092910.834000", "092910.836000", "092910.839000", "092910.841000", "092910.843000", "092910.846000", "092910.848000", "092910.850000", "092910.853000", "092910.855000", "092910.857000", "092910.860000", "092910.862000", "092910.864000", "092910.866000", "092916.248000", "092916.251000", "092916.253000"],
      "InstanceNumber": [1, 2, 3, 4, 5, 6, 7, 8, 9, 10, 11, 12, 13, 14, 15, 16, 17, 18, 19, 20, 21, 22, 23, 24, 25, 26, 27, 28, 29, 30, 31, 32, 33, 34, 35, 36, 37, 38, 39, 40, 41, 42, 43, 44, 45, 46, 47, 48, 49, 50, 51, 52, 53, 54, 55, 56, 57, 58, 59, 60, 61, 62, 63, 64, 65, 66, 67, 68, 69, 70, 71, 72, 73, 74, 75, 76, 77, 78, 79, 80, 81, 82, 83, 84, 85, 86, 87, 88, 89, 90, 91, 92, 93, 94, 95, 96, 97, 98, 99, 100, 101, 102, 103, 104, 105, 106, 107, 108, 109, 110, 111, 112, 113, 114, 115, 116, 117, 118, 119, 120, 121, 122, 123, 124, 125, 126, 127, 128, 129, 130, 131, 132, 133, 134, 135, 136, 137, 138, 139, 140, 141, 142, 143, 144, 145, 146, 147, 148, 149, 150, 151, 152, 153, 154, 155, 156, 157, 158, 159, 160, 161, 162, 163, 164, 165, 166, 167, 168, 169, 170, 171, 172, 173, 174, 175, 176, 177, 178, 179, 180, 181, 182, 183, 184, 185, 186, 187, 188, 189, 190, 191, 192, 193, 194, 195, 196, 197, 198, 199, 200],
      "LargestImagePixelValue": [756, 758, 755, 755, 757, 755, 753, 759, 755, 756, 752, 756, 760, 755, 754, 754, 755, 758, 756, 753, 758, 755, 753, 759, 756, 759, 757, 759, 755, 758, 751, 752, 762, 759, 757, 753, 757, 759, 755, 758, 757, 760, 758, 760, 755, 758, 757, 755, 755, 755, 759, 754, 755, 757, 757, 753, 758, 755, 759, 755, 755, 758, 758, 753, 755, 757, 759, 759, 756, 756, 761, 755, 757, 758, 759, 763, 756, 758, 762, 755, 755, 755, 759, 754, 759, 754, 758, 758, 754, 755, 764, 761, 756, 757, 759, 757, 753, 755, 759, 758, 755, 756, 754, 760, 759, 755, 756, 760, 759, 756, 757, 759, 761, 758, 754, 759, 760, 758, 759, 759, 761, 754, 755, 762, 755, 757, 757, 760, 760, 762, 757, 759, 757, 763, 759, 761, 758, 765, 758, 762, 762, 761, 755, 756, 761, 758, 760, 758, 760, 759, 758, 758, 758, 760, 758, 757, 762, 758, 757, 761, 761, 760, 759, 759, 763, 759, 756, 760, 760, 760, 760, 761, 759, 760, 758, 760, 758, 762, 760, 760, 759, 761, 758, 759, 757, 759, 764, 762, 759, 760, 763, 758, 758, 761, 760, 761, 758, 757, 763, 762],
      "WindowCenter": [471.0, 471.0, 471.0, 471.0, 471.0, 471.0, 471.0, 471.0, 471.0, 471.0, 471.0, 471.0, 471.0, 471.0, 471.0, 471.0, 471.0, 470.0, 471.0, 471.0, 471.0, 470.0, 471.0, 471.0, 470.0, 470.0, 470.0, 471.0, 470.0, 470.0, 470.0, 471.0, 470.0, 470.0, 470.0, 471.0, 470.0, 470.0, 470.0, 470.0, 470.0, 470.0, 470.0, 470.0, 470.0, 470.0, 470.0, 470.0, 470.0, 470.0, 470.0, 470.0, 470.0, 470.0, 470.0, 470.0, 470.0, 470.0, 470.0, 470.0, 470.0, 470.0, 470.0, 470.0, 470.0, 470.0, 470.0, 470.0, 470.0, 470.0, 470.0, 470.0, 470.0, 470.0, 470.0, 470.0, 470.0, 470.0, 470.0, 470.0, 470.0, 470.0, 470.0, 470.0, 470.0, 470.0, 470.0, 470.0, 470.0, 470.0, 470.0, 470.0, 470.0, 470.0, 470.0, 470.0, 470.0, 470.0, 470.0, 470.0, 470.0, 470.0, 470.0, 470.0, 470.0, 470.0, 470.0, 470.0, 470.0, 470.0, 470.0, 470.0, 470.0, 470.0, 470.0, 470.0, 470.0, 470.0, 470.0, 470.0, 470.0, 470.0, 470.0, 470.0, 470.0, 470.0, 470.0, 470.0, 470.0, 470.0, 470.0, 470.0, 470.0, 470.0, 470.0, 470.0, 470.0, 470.0, 470.0, 470.0, 470.0, 470.0, 470.0, 470.0, 470.0, 470.0, 470.0, 470.0, 470.0, 470.0, 470.0, 470.0, 470.0, 470.0, 470.0, 470.0, 470.0, 470.0, 470.0, 470.0, 470.0, 470.0, 470.0, 470.0, 470.0, 470.0, 470.0, 470.0, 470.0, 470.0, 470.0, 470.0, 470.0, 470.0, 470.0, 470.0, 470.0, 470.0, 470.0, 470.0, 470.0, 470.0, 470.0, 470.0, 470.0, 470.0, 470.0, 470.0, 470.0, 470.0, 470.0, 470.0, 470.0, 470.0, 470.0, 470.0, 470.0, 470.0, 470.0, 469.0],
      "WindowWidth": [974.0, 974.0, 974.0, 974.0, 974.0, 974.0, 974.0, 974.0, 974.0, 974.0, 974.0, 974.0, 974.0, 974.0, 974.0, 974.0, 974.0, 974.0, 974.0, 974.0, 974.0, 974.0, 974.0, 974.0, 974.0, 974.0, 974.0, 974.0, 974.0, 974.0, 974.0, 974.0, 974.0, 974.0, 974.0, 974.0, 974.0, 974.0, 974.0, 974.0, 974.0, 974.0, 974.0, 974.0, 974.0, 974.0, 974.0, 974.0, 974.0, 974.0, 974.0, 974.0, 974.0, 974.0, 974.0, 973.0, 974.0, 974.0, 973.0, 974.0, 974.0, 974.0, 974.0, 974.0, 974.0, 974.0, 974.0, 974.0, 974.0, 974.0, 974.0, 974.0, 974.0, 974.0, 973.0, 973.0, 974.0, 974.0, 974.0, 974.0, 974.0, 974.0, 973.0, 973.0, 974.0, 973.0, 973.0, 973.0, 973.0, 974.0, 973.0, 973.0, 973.0, 973.0, 973.0, 973.0, 973.0, 973.0, 973.0, 973.0, 973.0, 973.0, 973.0, 973.0, 973.0, 973.0, 973.0, 973.0, 973.0, 973.0, 973.0, 973.0, 973.0, 973.0, 973.0, 973.0, 973.0, 973.0, 973.0, 973.0, 973.0, 973.0, 973.0, 973.0, 973.0, 973.0, 973.0, 973.0, 972.0, 972.0, 973.0, 973.0, 972.0, 972.0, 973.0, 972.0, 972.0, 972.0, 972.0, 973.0, 972.0, 972.0, 972.0, 973.0, 972.0, 972.0, 972.0, 972.0, 972.0, 972.0, 972.0, 972.0, 972.0, 972.0, 972.0, 972.0, 972.0, 972.0, 972.0, 972.0, 972.0, 972.0, 972.0, 972.0, 972.0, 972.0, 972.0, 972.0, 972.0, 972.0, 972.0, 972.0, 972.0, 972.0, 972.0, 972.0, 972.0, 972.0, 972.0, 972.0, 972.0, 972.0, 972.0, 972.0, 972.0, 972.0, 972.0, 972.0, 972.0, 972.0, 972.0, 972.0, 972.0, 972.0, 972.0, 972.0, 972.0, 972.0, 972.0, 971.0]
    },
    "slices": {}
  }
}