{
  "AcquisitionMatrixPE": 80,
  "AcquisitionNumber": 1,
  "AcquisitionTime": "09:15:49.422500",
  "BandwidthPerPixelPhaseEncode": 25,
  "BaseResolution": 80,
  "BodyPartExamined": "BRAIN",
  "CoilCombinationMethod": "Sum of Squares",
  "ConsistencyInfo": "N4_VE11E_LATEST_20181129",
  "ConversionSoftware": "dcm2niix",
  "ConversionSoftwareVersion": "v1.0.20220720",
  "DerivedVendorReportedEchoSpacing": 0.0005,
  "DeviceSerialNumber": "66112",
  "DwellTime": 2.7e-06,
  "EchoTime": 0.03,
  "EchoTrainLength": 80,
  "EffectiveEchoSpacing": 0.0005,
  "FlipAngle": 77,
  "HeudiconvVersion": "0.13.1",
  "ImageOrientationPatientDICOM": [0.999963, 0.00849573, 0.00149247, -0.00855198, 0.953857, 0.300138],
  "ImageOrientationText": "Tra>Cor(17.5)>Sag(-0.1)",
  "ImageType": [
    "ORIGINAL",
    "PRIMARY",
    "M",
    "ND",
    "NORM",
    "MOSAIC"
],
  "ImagingFrequency": 123.261,
  "InPlanePhaseEncodingDirectionDICOM": "COL",
  "InstitutionAddress": "Maynard 3,Hanover,NH,US,03755",
  "InstitutionName": "Dartmouth College - PBS",
  "InstitutionalDepartmentName": "Department",
  "MRAcquisitionType": "2D",
  "MagneticFieldStrength": 3,
  "Manufacturer": "Siemens",
  "ManufacturersModelName": "Prisma",
  "MatrixCoilMode": "SENSE",
  "Modality": "MR",
  "NonlinearGradientCorrection": false,
  "PartialFourier": 1,
  "PatientPosition": "HFS",
  "PercentPhaseFOV": 100,
  "PercentSampling": 100,
  "PhaseEncodingDirection": "j-",
  "PhaseEncodingSteps": 80,
  "PhaseResolution": 1,
  "PixelBandwidth": 2315,
  "ProcedureStepDescription": "dbic^QA",
  "ProtocolName": "func-bold_fa-77",
  "PulseSequenceDetails": "%SiemensSeq%\\ep2d_bold",
  "ReceiveCoilActiveElements": "HC1-7;NC1,2",
  "ReceiveCoilName": "HeadNeck_64",
  "ReconMatrixPE": 80,
  "RepetitionTime": 2,
  "SAR": 0.0280428,
  "ScanOptions": "FS",
  "ScanningSequence": "EP",
  "SequenceName": "*epfid2d1_80",
  "SequenceVariant": "SK",
  "SeriesDescription": "func-bold_fa-77",
  "SeriesNumber": 6,
  "ShimSetting": [4242, -7737, -7488, -117, -172, -250, -48, 135],
  "SliceThickness": 3.5,
  "SliceTiming": [0.99, 0, 1.055, 0.065, 1.12, 0.1325, 1.1875, 0.1975, 1.2525, 0.2625, 1.32, 0.33, 1.385, 0.395, 1.45, 0.46, 1.5175, 0.5275, 1.5825, 0.5925, 1.65, 0.66, 1.715, 0.725, 1.78, 0.79, 1.8475, 0.8575, 1.9125, 0.9225],
  "SoftwareVersions": "syngo MR E11",
  "SpacingBetweenSlices": 3.99,
  "StationName": "AWP66112",
  "TotalReadoutTime": 0.0395,
  "TxRefAmp": 208.721,
  "dcmmeta_affine": [
    [-2.9998884201049805, -0.025655942037701607, -0.004493912681937218, 121.28236389160156],
    [-0.025487195700407028, 2.861572265625, 1.197557806968689, -124.6728744506836],
    [0.004477398470044136, -0.9004146456718445, 3.806039333343506, -27.920408248901367],
    [0.0, 0.0, 0.0, 1.0]
],
  "dcmmeta_reorient_transform": [
    [0.0, -1.0, 0.0, 79.0],
    [1.0, 0.0, 0.0, 0.0],
    [0.0, 0.0, 1.0, 0.0],
    [0.0, 0.0, 0.0, 1.0]
],
  "dcmmeta_shape": [80, 80, 30, 200],
  "dcmmeta_slice_dim": 2,
  "dcmmeta_version": 0.6,
  "global": {
    "const": {
      "AccessionNumber": "qa64",
      "AcquisitionMatrix": [80, 0, 0, 80],
      "AngioFlag": "N",
      "BitsAllocated": 16,
      "BitsStored": 12,
      "BodyPartExamined": "BRAIN",
      "Columns": 480,
      "EchoNumbers": 1,
      "EchoTime": 30.0,
      "EchoTrainLength": 80,
      "FlipAngle": 77.0,
      "HighBit": 11,
      "ImageOrientationPatient": [0.99996279685052, 0.00849573185576, 0.00149246612347, -0.0085519808796, 0.95385738971895, 0.30013820766704],
      "ImagePositionPatient": [-714.10203081856, -678.80319929313, -280.03156803932],
      "ImageType": [
        "ORIGINAL",
        "PRIMARY",
        "M",
        "ND",
        "NORM",
        "MOSAIC"
],
      "ImagedNucleus": "1H",
      "ImagingFrequency": 123.261255,
      "InPlanePhaseEncodingDirection": "COL",
      "LargestImagePixelValue": 4095,
      "MRAcquisitionType": "2D",
      "MagneticFieldStrength": 3.0,
      "Manufacturer": "SIEMENS",
      "ManufacturerModelName": "Prisma",
      "Modality": "MR",
      "NumberOfAverages": 1.0,
      "NumberOfPhaseEncodingSteps": 80,
      "PercentPhaseFieldOfView": 100.0,
      "PercentSampling": 100.0,
      "PerformedProcedureStepStartTime": "090649.655000",
      "PhotometricInterpretation": "MONOCHROME2",
      "PixelBandwidth": 2315.0,
      "PixelRepresentation": 0,
      "PixelSpacing": [3.0, 3.0],
      "ProtocolName": "func-bold_fa-77",
      "RepetitionTime": 2000.0,
      "Rows": 480,
      "SAR": 0.02804275326187,
      "SamplesPerPixel": 1,
      "ScanOptions": "FS",
      "ScanningSequence": "EP",
      "SequenceName": "*epfid2d1_80",
      "SequenceVariant": "SK",
      "SeriesDescription": "func-bold_fa-77",
      "SeriesNumber": 6,
      "SeriesTime": "091630.740000",
      "SliceLocation": -64.189017779564,
      "SliceThickness": 3.5,
      "SmallestImagePixelValue": 0,
      "SoftwareVersions": "syngo MR E11",
      "SpacingBetweenSlices": 3.9900000549752,
      "SpecificCharacterSet": "ISO_IR 100",
      "StudyID": "24",
      "StudyTime": "090649.495000",
      "TransmitCoilName": "Body",
      "VariableFlipAngleFlag": "N",
      "WindowCenterWidthExplanation": "Algo1"
    },
    "slices": {}
  },
  "time": {
    "samples": {
      "AcquisitionNumber": [1, 2, 3, 4, 5, 6, 7, 8, 9, 10, 11, 12, 13, 14, 15, 16, 17, 18, 19, 20, 21, 22, 23, 24, 25, 26, 27, 28, 29, 30, 31, 32, 33, 34, 35, 36, 37, 38, 39, 40, 41, 42, 43, 44, 45, 46, 47, 48, 49, 50, 51, 52, 53, 54, 55, 56, 57, 58, 59, 60, 61, 62, 63, 64, 65, 66, 67, 68, 69, 70, 71, 72, 73, 74, 75, 76, 77, 78, 79, 80, 81, 82, 83, 84, 85, 86, 87, 88, 89, 90, 91, 92, 93, 94, 95, 96, 97, 98, 99, 100, 101, 102, 103, 104, 105, 106, 107, 108, 109, 110, 111, 112, 113, 114, 115, 116, 117, 118, 119, 120, 121, 122, 123, 124, 125, 126, 127, 128, 129, 130, 131, 132, 133, 134, 135, 136, 137, 138, 139, 140, 141, 142, 143, 144, 145, 146, 147, 148, 149, 150, 151, 152, 153, 154, 155, 156, 157, 158, 159, 160, 161, 162, 163, 164, 165, 166, 167, 168, 169, 170, 171, 172, 173, 174, 175, 176, 177, 178, 179, 180, 181, 182, 183, 184, 185, 186, 187, 188, 189, 190, 191, 192, 193, 194, 195, 196, 197, 198, 199, 200],
      "AcquisitionTime": ["091549.422500", "091551.422500", "091553.422500", "091555.422500", "091557.422500", "091559.422500", "091601.422500", "091603.422500", "091605.422500", "091607.422500", "091609.422500", "091611.422500", "091613.422500", "091615.422500", "091617.422500", "091619.422500", "091621.422500", "091623.422500", "091625.422500", "091627.422500", "091629.422500", "091631.422500", "091633.422500", "091635.422500", "091637.422500", "091639.422500", "091641.422500", "091643.422500", "091645.422500", "091647.422500", "091649.422500", "091651.422500", "091653.422500", "091655.422500", "091657.422500", "091659.422500", "091701.422500", "091703.422500", "091705.422500", "091707.422500", "091709.422500", "091711.422500", "091713.422500", "091715.422500", "091717.422500", "091719.422500", "091721.422500", "091723.422500", "091725.422500", "091727.422500", "091729.422500", "091731.422500", "091733.422500", "091735.422500", "091737.422500", "091739.422500", "091741.422500", "091743.422500", "091745.422500", "091747.422500", "091749.422500", "091751.422500", "091753.422500", "091755.422500", "091757.422500", "091759.422500", "091801.422500", "091803.422500", "091805.422500", "091807.422500", "091809.422500", "091811.422500", "091813.422500", "091815.422500", "091817.422500", "091819.422500", "091821.422500", "091823.422500", "091825.422500", "091827.422500", "091829.422500", "091831.422500", "091833.422500", "091835.422500", "091837.422500", "091839.422500", "091841.422500", "091843.422500", "091845.422500", "091847.422500", "091849.422500", "091851.422500", "091853.422500", "091855.422500", "091857.422500", "091859.422500", "091901.422500", "091903.422500", "091905.422500", "091907.422500", "091909.422500", "091911.422500", "091913.422500", "091915.422500", "091917.422500", "091919.422500", "091921.422500", "091923.422500", "091925.422500", "091927.422500", "091929.422500", "091931.422500", "091933.422500", "091935.422500", "091937.422500", "091939.422500", "091941.422500", "091943.422500", "091945.422500", "091947.422500", "091949.422500", "091951.422500", "091953.422500", "091955.422500", "091957.422500", "091959.422500", "092001.422500", "092003.422500", "092005.422500", "092007.422500", "092009.422500", "092011.422500", "092013.422500", "092015.422500", "092017.422500", "092019.422500", "092021.422500", "092023.422500", "092025.422500", "092027.422500", "092029.422500", "092031.422500", "092033.422500", "092035.422500", "092037.422500", "092039.422500", "092041.422500", "092043.422500", "092045.422500", "092047.422500", "092049.422500", "092051.422500", "092053.422500", "092055.422500", "092057.422500", "092059.422500", "092101.422500", "092103.422500", "092105.422500", "092107.422500", "092109.422500", "092111.422500", "092113.422500", "092115.422500", "092117.422500", "092119.422500", "092121.422500", "092123.422500", "092125.422500", "092127.422500", "092129.422500", "092131.422500", "092133.422500", "092135.422500", "092137.422500", "092139.422500", "092141.422500", "092143.422500", "092145.422500", "092147.422500", "092149.422500", "092151.422500", "092153.422500", "092155.422500", "092157.422500", "092159.422500", "092201.422500", "092203.422500", "092205.422500", "092207.422500", "092209.422500", "092211.422500", "092213.422500", "092215.422500", "092217.422500", "092219.422500", "092221.422500", "092223.422500", "092225.422500", "092227.422500"],
      "ContentTime": ["091630.743000", "091630.746000", "091630.748000", "091630.751000", "091630.753000", "091630.764000", "091630.766000", "091630.768000", "091630.771000", "091630.773000", "091630.775000", "091630.778000", "091630.785000", "091630.793000", "091630.795000", "091630.797000", "091630.800000", "091630.802000", "091630.804000", "091630.807000", "091710.738000", "091710.741000", "091710.743000", "091710.745000", "091710.748000", "091710.750000", "091710.752000", "091710.755000", "091710.757000", "091710.759000", "091710.762000", "091710.764000", "091710.766000", "091710.769000", "091710.771000", "091710.773000", "091710.775000", "091710.778000", "091710.780000", "091710.782000", "091750.738000", "091750.741000", "091750.743000", "091750.745000", "091750.748000", "091750.750000", "091750.752000", "091750.755000", "091750.757000", "091750.759000", "091750.762000", "091750.764000", "091750.766000", "091750.768000", "091750.771000", "091750.773000", "091750.775000", "091750.778000", "091750.780000", "091750.782000", "091830.738000", "091830.741000", "091830.743000", "091830.745000", "091830.748000", "091830.750000", "091830.752000", "091830.754000", "091830.757000", "091830.759000", "091830.761000", "091830.764000", "091830.766000", "091830.768000", "091830.771000", "091830.773000", "091830.775000", "091830.777000", "091830.780000", "091830.782000", "091910.738000", "091910.741000", "091910.743000", "091910.745000", "091910.747000", "091910.750000", "091910.752000", "091910.754000", "091910.757000", "091910.759000", "091910.761000", "091910.764000", "091910.766000", "091910.768000", "091910.771000", "091910.773000", "091910.775000", "091910.777000", "091910.780000", "091910.782000", "091950.737000", "091950.740000", "091950.742000", "091950.745000", "091950.747000", "091950.749000", "091950.751000", "091950.754000", "091950.756000", "091950.758000", "091950.761000", "091950.763000", "091950.765000", "091950.767000", "091950.777000", "091950.779000", "091950.782000", "091950.784000", "091950.786000", "091950.789000", "092030.738000", "092030.741000", "092030.743000", "092030.745000", "092030.748000", "092030.750000", "092030.752000", "092030.764000", "092030.766000", "092030.768000", "092030.771000", "092030.773000", "092030.775000", "092030.778000", "092030.780000", "092030.782000", "092030.784000", "092030.787000", "092030.789000", "092030.791000", "092110.738000", "092110.741000", "092110.743000", "092110.745000", "092110.748000", "092110.750000", "092110.752000", "092110.755000", "092110.757000", "092110.759000", "092110.761000", "092110.764000", "092110.766000", "092110.768000", "092110.771000", "092110.773000", "092110.775000", "092110.777000", "092110.780000", "092110.782000", "092150.738000", "092150.773000", "092150.775000", "092150.777000", "092150.780000", "092150.782000", "092150.784000", "092150.786000", "092150.789000", "092150.791000", "092150.793000", "092150.796000", "092150.798000", "092150.800000", "092150.803000", "092150.805000", "092150.807000", "092150.809000", "092150.812000", "092150.814000", "092229.150000", "092229.152000", "092229.155000", "092229.157000", "092229.160000", "092229.162000", "092229.164000", "092229.167000", "092229.169000", "092229.171000", "092229.174000", "092229.176000", "092229.179000", "092229.184000", "092229.187000", "092229.194000", "092229.199000", "092229.202000", "092229.209000", "092229.212000"],
      "InstanceCreationTime": ["091630.743000", "091630.746000", "091630.748000", "091630.751000", "091630.753000", "091630.764000", "091630.766000", "091630.768000", "091630.771000", "091630.773000", "091630.775000", "091630.778000", "091630.785000", "091630.793000", "091630.795000", "091630.797000", "091630.800000", "091630.802000", "091630.804000", "091630.807000", "091710.738000", "091710.741000", "091710.743000", "091710.745000", "091710.748000", "091710.750000", "091710.752000", "091710.755000", "091710.757000", "091710.759000", "091710.762000", "091710.764000", "091710.766000", "091710.769000", "091710.771000", "091710.773000", "091710.775000", "091710.778000", "091710.780000", "091710.782000", "091750.738000", "091750.741000", "091750.743000", "091750.745000", "091750.748000", "091750.750000", "091750.752000", "091750.755000", "091750.757000", "091750.759000", "091750.762000", "091750.764000", "091750.766000", "091750.768000", "091750.771000", "091750.773000", "091750.775000", "091750.778000", "091750.780000", "091750.782000", "091830.738000", "091830.741000", "091830.743000", "091830.745000", "091830.748000", "091830.750000", "091830.752000", "091830.754000", "091830.757000", "091830.759000", "091830.761000", "091830.764000", "091830.766000", "091830.768000", "091830.771000", "091830.773000", "091830.775000", "091830.777000", "091830.780000", "091830.782000", "091910.738000", "091910.741000", "091910.743000", "091910.745000", "091910.747000", "091910.750000", "091910.752000", "091910.754000", "091910.757000", "091910.759000", "091910.761000", "091910.764000", "091910.766000", "091910.768000", "091910.771000", "091910.773000", "091910.775000", "091910.777000", "091910.780000", "091910.782000", "091950.737000", "091950.740000", "091950.742000", "091950.745000", "091950.747000", "091950.749000", "091950.751000", "091950.754000", "091950.756000", "091950.758000", "091950.761000", "091950.763000", "091950.765000", "091950.767000", "091950.777000", "091950.779000", "091950.782000", "091950.784000", "091950.786000", "091950.789000", "092030.738000", "092030.741000", "092030.743000", "092030.745000", "092030.748000", "092030.750000", "092030.752000", "092030.764000", "092030.766000", "092030.768000", "092030.771000", "092030.773000", "092030.775000", "092030.778000", "092030.780000", "092030.782000", "092030.784000", "092030.787000", "092030.789000", "092030.791000", "092110.738000", "092110.741000", "092110.743000", "092110.745000", "092110.748000", "092110.750000", "092110.752000", "092110.755000", "092110.757000", "092110.759000", "092110.761000", "092110.764000", "092110.766000", "092110.768000", "092110.771000", "092110.773000", "092110.775000", "092110.777000", "092110.780000", "092110.782000", "092150.738000", "092150.773000", "092150.775000", "092150.777000", "092150.780000", "092150.782000", "092150.784000", "092150.786000", "092150.789000", "092150.791000", "092150.793000", "092150.796000", "092150.798000", "092150.800000", "092150.803000", "092150.805000", "092150.807000", "092150.809000", "092150.812000", "092150.814000", "092229.150000", "092229.152000", "092229.155000", "092229.157000", "092229.160000", "092229.162000", "092229.164000", "092229.167000", "092229.169000", "092229.171000", "092229.174000", "092229.176000", "092229.179000", "092229.184000", "092229.187000", "092229.194000", "092229.199000", "092229.202000", "092229.209000", "092229.212000"],
      "InstanceNumber": [1, 2, 3, 4, 5, 6, 7, 8, 9, 10, 11, 12, 13, 14, 15, 16, 17, 18, 19, 20, 21, 22, 23, 24, 25, 26, 27, 28, 29, 30, 31, 32, 33, 34, 35, 36, 37, 38, 39, 40, 41, 42, 43, 44, 45, 46, 47, 48, 49, 50, 51, 52, 53, 54, 55, 56, 57, 58, 59, 60, 61, 62, 63, 64, 65, 66, 67, 68, 69, 70, 71, 72, 73, 74, 75, 76, 77, 78, 79, 80, 81, 82, 83, 84, 85, 86, 87, 88, 89, 90, 91, 92, 93, 94, 95, 96, 97, 98, 99, 100, 101, 102, 103, 104, 105, 106, 107, 108, 109, 110, 111, 112, 113, 114, 115, 116, 117, 118, 119, 120, 121, 122, 123, 124, 125, 126, 127, 128, 129, 130, 131, 132, 133, 134, 135, 136, 137, 138, 139, 140, 141, 142, 143, 144, 145, 146, 147, 148, 149, 150, 151, 152, 153, 154, 155, 156, 157, 158, 159, 160, 161, 162, 163, 164, 165, 166, 167, 168, 169, 170, 171, 172, 173, 174, 175, 176, 177, 178, 179, 180, 181, 182, 183, 184, 185, 186, 187, 188, 189, 190, 191, 192, 193, 194, 195, 196, 197, 198, 199, 200],
      "WindowCenter": [1416.0, 1416.0, 1416.0, 1416.0, 1416.0, 1416.0, 1416.0, 1415.0, 1415.0, 1415.0, 1415.0, 1415.0, 1414.0, 1414.0, 1415.0, 1415.0, 1415.0, 1415.0, 1414.0, 1414.0, 1415.0, 1415.0, 1414.0, 1414.0, 1414.0, 1414.0, 1414.0, 1414.0, 1414.0, 1414.0, 1414.0, 1415.0, 1414.0, 1414.0, 1418.0, 1418.0, 1417.0, 1417.0, 1417.0, 1418.0, 1418.0, 1418.0, 1417.0, 1418.0, 1417.0, 1417.0, 1418.0, 1417.0, 1417.0, 1417.0, 1417.0, 1417.0, 1417.0, 1417.0, 1417.0, 1417.0, 1417.0, 1417.0, 1416.0, 1417.0, 1417.0, 1417.0, 1417.0, 1416.0, 1417.0, 1417.0, 1416.0, 1416.0, 1416.0, 1416.0, 1416.0, 1416.0, 1416.0, 1416.0, 1416.0, 1416.0, 1416.0, 1416.0, 1416.0, 1415.0, 1415.0, 1415.0, 1416.0, 1416.0, 1416.0, 1415.0, 1415.0, 1416.0, 1415.0, 1415.0, 1415.0, 1415.0, 1415.0, 1415.0, 1415.0, 1415.0, 1415.0, 1415.0, 1415.0, 1415.0, 1415.0, 1414.0, 1415.0, 1415.0, 1415.0, 1415.0, 1415.0, 1415.0, 1415.0, 1415.0, 1414.0, 1415.0, 1415.0, 1415.0, 1414.0, 1414.0, 1414.0, 1414.0, 1415.0, 1414.0, 1414.0, 1414.0, 1414.0, 1414.0, 1414.0, 1414.0, 1414.0, 1414.0, 1414.0, 1414.0, 1414.0, 1414.0, 1414.0, 1415.0, 1414.0, 1414.0, 1414.0, 1414.0, 1414.0, 1413.0, 1413.0, 1413.0, 1413.0, 1413.0, 1413.0, 1413.0, 1413.0, 1413.0, 1413.0, 1414.0, 1413.0, 1413.0, 1413.0, 1413.0, 1413.0, 1412.0, 1413.0, 1413.0, 1413.0, 1412.0, 1413.0, 1412.0, 1412.0, 1412.0, 1413.0, 1412.0, 1412.0, 1413.0, 1412.0, 1412.0, 1412.0, 1412.0, 1412.0, 1412.0, 1412.0, 1412.0, 1412.0, 1412.0, 1413.0, 1412.0, 1412.0, 1412.0, 1413.0, 1412.0, 1412.0, 1412.0, 1412.0, 1412.0, 1412.0, 1412.0, 1411.0, 1413.0, 1412.0, 1412.0, 1411.0, 1411.0, 1412.0, 1412.0, 1411.0, 1411.0],
      "WindowWidth": [3363.0, 3362.0, 3362.0, 3362.0, 3362.0, 3362.0, 3362.0, 3362.0, 3362.0, 3362.0, 3362.0, 3362.0, 3362.0, 3362.0, 3362.0, 3362.0, 3362.0, 3362.0, 3362.0, 3362.0, 3361.0, 3361.0, 3362.0, 3362.0, 3362.0, 3362.0, 3362.0, 3362.0, 3362.0, 3362.0, 3362.0, 3361.0, 3362.0, 3366.0, 3373.0, 3373.0, 3373.0, 3373.0, 3373.0, 3373.0, 3372.0, 3372.0, 3373.0, 3372.0, 3372.0, 3373.0, 3372.0, 3372.0, 3373.0, 3372.0, 3372.0, 3372.0, 3372.0, 3372.0, 3372.0, 3372.0, 3372.0, 3372.0, 3373.0, 3372.0, 3372.0, 3372.0, 3372.0, 3372.0, 3372.0, 3372.0, 3372.0, 3372.0, 3372.0, 3372.0, 3372.0, 3372.0, 3372.0, 3372.0, 3372.0, 3372.0, 3372.0, 3372.0, 3372.0, 3372.0, 3372.0, 3372.0, 3372.0, 3372.0, 3372.0, 3372.0, 3372.0, 3372.0, 3372.0, 3372.0, 3372.0, 3372.0, 3372.0, 3372.0, 3372.0, 3372.0, 3372.0, 3372.0, 3372.0, 3372.0, 3372.0, 3372.0, 3372.0, 3372.0, 3372.0, 3372.0, 3372.0, 3372.0, 3372.0, 3372.0, 3372.0, 3372.0, 3372.0, 3372.0, 3372.0, 3372.0, 3372.0, 3372.0, 3372.0, 3372.0, 3372.0, 3372.0, 3372.0, 3372.0, 3371.0, 3371.0, 3371.0, 3371.0, 3371.0, 3371.0, 3371.0, 3371.0, 3371.0, 3371.0, 3371.0, 3371.0, 3371.0, 3371.0, 3371.0, 3371.0, 3371.0, 3371.0, 3371.0, 3371.0, 3371.0, 3371.0, 3371.0, 3371.0, 3371.0, 3371.0, 3371.0, 3371.0, 3371.0, 3371.0, 3371.0, 3371.0, 3371.0, 3371.0, 3371.0, 3371.0, 3371.0, 3371.0, 3371.0, 3371.0, 3371.0, 3371.0, 3371.0, 3371.0, 3371.0, 3371.0, 3371.0, 3371.0, 3371.0, 3371.0, 3371.0, 3371.0, 3371.0, 3370.0, 3370.0, 3370.0, 3370.0, 3370.0, 3370.0, 3371.0, 3371.0, 3370.0, 3371.0, 3371.0, 3371.0, 3370.0, 3371.0, 3370.0, 3370.0, 3370.0, 3371.0, 3371.0, 3370.0, 3370.0, 3371.0, 3371.0]
    },
    "slices": {}
  }
}