{
  "AcquisitionMatrixPE": 80,
  "AcquisitionNumber": 1,
  "AcquisitionTime": "10:03:1.490000",
  "BandwidthPerPixelPhaseEncode": 25,
  "BaseResolution": 80,
  "BodyPartExamined": "BRAIN",
  "CoilCombinationMethod": "Sum of Squares",
  "ConsistencyInfo": "N4_VE11C_LATEST_20160120",
  "ConversionSoftware": "dcm2niix",
  "ConversionSoftwareVersion": "v1.0.20220720",
  "DerivedVendorReportedEchoSpacing": 0.0005,
  "DeviceSerialNumber": "66112",
  "DwellTime": 2.7e-06,
  "EchoTime": 0.03,
  "EchoTrainLength": 80,
  "EffectiveEchoSpacing": 0.0005,
  "FlipAngle": 77,
  "HeudiconvVersion": "0.13.1",
  "ImageOrientationPatientDICOM": [0.999568, 0.00902922, -0.027961, 0.00122124, 0.938024, 0.346567],
  "ImageOrientationText": "Tra>Cor(20.3)>Sag(-1.7)",
  "ImageType": [
    "ORIGINAL",
    "PRIMARY",
    "M",
    "ND",
    "NORM",
    "MOSAIC"
],
  "ImagingFrequency": 123.252,
  "InPlanePhaseEncodingDirectionDICOM": "COL",
  "InstitutionAddress": "Maynard 3,Hanover,NH,US,03755",
  "InstitutionName": "Dartmouth College - PBS",
  "InstitutionalDepartmentName": "Department",
  "MRAcquisitionType": "2D",
  "MagneticFieldStrength": 3,
  "Manufacturer": "Siemens",
  "ManufacturersModelName": "Prisma",
  "MatrixCoilMode": "SENSE",
  "Modality": "MR",
  "NonlinearGradientCorrection": false,
  "PartialFourier": 1,
  "PatientPosition": "HFS",
  "PercentPhaseFOV": 100,
  "PercentSampling": 100,
  "PhaseEncodingDirection": "j-",
  "PhaseEncodingSteps": 80,
  "PhaseResolution": 1,
  "PixelBandwidth": 2315,
  "ProcedureStepDescription": "dbic^QA",
  "ProtocolName": "func-bold_fa-77",
  "PulseSequenceDetails": "%SiemensSeq%\\ep2d_bold",
  "ReceiveCoilActiveElements": "HEA;HEP",
  "ReceiveCoilName": "Head_32",
  "ReconMatrixPE": 80,
  "RepetitionTime": 2,
  "SAR": 0.0374432,
  "ScanOptions": "FS",
  "ScanningSequence": "EP",
  "SequenceName": "*epfid2d1_80",
  "SequenceVariant": "SK",
  "SeriesDescription": "func-bold_fa-77",
  "SeriesNumber": 8,
  "ShimSetting": [4144, -7702, -7523, 244, -92, -47, -25, 67],
  "SliceThickness": 3.5,
  "SliceTiming": [0.99, 0, 1.0575, 0.0675, 1.1225, 0.1325, 1.19, 0.2, 1.255, 0.265, 1.32, 0.33, 1.3875, 0.3975, 1.4525, 0.4625, 1.52, 0.53, 1.585, 0.595, 1.65, 0.66, 1.7175, 0.7275, 1.7825, 0.7925, 1.85, 0.86, 1.915, 0.925],
  "SoftwareVersions": "syngo MR E11",
  "SpacingBetweenSlices": 3.99,
  "StationName": "AWP66112",
  "TotalReadoutTime": 0.0395,
  "TxRefAmp": 221.501,
  "dcmmeta_affine": [
    [-2.998704671859741, 0.003663725918158889, -0.11713561415672302, 121.56988525390625],
    [-0.02708766981959343, 2.814073324203491, 1.3823415040969849, -117.3172836303711],
    [-0.0838828906416893, -1.039700984954834, 3.7410573959350586, -12.23803997039795],
    [0.0, 0.0, 0.0, 1.0]
],
  "dcmmeta_reorient_transform": [
    [0.0, -1.0, 0.0, 79.0],
    [1.0, 0.0, 0.0, 0.0],
    [0.0, 0.0, 1.0, 0.0],
    [0.0, 0.0, 0.0, 1.0]
],
  "dcmmeta_shape": [80, 80, 30, 200],
  "dcmmeta_slice_dim": 2,
  "dcmmeta_version": 0.6,
  "global": {
    "const": {
      "AccessionNumber": "qa",
      "AcquisitionMatrix": [80, 0, 0, 80],
      "AngioFlag": "N",
      "BitsAllocated": 16,
      "BitsStored": 12,
      "BodyPartExamined": "BRAIN",
      "Columns": 480,
      "EchoNumbers": 1,
      "EchoTime": 30.0,
      "EchoTrainLength": 80,
      "FlipAngle": 77.0,
      "HighBit": 11,
      "ImageOrientationPatient": [0.99956823561303, 0.00902922344773, -0.0279609634558, 0.00122124197866, 0.93802443027777, 0.34656698742104],
      "ImagePositionPatient": [-722.33300971864, -673.22670178069, -285.53803037019],
      "ImageType": [
        "ORIGINAL",
        "PRIMARY",
        "M",
        "ND",
        "NORM",
        "MOSAIC"
],
      "ImagedNucleus": "1H",
      "ImagingFrequency": 123.252353,
      "InPlanePhaseEncodingDirection": "COL",
      "MRAcquisitionType": "2D",
      "MagneticFieldStrength": 3.0,
      "Manufacturer": "SIEMENS",
      "ManufacturerModelName": "Prisma",
      "Modality": "MR",
      "NumberOfAverages": 1.0,
      "NumberOfPhaseEncodingSteps": 80,
      "PercentPhaseFieldOfView": 100.0,
      "PercentSampling": 100.0,
      "PerformedProcedureStepStartTime": "093922.708000",
      "PhotometricInterpretation": "MONOCHROME2",
      "PixelBandwidth": 2315.0,
      "PixelRepresentation": 0,
      "PixelSpacing": [3.0, 3.0],
      "ProtocolName": "func-bold_fa-77",
      "RepetitionTime": 2000.0,
      "Rows": 480,
      "SAR": 0.03744324526129,
      "SamplesPerPixel": 1,
      "ScanOptions": "FS",
      "ScanningSequence": "EP",
      "SequenceName": "*epfid2d1_80",
      "SequenceVariant": "SK",
      "SeriesDescription": "func-bold_fa-77",
      "SeriesNumber": 8,
      "SeriesTime": "100349.930000",
      "SliceLocation": -55.688200146666,
      "SliceThickness": 3.5,
      "SmallestImagePixelValue": 0,
      "SoftwareVersions": "syngo MR E11",
      "SpacingBetweenSlices": 3.9899999282859,
      "SpecificCharacterSet": "ISO_IR 100",
      "StudyID": "14",
      "StudyTime": "093922.664000",
      "TransmitCoilName": "Body",
      "VariableFlipAngleFlag": "N",
      "WindowCenterWidthExplanation": "Algo1",
      "dBdt": 0.0},
    "slices": {}
  },
  "time": {
    "samples": {
      "AcquisitionNumber": [1, 2, 3, 4, 5, 6, 7, 8, 9, 10, 11, 12, 13, 14, 15, 16, 17, 18, 19, 20, 21, 22, 23, 24, 25, 26, 27, 28, 29, 30, 31, 32, 33, 34, 35, 36, 37, 38, 39, 40, 41, 42, 43, 44, 45, 46, 47, 48, 49, 50, 51, 52, 53, 54, 55, 56, 57, 58, 59, 60, 61, 62, 63, 64, 65, 66, 67, 68, 69, 70, 71, 72, 73, 74, 75, 76, 77, 78, 79, 80, 81, 82, 83, 84, 85, 86, 87, 88, 89, 90, 91, 92, 93, 94, 95, 96, 97, 98, 99, 100, 101, 102, 103, 104, 105, 106, 107, 108, 109, 110, 111, 112, 113, 114, 115, 116, 117, 118, 119, 120, 121, 122, 123, 124, 125, 126, 127, 128, 129, 130, 131, 132, 133, 134, 135, 136, 137, 138, 139, 140, 141, 142, 143, 144, 145, 146, 147, 148, 149, 150, 151, 152, 153, 154, 155, 156, 157, 158, 159, 160, 161, 162, 163, 164, 165, 166, 167, 168, 169, 170, 171, 172, 173, 174, 175, 176, 177, 178, 179, 180, 181, 182, 183, 184, 185, 186, 187, 188, 189, 190, 191, 192, 193, 194, 195, 196, 197, 198, 199, 200],
      "AcquisitionTime": ["100301.490000", "100303.490000", "100305.490000", "100307.490000", "100309.490000", "100311.490000", "100313.490000", "100315.490000", "100317.490000", "100319.490000", "100321.490000", "100323.490000", "100325.490000", "100327.490000", "100329.490000", "100331.490000", "100333.490000", "100335.490000", "100337.490000", "100339.490000", "100341.490000", "100343.490000", "100345.490000", "100347.490000", "100349.490000", "100351.490000", "100353.490000", "100355.490000", "100357.490000", "100359.490000", "100401.490000", "100403.490000", "100405.490000", "100407.490000", "100409.490000", "100411.490000", "100413.490000", "100415.490000", "100417.490000", "100419.490000", "100421.490000", "100423.490000", "100425.490000", "100427.490000", "100429.490000", "100431.490000", "100433.490000", "100435.490000", "100437.490000", "100439.490000", "100441.490000", "100443.490000", "100445.490000", "100447.490000", "100449.490000", "100451.490000", "100453.490000", "100455.490000", "100457.490000", "100459.490000", "100501.490000", "100503.490000", "100505.490000", "100507.490000", "100509.490000", "100511.490000", "100513.490000", "100515.490000", "100517.490000", "100519.490000", "100521.490000", "100523.490000", "100525.490000", "100527.490000", "100529.490000", "100531.490000", "100533.490000", "100535.490000", "100537.490000", "100539.490000", "100541.490000", "100543.490000", "100545.490000", "100547.490000", "100549.490000", "100551.490000", "100553.490000", "100555.490000", "100557.490000", "100559.490000", "100601.490000", "100603.490000", "100605.490000", "100607.490000", "100609.490000", "100611.490000", "100613.490000", "100615.490000", "100617.490000", "100619.490000", "100621.490000", "100623.490000", "100625.490000", "100627.490000", "100629.490000", "100631.490000", "100633.490000", "100635.490000", "100637.490000", "100639.490000", "100641.490000", "100643.490000", "100645.490000", "100647.490000", "100649.490000", "100651.490000", "100653.490000", "100655.490000", "100657.490000", "100659.490000", "100701.490000", "100703.490000", "100705.490000", "100707.490000", "100709.490000", "100711.490000", "100713.490000", "100715.490000", "100717.490000", "100719.490000", "100721.490000", "100723.490000", "100725.490000", "100727.490000", "100729.490000", "100731.490000", "100733.490000", "100735.490000", "100737.490000", "100739.490000", "100741.490000", "100743.490000", "100745.490000", "100747.490000", "100749.490000", "100751.490000", "100753.490000", "100755.490000", "100757.490000", "100759.490000", "100801.490000", "100803.490000", "100805.490000", "100807.490000", "100809.490000", "100811.490000", "100813.490000", "100815.490000", "100817.490000", "100819.490000", "100821.490000", "100823.490000", "100825.490000", "100827.490000", "100829.490000", "100831.490000", "100833.490000", "100835.490000", "100837.490000", "100839.490000", "100841.490000", "100843.490000", "100845.490000", "100847.490000", "100849.490000", "100851.490000", "100853.490000", "100855.490000", "100857.490000", "100859.490000", "100901.490000", "100903.490000", "100905.490000", "100907.490000", "100909.490000", "100911.490000", "100913.490000", "100915.490000", "100917.490000", "100919.490000", "100921.490000", "100923.490000", "100925.490000", "100927.490000", "100929.490000", "100931.490000", "100933.490000", "100935.490000", "100937.490000", "100939.490000"],
      "ContentTime": ["100349.933000", "100349.936000", "100349.939000", "100349.941000", "100349.944000", "100349.946000", "100349.949000", "100349.951000", "100349.954000", "100349.956000", "100349.959000", "100349.961000", "100349.963000", "100349.966000", "100349.968000", "100349.971000", "100349.973000", "100349.976000", "100349.978000", "100349.981000", "100349.983000", "100349.986000", "100349.988000", "100349.991000", "100429.928000", "100429.931000", "100429.934000", "100429.936000", "100429.939000", "100429.941000", "100429.944000", "100429.946000", "100429.949000", "100429.951000", "100429.954000", "100429.956000", "100429.958000", "100429.961000", "100429.963000", "100429.966000", "100429.969000", "100429.971000", "100429.973000", "100429.976000", "100509.928000", "100509.931000", "100509.934000", "100509.936000", "100509.939000", "100509.941000", "100509.944000", "100509.946000", "100509.949000", "100509.951000", "100509.953000", "100509.956000", "100509.958000", "100509.961000", "100509.963000", "100509.966000", "100509.968000", "100509.970000", "100509.973000", "100509.975000", "100549.928000", "100549.931000", "100549.934000", "100549.936000", "100549.939000", "100549.941000", "100549.944000", "100549.946000", "100549.949000", "100549.951000", "100549.954000", "100549.956000", "100549.959000", "100549.961000", "100549.964000", "100549.966000", "100549.969000", "100549.971000", "100549.974000", "100549.976000", "100629.928000", "100629.931000", "100629.934000", "100629.936000", "100629.939000", "100629.941000", "100629.944000", "100629.946000", "100629.949000", "100629.951000", "100629.953000", "100629.956000", "100629.958000", "100629.961000", "100629.963000", "100629.966000", "100629.968000", "100629.971000", "100629.973000", "100629.975000", "100709.928000", "100709.931000", "100709.934000", "100709.936000", "100709.939000", "100709.941000", "100709.944000", "100709.946000", "100709.949000", "100709.951000", "100709.954000", "100709.956000", "100709.959000", "100709.962000", "100709.964000", "100709.966000", "100709.969000", "100709.971000", "100709.974000", "100709.976000", "100749.929000", "100749.937000", "100749.939000", "100749.942000", "100749.944000", "100749.947000", "100749.949000", "100749.952000", "100749.954000", "100749.957000", "100749.959000", "100749.962000", "100749.964000", "100749.967000", "100749.969000", "100749.972000", "100749.974000", "100749.977000", "100749.979000", "100749.982000", "100829.928000", "100829.931000", "100829.934000", "100829.936000", "100829.939000", "100829.942000", "100829.944000", "100829.947000", "100829.949000", "100829.952000", "100829.954000", "100829.957000", "100829.959000", "100829.962000", "100829.964000", "100829.967000", "100829.969000", "100829.972000", "100829.975000", "100829.977000", "100909.928000", "100909.931000", "100909.934000", "100909.936000", "100909.939000", "100909.941000", "100909.944000", "100909.946000", "100909.949000", "100909.951000", "100909.954000", "100909.956000", "100909.959000", "100909.961000", "100909.964000", "100909.966000", "100909.969000", "100909.972000", "100909.974000", "100909.976000", "100940.856000", "100940.859000", "100940.861000", "100940.864000", "100940.866000", "100940.869000", "100940.872000", "100940.874000", "100940.877000", "100940.879000", "100940.882000", "100940.884000", "100940.887000", "100940.895000", "100940.899000", "100940.902000"],
      "InstanceCreationTime": ["100349.933000", "100349.936000", "100349.939000", "100349.941000", "100349.944000", "100349.946000", "100349.949000", "100349.951000", "100349.954000", "100349.956000", "100349.959000", "100349.961000", "100349.963000", "100349.966000", "100349.968000", "100349.971000", "100349.973000", "100349.976000", "100349.978000", "100349.981000", "100349.983000", "100349.986000", "100349.988000", "100349.991000", "100429.928000", "100429.931000", "100429.934000", "100429.936000", "100429.939000", "100429.941000", "100429.944000", "100429.946000", "100429.949000", "100429.951000", "100429.954000", "100429.956000", "100429.958000", "100429.961000", "100429.963000", "100429.966000", "100429.969000", "100429.971000", "100429.973000", "100429.976000", "100509.928000", "100509.931000", "100509.934000", "100509.936000", "100509.939000", "100509.941000", "100509.944000", "100509.946000", "100509.949000", "100509.951000", "100509.953000", "100509.956000", "100509.958000", "100509.961000", "100509.963000", "100509.966000", "100509.968000", "100509.970000", "100509.973000", "100509.975000", "100549.928000", "100549.931000", "100549.934000", "100549.936000", "100549.939000", "100549.941000", "100549.944000", "100549.946000", "100549.949000", "100549.951000", "100549.954000", "100549.956000", "100549.959000", "100549.961000", "100549.964000", "100549.966000", "100549.969000", "100549.971000", "100549.974000", "100549.976000", "100629.928000", "100629.931000", "100629.934000", "100629.936000", "100629.939000", "100629.941000", "100629.944000", "100629.946000", "100629.949000", "100629.951000", "100629.953000", "100629.956000", "100629.958000", "100629.961000", "100629.963000", "100629.966000", "100629.968000", "100629.971000", "100629.973000", "100629.975000", "100709.928000", "100709.931000", "100709.934000", "100709.936000", "100709.939000", "100709.941000", "100709.944000", "100709.946000", "100709.949000", "100709.951000", "100709.954000", "100709.956000", "100709.959000", "100709.962000", "100709.964000", "100709.966000", "100709.969000", "100709.971000", "100709.974000", "100709.976000", "100749.929000", "100749.937000", "100749.939000", "100749.942000", "100749.944000", "100749.947000", "100749.949000", "100749.952000", "100749.954000", "100749.957000", "100749.959000", "100749.962000", "100749.964000", "100749.967000", "100749.969000", "100749.972000", "100749.974000", "100749.977000", "100749.979000", "100749.982000", "100829.928000", "100829.931000", "100829.934000", "100829.936000", "100829.939000", "100829.942000", "100829.944000", "100829.947000", "100829.949000", "100829.952000", "100829.954000", "100829.957000", "100829.959000", "100829.962000", "100829.964000", "100829.967000", "100829.969000", "100829.972000", "100829.975000", "100829.977000", "100909.928000", "100909.931000", "100909.934000", "100909.936000", "100909.939000", "100909.941000", "100909.944000", "100909.946000", "100909.949000", "100909.951000", "100909.954000", "100909.956000", "100909.959000", "100909.961000", "100909.964000", "100909.966000", "100909.969000", "100909.972000", "100909.974000", "100909.976000", "100940.856000", "100940.859000", "100940.861000", "100940.864000", "100940.866000", "100940.869000", "100940.872000", "100940.874000", "100940.877000", "100940.879000", "100940.882000", "100940.884000", "100940.887000", "100940.895000", "100940.899000", "100940.902000"],
      "InstanceNumber": [1, 2, 3, 4, 5, 6, 7, 8, 9, 10, 11, 12, 13, 14, 15, 16, 17, 18, 19, 20, 21, 22, 23, 24, 25, 26, 27, 28, 29, 30, 31, 32, 33, 34, 35, 36, 37, 38, 39, 40, 41, 42, 43, 44, 45, 46, 47, 48, 49, 50, 51, 52, 53, 54, 55, 56, 57, 58, 59, 60, 61, 62, 63, 64, 65, 66, 67, 68, 69, 70, 71, 72, 73, 74, 75, 76, 77, 78, 79, 80, 81, 82, 83, 84, 85, 86, 87, 88, 89, 90, 91, 92, 93, 94, 95, 96, 97, 98, 99, 100, 101, 102, 103, 104, 105, 106, 107, 108, 109, 110, 111, 112, 113, 114, 115, 116, 117, 118, 119, 120, 121, 122, 123, 124, 125, 126, 127, 128, 129, 130, 131, 132, 133, 134, 135, 136, 137, 138, 139, 140, 141, 142, 143, 144, 145, 146, 147, 148, 149, 150, 151, 152, 153, 154, 155, 156, 157, 158, 159, 160, 161, 162, 163, 164, 165, 166, 167, 168, 169, 170, 171, 172, 173, 174, 175, 176, 177, 178, 179, 180, 181, 182, 183, 184, 185, 186, 187, 188, 189, 190, 191, 192, 193, 194, 195, 196, 197, 198, 199, 200],
      "LargestImagePixelValue": [1922, 1921, 1922, 1920, 1919, 1922, 1922, 1920, 1919, 1919, 1921, 1920, 1920, 1921, 1922, 1922, 1920, 1922, 1921, 1920, 1921, 1920, 1922, 1922, 1921, 1921, 1922, 1921, 1922, 1921, 1923, 1919, 1922, 1921, 1921, 1921, 1921, 1920, 1922, 1921, 1922, 1921, 1920, 1920, 1921, 1921, 1921, 1921, 1922, 1921, 1922, 1921, 1920, 1921, 1921, 1920, 1921, 1921, 1919, 1922, 1921, 1923, 1921, 1921, 1919, 1920, 1921, 1922, 1922, 1922, 1920, 1920, 1922, 1920, 1920, 1920, 1921, 1921, 1921, 1922, 1921, 1923, 1921, 1921, 1921, 1919, 1917, 1920, 1920, 1921, 1924, 1922, 1923, 1925, 1923, 1921, 1921, 1923, 1922, 1920, 1920, 1922, 1922, 1922, 1923, 1924, 1921, 1922, 1921, 1922, 1921, 1921, 1921, 1922, 1923, 1920, 1923, 1922, 1923, 1923, 1925, 1923, 1921, 1924, 1922, 1923, 1923, 1921, 1922, 1922, 1919, 1921, 1921, 1925, 1921, 1920, 1921, 1923, 1922, 1920, 1920, 1921, 1921, 1921, 1922, 1920, 1924, 1921, 1921, 1922, 1922, 1922, 1923, 1922, 1922, 1920, 1923, 1921, 1921, 1922, 1920, 1923, 1923, 1922, 1926, 1925, 1925, 1922, 1922, 1922, 1922, 1922, 1921, 1921, 1921, 1922, 1925, 1921, 1923, 1920, 1922, 1921, 1922, 1921, 1921, 1923, 1924, 1922, 1925, 1925, 1925, 1925, 1929, 1926, 1925, 1925, 1924, 1922, 1921, 1922],
      "WindowCenter": [978.0, 979.0, 978.0, 978.0, 978.0, 979.0, 978.0, 978.0, 978.0, 978.0, 979.0, 978.0, 978.0, 978.0, 978.0, 978.0, 979.0, 978.0, 976.0, 978.0, 978.0, 978.0, 978.0, 978.0, 978.0, 978.0, 978.0, 978.0, 977.0, 978.0, 978.0, 978.0, 978.0, 978.0, 978.0, 978.0, 978.0, 978.0, 978.0, 978.0, 978.0, 977.0, 977.0, 977.0, 978.0, 978.0, 978.0, 977.0, 977.0, 978.0, 977.0, 977.0, 977.0, 977.0, 977.0, 977.0, 978.0, 977.0, 977.0, 977.0, 978.0, 978.0, 977.0, 978.0, 978.0, 977.0, 978.0, 978.0, 978.0, 977.0, 978.0, 977.0, 978.0, 977.0, 977.0, 977.0, 976.0, 977.0, 977.0, 977.0, 977.0, 977.0, 978.0, 978.0, 977.0, 977.0, 978.0, 978.0, 977.0, 977.0, 977.0, 977.0, 978.0, 978.0, 977.0, 978.0, 977.0, 978.0, 977.0, 978.0, 978.0, 978.0, 977.0, 977.0, 977.0, 978.0, 977.0, 976.0, 977.0, 977.0, 977.0, 978.0, 977.0, 977.0, 977.0, 977.0, 977.0, 977.0, 977.0, 978.0, 977.0, 977.0, 977.0, 977.0, 977.0, 978.0, 976.0, 977.0, 978.0, 975.0, 977.0, 978.0, 977.0, 977.0, 977.0, 977.0, 978.0, 977.0, 977.0, 977.0, 977.0, 977.0, 977.0, 978.0, 977.0, 977.0, 977.0, 977.0, 977.0, 978.0, 977.0, 978.0, 978.0, 977.0, 977.0, 978.0, 977.0, 978.0, 977.0, 977.0, 977.0, 977.0, 977.0, 978.0, 978.0, 978.0, 977.0, 977.0, 977.0, 978.0, 977.0, 978.0, 977.0, 977.0, 977.0, 978.0, 977.0, 977.0, 978.0, 978.0, 977.0, 978.0, 978.0, 977.0, 977.0, 978.0, 977.0, 977.0, 978.0, 978.0, 977.0, 977.0, 977.0, 977.0, 978.0, 978.0, 978.0, 977.0, 977.0, 977.0],
      "WindowWidth": [2147.0, 2149.0, 2148.0, 2147.0, 2147.0, 2147.0, 2147.0, 2147.0, 2147.0, 2147.0, 2147.0, 2147.0, 2147.0, 2147.0, 2147.0, 2147.0, 2147.0, 2147.0, 2145.0, 2147.0, 2146.0, 2147.0, 2147.0, 2146.0, 2146.0, 2146.0, 2146.0, 2146.0, 2145.0, 2146.0, 2146.0, 2147.0, 2146.0, 2146.0, 2147.0, 2147.0, 2147.0, 2147.0, 2147.0, 2147.0, 2147.0, 2146.0, 2146.0, 2146.0, 2146.0, 2146.0, 2146.0, 2146.0, 2146.0, 2146.0, 2146.0, 2146.0, 2146.0, 2146.0, 2146.0, 2146.0, 2146.0, 2146.0, 2146.0, 2146.0, 2147.0, 2147.0, 2146.0, 2146.0, 2146.0, 2146.0, 2147.0, 2147.0, 2147.0, 2146.0, 2146.0, 2146.0, 2147.0, 2146.0, 2146.0, 2145.0, 2144.0, 2145.0, 2145.0, 2145.0, 2145.0, 2145.0, 2146.0, 2146.0, 2145.0, 2145.0, 2146.0, 2146.0, 2145.0, 2145.0, 2145.0, 2145.0, 2146.0, 2146.0, 2145.0, 2146.0, 2145.0, 2146.0, 2145.0, 2146.0, 2146.0, 2146.0, 2145.0, 2145.0, 2145.0, 2146.0, 2145.0, 2145.0, 2145.0, 2145.0, 2145.0, 2146.0, 2145.0, 2145.0, 2145.0, 2145.0, 2145.0, 2145.0, 2145.0, 2146.0, 2145.0, 2145.0, 2145.0, 2145.0, 2145.0, 2146.0, 2144.0, 2145.0, 2146.0, 2144.0, 2145.0, 2146.0, 2145.0, 2145.0, 2145.0, 2145.0, 2146.0, 2145.0, 2145.0, 2145.0, 2145.0, 2145.0, 2145.0, 2146.0, 2145.0, 2145.0, 2145.0, 2145.0, 2145.0, 2146.0, 2145.0, 2146.0, 2146.0, 2145.0, 2145.0, 2146.0, 2145.0, 2146.0, 2145.0, 2145.0, 2145.0, 2145.0, 2146.0, 2146.0, 2147.0, 2146.0, 2145.0, 2145.0, 2145.0, 2146.0, 2145.0, 2146.0, 2145.0, 2145.0, 2145.0, 2146.0, 2145.0, 2145.0, 2145.0, 2146.0, 2145.0, 2146.0, 2147.0, 2146.0, 2145.0, 2145.0, 2145.0, 2145.0, 2146.0, 2146.0, 2145.0, 2145.0, 2145.0, 2145.0, 2146.0, 2146.0, 2146.0, 2145.0, 2145.0, 2145.0]
    },
    "slices": {}
  }
}