{
  "AcquisitionMatrixPE": 80,
  "AcquisitionNumber": 1,
  "AcquisitionTime": "09:49:16.802500",
  "BandwidthPerPixelPhaseEncode": 48.077,
  "BaseResolution": 80,
  "BodyPartExamined": "BRAIN",
  "CoilCombinationMethod": "Sum of Squares",
  "ConsistencyInfo": "N4_VE11C_LATEST_20160120",
  "ConversionSoftware": "dcm2niix",
  "ConversionSoftwareVersion": "v1.0.20220720",
  "DerivedVendorReportedEchoSpacing": 0.000519999,
  "DeviceSerialNumber": "66112",
  "DwellTime": 2.7e-06,
  "EchoTime": 0.035,
  "EchoTrainLength": 39,
  "EffectiveEchoSpacing": 0.00026,
  "FlipAngle": 90,
  "HeudiconvVersion": "0.13.1",
  "ImageOrientationPatientDICOM": [0.999568, 0.00902922, -0.027961, 0.00122124, 0.938024, 0.346567],
  "ImageOrientationText": "Tra>Cor(20.3)>Sag(-1.7)",
  "ImageType": [
    "ORIGINAL",
    "PRIMARY",
    "M",
    "ND",
    "NORM",
    "MOSAIC"
],
  "ImagingFrequency": 123.252,
  "InPlanePhaseEncodingDirectionDICOM": "COL",
  "InstitutionAddress": "Maynard 3,Hanover,NH,US,03755",
  "InstitutionName": "Dartmouth College - PBS",
  "InstitutionalDepartmentName": "Department",
  "MRAcquisitionType": "2D",
  "MagneticFieldStrength": 3,
  "Manufacturer": "Siemens",
  "ManufacturersModelName": "Prisma",
  "MatrixCoilMode": "GRAPPA",
  "Modality": "MR",
  "NonlinearGradientCorrection": false,
  "ParallelReductionFactorInPlane": 2,
  "PartialFourier": 1,
  "PatientPosition": "HFS",
  "PercentPhaseFOV": 100,
  "PercentSampling": 100,
  "PhaseEncodingDirection": "j-",
  "PhaseEncodingSteps": 79,
  "PhaseResolution": 1,
  "PixelBandwidth": 2315,
  "ProcedureStepDescription": "dbic^QA",
  "ProtocolName": "func-bold_task-rest_acq-p2",
  "PulseSequenceDetails": "%SiemensSeq%\\ep2d_bold",
  "ReceiveCoilActiveElements": "HEA;HEP",
  "ReceiveCoilName": "Head_32",
  "ReconMatrixPE": 80,
  "RefLinesPE": 24,
  "RepetitionTime": 2,
  "SAR": 0.0476468,
  "ScanOptions": "FS",
  "ScanningSequence": "EP",
  "SequenceName": "*epfid2d1_80",
  "SequenceVariant": "SK",
  "SeriesDescription": "func-bold_task-rest_acq-p2",
  "SeriesNumber": 5,
  "ShimSetting": [4144, -7703, -7522, 245, -92, -47, -27, 67],
  "SliceThickness": 3.5,
  "SliceTiming": [0.99, 0, 1.055, 0.065, 1.12, 0.1325, 1.1875, 0.1975, 1.2525, 0.2625, 1.32, 0.33, 1.385, 0.395, 1.45, 0.4625, 1.5175, 0.5275, 1.5825, 0.5925, 1.65, 0.66, 1.715, 0.725, 1.78, 0.79, 1.8475, 0.8575, 1.9125, 0.9225],
  "SoftwareVersions": "syngo MR E11",
  "SpacingBetweenSlices": 3.99,
  "StationName": "AWP66112",
  "TaskName": "rest",
  "TotalReadoutTime": 0.02054,
  "TxRefAmp": 221.501,
  "dcmmeta_affine": [
    [-2.998704671859741, 0.003663725918158889, -0.11713561415672302, 121.63880920410156],
    [-0.02708766981959343, 2.814073324203491, 1.3823415040969849, -123.00679779052734],
    [-0.0838828906416893, -1.039700984954834, 3.7410573959350586, -12.865225791931152],
    [0.0, 0.0, 0.0, 1.0]
],
  "dcmmeta_reorient_transform": [
    [0.0, -1.0, 0.0, 79.0],
    [1.0, 0.0, 0.0, 0.0],
    [0.0, 0.0, 1.0, 0.0],
    [0.0, 0.0, 0.0, 1.0]
],
  "dcmmeta_shape": [80, 80, 30, 200],
  "dcmmeta_slice_dim": 2,
  "dcmmeta_version": 0.6,
  "global": {
    "const": {
      "AccessionNumber": "qa",
      "AcquisitionMatrix": [80, 0, 0, 80],
      "AngioFlag": "N",
      "BitsAllocated": 16,
      "BitsStored": 12,
      "BodyPartExamined": "BRAIN",
      "Columns": 480,
      "EchoNumbers": 1,
      "EchoTime": 35.0,
      "EchoTrainLength": 39,
      "FlipAngle": 90.0,
      "HighBit": 11,
      "ImageOrientationPatient": [0.99956823561303, 0.00902922344773, -0.0279609634558, 0.00122124197866, 0.93802443027777, 0.34656698742104],
      "ImagePositionPatient": [-722.40193152306, -667.53718666686, -286.16521619172],
      "ImageType": [
        "ORIGINAL",
        "PRIMARY",
        "M",
        "ND",
        "NORM",
        "MOSAIC"
],
      "ImagedNucleus": "1H",
      "ImagingFrequency": 123.252352,
      "InPlanePhaseEncodingDirection": "COL",
      "MRAcquisitionType": "2D",
      "MagneticFieldStrength": 3.0,
      "Manufacturer": "SIEMENS",
      "ManufacturerModelName": "Prisma",
      "Modality": "MR",
      "NumberOfAverages": 1.0,
      "NumberOfPhaseEncodingSteps": 79,
      "PercentPhaseFieldOfView": 100.0,
      "PercentSampling": 100.0,
      "PerformedProcedureStepStartTime": "093922.708000",
      "PhotometricInterpretation": "MONOCHROME2",
      "PixelBandwidth": 2315.0,
      "PixelRepresentation": 0,
      "PixelSpacing": [3.0, 3.0],
      "ProtocolName": "func-bold_task-rest_acq-p2",
      "RepetitionTime": 2000.0,
      "Rows": 480,
      "SAR": 0.04764681504102,
      "SamplesPerPixel": 1,
      "ScanOptions": "FS",
      "ScanningSequence": "EP",
      "SequenceName": "*epfid2d1_80",
      "SequenceVariant": "SK",
      "SeriesDescription": "func-bold_task-rest_acq-p2",
      "SeriesNumber": 5,
      "SeriesTime": "095009.801000",
      "SliceLocation": -58.24941923902,
      "SliceThickness": 3.5,
      "SmallestImagePixelValue": 0,
      "SoftwareVersions": "syngo MR E11",
      "SpacingBetweenSlices": 3.9899999396791,
      "SpecificCharacterSet": "ISO_IR 100",
      "StudyID": "14",
      "StudyTime": "093922.664000",
      "TransmitCoilName": "Body",
      "VariableFlipAngleFlag": "N",
      "WindowCenterWidthExplanation": "Algo1",
      "dBdt": 0.0},
    "slices": {}
  },
  "time": {
    "samples": {
      "AcquisitionNumber": [1, 2, 3, 4, 5, 6, 7, 8, 9, 10, 11, 12, 13, 14, 15, 16, 17, 18, 19, 20, 21, 22, 23, 24, 25, 26, 27, 28, 29, 30, 31, 32, 33, 34, 35, 36, 37, 38, 39, 40, 41, 42, 43, 44, 45, 46, 47, 48, 49, 50, 51, 52, 53, 54, 55, 56, 57, 58, 59, 60, 61, 62, 63, 64, 65, 66, 67, 68, 69, 70, 71, 72, 73, 74, 75, 76, 77, 78, 79, 80, 81, 82, 83, 84, 85, 86, 87, 88, 89, 90, 91, 92, 93, 94, 95, 96, 97, 98, 99, 100, 101, 102, 103, 104, 105, 106, 107, 108, 109, 110, 111, 112, 113, 114, 115, 116, 117, 118, 119, 120, 121, 122, 123, 124, 125, 126, 127, 128, 129, 130, 131, 132, 133, 134, 135, 136, 137, 138, 139, 140, 141, 142, 143, 144, 145, 146, 147, 148, 149, 150, 151, 152, 153, 154, 155, 156, 157, 158, 159, 160, 161, 162, 163, 164, 165, 166, 167, 168, 169, 170, 171, 172, 173, 174, 175, 176, 177, 178, 179, 180, 181, 182, 183, 184, 185, 186, 187, 188, 189, 190, 191, 192, 193, 194, 195, 196, 197, 198, 199, 200],
      "AcquisitionTime": ["094916.802500", "094918.802500", "094920.802500", "094922.802500", "094924.802500", "094926.802500", "094928.802500", "094930.802500", "094932.802500", "094934.802500", "094936.802500", "094938.802500", "094940.802500", "094942.802500", "094944.802500", "094946.802500", "094948.802500", "094950.802500", "094952.802500", "094954.802500", "094956.802500", "094958.802500", "095000.802500", "095002.802500", "095004.802500", "095006.802500", "095008.802500", "095010.802500", "095012.802500", "095014.802500", "095016.802500", "095018.802500", "095020.802500", "095022.802500", "095024.802500", "095026.802500", "095028.802500", "095030.802500", "095032.802500", "095034.802500", "095036.802500", "095038.802500", "095040.802500", "095042.802500", "095044.802500", "095046.802500", "095048.802500", "095050.802500", "095052.802500", "095054.802500", "095056.802500", "095058.802500", "095100.802500", "095102.802500", "095104.802500", "095106.802500", "095108.802500", "095110.802500", "095112.802500", "095114.802500", "095116.802500", "095118.802500", "095120.802500", "095122.802500", "095124.802500", "095126.802500", "095128.802500", "095130.802500", "095132.802500", "095134.802500", "095136.802500", "095138.802500", "095140.802500", "095142.802500", "095144.802500", "095146.802500", "095148.802500", "095150.802500", "095152.802500", "095154.802500", "095156.802500", "095158.802500", "095200.802500", "095202.802500", "095204.802500", "095206.802500", "095208.802500", "095210.802500", "095212.802500", "095214.802500", "095216.802500", "095218.802500", "095220.802500", "095222.802500", "095224.802500", "095226.802500", "095228.802500", "095230.802500", "095232.802500", "095234.802500", "095236.802500", "095238.802500", "095240.802500", "095242.802500", "095244.802500", "095246.802500", "095248.802500", "095250.802500", "095252.802500", "095254.802500", "095256.802500", "095258.802500", "095300.802500", "095302.802500", "095304.802500", "095306.802500", "095308.802500", "095310.802500", "095312.802500", "095314.802500", "095316.802500", "095318.802500", "095320.802500", "095322.802500", "095324.802500", "095326.802500", "095328.802500", "095330.802500", "095332.802500", "095334.802500", "095336.802500", "095338.802500", "095340.802500", "095342.802500", "095344.802500", "095346.802500", "095348.802500", "095350.802500", "095352.802500", "095354.802500", "095356.802500", "095358.802500", "095400.802500", "095402.802500", "095404.802500", "095406.802500", "095408.802500", "095410.802500", "095412.802500", "095414.802500", "095416.802500", "095418.802500", "095420.802500", "095422.802500", "095424.802500", "095426.802500", "095428.802500", "095430.802500", "095432.802500", "095434.802500", "095436.802500", "095438.802500", "095440.802500", "095442.802500", "095444.802500", "095446.802500", "095448.802500", "095450.802500", "095452.802500", "095454.802500", "095456.802500", "095458.802500", "095500.802500", "095502.802500", "095504.802500", "095506.802500", "095508.802500", "095510.802500", "095512.802500", "095514.802500", "095516.802500", "095518.802500", "095520.802500", "095522.802500", "095524.802500", "095526.802500", "095528.802500", "095530.802500", "095532.802500", "095534.802500", "095536.802500", "095538.802500", "095540.802500", "095542.802500", "095544.802500", "095546.802500", "095548.802500", "095550.802500", "095552.802500", "095554.802500"],
      "ContentTime": ["095009.805000", "095009.808000", "095009.811000", "095009.813000", "095009.816000", "095009.818000", "095009.821000", "095009.823000", "095009.826000", "095009.828000", "095009.831000", "095009.833000", "095009.836000", "095009.838000", "095009.840000", "095009.843000", "095009.845000", "095009.848000", "095009.850000", "095009.853000", "095009.855000", "095009.858000", "095009.860000", "095009.863000", "095009.865000", "095009.868000", "095049.787000", "095049.789000", "095049.792000", "095049.794000", "095049.797000", "095049.799000", "095049.802000", "095049.804000", "095049.807000", "095049.809000", "095049.812000", "095049.815000", "095049.817000", "095049.820000", "095049.822000", "095049.824000", "095049.827000", "095049.829000", "095049.832000", "095049.834000", "095129.786000", "095129.789000", "095129.792000", "095129.794000", "095129.797000", "095129.799000", "095129.802000", "095129.804000", "095129.806000", "095129.809000", "095129.811000", "095129.814000", "095129.816000", "095129.819000", "095129.821000", "095129.824000", "095129.826000", "095129.829000", "095129.831000", "095129.834000", "095209.786000", "095209.789000", "095209.792000", "095209.794000", "095209.797000", "095209.799000", "095209.801000", "095209.804000", "095209.807000", "095209.809000", "095209.812000", "095209.814000", "095209.817000", "095209.819000", "095209.822000", "095209.824000", "095209.827000", "095209.829000", "095209.832000", "095209.834000", "095229.787000", "095229.789000", "095229.792000", "095229.794000", "095229.797000", "095229.799000", "095229.802000", "095229.804000", "095229.807000", "095229.809000", "095309.786000", "095309.789000", "095309.792000", "095309.794000", "095309.796000", "095309.799000", "095309.806000", "095309.809000", "095309.811000", "095309.814000", "095309.816000", "095309.819000", "095309.821000", "095309.824000", "095309.826000", "095309.829000", "095309.831000", "095309.834000", "095309.836000", "095309.839000", "095349.786000", "095349.789000", "095349.792000", "095349.794000", "095349.797000", "095349.799000", "095349.802000", "095349.804000", "095349.807000", "095349.809000", "095349.812000", "095349.814000", "095349.817000", "095349.819000", "095349.822000", "095349.824000", "095349.827000", "095349.829000", "095349.832000", "095349.834000", "095429.786000", "095429.789000", "095429.792000", "095429.794000", "095429.797000", "095429.799000", "095429.802000", "095429.804000", "095429.806000", "095429.809000", "095429.811000", "095429.814000", "095429.816000", "095429.819000", "095429.821000", "095429.824000", "095429.826000", "095429.829000", "095429.831000", "095429.834000", "095509.786000", "095509.789000", "095509.792000", "095509.794000", "095509.797000", "095509.799000", "095509.802000", "095509.804000", "095509.807000", "095509.809000", "095509.812000", "095509.814000", "095509.817000", "095509.819000", "095509.822000", "095509.824000", "095509.827000", "095509.829000", "095509.832000", "095509.834000", "095549.786000", "095549.789000", "095549.792000", "095549.794000", "095549.797000", "095549.799000", "095549.801000", "095549.804000", "095549.806000", "095549.809000", "095549.811000", "095549.814000", "095549.816000", "095549.819000", "095549.821000", "095549.824000", "095549.826000", "095549.829000", "095549.831000", "095549.834000", "095556.531000", "095556.534000", "095556.536000", "095556.539000"],
      "InstanceCreationTime": ["095009.805000", "095009.808000", "095009.811000", "095009.813000", "095009.816000", "095009.818000", "095009.821000", "095009.823000", "095009.826000", "095009.828000", "095009.831000", "095009.833000", "095009.836000", "095009.838000", "095009.840000", "095009.843000", "095009.845000", "095009.848000", "095009.850000", "095009.853000", "095009.855000", "095009.858000", "095009.860000", "095009.863000", "095009.865000", "095009.868000", "095049.787000", "095049.789000", "095049.792000", "095049.794000", "095049.797000", "095049.799000", "095049.802000", "095049.804000", "095049.807000", "095049.809000", "095049.812000", "095049.815000", "095049.817000", "095049.820000", "095049.822000", "095049.824000", "095049.827000", "095049.829000", "095049.832000", "095049.834000", "095129.786000", "095129.789000", "095129.792000", "095129.794000", "095129.797000", "095129.799000", "095129.802000", "095129.804000", "095129.806000", "095129.809000", "095129.811000", "095129.814000", "095129.816000", "095129.819000", "095129.821000", "095129.824000", "095129.826000", "095129.829000", "095129.831000", "095129.834000", "095209.786000", "095209.789000", "095209.792000", "095209.794000", "095209.797000", "095209.799000", "095209.801000", "095209.804000", "095209.807000", "095209.809000", "095209.812000", "095209.814000", "095209.817000", "095209.819000", "095209.822000", "095209.824000", "095209.827000", "095209.829000", "095209.832000", "095209.834000", "095229.787000", "095229.789000", "095229.792000", "095229.794000", "095229.797000", "095229.799000", "095229.802000", "095229.804000", "095229.807000", "095229.809000", "095309.786000", "095309.789000", "095309.792000", "095309.794000", "095309.796000", "095309.799000", "095309.806000", "095309.809000", "095309.811000", "095309.814000", "095309.816000", "095309.819000", "095309.821000", "095309.824000", "095309.826000", "095309.829000", "095309.831000", "095309.834000", "095309.836000", "095309.839000", "095349.786000", "095349.789000", "095349.792000", "095349.794000", "095349.797000", "095349.799000", "095349.802000", "095349.804000", "095349.807000", "095349.809000", "095349.812000", "095349.814000", "095349.817000", "095349.819000", "095349.822000", "095349.824000", "095349.827000", "095349.829000", "095349.832000", "095349.834000", "095429.786000", "095429.789000", "095429.792000", "095429.794000", "095429.797000", "095429.799000", "095429.802000", "095429.804000", "095429.806000", "095429.809000", "095429.811000", "095429.814000", "095429.816000", "095429.819000", "095429.821000", "095429.824000", "095429.826000", "095429.829000", "095429.831000", "095429.834000", "095509.786000", "095509.789000", "095509.792000", "095509.794000", "095509.797000", "095509.799000", "095509.802000", "095509.804000", "095509.807000", "095509.809000", "095509.812000", "095509.814000", "095509.817000", "095509.819000", "095509.822000", "095509.824000", "095509.827000", "095509.829000", "095509.832000", "095509.834000", "095549.786000", "095549.789000", "095549.792000", "095549.794000", "095549.797000", "095549.799000", "095549.801000", "095549.804000", "095549.806000", "095549.809000", "095549.811000", "095549.814000", "095549.816000", "095549.819000", "095549.821000", "095549.824000", "095549.826000", "095549.829000", "095549.831000", "095549.834000", "095556.531000", "095556.534000", "095556.536000", "095556.539000"],
      "InstanceNumber": [1, 2, 3, 4, 5, 6, 7, 8, 9, 10, 11, 12, 13, 14, 15, 16, 17, 18, 19, 20, 21, 22, 23, 24, 25, 26, 27, 28, 29, 30, 31, 32, 33, 34, 35, 36, 37, 38, 39, 40, 41, 42, 43, 44, 45, 46, 47, 48, 49, 50, 51, 52, 53, 54, 55, 56, 57, 58, 59, 60, 61, 62, 63, 64, 65, 66, 67, 68, 69, 70, 71, 72, 73, 74, 75, 76, 77, 78, 79, 80, 81, 82, 83, 84, 85, 86, 87, 88, 89, 90, 91, 92, 93, 94, 95, 96, 97, 98, 99, 100, 101, 102, 103, 104, 105, 106, 107, 108, 109, 110, 111, 112, 113, 114, 115, 116, 117, 118, 119, 120, 121, 122, 123, 124, 125, 126, 127, 128, 129, 130, 131, 132, 133, 134, 135, 136, 137, 138, 139, 140, 141, 142, 143, 144, 145, 146, 147, 148, 149, 150, 151, 152, 153, 154, 155, 156, 157, 158, 159, 160, 161, 162, 163, 164, 165, 166, 167, 168, 169, 170, 171, 172, 173, 174, 175, 176, 177, 178, 179, 180, 181, 182, 183, 184, 185, 186, 187, 188, 189, 190, 191, 192, 193, 194, 195, 196, 197, 198, 199, 200],
      "LargestImagePixelValue": [1987, 1984, 1993, 1983, 1986, 1984, 1984, 1982, 1983, 1984, 1988, 1982, 1988, 1976, 1980, 1985, 1987, 1981, 1983, 1987, 1988, 1984, 1988, 1985, 1985, 1984, 1986, 1984, 1991, 1991, 1993, 1983, 1981, 1987, 1982, 1980, 1979, 1985, 1984, 1984, 1984, 1988, 1980, 1985, 1985, 1979, 1978, 1981, 1984, 1983, 1986, 1985, 1987, 1987, 1981, 1986, 1986, 1990, 1989, 1983, 1989, 1985, 1985, 1984, 1988, 1984, 1987, 1981, 1988, 1982, 1982, 1985, 1983, 1981, 1985, 1975, 1989, 1985, 1985, 1987, 1981, 1985, 1983, 1983, 1985, 1980, 1987, 1980, 1983, 1981, 1986, 1985, 1988, 1990, 1989, 1985, 1982, 1985, 1988, 1984, 1983, 1976, 1984, 1985, 1981, 1978, 1983, 1987, 1980, 1982, 1982, 1987, 1983, 1991, 1980, 1989, 1987, 1985, 1990, 1984, 1983, 1982, 1984, 1985, 1981, 1984, 1983, 1988, 1980, 1980, 1982, 1984, 1984, 1984, 1986, 1987, 1982, 1982, 1988, 1983, 1982, 1987, 1984, 1982, 1991, 1986, 1989, 1984, 1979, 1982, 1980, 1983, 1984, 1984, 1985, 1980, 1992, 1983, 1985, 1979, 1983, 1983, 1989, 1985, 1986, 1984, 1985, 1981, 1983, 1986, 1986, 1979, 1984, 1980, 1986, 1982, 1986, 1979, 1987, 1980, 1986, 1986, 1980, 1990, 1984, 1987, 1988, 1985, 1989, 1982, 1984, 1984, 1982, 1982, 1981, 1988, 1982, 1981, 1979, 1981],
      "WindowCenter": [992.0, 991.0, 989.0, 990.0, 991.0, 991.0, 991.0, 990.0, 990.0, 990.0, 989.0, 990.0, 990.0, 990.0, 990.0, 990.0, 990.0, 990.0, 990.0, 990.0, 990.0, 990.0, 990.0, 990.0, 990.0, 990.0, 990.0, 990.0, 990.0, 990.0, 990.0, 990.0, 990.0, 990.0, 990.0, 991.0, 989.0, 990.0, 989.0, 990.0, 990.0, 990.0, 990.0, 990.0, 990.0, 990.0, 990.0, 989.0, 990.0, 990.0, 990.0, 989.0, 990.0, 990.0, 989.0, 989.0, 989.0, 990.0, 989.0, 990.0, 989.0, 990.0, 989.0, 991.0, 989.0, 990.0, 989.0, 989.0, 989.0, 989.0, 988.0, 989.0, 990.0, 988.0, 989.0, 989.0, 989.0, 990.0, 990.0, 989.0, 989.0, 990.0, 989.0, 990.0, 990.0, 990.0, 989.0, 990.0, 989.0, 989.0, 989.0, 990.0, 989.0, 990.0, 990.0, 989.0, 989.0, 990.0, 989.0, 990.0, 989.0, 989.0, 988.0, 988.0, 989.0, 989.0, 991.0, 989.0, 989.0, 990.0, 989.0, 991.0, 990.0, 989.0, 988.0, 990.0, 990.0, 989.0, 991.0, 990.0, 989.0, 990.0, 990.0, 989.0, 989.0, 989.0, 990.0, 989.0, 990.0, 988.0, 989.0, 990.0, 991.0, 989.0, 989.0, 990.0, 990.0, 989.0, 990.0, 990.0, 990.0, 989.0, 989.0, 990.0, 989.0, 989.0, 989.0, 990.0, 990.0, 989.0, 988.0, 988.0, 989.0, 988.0, 989.0, 989.0, 989.0, 989.0, 989.0, 988.0, 990.0, 988.0, 990.0, 988.0, 989.0, 989.0, 990.0, 990.0, 989.0, 990.0, 989.0, 988.0, 990.0, 988.0, 989.0, 990.0, 988.0, 989.0, 989.0, 989.0, 989.0, 990.0, 989.0, 989.0, 990.0, 989.0, 989.0, 988.0, 989.0, 990.0, 990.0, 989.0, 990.0, 989.0, 989.0, 991.0, 990.0, 990.0, 989.0, 989.0],
      "WindowWidth": [2175.0, 2174.0, 2172.0, 2173.0, 2174.0, 2173.0, 2173.0, 2173.0, 2173.0, 2173.0, 2172.0, 2173.0, 2173.0, 2173.0, 2173.0, 2173.0, 2173.0, 2173.0, 2173.0, 2173.0, 2173.0, 2173.0, 2172.0, 2173.0, 2173.0, 2173.0, 2173.0, 2173.0, 2173.0, 2173.0, 2173.0, 2173.0, 2172.0, 2173.0, 2172.0, 2173.0, 2172.0, 2173.0, 2171.0, 2173.0, 2173.0, 2173.0, 2172.0, 2172.0, 2172.0, 2172.0, 2172.0, 2172.0, 2173.0, 2172.0, 2173.0, 2172.0, 2173.0, 2173.0, 2172.0, 2172.0, 2172.0, 2173.0, 2172.0, 2173.0, 2172.0, 2173.0, 2171.0, 2173.0, 2172.0, 2173.0, 2171.0, 2172.0, 2172.0, 2172.0, 2171.0, 2171.0, 2172.0, 2171.0, 2172.0, 2171.0, 2172.0, 2172.0, 2172.0, 2171.0, 2172.0, 2172.0, 2172.0, 2172.0, 2172.0, 2172.0, 2172.0, 2172.0, 2172.0, 2172.0, 2172.0, 2172.0, 2172.0, 2172.0, 2172.0, 2172.0, 2172.0, 2172.0, 2171.0, 2172.0, 2172.0, 2171.0, 2170.0, 2171.0, 2171.0, 2172.0, 2173.0, 2172.0, 2171.0, 2172.0, 2172.0, 2172.0, 2172.0, 2171.0, 2171.0, 2172.0, 2172.0, 2171.0, 2172.0, 2172.0, 2171.0, 2172.0, 2172.0, 2171.0, 2172.0, 2172.0, 2173.0, 2172.0, 2172.0, 2171.0, 2172.0, 2172.0, 2173.0, 2172.0, 2172.0, 2172.0, 2172.0, 2172.0, 2172.0, 2172.0, 2172.0, 2171.0, 2172.0, 2172.0, 2171.0, 2171.0, 2172.0, 2172.0, 2172.0, 2171.0, 2171.0, 2170.0, 2171.0, 2171.0, 2171.0, 2171.0, 2171.0, 2171.0, 2171.0, 2171.0, 2172.0, 2171.0, 2172.0, 2170.0, 2171.0, 2171.0, 2172.0, 2171.0, 2171.0, 2171.0, 2171.0, 2170.0, 2172.0, 2170.0, 2171.0, 2172.0, 2170.0, 2171.0, 2170.0, 2171.0, 2171.0, 2171.0, 2171.0, 2171.0, 2171.0, 2171.0, 2171.0, 2170.0, 2171.0, 2171.0, 2171.0, 2171.0, 2171.0, 2171.0, 2171.0, 2172.0, 2171.0, 2171.0, 2171.0, 2171.0]
    },
    "slices": {}
  }
}