{
  "AcquisitionMatrixPE": 80,
  "AcquisitionNumber": 1,
  "AcquisitionTime": "09:58:45.542500",
  "BandwidthPerPixelPhaseEncode": 25,
  "BaseResolution": 80,
  "BodyPartExamined": "BRAIN",
  "CoilCombinationMethod": "Sum of Squares",
  "ConsistencyInfo": "N4_VE11C_LATEST_20160120",
  "ConversionSoftware": "dcm2niix",
  "ConversionSoftwareVersion": "v1.0.20220720",
  "DerivedVendorReportedEchoSpacing": 0.0005,
  "DeviceSerialNumber": "66112",
  "DwellTime": 2.7e-06,
  "EchoTime": 0.03,
  "EchoTrainLength": 80,
  "EffectiveEchoSpacing": 0.0005,
  "FlipAngle": 10,
  "HeudiconvVersion": "0.13.1",
  "ImageOrientationPatientDICOM": [0.989371, 0.145083, 0.00975041, -0.140985, 0.940683, 0.308608],
  "ImageOrientationText": "Tra>Cor(17.9)>Sag(-2.0)",
  "ImageType": [
    "ORIGINAL",
    "PRIMARY",
    "M",
    "ND",
    "NORM",
    "MOSAIC"
],
  "ImagingFrequency": 123.252,
  "InPlanePhaseEncodingDirectionDICOM": "COL",
  "InstitutionAddress": "Maynard 3,Hanover,NH,US,03755",
  "InstitutionName": "Dartmouth College - PBS",
  "InstitutionalDepartmentName": "Department",
  "MRAcquisitionType": "2D",
  "MagneticFieldStrength": 3,
  "Manufacturer": "Siemens",
  "ManufacturersModelName": "Prisma",
  "MatrixCoilMode": "SENSE",
  "Modality": "MR",
  "NonlinearGradientCorrection": false,
  "PartialFourier": 1,
  "PatientPosition": "HFS",
  "PercentPhaseFOV": 100,
  "PercentSampling": 100,
  "PhaseEncodingDirection": "j-",
  "PhaseEncodingSteps": 80,
  "PhaseResolution": 1,
  "PixelBandwidth": 2315,
  "ProcedureStepDescription": "dbic^QA",
  "ProtocolName": "func-bold_fa-10",
  "PulseSequenceDetails": "%SiemensSeq%\\ep2d_bold",
  "ReceiveCoilActiveElements": "HC1-7;NC1,2",
  "ReceiveCoilName": "HeadNeck_64",
  "ReconMatrixPE": 80,
  "RepetitionTime": 2,
  "SAR": 0.00866264,
  "ScanOptions": "FS",
  "ScanningSequence": "EP",
  "SequenceName": "*epfid2d1_80",
  "SequenceVariant": "SK",
  "SeriesDescription": "func-bold_fa-10",
  "SeriesNumber": 9,
  "ShimSetting": [4142, -7698, -7515, 190, -89, -254, -92, 76],
  "SliceThickness": 3.5,
  "SliceTiming": [0.99, 0, 1.055, 0.065, 1.12, 0.13, 1.1875, 0.1975, 1.2525, 0.2625, 1.32, 0.33, 1.385, 0.395, 1.45, 0.46, 1.5175, 0.5275, 1.5825, 0.5925, 1.65, 0.66, 1.715, 0.725, 1.78, 0.79, 1.8475, 0.8575, 1.9125, 0.9225],
  "SoftwareVersions": "syngo MR E11",
  "SpacingBetweenSlices": 3.99,
  "StationName": "AWP66112",
  "TotalReadoutTime": 0.0395,
  "TxRefAmp": 214.504,
  "dcmmeta_affine": [
    [-2.9681143760681152, -0.422953724861145, -0.142050638794899, 138.11700439453125],
    [-0.43524879217147827, 2.822049140930176, 1.223742127418518, -104.1985855102539],
    [0.0292512197047472, -0.9258229732513428, 3.795046329498291, -16.310277938842773],
    [0.0, 0.0, 0.0, 1.0]
],
  "dcmmeta_reorient_transform": [
    [0.0, -1.0, 0.0, 79.0],
    [1.0, 0.0, 0.0, 0.0],
    [0.0, 0.0, 1.0, 0.0],
    [0.0, 0.0, 0.0, 1.0]
],
  "dcmmeta_shape": [80, 80, 30, 200],
  "dcmmeta_slice_dim": 2,
  "dcmmeta_version": 0.6,
  "global": {
    "const": {
      "AccessionNumber": "qa64",
      "AcquisitionMatrix": [80, 0, 0, 80],
      "AngioFlag": "N",
      "BitsAllocated": 16,
      "BitsStored": 12,
      "BodyPartExamined": "BRAIN",
      "Columns": 480,
      "EchoNumbers": 1,
      "EchoTime": 30.0,
      "EchoTrainLength": 80,
      "FlipAngle": 10.0,
      "HighBit": 11,
      "ImageOrientationPatient": [0.98937145329663, 0.14508293138536, 0.00975040626552, -0.1409845701198, 0.94068308105392, 0.30860766679885],
      "ImagePositionPatient": [-613.73578436668, -770.20290968596, -280.46513850356],
      "ImageType": [
        "ORIGINAL",
        "PRIMARY",
        "M",
        "ND",
        "NORM",
        "MOSAIC"
],
      "ImagedNucleus": "1H",
      "ImagingFrequency": 123.25233,
      "InPlanePhaseEncodingDirection": "COL",
      "MRAcquisitionType": "2D",
      "MagneticFieldStrength": 3.0,
      "Manufacturer": "SIEMENS",
      "ManufacturerModelName": "Prisma",
      "Modality": "MR",
      "NumberOfAverages": 1.0,
      "NumberOfPhaseEncodingSteps": 80,
      "PercentPhaseFieldOfView": 100.0,
      "PercentSampling": 100.0,
      "PerformedProcedureStepStartTime": "094334.308000",
      "PhotometricInterpretation": "MONOCHROME2",
      "PixelBandwidth": 2315.0,
      "PixelRepresentation": 0,
      "PixelSpacing": [3.0, 3.0],
      "ProtocolName": "func-bold_fa-10",
      "RepetitionTime": 2000.0,
      "Rows": 480,
      "SAR": 0.00866263607424,
      "SamplesPerPixel": 1,
      "ScanOptions": "FS",
      "ScanningSequence": "EP",
      "SequenceName": "*epfid2d1_80",
      "SequenceVariant": "SK",
      "SeriesDescription": "func-bold_fa-10",
      "SeriesNumber": 9,
      "SeriesTime": "095943.563000",
      "SliceLocation": -52.388486870063,
      "SliceThickness": 3.5,
      "SmallestImagePixelValue": 0,
      "SoftwareVersions": "syngo MR E11",
      "SpacingBetweenSlices": 3.990000076246,
      "SpecificCharacterSet": "ISO_IR 100",
      "StudyID": "11",
      "StudyTime": "094334.253000",
      "TransmitCoilName": "Body",
      "VariableFlipAngleFlag": "N",
      "WindowCenterWidthExplanation": "Algo1",
      "dBdt": 0.0},
    "slices": {}
  },
  "time": {
    "samples": {
      "AcquisitionNumber": [1, 2, 3, 4, 5, 6, 7, 8, 9, 10, 11, 12, 13, 14, 15, 16, 17, 18, 19, 20, 21, 22, 23, 24, 25, 26, 27, 28, 29, 30, 31, 32, 33, 34, 35, 36, 37, 38, 39, 40, 41, 42, 43, 44, 45, 46, 47, 48, 49, 50, 51, 52, 53, 54, 55, 56, 57, 58, 59, 60, 61, 62, 63, 64, 65, 66, 67, 68, 69, 70, 71, 72, 73, 74, 75, 76, 77, 78, 79, 80, 81, 82, 83, 84, 85, 86, 87, 88, 89, 90, 91, 92, 93, 94, 95, 96, 97, 98, 99, 100, 101, 102, 103, 104, 105, 106, 107, 108, 109, 110, 111, 112, 113, 114, 115, 116, 117, 118, 119, 120, 121, 122, 123, 124, 125, 126, 127, 128, 129, 130, 131, 132, 133, 134, 135, 136, 137, 138, 139, 140, 141, 142, 143, 144, 145, 146, 147, 148, 149, 150, 151, 152, 153, 154, 155, 156, 157, 158, 159, 160, 161, 162, 163, 164, 165, 166, 167, 168, 169, 170, 171, 172, 173, 174, 175, 176, 177, 178, 179, 180, 181, 182, 183, 184, 185, 186, 187, 188, 189, 190, 191, 192, 193, 194, 195, 196, 197, 198, 199, 200],
      "AcquisitionTime": ["095845.542500", "095847.542500", "095849.542500", "095851.542500", "095853.542500", "095855.542500", "095857.542500", "095859.542500", "095901.542500", "095903.542500", "095905.542500", "095907.542500", "095909.542500", "095911.542500", "095913.542500", "095915.542500", "095917.542500", "095919.542500", "095921.542500", "095923.542500", "095925.542500", "095927.542500", "095929.542500", "095931.542500", "095933.542500", "095935.542500", "095937.542500", "095939.542500", "095941.542500", "095943.542500", "095945.542500", "095947.542500", "095949.542500", "095951.542500", "095953.542500", "095955.542500", "095957.542500", "095959.542500", "100001.542500", "100003.542500", "100005.542500", "100007.542500", "100009.542500", "100011.542500", "100013.542500", "100015.542500", "100017.542500", "100019.542500", "100021.542500", "100023.542500", "100025.542500", "100027.542500", "100029.542500", "100031.542500", "100033.542500", "100035.542500", "100037.542500", "100039.542500", "100041.542500", "100043.542500", "100045.542500", "100047.542500", "100049.542500", "100051.542500", "100053.542500", "100055.542500", "100057.542500", "100059.542500", "100101.542500", "100103.542500", "100105.542500", "100107.542500", "100109.542500", "100111.542500", "100113.542500", "100115.542500", "100117.542500", "100119.542500", "100121.542500", "100123.542500", "100125.542500", "100127.542500", "100129.542500", "100131.542500", "100133.542500", "100135.542500", "100137.542500", "100139.542500", "100141.542500", "100143.542500", "100145.542500", "100147.542500", "100149.542500", "100151.542500", "100153.542500", "100155.542500", "100157.542500", "100159.542500", "100201.542500", "100203.542500", "100205.542500", "100207.542500", "100209.542500", "100211.542500", "100213.542500", "100215.542500", "100217.542500", "100219.542500", "100221.542500", "100223.542500", "100225.542500", "100227.542500", "100229.542500", "100231.542500", "100233.542500", "100235.542500", "100237.542500", "100239.542500", "100241.542500", "100243.542500", "100245.542500", "100247.542500", "100249.542500", "100251.542500", "100253.542500", "100255.542500", "100257.542500", "100259.542500", "100301.542500", "100303.542500", "100305.542500", "100307.542500", "100309.542500", "100311.542500", "100313.542500", "100315.542500", "100317.542500", "100319.542500", "100321.542500", "100323.542500", "100325.542500", "100327.542500", "100329.542500", "100331.542500", "100333.542500", "100335.542500", "100337.542500", "100339.542500", "100341.542500", "100343.542500", "100345.542500", "100347.542500", "100349.542500", "100351.542500", "100353.542500", "100355.542500", "100357.542500", "100359.542500", "100401.542500", "100403.542500", "100405.542500", "100407.542500", "100409.542500", "100411.542500", "100413.542500", "100415.542500", "100417.542500", "100419.542500", "100421.542500", "100423.542500", "100425.542500", "100427.542500", "100429.542500", "100431.542500", "100433.542500", "100435.542500", "100437.542500", "100439.542500", "100441.542500", "100443.542500", "100445.542500", "100447.542500", "100449.542500", "100451.542500", "100453.542500", "100455.542500", "100457.542500", "100459.542500", "100501.542500", "100503.542500", "100505.542500", "100507.542500", "100509.542500", "100511.542500", "100513.542500", "100515.542500", "100517.542500", "100519.542500", "100521.542500", "100523.542500"],
      "ContentTime": ["095943.566000", "095943.570000", "095943.572000", "095943.575000", "095943.578000", "095943.580000", "095943.583000", "095943.585000", "095943.588000", "095943.590000", "095943.593000", "095943.595000", "095943.598000", "095943.600000", "095943.603000", "095943.605000", "095943.608000", "095943.610000", "095943.613000", "095943.615000", "095943.618000", "095943.620000", "095943.631000", "095943.633000", "095943.636000", "095943.638000", "095943.641000", "095943.643000", "095943.646000", "100023.561000", "100023.564000", "100023.567000", "100023.569000", "100023.572000", "100023.578000", "100023.581000", "100023.583000", "100023.586000", "100023.588000", "100023.591000", "100023.593000", "100023.596000", "100023.598000", "100023.601000", "100023.604000", "100023.606000", "100023.609000", "100023.611000", "100023.614000", "100103.560000", "100103.563000", "100103.566000", "100103.569000", "100103.571000", "100103.574000", "100103.576000", "100103.579000", "100103.581000", "100103.584000", "100103.586000", "100103.589000", "100103.610000", "100103.613000", "100103.615000", "100103.618000", "100103.620000", "100103.623000", "100103.631000", "100103.634000", "100143.561000", "100143.564000", "100143.567000", "100143.569000", "100143.572000", "100143.574000", "100143.577000", "100143.580000", "100143.582000", "100143.585000", "100143.587000", "100143.590000", "100143.592000", "100143.605000", "100143.607000", "100143.610000", "100143.612000", "100143.615000", "100143.617000", "100143.620000", "100223.561000", "100223.564000", "100223.567000", "100223.569000", "100223.572000", "100223.574000", "100223.577000", "100223.580000", "100223.582000", "100223.585000", "100223.587000", "100223.590000", "100223.592000", "100223.595000", "100223.597000", "100223.600000", "100223.602000", "100223.605000", "100223.608000", "100223.610000", "100303.561000", "100303.564000", "100303.567000", "100303.569000", "100303.572000", "100303.575000", "100303.577000", "100303.580000", "100303.582000", "100303.585000", "100303.587000", "100303.590000", "100303.592000", "100303.595000", "100303.597000", "100303.600000", "100303.603000", "100303.605000", "100303.608000", "100303.610000", "100343.562000", "100343.564000", "100343.567000", "100343.570000", "100343.572000", "100343.575000", "100343.577000", "100343.580000", "100343.582000", "100343.585000", "100343.587000", "100343.590000", "100343.592000", "100343.595000", "100343.597000", "100343.600000", "100343.603000", "100343.605000", "100343.608000", "100343.610000", "100423.561000", "100423.564000", "100423.567000", "100423.569000", "100423.572000", "100423.574000", "100423.577000", "100423.579000", "100423.582000", "100423.585000", "100423.587000", "100423.590000", "100423.592000", "100423.595000", "100423.597000", "100423.600000", "100423.602000", "100423.605000", "100423.608000", "100423.610000", "100443.562000", "100443.564000", "100443.567000", "100443.569000", "100443.572000", "100443.575000", "100443.577000", "100443.580000", "100443.582000", "100443.585000", "100523.562000", "100523.564000", "100523.567000", "100523.569000", "100523.572000", "100523.575000", "100523.577000", "100523.580000", "100523.582000", "100523.585000", "100523.587000", "100523.590000", "100523.592000", "100523.595000", "100523.598000", "100523.600000", "100523.603000", "100523.605000", "100523.608000", "100523.610000", "100525.209000"],
      "InstanceCreationTime": ["095943.566000", "095943.570000", "095943.572000", "095943.575000", "095943.578000", "095943.580000", "095943.583000", "095943.585000", "095943.588000", "095943.590000", "095943.593000", "095943.595000", "095943.598000", "095943.600000", "095943.603000", "095943.605000", "095943.608000", "095943.610000", "095943.613000", "095943.615000", "095943.618000", "095943.620000", "095943.631000", "095943.633000", "095943.636000", "095943.638000", "095943.641000", "095943.643000", "095943.646000", "100023.561000", "100023.564000", "100023.567000", "100023.569000", "100023.572000", "100023.578000", "100023.581000", "100023.583000", "100023.586000", "100023.588000", "100023.591000", "100023.593000", "100023.596000", "100023.598000", "100023.601000", "100023.604000", "100023.606000", "100023.609000", "100023.611000", "100023.614000", "100103.560000", "100103.563000", "100103.566000", "100103.569000", "100103.571000", "100103.574000", "100103.576000", "100103.579000", "100103.581000", "100103.584000", "100103.586000", "100103.589000", "100103.610000", "100103.613000", "100103.615000", "100103.618000", "100103.620000", "100103.623000", "100103.631000", "100103.634000", "100143.561000", "100143.564000", "100143.567000", "100143.569000", "100143.572000", "100143.574000", "100143.577000", "100143.580000", "100143.582000", "100143.585000", "100143.587000", "100143.590000", "100143.592000", "100143.605000", "100143.607000", "100143.610000", "100143.612000", "100143.615000", "100143.617000", "100143.620000", "100223.561000", "100223.564000", "100223.567000", "100223.569000", "100223.572000", "100223.574000", "100223.577000", "100223.580000", "100223.582000", "100223.585000", "100223.587000", "100223.590000", "100223.592000", "100223.595000", "100223.597000", "100223.600000", "100223.602000", "100223.605000", "100223.608000", "100223.610000", "100303.561000", "100303.564000", "100303.567000", "100303.569000", "100303.572000", "100303.575000", "100303.577000", "100303.580000", "100303.582000", "100303.585000", "100303.587000", "100303.590000", "100303.592000", "100303.595000", "100303.597000", "100303.600000", "100303.603000", "100303.605000", "100303.608000", "100303.610000", "100343.562000", "100343.564000", "100343.567000", "100343.570000", "100343.572000", "100343.575000", "100343.577000", "100343.580000", "100343.582000", "100343.585000", "100343.587000", "100343.590000", "100343.592000", "100343.595000", "100343.597000", "100343.600000", "100343.603000", "100343.605000", "100343.608000", "100343.610000", "100423.561000", "100423.564000", "100423.567000", "100423.569000", "100423.572000", "100423.574000", "100423.577000", "100423.579000", "100423.582000", "100423.585000", "100423.587000", "100423.590000", "100423.592000", "100423.595000", "100423.597000", "100423.600000", "100423.602000", "100423.605000", "100423.608000", "100423.610000", "100443.562000", "100443.564000", "100443.567000", "100443.569000", "100443.572000", "100443.575000", "100443.577000", "100443.580000", "100443.582000", "100443.585000", "100523.562000", "100523.564000", "100523.567000", "100523.569000", "100523.572000", "100523.575000", "100523.577000", "100523.580000", "100523.582000", "100523.585000", "100523.587000", "100523.590000", "100523.592000", "100523.595000", "100523.598000", "100523.600000", "100523.603000", "100523.605000", "100523.608000", "100523.610000", "100525.209000"],
      "InstanceNumber": [1, 2, 3, 4, 5, 6, 7, 8, 9, 10, 11, 12, 13, 14, 15, 16, 17, 18, 19, 20, 21, 22, 23, 24, 25, 26, 27, 28, 29, 30, 31, 32, 33, 34, 35, 36, 37, 38, 39, 40, 41, 42, 43, 44, 45, 46, 47, 48, 49, 50, 51, 52, 53, 54, 55, 56, 57, 58, 59, 60, 61, 62, 63, 64, 65, 66, 67, 68, 69, 70, 71, 72, 73, 74, 75, 76, 77, 78, 79, 80, 81, 82, 83, 84, 85, 86, 87, 88, 89, 90, 91, 92, 93, 94, 95, 96, 97, 98, 99, 100, 101, 102, 103, 104, 105, 106, 107, 108, 109, 110, 111, 112, 113, 114, 115, 116, 117, 118, 119, 120, 121, 122, 123, 124, 125, 126, 127, 128, 129, 130, 131, 132, 133, 134, 135, 136, 137, 138, 139, 140, 141, 142, 143, 144, 145, 146, 147, 148, 149, 150, 151, 152, 153, 154, 155, 156, 157, 158, 159, 160, 161, 162, 163, 164, 165, 166, 167, 168, 169, 170, 171, 172, 173, 174, 175, 176, 177, 178, 179, 180, 181, 182, 183, 184, 185, 186, 187, 188, 189, 190, 191, 192, 193, 194, 195, 196, 197, 198, 199, 200],
      "LargestImagePixelValue": [645, 649, 647, 652, 648, 649, 650, 646, 648, 648, 647, 645, 646, 648, 646, 648, 645, 645, 647, 647, 647, 648, 646, 645, 644, 644, 648, 646, 645, 646, 646, 646, 646, 646, 645, 644, 647, 644, 644, 649, 646, 644, 648, 648, 648, 645, 646, 644, 647, 646, 642, 646, 643, 645, 644, 644, 647, 644, 646, 650, 646, 646, 645, 647, 646, 645, 646, 647, 645, 646, 650, 645, 646, 647, 645, 648, 646, 646, 643, 646, 647, 646, 643, 648, 646, 646, 643, 647, 648, 646, 644, 648, 646, 647, 646, 646, 645, 646, 648, 647, 645, 646, 645, 646, 644, 648, 645, 646, 648, 647, 643, 646, 646, 644, 646, 646, 645, 644, 646, 643, 647, 644, 643, 647, 645, 647, 644, 646, 645, 644, 643, 642, 644, 646, 644, 644, 644, 645, 646, 644, 645, 647, 645, 644, 646, 645, 647, 645, 644, 646, 646, 647, 646, 644, 647, 646, 645, 643, 647, 647, 648, 647, 650, 643, 644, 644, 647, 644, 646, 646, 644, 645, 645, 645, 643, 646, 646, 646, 647, 645, 645, 646, 645, 644, 647, 643, 646, 645, 643, 646, 645, 644, 643, 645, 645, 644, 644, 644, 646, 645],
      "WindowCenter": [456.0, 456.0, 456.0, 456.0, 456.0, 456.0, 457.0, 456.0, 456.0, 456.0, 456.0, 456.0, 455.0, 455.0, 456.0, 455.0, 456.0, 456.0, 456.0, 456.0, 456.0, 455.0, 455.0, 456.0, 456.0, 455.0, 455.0, 456.0, 456.0, 455.0, 455.0, 455.0, 455.0, 455.0, 456.0, 456.0, 455.0, 456.0, 455.0, 455.0, 455.0, 455.0, 455.0, 455.0, 455.0, 456.0, 455.0, 455.0, 455.0, 455.0, 455.0, 455.0, 455.0, 455.0, 455.0, 455.0, 455.0, 455.0, 455.0, 456.0, 455.0, 455.0, 455.0, 455.0, 455.0, 455.0, 455.0, 455.0, 455.0, 455.0, 456.0, 455.0, 455.0, 455.0, 455.0, 455.0, 455.0, 455.0, 455.0, 455.0, 455.0, 455.0, 455.0, 455.0, 455.0, 455.0, 455.0, 455.0, 455.0, 455.0, 455.0, 455.0, 455.0, 455.0, 455.0, 455.0, 455.0, 455.0, 455.0, 455.0, 455.0, 455.0, 455.0, 455.0, 455.0, 455.0, 455.0, 455.0, 455.0, 455.0, 455.0, 455.0, 455.0, 455.0, 455.0, 455.0, 455.0, 455.0, 455.0, 454.0, 454.0, 455.0, 455.0, 455.0, 455.0, 454.0, 455.0, 455.0, 455.0, 455.0, 454.0, 455.0, 455.0, 455.0, 455.0, 454.0, 455.0, 454.0, 455.0, 455.0, 455.0, 455.0, 454.0, 454.0, 454.0, 454.0, 455.0, 454.0, 454.0, 454.0, 454.0, 454.0, 454.0, 455.0, 454.0, 454.0, 454.0, 454.0, 454.0, 454.0, 454.0, 454.0, 455.0, 455.0, 454.0, 454.0, 454.0, 454.0, 454.0, 454.0, 454.0, 454.0, 454.0, 454.0, 454.0, 454.0, 455.0, 454.0, 454.0, 454.0, 454.0, 454.0, 454.0, 454.0, 454.0, 454.0, 454.0, 454.0, 454.0, 454.0, 454.0, 454.0, 454.0, 454.0, 454.0, 454.0, 454.0, 454.0, 454.0, 454.0],
      "WindowWidth": [948.0, 948.0, 948.0, 949.0, 948.0, 948.0, 949.0, 948.0, 948.0, 948.0, 948.0, 948.0, 947.0, 947.0, 948.0, 947.0, 948.0, 948.0, 948.0, 948.0, 948.0, 947.0, 947.0, 948.0, 948.0, 947.0, 947.0, 948.0, 948.0, 947.0, 947.0, 947.0, 947.0, 947.0, 948.0, 948.0, 947.0, 948.0, 947.0, 947.0, 947.0, 947.0, 947.0, 947.0, 947.0, 948.0, 947.0, 947.0, 947.0, 947.0, 947.0, 947.0, 947.0, 947.0, 947.0, 947.0, 947.0, 947.0, 947.0, 948.0, 947.0, 947.0, 947.0, 947.0, 947.0, 947.0, 947.0, 947.0, 947.0, 947.0, 948.0, 947.0, 947.0, 947.0, 947.0, 947.0, 947.0, 947.0, 947.0, 947.0, 947.0, 947.0, 947.0, 947.0, 947.0, 947.0, 947.0, 947.0, 947.0, 947.0, 947.0, 947.0, 947.0, 947.0, 947.0, 946.0, 947.0, 946.0, 946.0, 946.0, 946.0, 946.0, 946.0, 946.0, 946.0, 946.0, 946.0, 946.0, 946.0, 946.0, 946.0, 946.0, 946.0, 946.0, 946.0, 946.0, 946.0, 946.0, 946.0, 946.0, 946.0, 946.0, 946.0, 946.0, 946.0, 946.0, 946.0, 946.0, 946.0, 946.0, 946.0, 946.0, 946.0, 946.0, 946.0, 946.0, 946.0, 945.0, 946.0, 946.0, 946.0, 946.0, 946.0, 945.0, 945.0, 945.0, 946.0, 945.0, 945.0, 945.0, 945.0, 945.0, 945.0, 946.0, 945.0, 945.0, 945.0, 945.0, 945.0, 945.0, 945.0, 945.0, 947.0, 946.0, 945.0, 945.0, 945.0, 945.0, 945.0, 945.0, 945.0, 945.0, 945.0, 945.0, 945.0, 945.0, 946.0, 945.0, 945.0, 945.0, 945.0, 945.0, 945.0, 945.0, 945.0, 945.0, 945.0, 945.0, 945.0, 945.0, 945.0, 945.0, 945.0, 945.0, 945.0, 945.0, 945.0, 945.0, 945.0, 945.0]
    },
    "slices": {}
  }
}