{
  "AcquisitionMatrixPE": 80,
  "AcquisitionNumber": 1,
  "AcquisitionTime": "08:57:29.437500",
  "BandwidthPerPixelPhaseEncode": 25,
  "BaseResolution": 80,
  "BodyPartExamined": "BRAIN",
  "CoilCombinationMethod": "Sum of Squares",
  "ConsistencyInfo": "N4_VE11E_LATEST_20181129",
  "ConversionSoftware": "dcm2niix",
  "ConversionSoftwareVersion": "v1.0.20220720",
  "DerivedVendorReportedEchoSpacing": 0.0005,
  "DeviceSerialNumber": "66112",
  "DwellTime": 2.7e-06,
  "EchoTime": 0.03,
  "EchoTrainLength": 80,
  "EffectiveEchoSpacing": 0.0005,
  "FlipAngle": 77,
  "HeudiconvVersion": "0.13.1",
  "ImageOrientationPatientDICOM": [0.99987, 0.000587672, -0.0160989, 0.00418829, 0.955486, 0.295005],
  "ImageOrientationText": "Tra>Cor(17.2)>Sag(-0.9)",
  "ImageType": [
    "ORIGINAL",
    "PRIMARY",
    "M",
    "ND",
    "NORM",
    "MOSAIC"
],
  "ImagingFrequency": 123.259,
  "InPlanePhaseEncodingDirectionDICOM": "COL",
  "InstitutionAddress": "Maynard 3,Hanover,NH,US,03755",
  "InstitutionName": "Dartmouth College - PBS",
  "InstitutionalDepartmentName": "Department",
  "MRAcquisitionType": "2D",
  "MagneticFieldStrength": 3,
  "Manufacturer": "Siemens",
  "ManufacturersModelName": "Prisma",
  "MatrixCoilMode": "SENSE",
  "Modality": "MR",
  "NonlinearGradientCorrection": false,
  "PartialFourier": 1,
  "PatientPosition": "HFS",
  "PercentPhaseFOV": 100,
  "PercentSampling": 100,
  "PhaseEncodingDirection": "j-",
  "PhaseEncodingSteps": 80,
  "PhaseResolution": 1,
  "PixelBandwidth": 2315,
  "ProcedureStepDescription": "dbic^QA",
  "ProtocolName": "func-bold_fa-77",
  "PulseSequenceDetails": "%SiemensSeq%\\ep2d_bold",
  "ReceiveCoilActiveElements": "HC1-7;NC1,2",
  "ReceiveCoilName": "HeadNeck_64",
  "ReconMatrixPE": 80,
  "RepetitionTime": 2,
  "SAR": 0.0281597,
  "ScanOptions": "FS",
  "ScanningSequence": "EP",
  "SequenceName": "*epfid2d1_80",
  "SequenceVariant": "SK",
  "SeriesDescription": "func-bold_fa-77",
  "SeriesNumber": 6,
  "ShimSetting": [4212, -7740, -7492, -120, -125, -204, -17, 98],
  "SliceThickness": 3.5,
  "SliceTiming": [0.99, 0, 1.0575, 0.0675, 1.1225, 0.1325, 1.1875, 0.1975, 1.255, 0.265, 1.32, 0.33, 1.3875, 0.3975, 1.4525, 0.4625, 1.5175, 0.5275, 1.585, 0.595, 1.65, 0.66, 1.7175, 0.7275, 1.7825, 0.7925, 1.8475, 0.8575, 1.915, 0.925],
  "SoftwareVersions": "syngo MR E11",
  "SpacingBetweenSlices": 3.99,
  "StationName": "AWP66112",
  "TotalReadoutTime": 0.0395,
  "TxRefAmp": 212.009,
  "dcmmeta_affine": [
    [-2.999610662460327, 0.012564870528876781, -0.06206700950860977, 121.31010437011719],
    [-0.0017630173824727535, 2.866459369659424, 1.1771875619888306, -113.72095489501953],
    [-0.04829668253660202, -0.8850160241127014, 3.8118863105773926, -16.316640853881836],
    [0.0, 0.0, 0.0, 1.0]
],
  "dcmmeta_reorient_transform": [
    [0.0, -1.0, 0.0, 79.0],
    [1.0, 0.0, 0.0, 0.0],
    [0.0, 0.0, 1.0, 0.0],
    [0.0, 0.0, 0.0, 1.0]
],
  "dcmmeta_shape": [80, 80, 30, 200],
  "dcmmeta_slice_dim": 2,
  "dcmmeta_version": 0.6,
  "global": {
    "const": {
      "AccessionNumber": "qa64",
      "AcquisitionMatrix": [80, 0, 0, 80],
      "AngioFlag": "N",
      "BitsAllocated": 16,
      "BitsStored": 12,
      "BodyPartExamined": "BRAIN",
      "Columns": 480,
      "EchoNumbers": 1,
      "EchoTime": 30.0,
      "EchoTrainLength": 80,
      "FlipAngle": 77.0,
      "HighBit": 11,
      "ImageOrientationPatient": [0.9998702317071, 0.00058767247214, -0.0160988939699, 0.00418829022612, 0.9554864227258, 0.29500534607296],
      "ImagePositionPatient": [-724.73784335628, -686.37378329879, -253.57677896756],
      "ImageType": [
        "ORIGINAL",
        "PRIMARY",
        "M",
        "ND",
        "NORM",
        "MOSAIC"
],
      "ImagedNucleus": "1H",
      "ImagingFrequency": 123.259126,
      "InPlanePhaseEncodingDirection": "COL",
      "MRAcquisitionType": "2D",
      "MagneticFieldStrength": 3.0,
      "Manufacturer": "SIEMENS",
      "ManufacturerModelName": "Prisma",
      "Modality": "MR",
      "NumberOfAverages": 1.0,
      "NumberOfPhaseEncodingSteps": 80,
      "PercentPhaseFieldOfView": 100.0,
      "PercentSampling": 100.0,
      "PerformedProcedureStepStartTime": "084658.302000",
      "PhotometricInterpretation": "MONOCHROME2",
      "PixelBandwidth": 2315.0,
      "PixelRepresentation": 0,
      "PixelSpacing": [3.0, 3.0],
      "ProtocolName": "func-bold_fa-77",
      "RepetitionTime": 2000.0,
      "Rows": 480,
      "SAR": 0.02815969942605,
      "SamplesPerPixel": 1,
      "ScanOptions": "FS",
      "ScanningSequence": "EP",
      "SequenceName": "*epfid2d1_80",
      "SequenceVariant": "SK",
      "SeriesDescription": "func-bold_fa-77",
      "SeriesNumber": 6,
      "SeriesTime": "085802.699000",
      "SliceLocation": -51.026926137184,
      "SliceThickness": 3.5,
      "SmallestImagePixelValue": 0,
      "SoftwareVersions": "syngo MR E11",
      "SpacingBetweenSlices": 3.9899999745071,
      "SpecificCharacterSet": "ISO_IR 100",
      "StudyID": "4",
      "StudyTime": "084658.236000",
      "TransmitCoilName": "Body",
      "VariableFlipAngleFlag": "N",
      "WindowCenterWidthExplanation": "Algo1"
    },
    "slices": {}
  },
  "time": {
    "samples": {
      "AcquisitionNumber": [1, 2, 3, 4, 5, 6, 7, 8, 9, 10, 11, 12, 13, 14, 15, 16, 17, 18, 19, 20, 21, 22, 23, 24, 25, 26, 27, 28, 29, 30, 31, 32, 33, 34, 35, 36, 37, 38, 39, 40, 41, 42, 43, 44, 45, 46, 47, 48, 49, 50, 51, 52, 53, 54, 55, 56, 57, 58, 59, 60, 61, 62, 63, 64, 65, 66, 67, 68, 69, 70, 71, 72, 73, 74, 75, 76, 77, 78, 79, 80, 81, 82, 83, 84, 85, 86, 87, 88, 89, 90, 91, 92, 93, 94, 95, 96, 97, 98, 99, 100, 101, 102, 103, 104, 105, 106, 107, 108, 109, 110, 111, 112, 113, 114, 115, 116, 117, 118, 119, 120, 121, 122, 123, 124, 125, 126, 127, 128, 129, 130, 131, 132, 133, 134, 135, 136, 137, 138, 139, 140, 141, 142, 143, 144, 145, 146, 147, 148, 149, 150, 151, 152, 153, 154, 155, 156, 157, 158, 159, 160, 161, 162, 163, 164, 165, 166, 167, 168, 169, 170, 171, 172, 173, 174, 175, 176, 177, 178, 179, 180, 181, 182, 183, 184, 185, 186, 187, 188, 189, 190, 191, 192, 193, 194, 195, 196, 197, 198, 199, 200],
      "AcquisitionTime": ["085729.437500", "085731.437500", "085733.437500", "085735.437500", "085737.437500", "085739.437500", "085741.437500", "085743.437500", "085745.437500", "085747.437500", "085749.437500", "085751.437500", "085753.437500", "085755.437500", "085757.437500", "085759.437500", "085801.437500", "085803.437500", "085805.437500", "085807.437500", "085809.437500", "085811.437500", "085813.437500", "085815.437500", "085817.437500", "085819.437500", "085821.437500", "085823.437500", "085825.437500", "085827.437500", "085829.437500", "085831.437500", "085833.437500", "085835.437500", "085837.437500", "085839.437500", "085841.437500", "085843.437500", "085845.437500", "085847.437500", "085849.437500", "085851.437500", "085853.437500", "085855.437500", "085857.437500", "085859.437500", "085901.437500", "085903.437500", "085905.437500", "085907.437500", "085909.437500", "085911.437500", "085913.437500", "085915.437500", "085917.437500", "085919.437500", "085921.437500", "085923.437500", "085925.437500", "085927.437500", "085929.437500", "085931.437500", "085933.437500", "085935.437500", "085937.437500", "085939.437500", "085941.437500", "085943.437500", "085945.437500", "085947.437500", "085949.437500", "085951.437500", "085953.437500", "085955.437500", "085957.437500", "085959.437500", "090001.437500", "090003.437500", "090005.437500", "090007.437500", "090009.437500", "090011.437500", "090013.437500", "090015.437500", "090017.437500", "090019.437500", "090021.437500", "090023.437500", "090025.437500", "090027.437500", "090029.437500", "090031.437500", "090033.437500", "090035.437500", "090037.437500", "090039.437500", "090041.437500", "090043.437500", "090045.437500", "090047.437500", "090049.437500", "090051.437500", "090053.437500", "090055.437500", "090057.437500", "090059.437500", "090101.437500", "090103.437500", "090105.437500", "090107.437500", "090109.437500", "090111.437500", "090113.437500", "090115.437500", "090117.437500", "090119.437500", "090121.437500", "090123.437500", "090125.437500", "090127.437500", "090129.437500", "090131.437500", "090133.437500", "090135.437500", "090137.437500", "090139.437500", "090141.437500", "090143.437500", "090145.437500", "090147.437500", "090149.437500", "090151.437500", "090153.437500", "090155.437500", "090157.437500", "090159.437500", "090201.437500", "090203.437500", "090205.437500", "090207.437500", "090209.437500", "090211.437500", "090213.437500", "090215.437500", "090217.437500", "090219.437500", "090221.437500", "090223.437500", "090225.437500", "090227.437500", "090229.437500", "090231.437500", "090233.437500", "090235.437500", "090237.437500", "090239.437500", "090241.437500", "090243.437500", "090245.437500", "090247.437500", "090249.437500", "090251.437500", "090253.437500", "090255.437500", "090257.437500", "090259.437500", "090301.437500", "090303.437500", "090305.437500", "090307.437500", "090309.437500", "090311.437500", "090313.437500", "090315.437500", "090317.437500", "090319.437500", "090321.437500", "090323.437500", "090325.437500", "090327.437500", "090329.437500", "090331.437500", "090333.437500", "090335.437500", "090337.437500", "090339.437500", "090341.437500", "090343.437500", "090345.437500", "090347.437500", "090349.437500", "090351.437500", "090353.437500", "090355.437500", "090357.437500", "090359.437500", "090401.437500", "090403.437500", "090405.437500", "090407.437500"],
      "ContentTime": ["085802.703000", "085802.706000", "085802.708000", "085802.711000", "085802.713000", "085802.715000", "085802.718000", "085802.720000", "085802.731000", "085802.733000", "085802.736000", "085802.738000", "085802.740000", "085802.743000", "085802.745000", "085802.750000", "085842.698000", "085842.701000", "085842.703000", "085842.706000", "085842.708000", "085842.711000", "085842.713000", "085842.715000", "085842.717000", "085842.720000", "085842.722000", "085842.724000", "085842.727000", "085842.729000", "085842.732000", "085842.734000", "085842.745000", "085842.747000", "085842.750000", "085842.752000", "085922.698000", "085922.701000", "085922.703000", "085922.705000", "085922.708000", "085922.710000", "085922.712000", "085922.715000", "085922.717000", "085922.719000", "085922.722000", "085922.724000", "085922.726000", "085922.729000", "085922.731000", "085922.733000", "085922.736000", "085922.738000", "085922.740000", "085922.743000", "090002.698000", "090002.701000", "090002.703000", "090002.706000", "090002.708000", "090002.710000", "090002.713000", "090002.715000", "090002.717000", "090002.720000", "090002.722000", "090002.724000", "090002.727000", "090002.729000", "090002.731000", "090002.734000", "090002.736000", "090002.738000", "090002.741000", "090002.743000", "090042.699000", "090042.702000", "090042.704000", "090042.706000", "090042.709000", "090042.711000", "090042.713000", "090042.716000", "090042.718000", "090042.721000", "090042.723000", "090042.725000", "090042.727000", "090042.738000", "090042.740000", "090042.746000", "090042.749000", "090042.751000", "090042.753000", "090042.756000", "090122.698000", "090122.701000", "090122.704000", "090122.706000", "090122.708000", "090122.711000", "090122.713000", "090122.715000", "090122.718000", "090122.720000", "090122.722000", "090122.725000", "090122.727000", "090122.729000", "090122.732000", "090122.734000", "090122.736000", "090122.739000", "090122.741000", "090122.743000", "090202.698000", "090202.701000", "090202.703000", "090202.705000", "090202.708000", "090202.710000", "090202.712000", "090202.715000", "090202.717000", "090202.720000", "090202.722000", "090202.724000", "090202.727000", "090202.729000", "090202.731000", "090202.734000", "090202.736000", "090202.738000", "090202.741000", "090202.743000", "090242.698000", "090242.701000", "090242.703000", "090242.705000", "090242.708000", "090242.716000", "090242.718000", "090242.721000", "090242.723000", "090242.726000", "090242.728000", "090242.730000", "090242.733000", "090242.735000", "090242.738000", "090242.740000", "090242.742000", "090242.745000", "090242.747000", "090242.749000", "090322.698000", "090322.701000", "090322.703000", "090322.706000", "090322.708000", "090322.711000", "090322.713000", "090322.715000", "090322.718000", "090322.720000", "090322.722000", "090322.725000", "090322.727000", "090322.736000", "090322.749000", "090322.751000", "090322.754000", "090322.756000", "090322.758000", "090322.761000", "090402.698000", "090402.701000", "090402.703000", "090402.706000", "090402.708000", "090402.710000", "090402.713000", "090402.715000", "090402.717000", "090402.720000", "090402.722000", "090402.725000", "090402.727000", "090402.729000", "090402.732000", "090402.734000", "090402.736000", "090402.739000", "090402.741000", "090402.743000", "090409.280000", "090409.283000", "090409.285000", "090409.287000"],
      "InstanceCreationTime": ["085802.703000", "085802.706000", "085802.708000", "085802.711000", "085802.713000", "085802.715000", "085802.718000", "085802.720000", "085802.731000", "085802.733000", "085802.736000", "085802.738000", "085802.740000", "085802.743000", "085802.745000", "085802.750000", "085842.698000", "085842.701000", "085842.703000", "085842.706000", "085842.708000", "085842.711000", "085842.713000", "085842.715000", "085842.717000", "085842.720000", "085842.722000", "085842.724000", "085842.727000", "085842.729000", "085842.732000", "085842.734000", "085842.745000", "085842.747000", "085842.750000", "085842.752000", "085922.698000", "085922.701000", "085922.703000", "085922.705000", "085922.708000", "085922.710000", "085922.712000", "085922.715000", "085922.717000", "085922.719000", "085922.722000", "085922.724000", "085922.726000", "085922.729000", "085922.731000", "085922.733000", "085922.736000", "085922.738000", "085922.740000", "085922.743000", "090002.698000", "090002.701000", "090002.703000", "090002.706000", "090002.708000", "090002.710000", "090002.713000", "090002.715000", "090002.717000", "090002.720000", "090002.722000", "090002.724000", "090002.727000", "090002.729000", "090002.731000", "090002.734000", "090002.736000", "090002.738000", "090002.741000", "090002.743000", "090042.699000", "090042.702000", "090042.704000", "090042.706000", "090042.709000", "090042.711000", "090042.713000", "090042.716000", "090042.718000", "090042.721000", "090042.723000", "090042.725000", "090042.727000", "090042.738000", "090042.740000", "090042.746000", "090042.749000", "090042.751000", "090042.753000", "090042.756000", "090122.698000", "090122.701000", "090122.704000", "090122.706000", "090122.708000", "090122.711000", "090122.713000", "090122.715000", "090122.718000", "090122.720000", "090122.722000", "090122.725000", "090122.727000", "090122.729000", "090122.732000", "090122.734000", "090122.736000", "090122.739000", "090122.741000", "090122.743000", "090202.698000", "090202.701000", "090202.703000", "090202.705000", "090202.708000", "090202.710000", "090202.712000", "090202.715000", "090202.717000", "090202.720000", "090202.722000", "090202.724000", "090202.727000", "090202.729000", "090202.731000", "090202.734000", "090202.736000", "090202.738000", "090202.741000", "090202.743000", "090242.698000", "090242.701000", "090242.703000", "090242.705000", "090242.708000", "090242.716000", "090242.718000", "090242.721000", "090242.723000", "090242.726000", "090242.728000", "090242.730000", "090242.733000", "090242.735000", "090242.738000", "090242.740000", "090242.742000", "090242.745000", "090242.747000", "090242.749000", "090322.698000", "090322.701000", "090322.703000", "090322.706000", "090322.708000", "090322.711000", "090322.713000", "090322.715000", "090322.718000", "090322.720000", "090322.722000", "090322.725000", "090322.727000", "090322.736000", "090322.749000", "090322.751000", "090322.754000", "090322.756000", "090322.758000", "090322.761000", "090402.698000", "090402.701000", "090402.703000", "090402.706000", "090402.708000", "090402.710000", "090402.713000", "090402.715000", "090402.717000", "090402.720000", "090402.722000", "090402.725000", "090402.727000", "090402.729000", "090402.732000", "090402.734000", "090402.736000", "090402.739000", "090402.741000", "090402.743000", "090409.280000", "090409.283000", "090409.285000", "090409.287000"],
      "InstanceNumber": [1, 2, 3, 4, 5, 6, 7, 8, 9, 10, 11, 12, 13, 14, 15, 16, 17, 18, 19, 20, 21, 22, 23, 24, 25, 26, 27, 28, 29, 30, 31, 32, 33, 34, 35, 36, 37, 38, 39, 40, 41, 42, 43, 44, 45, 46, 47, 48, 49, 50, 51, 52, 53, 54, 55, 56, 57, 58, 59, 60, 61, 62, 63, 64, 65, 66, 67, 68, 69, 70, 71, 72, 73, 74, 75, 76, 77, 78, 79, 80, 81, 82, 83, 84, 85, 86, 87, 88, 89, 90, 91, 92, 93, 94, 95, 96, 97, 98, 99, 100, 101, 102, 103, 104, 105, 106, 107, 108, 109, 110, 111, 112, 113, 114, 115, 116, 117, 118, 119, 120, 121, 122, 123, 124, 125, 126, 127, 128, 129, 130, 131, 132, 133, 134, 135, 136, 137, 138, 139, 140, 141, 142, 143, 144, 145, 146, 147, 148, 149, 150, 151, 152, 153, 154, 155, 156, 157, 158, 159, 160, 161, 162, 163, 164, 165, 166, 167, 168, 169, 170, 171, 172, 173, 174, 175, 176, 177, 178, 179, 180, 181, 182, 183, 184, 185, 186, 187, 188, 189, 190, 191, 192, 193, 194, 195, 196, 197, 198, 199, 200],
      "LargestImagePixelValue": [3923, 3922, 3918, 3916, 3920, 3917, 3918, 3915, 3918, 3915, 3911, 3913, 3919, 3918, 3915, 3916, 3914, 3913, 3916, 3919, 3922, 3919, 3917, 3914, 3915, 3921, 3921, 3919, 3918, 3916, 3919, 3917, 3917, 3921, 3919, 3920, 3919, 3923, 3912, 3914, 3917, 3912, 3909, 3909, 3915, 3917, 3909, 3916, 3913, 3915, 3911, 3912, 3911, 3913, 3919, 3913, 3915, 3913, 3911, 3913, 3909, 3910, 3908, 3915, 3915, 3909, 3909, 3913, 3912, 3911, 3910, 3913, 3914, 3908, 3912, 3910, 3910, 3910, 3907, 3907, 3910, 3910, 3913, 3912, 3909, 3915, 3912, 3909, 3909, 3913, 3906, 3907, 3915, 3908, 3908, 3905, 3907, 3907, 3907, 3911, 3909, 3904, 3906, 3906, 3903, 3907, 3904, 3905, 3900, 3904, 3904, 3906, 3903, 3902, 3905, 3906, 3906, 3907, 3908, 3910, 3909, 3908, 3904, 3905, 3905, 3904, 3904, 3901, 3898, 3904, 3900, 3908, 3901, 3904, 3907, 3906, 3905, 3909, 3906, 3907, 3907, 3905, 3902, 3905, 3908, 3900, 3904, 3903, 3897, 3905, 3900, 3900, 3903, 3904, 3904, 3897, 3901, 3895, 3902, 3899, 3899, 3899, 3905, 3899, 3903, 3902, 3903, 3900, 3895, 3896, 3902, 3896, 3897, 3896, 3897, 3897, 3897, 3900, 3896, 3896, 3898, 3895, 3899, 3898, 3897, 3892, 3896, 3895, 3894, 3891, 3896, 3899, 3897, 3901, 3895, 3899, 3899, 3896, 3897, 3893],
      "WindowCenter": [1387.0, 1386.0, 1386.0, 1386.0, 1386.0, 1386.0, 1386.0, 1386.0, 1387.0, 1386.0, 1386.0, 1386.0, 1386.0, 1385.0, 1386.0, 1385.0, 1386.0, 1386.0, 1386.0, 1386.0, 1386.0, 1385.0, 1385.0, 1385.0, 1385.0, 1386.0, 1385.0, 1385.0, 1385.0, 1385.0, 1385.0, 1385.0, 1384.0, 1385.0, 1385.0, 1385.0, 1385.0, 1385.0, 1385.0, 1385.0, 1385.0, 1385.0, 1384.0, 1385.0, 1384.0, 1384.0, 1384.0, 1385.0, 1385.0, 1384.0, 1384.0, 1385.0, 1384.0, 1384.0, 1384.0, 1384.0, 1385.0, 1384.0, 1384.0, 1384.0, 1384.0, 1384.0, 1384.0, 1384.0, 1384.0, 1384.0, 1384.0, 1384.0, 1384.0, 1384.0, 1384.0, 1383.0, 1383.0, 1383.0, 1383.0, 1383.0, 1383.0, 1383.0, 1384.0, 1383.0, 1384.0, 1384.0, 1383.0, 1382.0, 1383.0, 1384.0, 1383.0, 1383.0, 1383.0, 1383.0, 1383.0, 1382.0, 1383.0, 1383.0, 1384.0, 1383.0, 1383.0, 1382.0, 1382.0, 1383.0, 1382.0, 1383.0, 1382.0, 1382.0, 1383.0, 1383.0, 1383.0, 1382.0, 1382.0, 1382.0, 1383.0, 1382.0, 1382.0, 1382.0, 1382.0, 1382.0, 1382.0, 1382.0, 1382.0, 1382.0, 1382.0, 1382.0, 1383.0, 1382.0, 1382.0, 1381.0, 1382.0, 1382.0, 1382.0, 1382.0, 1382.0, 1382.0, 1382.0, 1382.0, 1382.0, 1382.0, 1382.0, 1381.0, 1381.0, 1381.0, 1382.0, 1381.0, 1381.0, 1381.0, 1381.0, 1382.0, 1381.0, 1381.0, 1382.0, 1382.0, 1381.0, 1381.0, 1381.0, 1381.0, 1381.0, 1381.0, 1381.0, 1381.0, 1381.0, 1381.0, 1381.0, 1381.0, 1381.0, 1381.0, 1381.0, 1381.0, 1381.0, 1381.0, 1381.0, 1380.0, 1380.0, 1380.0, 1380.0, 1380.0, 1380.0, 1381.0, 1380.0, 1380.0, 1381.0, 1381.0, 1380.0, 1381.0, 1380.0, 1381.0, 1380.0, 1380.0, 1380.0, 1380.0, 1380.0, 1380.0, 1380.0, 1380.0, 1380.0, 1380.0, 1380.0, 1380.0, 1380.0, 1380.0, 1380.0, 1380.0],
      "WindowWidth": [3305.0, 3305.0, 3305.0, 3305.0, 3305.0, 3305.0, 3305.0, 3305.0, 3304.0, 3305.0, 3305.0, 3304.0, 3304.0, 3304.0, 3304.0, 3304.0, 3304.0, 3304.0, 3304.0, 3304.0, 3304.0, 3304.0, 3304.0, 3304.0, 3304.0, 3303.0, 3304.0, 3304.0, 3304.0, 3304.0, 3304.0, 3303.0, 3303.0, 3303.0, 3303.0, 3303.0, 3303.0, 3303.0, 3303.0, 3303.0, 3303.0, 3303.0, 3303.0, 3302.0, 3303.0, 3303.0, 3303.0, 3303.0, 3302.0, 3303.0, 3303.0, 3302.0, 3303.0, 3303.0, 3303.0, 3303.0, 3302.0, 3303.0, 3302.0, 3303.0, 3302.0, 3302.0, 3302.0, 3302.0, 3302.0, 3302.0, 3302.0, 3302.0, 3302.0, 3302.0, 3302.0, 3302.0, 3302.0, 3302.0, 3302.0, 3302.0, 3302.0, 3302.0, 3301.0, 3302.0, 3301.0, 3301.0, 3302.0, 3301.0, 3301.0, 3301.0, 3301.0, 3301.0, 3301.0, 3301.0, 3301.0, 3301.0, 3301.0, 3301.0, 3301.0, 3301.0, 3301.0, 3301.0, 3301.0, 3301.0, 3301.0, 3301.0, 3301.0, 3301.0, 3300.0, 3300.0, 3300.0, 3301.0, 3300.0, 3300.0, 3300.0, 3300.0, 3300.0, 3300.0, 3300.0, 3300.0, 3300.0, 3300.0, 3300.0, 3300.0, 3300.0, 3300.0, 3300.0, 3300.0, 3300.0, 3300.0, 3300.0, 3299.0, 3299.0, 3300.0, 3299.0, 3299.0, 3299.0, 3299.0, 3299.0, 3299.0, 3299.0, 3299.0, 3299.0, 3299.0, 3299.0, 3299.0, 3299.0, 3299.0, 3299.0, 3299.0, 3299.0, 3299.0, 3299.0, 3299.0, 3299.0, 3299.0, 3299.0, 3299.0, 3299.0, 3299.0, 3298.0, 3298.0, 3298.0, 3298.0, 3298.0, 3299.0, 3298.0, 3298.0, 3298.0, 3298.0, 3298.0, 3298.0, 3298.0, 3298.0, 3298.0, 3298.0, 3298.0, 3298.0, 3298.0, 3298.0, 3298.0, 3298.0, 3298.0, 3298.0, 3298.0, 3298.0, 3298.0, 3298.0, 3298.0, 3298.0, 3298.0, 3298.0, 3298.0, 3298.0, 3298.0, 3298.0, 3298.0, 3297.0, 3297.0, 3297.0, 3297.0, 3297.0, 3297.0, 3297.0]
    },
    "slices": {}
  }
}