{
  "AcquisitionMatrixPE": 80,
  "AcquisitionNumber": 1,
  "AcquisitionTime": "09:04:16.480000",
  "BandwidthPerPixelPhaseEncode": 25,
  "BaseResolution": 80,
  "BodyPartExamined": "BRAIN",
  "CoilCombinationMethod": "Sum of Squares",
  "ConsistencyInfo": "N4_VE11E_LATEST_20181129",
  "ConversionSoftware": "dcm2niix",
  "ConversionSoftwareVersion": "v1.0.20220720",
  "DerivedVendorReportedEchoSpacing": 0.0005,
  "DeviceSerialNumber": "66112",
  "DwellTime": 2.7e-06,
  "EchoTime": 0.03,
  "EchoTrainLength": 80,
  "EffectiveEchoSpacing": 0.0005,
  "FlipAngle": 10,
  "HeudiconvVersion": "0.13.1",
  "ImageOrientationPatientDICOM": [0.99987, 0.000587672, -0.0160989, 0.00418829, 0.955486, 0.295005],
  "ImageOrientationText": "Tra>Cor(17.2)>Sag(-0.9)",
  "ImageType": [
    "ORIGINAL",
    "PRIMARY",
    "M",
    "ND",
    "NORM",
    "MOSAIC"
],
  "ImagingFrequency": 123.259,
  "InPlanePhaseEncodingDirectionDICOM": "COL",
  "InstitutionAddress": "Maynard 3,Hanover,NH,US,03755",
  "InstitutionName": "Dartmouth College - PBS",
  "InstitutionalDepartmentName": "Department",
  "MRAcquisitionType": "2D",
  "MagneticFieldStrength": 3,
  "Manufacturer": "Siemens",
  "ManufacturersModelName": "Prisma",
  "MatrixCoilMode": "SENSE",
  "Modality": "MR",
  "NonlinearGradientCorrection": false,
  "PartialFourier": 1,
  "PatientPosition": "HFS",
  "PercentPhaseFOV": 100,
  "PercentSampling": 100,
  "PhaseEncodingDirection": "j-",
  "PhaseEncodingSteps": 80,
  "PhaseResolution": 1,
  "PixelBandwidth": 2315,
  "ProcedureStepDescription": "dbic^QA",
  "ProtocolName": "func-bold_fa-10",
  "PulseSequenceDetails": "%SiemensSeq%\\ep2d_bold",
  "ReceiveCoilActiveElements": "HC1-7;NC1,2",
  "ReceiveCoilName": "HeadNeck_64",
  "ReconMatrixPE": 80,
  "RepetitionTime": 2,
  "SAR": 0.00755381,
  "ScanOptions": "FS",
  "ScanningSequence": "EP",
  "SequenceName": "*epfid2d1_80",
  "SequenceVariant": "SK",
  "SeriesDescription": "func-bold_fa-10",
  "SeriesNumber": 7,
  "ShimSetting": [4212, -7740, -7492, -120, -125, -204, -17, 98],
  "SliceThickness": 3.5,
  "SliceTiming": [0.99, 0, 1.0575, 0.0675, 1.1225, 0.1325, 1.1875, 0.2, 1.255, 0.265, 1.32, 0.33, 1.3875, 0.3975, 1.4525, 0.4625, 1.5175, 0.53, 1.585, 0.595, 1.65, 0.66, 1.7175, 0.7275, 1.7825, 0.7925, 1.8475, 0.86, 1.915, 0.925],
  "SoftwareVersions": "syngo MR E11",
  "SpacingBetweenSlices": 3.99,
  "StationName": "AWP66112",
  "TotalReadoutTime": 0.0395,
  "TxRefAmp": 212.009,
  "dcmmeta_affine": [
    [-2.999610662460327, 0.012564870528876781, -0.06206700950860977, 121.31010437011719],
    [-0.0017630173824727535, 2.866459369659424, 1.1771875619888306, -113.72095489501953],
    [-0.04829668253660202, -0.8850160241127014, 3.8118863105773926, -16.316640853881836],
    [0.0, 0.0, 0.0, 1.0]
],
  "dcmmeta_reorient_transform": [
    [0.0, -1.0, 0.0, 79.0],
    [1.0, 0.0, 0.0, 0.0],
    [0.0, 0.0, 1.0, 0.0],
    [0.0, 0.0, 0.0, 1.0]
],
  "dcmmeta_shape": [80, 80, 30, 200],
  "dcmmeta_slice_dim": 2,
  "dcmmeta_version": 0.6,
  "global": {
    "const": {
      "AccessionNumber": "qa64",
      "AcquisitionMatrix": [80, 0, 0, 80],
      "AngioFlag": "N",
      "BitsAllocated": 16,
      "BitsStored": 12,
      "BodyPartExamined": "BRAIN",
      "Columns": 480,
      "EchoNumbers": 1,
      "EchoTime": 30.0,
      "EchoTrainLength": 80,
      "FlipAngle": 10.0,
      "HighBit": 11,
      "ImageOrientationPatient": [0.9998702317071, 0.00058767247214, -0.0160988939699, 0.00418829022612, 0.9554864227258, 0.29500534607296],
      "ImagePositionPatient": [-724.73784335628, -686.37378329879, -253.57677896756],
      "ImageType": [
        "ORIGINAL",
        "PRIMARY",
        "M",
        "ND",
        "NORM",
        "MOSAIC"
],
      "ImagedNucleus": "1H",
      "ImagingFrequency": 123.259127,
      "InPlanePhaseEncodingDirection": "COL",
      "MRAcquisitionType": "2D",
      "MagneticFieldStrength": 3.0,
      "Manufacturer": "SIEMENS",
      "ManufacturerModelName": "Prisma",
      "Modality": "MR",
      "NumberOfAverages": 1.0,
      "NumberOfPhaseEncodingSteps": 80,
      "PercentPhaseFieldOfView": 100.0,
      "PercentSampling": 100.0,
      "PerformedProcedureStepStartTime": "084658.302000",
      "PhotometricInterpretation": "MONOCHROME2",
      "PixelBandwidth": 2315.0,
      "PixelRepresentation": 0,
      "PixelSpacing": [3.0, 3.0],
      "ProtocolName": "func-bold_fa-10",
      "RepetitionTime": 2000.0,
      "Rows": 480,
      "SAR": 0.00755381413118,
      "SamplesPerPixel": 1,
      "ScanOptions": "FS",
      "ScanningSequence": "EP",
      "SequenceName": "*epfid2d1_80",
      "SequenceVariant": "SK",
      "SeriesDescription": "func-bold_fa-10",
      "SeriesNumber": 7,
      "SeriesTime": "090502.529000",
      "SliceLocation": -51.026926137184,
      "SliceThickness": 3.5,
      "SmallestImagePixelValue": 0,
      "SoftwareVersions": "syngo MR E11",
      "SpacingBetweenSlices": 3.9899999745071,
      "SpecificCharacterSet": "ISO_IR 100",
      "StudyID": "4",
      "StudyTime": "084658.236000",
      "TransmitCoilName": "Body",
      "VariableFlipAngleFlag": "N",
      "WindowCenterWidthExplanation": "Algo1"
    },
    "slices": {}
  },
  "time": {
    "samples": {
      "AcquisitionNumber": [1, 2, 3, 4, 5, 6, 7, 8, 9, 10, 11, 12, 13, 14, 15, 16, 17, 18, 19, 20, 21, 22, 23, 24, 25, 26, 27, 28, 29, 30, 31, 32, 33, 34, 35, 36, 37, 38, 39, 40, 41, 42, 43, 44, 45, 46, 47, 48, 49, 50, 51, 52, 53, 54, 55, 56, 57, 58, 59, 60, 61, 62, 63, 64, 65, 66, 67, 68, 69, 70, 71, 72, 73, 74, 75, 76, 77, 78, 79, 80, 81, 82, 83, 84, 85, 86, 87, 88, 89, 90, 91, 92, 93, 94, 95, 96, 97, 98, 99, 100, 101, 102, 103, 104, 105, 106, 107, 108, 109, 110, 111, 112, 113, 114, 115, 116, 117, 118, 119, 120, 121, 122, 123, 124, 125, 126, 127, 128, 129, 130, 131, 132, 133, 134, 135, 136, 137, 138, 139, 140, 141, 142, 143, 144, 145, 146, 147, 148, 149, 150, 151, 152, 153, 154, 155, 156, 157, 158, 159, 160, 161, 162, 163, 164, 165, 166, 167, 168, 169, 170, 171, 172, 173, 174, 175, 176, 177, 178, 179, 180, 181, 182, 183, 184, 185, 186, 187, 188, 189, 190, 191, 192, 193, 194, 195, 196, 197, 198, 199, 200],
      "AcquisitionTime": ["090416.480000", "090418.480000", "090420.480000", "090422.480000", "090424.480000", "090426.480000", "090428.480000", "090430.480000", "090432.480000", "090434.480000", "090436.480000", "090438.480000", "090440.480000", "090442.480000", "090444.480000", "090446.480000", "090448.480000", "090450.480000", "090452.480000", "090454.480000", "090456.480000", "090458.480000", "090500.480000", "090502.480000", "090504.480000", "090506.480000", "090508.480000", "090510.480000", "090512.480000", "090514.480000", "090516.480000", "090518.480000", "090520.480000", "090522.480000", "090524.480000", "090526.480000", "090528.480000", "090530.480000", "090532.480000", "090534.480000", "090536.480000", "090538.480000", "090540.480000", "090542.480000", "090544.480000", "090546.480000", "090548.480000", "090550.480000", "090552.480000", "090554.480000", "090556.480000", "090558.480000", "090600.480000", "090602.480000", "090604.480000", "090606.480000", "090608.480000", "090610.480000", "090612.480000", "090614.480000", "090616.480000", "090618.480000", "090620.480000", "090622.480000", "090624.480000", "090626.480000", "090628.480000", "090630.480000", "090632.480000", "090634.480000", "090636.480000", "090638.480000", "090640.480000", "090642.480000", "090644.480000", "090646.480000", "090648.480000", "090650.480000", "090652.480000", "090654.480000", "090656.480000", "090658.480000", "090700.480000", "090702.480000", "090704.480000", "090706.480000", "090708.480000", "090710.480000", "090712.480000", "090714.480000", "090716.480000", "090718.480000", "090720.480000", "090722.480000", "090724.480000", "090726.480000", "090728.480000", "090730.480000", "090732.480000", "090734.480000", "090736.480000", "090738.480000", "090740.480000", "090742.480000", "090744.480000", "090746.480000", "090748.480000", "090750.480000", "090752.480000", "090754.480000", "090756.480000", "090758.480000", "090800.480000", "090802.480000", "090804.480000", "090806.480000", "090808.480000", "090810.480000", "090812.480000", "090814.480000", "090816.480000", "090818.480000", "090820.480000", "090822.480000", "090824.480000", "090826.480000", "090828.480000", "090830.480000", "090832.480000", "090834.480000", "090836.480000", "090838.480000", "090840.480000", "090842.480000", "090844.480000", "090846.480000", "090848.480000", "090850.480000", "090852.480000", "090854.480000", "090856.480000", "090858.480000", "090900.480000", "090902.480000", "090904.480000", "090906.480000", "090908.480000", "090910.480000", "090912.480000", "090914.480000", "090916.480000", "090918.480000", "090920.480000", "090922.480000", "090924.480000", "090926.480000", "090928.480000", "090930.480000", "090932.480000", "090934.480000", "090936.480000", "090938.480000", "090940.480000", "090942.480000", "090944.480000", "090946.480000", "090948.480000", "090950.480000", "090952.480000", "090954.480000", "090956.480000", "090958.480000", "091000.480000", "091002.480000", "091004.480000", "091006.480000", "091008.480000", "091010.480000", "091012.480000", "091014.480000", "091016.480000", "091018.480000", "091020.480000", "091022.480000", "091024.480000", "091026.480000", "091028.480000", "091030.480000", "091032.480000", "091034.480000", "091036.480000", "091038.480000", "091040.480000", "091042.480000", "091044.480000", "091046.480000", "091048.480000", "091050.480000", "091052.480000", "091054.480000"],
      "ContentTime": ["090502.532000", "090502.535000", "090502.538000", "090502.541000", "090502.543000", "090502.556000", "090502.558000", "090502.565000", "090502.567000", "090502.569000", "090502.572000", "090502.574000", "090502.576000", "090502.579000", "090502.581000", "090502.583000", "090502.585000", "090502.588000", "090502.590000", "090502.593000", "090502.595000", "090502.597000", "090502.600000", "090542.527000", "090542.534000", "090542.536000", "090542.539000", "090542.541000", "090542.543000", "090542.546000", "090542.548000", "090542.550000", "090542.552000", "090542.555000", "090542.557000", "090542.559000", "090542.562000", "090542.564000", "090542.567000", "090542.569000", "090542.572000", "090542.574000", "090542.576000", "090622.527000", "090622.530000", "090622.532000", "090622.535000", "090622.537000", "090622.539000", "090622.549000", "090622.551000", "090622.554000", "090622.556000", "090622.559000", "090622.561000", "090622.563000", "090622.566000", "090622.568000", "090622.571000", "090622.573000", "090622.575000", "090622.578000", "090622.580000", "090702.527000", "090702.530000", "090702.532000", "090702.535000", "090702.537000", "090702.540000", "090702.542000", "090702.544000", "090702.547000", "090702.549000", "090702.552000", "090702.554000", "090702.556000", "090702.559000", "090702.561000", "090702.563000", "090702.566000", "090702.568000", "090702.570000", "090702.573000", "090742.528000", "090742.531000", "090742.533000", "090742.535000", "090742.538000", "090742.540000", "090742.554000", "090742.556000", "090742.559000", "090742.561000", "090742.563000", "090742.566000", "090742.568000", "090742.570000", "090742.573000", "090742.575000", "090742.577000", "090742.579000", "090742.582000", "090742.584000", "090802.527000", "090802.530000", "090802.532000", "090802.534000", "090802.537000", "090802.539000", "090802.541000", "090802.544000", "090802.546000", "090802.548000", "090842.527000", "090842.530000", "090842.532000", "090842.534000", "090842.536000", "090842.539000", "090842.541000", "090842.543000", "090842.546000", "090842.548000", "090842.550000", "090842.553000", "090842.555000", "090842.557000", "090842.559000", "090842.562000", "090842.564000", "090842.566000", "090842.569000", "090842.571000", "090922.527000", "090922.530000", "090922.532000", "090922.535000", "090922.537000", "090922.539000", "090922.542000", "090922.544000", "090922.546000", "090922.549000", "090922.551000", "090922.553000", "090922.555000", "090922.558000", "090922.560000", "090922.562000", "090922.565000", "090922.567000", "090922.569000", "090922.571000", "091002.527000", "091002.530000", "091002.532000", "091002.534000", "091002.537000", "091002.539000", "091002.541000", "091002.544000", "091002.546000", "091002.548000", "091002.551000", "091002.553000", "091002.555000", "091002.558000", "091002.560000", "091002.562000", "091002.564000", "091002.567000", "091002.569000", "091002.571000", "091042.527000", "091042.530000", "091042.532000", "091042.534000", "091042.551000", "091042.554000", "091042.556000", "091042.558000", "091042.561000", "091042.563000", "091042.565000", "091042.567000", "091042.570000", "091042.572000", "091042.574000", "091042.577000", "091042.579000", "091042.581000", "091042.583000", "091042.586000", "091055.881000", "091055.883000", "091055.885000", "091055.888000", "091055.890000", "091055.893000", "091055.895000"],
      "InstanceCreationTime": ["090502.532000", "090502.535000", "090502.538000", "090502.541000", "090502.543000", "090502.556000", "090502.558000", "090502.565000", "090502.567000", "090502.569000", "090502.572000", "090502.574000", "090502.576000", "090502.579000", "090502.581000", "090502.583000", "090502.585000", "090502.588000", "090502.590000", "090502.593000", "090502.595000", "090502.597000", "090502.600000", "090542.527000", "090542.534000", "090542.536000", "090542.539000", "090542.541000", "090542.543000", "090542.546000", "090542.548000", "090542.550000", "090542.552000", "090542.555000", "090542.557000", "090542.559000", "090542.562000", "090542.564000", "090542.567000", "090542.569000", "090542.572000", "090542.574000", "090542.576000", "090622.527000", "090622.530000", "090622.532000", "090622.535000", "090622.537000", "090622.539000", "090622.549000", "090622.551000", "090622.554000", "090622.556000", "090622.559000", "090622.561000", "090622.563000", "090622.566000", "090622.568000", "090622.571000", "090622.573000", "090622.575000", "090622.578000", "090622.580000", "090702.527000", "090702.530000", "090702.532000", "090702.535000", "090702.537000", "090702.540000", "090702.542000", "090702.544000", "090702.547000", "090702.549000", "090702.552000", "090702.554000", "090702.556000", "090702.559000", "090702.561000", "090702.563000", "090702.566000", "090702.568000", "090702.570000", "090702.573000", "090742.528000", "090742.531000", "090742.533000", "090742.535000", "090742.538000", "090742.540000", "090742.554000", "090742.556000", "090742.559000", "090742.561000", "090742.563000", "090742.566000", "090742.568000", "090742.570000", "090742.573000", "090742.575000", "090742.577000", "090742.579000", "090742.582000", "090742.584000", "090802.527000", "090802.530000", "090802.532000", "090802.534000", "090802.537000", "090802.539000", "090802.541000", "090802.544000", "090802.546000", "090802.548000", "090842.527000", "090842.530000", "090842.532000", "090842.534000", "090842.536000", "090842.539000", "090842.541000", "090842.543000", "090842.546000", "090842.548000", "090842.550000", "090842.553000", "090842.555000", "090842.557000", "090842.559000", "090842.562000", "090842.564000", "090842.566000", "090842.569000", "090842.571000", "090922.527000", "090922.530000", "090922.532000", "090922.535000", "090922.537000", "090922.539000", "090922.542000", "090922.544000", "090922.546000", "090922.549000", "090922.551000", "090922.553000", "090922.555000", "090922.558000", "090922.560000", "090922.562000", "090922.565000", "090922.567000", "090922.569000", "090922.571000", "091002.527000", "091002.530000", "091002.532000", "091002.534000", "091002.537000", "091002.539000", "091002.541000", "091002.544000", "091002.546000", "091002.548000", "091002.551000", "091002.553000", "091002.555000", "091002.558000", "091002.560000", "091002.562000", "091002.564000", "091002.567000", "091002.569000", "091002.571000", "091042.527000", "091042.530000", "091042.532000", "091042.534000", "091042.551000", "091042.554000", "091042.556000", "091042.558000", "091042.561000", "091042.563000", "091042.565000", "091042.567000", "091042.570000", "091042.572000", "091042.574000", "091042.577000", "091042.579000", "091042.581000", "091042.583000", "091042.586000", "091055.881000", "091055.883000", "091055.885000", "091055.888000", "091055.890000", "091055.893000", "091055.895000"],
      "InstanceNumber": [1, 2, 3, 4, 5, 6, 7, 8, 9, 10, 11, 12, 13, 14, 15, 16, 17, 18, 19, 20, 21, 22, 23, 24, 25, 26, 27, 28, 29, 30, 31, 32, 33, 34, 35, 36, 37, 38, 39, 40, 41, 42, 43, 44, 45, 46, 47, 48, 49, 50, 51, 52, 53, 54, 55, 56, 57, 58, 59, 60, 61, 62, 63, 64, 65, 66, 67, 68, 69, 70, 71, 72, 73, 74, 75, 76, 77, 78, 79, 80, 81, 82, 83, 84, 85, 86, 87, 88, 89, 90, 91, 92, 93, 94, 95, 96, 97, 98, 99, 100, 101, 102, 103, 104, 105, 106, 107, 108, 109, 110, 111, 112, 113, 114, 115, 116, 117, 118, 119, 120, 121, 122, 123, 124, 125, 126, 127, 128, 129, 130, 131, 132, 133, 134, 135, 136, 137, 138, 139, 140, 141, 142, 143, 144, 145, 146, 147, 148, 149, 150, 151, 152, 153, 154, 155, 156, 157, 158, 159, 160, 161, 162, 163, 164, 165, 166, 167, 168, 169, 170, 171, 172, 173, 174, 175, 176, 177, 178, 179, 180, 181, 182, 183, 184, 185, 186, 187, 188, 189, 190, 191, 192, 193, 194, 195, 196, 197, 198, 199, 200],
      "LargestImagePixelValue": [658, 659, 660, 662, 660, 659, 656, 657, 659, 658, 656, 658, 658, 659, 657, 656, 656, 656, 658, 660, 659, 660, 658, 660, 658, 658, 658, 658, 660, 659, 657, 657, 656, 655, 661, 658, 663, 657, 657, 656, 658, 656, 661, 658, 658, 657, 655, 657, 656, 657, 657, 655, 659, 659, 657, 656, 659, 658, 659, 657, 660, 658, 661, 656, 656, 657, 659, 659, 659, 658, 657, 655, 655, 657, 656, 663, 660, 659, 658, 656, 657, 656, 655, 659, 657, 659, 653, 653, 655, 655, 658, 657, 657, 658, 656, 658, 655, 656, 655, 655, 655, 657, 654, 657, 658, 656, 655, 654, 657, 658, 654, 656, 651, 652, 654, 659, 657, 658, 655, 653, 657, 657, 658, 656, 660, 657, 656, 661, 658, 652, 655, 656, 656, 659, 659, 659, 655, 657, 657, 657, 657, 657, 658, 660, 653, 654, 655, 655, 656, 655, 658, 656, 655, 654, 654, 659, 656, 658, 659, 658, 656, 653, 657, 657, 658, 659, 653, 657, 656, 655, 656, 656, 656, 656, 656, 656, 655, 653, 657, 653, 654, 659, 656, 652, 655, 657, 656, 659, 656, 660, 657, 655, 654, 657, 657, 658, 655, 660, 655, 655],
      "WindowCenter": [455.0, 456.0, 456.0, 456.0, 456.0, 456.0, 456.0, 456.0, 456.0, 455.0, 455.0, 456.0, 456.0, 456.0, 456.0, 456.0, 455.0, 456.0, 455.0, 455.0, 456.0, 456.0, 456.0, 456.0, 455.0, 455.0, 455.0, 455.0, 456.0, 456.0, 455.0, 456.0, 455.0, 455.0, 455.0, 455.0, 456.0, 455.0, 456.0, 456.0, 455.0, 455.0, 455.0, 455.0, 455.0, 455.0, 455.0, 455.0, 455.0, 455.0, 455.0, 455.0, 455.0, 456.0, 455.0, 455.0, 455.0, 455.0, 455.0, 455.0, 455.0, 455.0, 455.0, 455.0, 455.0, 455.0, 455.0, 455.0, 455.0, 455.0, 455.0, 455.0, 455.0, 455.0, 455.0, 455.0, 455.0, 455.0, 455.0, 455.0, 455.0, 455.0, 455.0, 455.0, 455.0, 455.0, 455.0, 455.0, 455.0, 455.0, 455.0, 455.0, 455.0, 455.0, 455.0, 455.0, 455.0, 455.0, 455.0, 455.0, 455.0, 455.0, 455.0, 455.0, 455.0, 455.0, 455.0, 455.0, 455.0, 455.0, 455.0, 455.0, 455.0, 454.0, 454.0, 455.0, 455.0, 455.0, 455.0, 455.0, 454.0, 454.0, 454.0, 454.0, 455.0, 455.0, 455.0, 454.0, 454.0, 454.0, 454.0, 454.0, 455.0, 455.0, 455.0, 454.0, 454.0, 454.0, 454.0, 454.0, 454.0, 454.0, 455.0, 454.0, 454.0, 454.0, 454.0, 454.0, 454.0, 454.0, 454.0, 454.0, 454.0, 454.0, 454.0, 454.0, 454.0, 454.0, 454.0, 454.0, 454.0, 454.0, 454.0, 454.0, 454.0, 454.0, 454.0, 454.0, 454.0, 454.0, 454.0, 454.0, 454.0, 454.0, 454.0, 454.0, 454.0, 454.0, 454.0, 454.0, 454.0, 454.0, 454.0, 454.0, 454.0, 454.0, 454.0, 454.0, 454.0, 454.0, 454.0, 454.0, 454.0, 454.0, 454.0, 454.0, 454.0, 454.0, 454.0, 454.0],
      "WindowWidth": [946.0, 947.0, 947.0, 947.0, 947.0, 947.0, 947.0, 947.0, 946.0, 946.0, 946.0, 947.0, 947.0, 947.0, 947.0, 947.0, 946.0, 946.0, 946.0, 946.0, 947.0, 947.0, 947.0, 946.0, 946.0, 946.0, 946.0, 946.0, 947.0, 947.0, 946.0, 946.0, 946.0, 946.0, 946.0, 946.0, 946.0, 946.0, 946.0, 946.0, 946.0, 945.0, 945.0, 946.0, 946.0, 946.0, 946.0, 946.0, 945.0, 945.0, 945.0, 945.0, 946.0, 946.0, 946.0, 945.0, 945.0, 945.0, 945.0, 945.0, 946.0, 946.0, 946.0, 945.0, 945.0, 945.0, 945.0, 945.0, 945.0, 945.0, 945.0, 945.0, 945.0, 944.0, 945.0, 945.0, 945.0, 945.0, 945.0, 945.0, 945.0, 945.0, 945.0, 945.0, 945.0, 945.0, 945.0, 945.0, 945.0, 945.0, 945.0, 945.0, 945.0, 945.0, 945.0, 945.0, 944.0, 944.0, 944.0, 945.0, 945.0, 944.0, 945.0, 945.0, 945.0, 944.0, 945.0, 944.0, 945.0, 945.0, 945.0, 945.0, 944.0, 944.0, 944.0, 945.0, 945.0, 945.0, 945.0, 944.0, 944.0, 944.0, 944.0, 944.0, 944.0, 945.0, 944.0, 944.0, 944.0, 944.0, 944.0, 944.0, 945.0, 945.0, 944.0, 944.0, 944.0, 944.0, 944.0, 944.0, 944.0, 944.0, 944.0, 944.0, 944.0, 944.0, 944.0, 944.0, 944.0, 944.0, 944.0, 944.0, 944.0, 944.0, 944.0, 944.0, 944.0, 944.0, 944.0, 944.0, 944.0, 944.0, 944.0, 944.0, 944.0, 944.0, 944.0, 944.0, 944.0, 944.0, 944.0, 944.0, 944.0, 944.0, 944.0, 944.0, 944.0, 943.0, 943.0, 944.0, 944.0, 944.0, 944.0, 944.0, 944.0, 943.0, 943.0, 943.0, 944.0, 944.0, 944.0, 944.0, 944.0, 943.0, 943.0, 943.0, 944.0, 944.0, 944.0, 944.0]
    },
    "slices": {}
  }
}