{
  "AcquisitionMatrixPE": 80,
  "AcquisitionNumber": 1,
  "AcquisitionTime": "08:50:41.740000",
  "BandwidthPerPixelPhaseEncode": 48.077,
  "BaseResolution": 80,
  "BodyPartExamined": "BRAIN",
  "CoilCombinationMethod": "Sum of Squares",
  "ConsistencyInfo": "N4_VE11E_LATEST_20181129",
  "ConversionSoftware": "dcm2niix",
  "ConversionSoftwareVersion": "v1.0.20220720",
  "DerivedVendorReportedEchoSpacing": 0.000519999,
  "DeviceSerialNumber": "66112",
  "DwellTime": 2.7e-06,
  "EchoTime": 0.035,
  "EchoTrainLength": 39,
  "EffectiveEchoSpacing": 0.00026,
  "FlipAngle": 90,
  "HeudiconvVersion": "0.13.1",
  "ImageOrientationPatientDICOM": [0.99987, 0.000587672, -0.0160989, 0.00418829, 0.955486, 0.295005],
  "ImageOrientationText": "Tra>Cor(17.2)>Sag(-0.9)",
  "ImageType": [
    "ORIGINAL",
    "PRIMARY",
    "M",
    "ND",
    "NORM",
    "MOSAIC"
],
  "ImagingFrequency": 123.259,
  "InPlanePhaseEncodingDirectionDICOM": "COL",
  "InstitutionAddress": "Maynard 3,Hanover,NH,US,03755",
  "InstitutionName": "Dartmouth College - PBS",
  "InstitutionalDepartmentName": "Department",
  "MRAcquisitionType": "2D",
  "MagneticFieldStrength": 3,
  "Manufacturer": "Siemens",
  "ManufacturersModelName": "Prisma",
  "MatrixCoilMode": "GRAPPA",
  "Modality": "MR",
  "NonlinearGradientCorrection": false,
  "ParallelReductionFactorInPlane": 2,
  "PartialFourier": 1,
  "PatientPosition": "HFS",
  "PercentPhaseFOV": 100,
  "PercentSampling": 100,
  "PhaseEncodingDirection": "j-",
  "PhaseEncodingSteps": 79,
  "PhaseResolution": 1,
  "PixelBandwidth": 2315,
  "ProcedureStepDescription": "dbic^QA",
  "ProtocolName": "func-bold_task-rest_acq-p2",
  "PulseSequenceDetails": "%SiemensSeq%\\ep2d_bold",
  "ReceiveCoilActiveElements": "HC1-7;NC1,2",
  "ReceiveCoilName": "HeadNeck_64",
  "ReconMatrixPE": 80,
  "RefLinesPE": 24,
  "RepetitionTime": 2,
  "SAR": 0.0358334,
  "ScanOptions": "FS",
  "ScanningSequence": "EP",
  "SequenceName": "*epfid2d1_80",
  "SequenceVariant": "SK",
  "SeriesDescription": "func-bold_task-rest_acq-p2",
  "SeriesNumber": 5,
  "ShimSetting": [4212, -7740, -7493, -121, -127, -205, -18, 99],
  "SliceThickness": 3.5,
  "SliceTiming": [0.99, 0, 1.055, 0.065, 1.12, 0.13, 1.1875, 0.1975, 1.2525, 0.2625, 1.32, 0.33, 1.385, 0.395, 1.45, 0.46, 1.5175, 0.5275, 1.5825, 0.5925, 1.65, 0.66, 1.715, 0.725, 1.78, 0.79, 1.8475, 0.8575, 1.9125, 0.9225],
  "SoftwareVersions": "syngo MR E11",
  "SpacingBetweenSlices": 3.99,
  "StationName": "AWP66112",
  "TaskName": "rest",
  "TotalReadoutTime": 0.02054,
  "TxRefAmp": 212.009,
  "dcmmeta_affine": [
    [-2.999610662460327, 0.012564870528876781, -0.06206700578331947, 123.24165344238281],
    [-0.0017630173824727535, 2.866459369659424, 1.1771875619888306, -115.93197631835938],
    [-0.04829668253660202, -0.8850160241127014, 3.8118863105773926, -16.94011116027832],
    [0.0, 0.0, 0.0, 1.0]
],
  "dcmmeta_reorient_transform": [
    [0.0, -1.0, 0.0, 79.0],
    [1.0, 0.0, 0.0, 0.0],
    [0.0, 0.0, 1.0, 0.0],
    [0.0, 0.0, 0.0, 1.0]
],
  "dcmmeta_shape": [80, 80, 30, 200],
  "dcmmeta_slice_dim": 2,
  "dcmmeta_version": 0.6,
  "global": {
    "const": {
      "AccessionNumber": "qa64",
      "AcquisitionMatrix": [80, 0, 0, 80],
      "AngioFlag": "N",
      "BitsAllocated": 16,
      "BitsStored": 12,
      "BodyPartExamined": "BRAIN",
      "Columns": 480,
      "EchoNumbers": 1,
      "EchoTime": 35.0,
      "EchoTrainLength": 39,
      "FlipAngle": 90.0,
      "HighBit": 11,
      "ImageOrientationPatient": [0.9998702317071, 0.00058767247214, -0.0160988939699, 0.00418829022612, 0.9554864227258, 0.29500534607296],
      "ImagePositionPatient": [-726.66939469352, -684.16276151783, -254.20024927396],
      "ImageType": [
        "ORIGINAL",
        "PRIMARY",
        "M",
        "ND",
        "NORM",
        "MOSAIC"
],
      "ImagedNucleus": "1H",
      "ImagingFrequency": 123.259126,
      "InPlanePhaseEncodingDirection": "COL",
      "MRAcquisitionType": "2D",
      "MagneticFieldStrength": 3.0,
      "Manufacturer": "SIEMENS",
      "ManufacturerModelName": "Prisma",
      "Modality": "MR",
      "NumberOfAverages": 1.0,
      "NumberOfPhaseEncodingSteps": 79,
      "PercentPhaseFieldOfView": 100.0,
      "PercentSampling": 100.0,
      "PerformedProcedureStepStartTime": "084658.302000",
      "PhotometricInterpretation": "MONOCHROME2",
      "PixelBandwidth": 2315.0,
      "PixelRepresentation": 0,
      "PixelSpacing": [3.0, 3.0],
      "ProtocolName": "func-bold_task-rest_acq-p2",
      "RepetitionTime": 2000.0,
      "Rows": 480,
      "SAR": 0.0358334317585,
      "SamplesPerPixel": 1,
      "ScanOptions": "FS",
      "ScanningSequence": "EP",
      "SequenceName": "*epfid2d1_80",
      "SequenceVariant": "SK",
      "SeriesDescription": "func-bold_task-rest_acq-p2",
      "SeriesNumber": 5,
      "SeriesTime": "085122.616000",
      "SliceLocation": -52.304938914333,
      "SliceThickness": 3.5,
      "SmallestImagePixelValue": 0,
      "SoftwareVersions": "syngo MR E11",
      "SpacingBetweenSlices": 3.9899999588168,
      "SpecificCharacterSet": "ISO_IR 100",
      "StudyID": "4",
      "StudyTime": "084658.236000",
      "TransmitCoilName": "Body",
      "VariableFlipAngleFlag": "N",
      "WindowCenterWidthExplanation": "Algo1"
    },
    "slices": {}
  },
  "time": {
    "samples": {
      "AcquisitionNumber": [1, 2, 3, 4, 5, 6, 7, 8, 9, 10, 11, 12, 13, 14, 15, 16, 17, 18, 19, 20, 21, 22, 23, 24, 25, 26, 27, 28, 29, 30, 31, 32, 33, 34, 35, 36, 37, 38, 39, 40, 41, 42, 43, 44, 45, 46, 47, 48, 49, 50, 51, 52, 53, 54, 55, 56, 57, 58, 59, 60, 61, 62, 63, 64, 65, 66, 67, 68, 69, 70, 71, 72, 73, 74, 75, 76, 77, 78, 79, 80, 81, 82, 83, 84, 85, 86, 87, 88, 89, 90, 91, 92, 93, 94, 95, 96, 97, 98, 99, 100, 101, 102, 103, 104, 105, 106, 107, 108, 109, 110, 111, 112, 113, 114, 115, 116, 117, 118, 119, 120, 121, 122, 123, 124, 125, 126, 127, 128, 129, 130, 131, 132, 133, 134, 135, 136, 137, 138, 139, 140, 141, 142, 143, 144, 145, 146, 147, 148, 149, 150, 151, 152, 153, 154, 155, 156, 157, 158, 159, 160, 161, 162, 163, 164, 165, 166, 167, 168, 169, 170, 171, 172, 173, 174, 175, 176, 177, 178, 179, 180, 181, 182, 183, 184, 185, 186, 187, 188, 189, 190, 191, 192, 193, 194, 195, 196, 197, 198, 199, 200],
      "AcquisitionTime": ["085041.740000", "085043.740000", "085045.740000", "085047.740000", "085049.740000", "085051.740000", "085053.740000", "085055.740000", "085057.740000", "085059.740000", "085101.740000", "085103.740000", "085105.740000", "085107.740000", "085109.740000", "085111.740000", "085113.740000", "085115.740000", "085117.740000", "085119.740000", "085121.740000", "085123.740000", "085125.740000", "085127.740000", "085129.740000", "085131.740000", "085133.740000", "085135.740000", "085137.740000", "085139.740000", "085141.740000", "085143.740000", "085145.740000", "085147.740000", "085149.740000", "085151.740000", "085153.740000", "085155.740000", "085157.740000", "085159.740000", "085201.740000", "085203.740000", "085205.740000", "085207.740000", "085209.740000", "085211.740000", "085213.740000", "085215.740000", "085217.740000", "085219.740000", "085221.740000", "085223.740000", "085225.740000", "085227.740000", "085229.740000", "085231.740000", "085233.740000", "085235.740000", "085237.740000", "085239.740000", "085241.740000", "085243.740000", "085245.740000", "085247.740000", "085249.740000", "085251.740000", "085253.740000", "085255.740000", "085257.740000", "085259.740000", "085301.740000", "085303.740000", "085305.740000", "085307.740000", "085309.740000", "085311.740000", "085313.740000", "085315.740000", "085317.740000", "085319.740000", "085321.740000", "085323.740000", "085325.740000", "085327.740000", "085329.740000", "085331.740000", "085333.740000", "085335.740000", "085337.740000", "085339.740000", "085341.740000", "085343.740000", "085345.740000", "085347.740000", "085349.740000", "085351.740000", "085353.740000", "085355.740000", "085357.740000", "085359.740000", "085401.740000", "085403.740000", "085405.740000", "085407.740000", "085409.740000", "085411.740000", "085413.740000", "085415.740000", "085417.740000", "085419.740000", "085421.740000", "085423.740000", "085425.740000", "085427.740000", "085429.740000", "085431.740000", "085433.740000", "085435.740000", "085437.740000", "085439.740000", "085441.740000", "085443.740000", "085445.740000", "085447.740000", "085449.740000", "085451.740000", "085453.740000", "085455.740000", "085457.740000", "085459.740000", "085501.740000", "085503.740000", "085505.740000", "085507.740000", "085509.740000", "085511.740000", "085513.740000", "085515.740000", "085517.740000", "085519.740000", "085521.740000", "085523.740000", "085525.740000", "085527.740000", "085529.740000", "085531.740000", "085533.740000", "085535.740000", "085537.740000", "085539.740000", "085541.740000", "085543.740000", "085545.740000", "085547.740000", "085549.740000", "085551.740000", "085553.740000", "085555.740000", "085557.740000", "085559.740000", "085601.740000", "085603.740000", "085605.740000", "085607.740000", "085609.740000", "085611.740000", "085613.740000", "085615.740000", "085617.740000", "085619.740000", "085621.740000", "085623.740000", "085625.740000", "085627.740000", "085629.740000", "085631.740000", "085633.740000", "085635.740000", "085637.740000", "085639.740000", "085641.740000", "085643.740000", "085645.740000", "085647.740000", "085649.740000", "085651.740000", "085653.740000", "085655.740000", "085657.740000", "085659.740000", "085701.740000", "085703.740000", "085705.740000", "085707.740000", "085709.740000", "085711.740000", "085713.740000", "085715.740000", "085717.740000", "085719.740000"],
      "ContentTime": ["085122.620000", "085122.623000", "085122.626000", "085122.628000", "085122.630000", "085122.633000", "085122.635000", "085122.638000", "085122.640000", "085122.642000", "085122.645000", "085122.647000", "085122.649000", "085122.652000", "085122.654000", "085122.656000", "085122.659000", "085122.661000", "085122.664000", "085122.666000", "085202.613000", "085202.616000", "085202.618000", "085202.621000", "085202.623000", "085202.626000", "085202.628000", "085202.630000", "085202.633000", "085202.635000", "085202.637000", "085202.640000", "085202.642000", "085202.645000", "085202.647000", "085202.649000", "085202.652000", "085202.654000", "085202.656000", "085202.659000", "085242.613000", "085242.616000", "085242.618000", "085242.621000", "085242.624000", "085242.626000", "085242.628000", "085242.631000", "085242.633000", "085242.636000", "085242.638000", "085242.640000", "085242.643000", "085242.645000", "085242.648000", "085242.650000", "085242.652000", "085242.655000", "085242.657000", "085242.659000", "085322.613000", "085322.616000", "085322.618000", "085322.621000", "085322.623000", "085322.626000", "085322.628000", "085322.630000", "085322.633000", "085322.635000", "085322.637000", "085322.640000", "085322.642000", "085322.644000", "085322.647000", "085322.649000", "085322.651000", "085322.654000", "085322.656000", "085322.658000", "085402.613000", "085402.616000", "085402.618000", "085402.621000", "085402.623000", "085402.625000", "085402.628000", "085402.630000", "085402.633000", "085402.635000", "085402.637000", "085402.640000", "085402.642000", "085402.644000", "085402.647000", "085402.649000", "085402.652000", "085402.654000", "085402.656000", "085402.659000", "085442.613000", "085442.616000", "085442.619000", "085442.621000", "085442.624000", "085442.626000", "085442.629000", "085442.632000", "085442.634000", "085442.636000", "085442.638000", "085442.641000", "085442.644000", "085442.646000", "085442.648000", "085442.651000", "085442.653000", "085442.656000", "085442.658000", "085442.661000", "085522.613000", "085522.616000", "085522.618000", "085522.621000", "085522.623000", "085522.625000", "085522.628000", "085522.630000", "085522.633000", "085522.635000", "085522.637000", "085522.644000", "085522.647000", "085522.649000", "085522.651000", "085522.654000", "085522.656000", "085522.658000", "085522.661000", "085522.663000", "085602.615000", "085602.617000", "085602.619000", "085602.622000", "085602.624000", "085602.627000", "085602.629000", "085602.631000", "085602.644000", "085602.646000", "085602.648000", "085602.651000", "085602.653000", "085602.663000", "085602.666000", "085602.668000", "085602.671000", "085602.673000", "085602.675000", "085602.678000", "085642.613000", "085642.616000", "085642.619000", "085642.621000", "085642.623000", "085642.626000", "085642.628000", "085642.630000", "085642.633000", "085642.635000", "085642.637000", "085642.640000", "085642.642000", "085642.644000", "085642.647000", "085642.649000", "085642.651000", "085642.654000", "085642.656000", "085642.659000", "085721.194000", "085721.197000", "085721.199000", "085721.202000", "085721.204000", "085721.207000", "085721.209000", "085721.212000", "085721.214000", "085721.216000", "085721.219000", "085721.222000", "085721.226000", "085721.234000", "085721.237000", "085721.241000", "085721.243000", "085721.246000", "085721.250000", "085721.253000"],
      "InstanceCreationTime": ["085122.620000", "085122.623000", "085122.626000", "085122.628000", "085122.630000", "085122.633000", "085122.635000", "085122.638000", "085122.640000", "085122.642000", "085122.645000", "085122.647000", "085122.649000", "085122.652000", "085122.654000", "085122.656000", "085122.659000", "085122.661000", "085122.664000", "085122.666000", "085202.613000", "085202.616000", "085202.618000", "085202.621000", "085202.623000", "085202.626000", "085202.628000", "085202.630000", "085202.633000", "085202.635000", "085202.637000", "085202.640000", "085202.642000", "085202.645000", "085202.647000", "085202.649000", "085202.652000", "085202.654000", "085202.656000", "085202.659000", "085242.613000", "085242.616000", "085242.618000", "085242.621000", "085242.624000", "085242.626000", "085242.628000", "085242.631000", "085242.633000", "085242.636000", "085242.638000", "085242.640000", "085242.643000", "085242.645000", "085242.648000", "085242.650000", "085242.652000", "085242.655000", "085242.657000", "085242.659000", "085322.613000", "085322.616000", "085322.618000", "085322.621000", "085322.623000", "085322.626000", "085322.628000", "085322.630000", "085322.633000", "085322.635000", "085322.637000", "085322.640000", "085322.642000", "085322.644000", "085322.647000", "085322.649000", "085322.651000", "085322.654000", "085322.656000", "085322.658000", "085402.613000", "085402.616000", "085402.618000", "085402.621000", "085402.623000", "085402.625000", "085402.628000", "085402.630000", "085402.633000", "085402.635000", "085402.637000", "085402.640000", "085402.642000", "085402.644000", "085402.647000", "085402.649000", "085402.652000", "085402.654000", "085402.656000", "085402.659000", "085442.613000", "085442.616000", "085442.619000", "085442.621000", "085442.624000", "085442.626000", "085442.629000", "085442.632000", "085442.634000", "085442.636000", "085442.638000", "085442.641000", "085442.644000", "085442.646000", "085442.648000", "085442.651000", "085442.653000", "085442.656000", "085442.658000", "085442.661000", "085522.613000", "085522.616000", "085522.618000", "085522.621000", "085522.623000", "085522.625000", "085522.628000", "085522.630000", "085522.633000", "085522.635000", "085522.637000", "085522.644000", "085522.647000", "085522.649000", "085522.651000", "085522.654000", "085522.656000", "085522.658000", "085522.661000", "085522.663000", "085602.615000", "085602.617000", "085602.619000", "085602.622000", "085602.624000", "085602.627000", "085602.629000", "085602.631000", "085602.644000", "085602.646000", "085602.648000", "085602.651000", "085602.653000", "085602.663000", "085602.666000", "085602.668000", "085602.671000", "085602.673000", "085602.675000", "085602.678000", "085642.613000", "085642.616000", "085642.619000", "085642.621000", "085642.623000", "085642.626000", "085642.628000", "085642.630000", "085642.633000", "085642.635000", "085642.637000", "085642.640000", "085642.642000", "085642.644000", "085642.647000", "085642.649000", "085642.651000", "085642.654000", "085642.656000", "085642.659000", "085721.194000", "085721.197000", "085721.199000", "085721.202000", "085721.204000", "085721.207000", "085721.209000", "085721.212000", "085721.214000", "085721.216000", "085721.219000", "085721.222000", "085721.226000", "085721.234000", "085721.237000", "085721.241000", "085721.243000", "085721.246000", "085721.250000", "085721.253000"],
      "InstanceNumber": [1, 2, 3, 4, 5, 6, 7, 8, 9, 10, 11, 12, 13, 14, 15, 16, 17, 18, 19, 20, 21, 22, 23, 24, 25, 26, 27, 28, 29, 30, 31, 32, 33, 34, 35, 36, 37, 38, 39, 40, 41, 42, 43, 44, 45, 46, 47, 48, 49, 50, 51, 52, 53, 54, 55, 56, 57, 58, 59, 60, 61, 62, 63, 64, 65, 66, 67, 68, 69, 70, 71, 72, 73, 74, 75, 76, 77, 78, 79, 80, 81, 82, 83, 84, 85, 86, 87, 88, 89, 90, 91, 92, 93, 94, 95, 96, 97, 98, 99, 100, 101, 102, 103, 104, 105, 106, 107, 108, 109, 110, 111, 112, 113, 114, 115, 116, 117, 118, 119, 120, 121, 122, 123, 124, 125, 126, 127, 128, 129, 130, 131, 132, 133, 134, 135, 136, 137, 138, 139, 140, 141, 142, 143, 144, 145, 146, 147, 148, 149, 150, 151, 152, 153, 154, 155, 156, 157, 158, 159, 160, 161, 162, 163, 164, 165, 166, 167, 168, 169, 170, 171, 172, 173, 174, 175, 176, 177, 178, 179, 180, 181, 182, 183, 184, 185, 186, 187, 188, 189, 190, 191, 192, 193, 194, 195, 196, 197, 198, 199, 200],
      "LargestImagePixelValue": [3989, 3976, 3979, 3977, 3988, 3977, 3972, 3978, 3992, 3977, 3979, 3976, 3977, 3984, 3987, 4003, 3990, 3992, 3993, 3992, 4001, 4005, 4016, 3996, 4008, 3999, 3994, 3988, 4002, 4013, 3996, 3999, 3995, 4007, 4001, 4004, 4002, 4008, 4015, 4006, 3996, 4003, 4007, 4006, 4009, 4005, 4006, 4002, 4011, 4002, 3999, 3999, 4015, 4003, 4006, 3992, 4008, 4001, 3993, 3995, 4003, 3997, 3995, 4002, 4005, 4007, 4015, 3999, 4005, 4005, 4003, 4010, 3997, 3990, 3998, 4005, 3994, 4004, 4001, 3989, 4007, 3991, 4011, 4000, 4013, 4010, 4014, 4002, 4000, 4006, 4008, 4004, 4010, 4010, 4007, 4008, 3994, 3992, 3997, 3993, 3999, 3991, 3996, 3999, 4000, 3994, 3999, 4016, 3992, 4000, 4011, 4013, 4007, 4000, 3998, 4008, 4008, 4000, 4011, 3996, 4000, 4009, 4005, 3992, 3980, 3990, 3994, 3999, 3997, 3997, 3988, 3991, 4003, 3991, 4008, 4004, 3999, 4014, 3997, 4009, 4008, 4000, 4003, 4006, 4001, 3998, 4018, 4007, 3993, 4012, 4009, 4013, 4004, 4004, 3999, 3996, 3997, 4011, 4007, 4009, 3997, 4009, 3998, 4000, 3997, 3991, 4003, 3994, 4006, 4021, 4010, 3992, 4001, 4000, 4004, 4007, 3993, 3997, 4007, 4003, 3999, 4012, 4005, 4006, 3999, 4006, 4013, 4008, 4000, 4003, 3996, 3998, 4005, 3997, 4012, 3994, 3998, 4018, 3999, 3993],
      "WindowCenter": [1471.0, 1471.0, 1470.0, 1470.0, 1470.0, 1470.0, 1470.0, 1469.0, 1469.0, 1469.0, 1470.0, 1470.0, 1470.0, 1469.0, 1469.0, 1470.0, 1469.0, 1470.0, 1469.0, 1469.0, 1469.0, 1468.0, 1468.0, 1468.0, 1469.0, 1468.0, 1468.0, 1468.0, 1469.0, 1468.0, 1468.0, 1468.0, 1467.0, 1467.0, 1468.0, 1467.0, 1467.0, 1468.0, 1467.0, 1467.0, 1467.0, 1467.0, 1467.0, 1467.0, 1467.0, 1467.0, 1467.0, 1467.0, 1468.0, 1468.0, 1467.0, 1467.0, 1467.0, 1466.0, 1467.0, 1467.0, 1467.0, 1467.0, 1467.0, 1467.0, 1466.0, 1467.0, 1466.0, 1467.0, 1467.0, 1466.0, 1467.0, 1467.0, 1466.0, 1466.0, 1467.0, 1467.0, 1467.0, 1467.0, 1466.0, 1466.0, 1466.0, 1466.0, 1466.0, 1466.0, 1466.0, 1466.0, 1466.0, 1466.0, 1466.0, 1466.0, 1466.0, 1466.0, 1466.0, 1466.0, 1466.0, 1466.0, 1466.0, 1466.0, 1465.0, 1466.0, 1466.0, 1465.0, 1465.0, 1465.0, 1465.0, 1466.0, 1465.0, 1465.0, 1465.0, 1465.0, 1465.0, 1466.0, 1465.0, 1465.0, 1465.0, 1465.0, 1465.0, 1465.0, 1465.0, 1465.0, 1465.0, 1465.0, 1465.0, 1466.0, 1465.0, 1464.0, 1464.0, 1465.0, 1464.0, 1465.0, 1464.0, 1465.0, 1465.0, 1465.0, 1465.0, 1464.0, 1465.0, 1464.0, 1464.0, 1464.0, 1464.0, 1464.0, 1464.0, 1465.0, 1464.0, 1464.0, 1464.0, 1464.0, 1464.0, 1465.0, 1464.0, 1464.0, 1463.0, 1464.0, 1464.0, 1464.0, 1464.0, 1464.0, 1463.0, 1464.0, 1463.0, 1463.0, 1463.0, 1463.0, 1463.0, 1463.0, 1464.0, 1464.0, 1464.0, 1464.0, 1463.0, 1464.0, 1464.0, 1463.0, 1464.0, 1464.0, 1464.0, 1463.0, 1463.0, 1463.0, 1463.0, 1462.0, 1464.0, 1464.0, 1463.0, 1463.0, 1464.0, 1463.0, 1463.0, 1463.0, 1463.0, 1462.0, 1463.0, 1463.0, 1463.0, 1463.0, 1463.0, 1462.0, 1463.0, 1463.0, 1463.0, 1463.0, 1463.0, 1462.0],
      "WindowWidth": [3356.0, 3355.0, 3355.0, 3355.0, 3355.0, 3355.0, 3355.0, 3355.0, 3355.0, 3355.0, 3355.0, 3354.0, 3354.0, 3354.0, 3354.0, 3354.0, 3354.0, 3354.0, 3354.0, 3354.0, 3354.0, 3354.0, 3354.0, 3354.0, 3354.0, 3354.0, 3354.0, 3353.0, 3353.0, 3353.0, 3353.0, 3353.0, 3353.0, 3353.0, 3353.0, 3353.0, 3353.0, 3353.0, 3353.0, 3353.0, 3353.0, 3352.0, 3352.0, 3353.0, 3352.0, 3352.0, 3352.0, 3352.0, 3352.0, 3352.0, 3352.0, 3352.0, 3352.0, 3352.0, 3352.0, 3352.0, 3352.0, 3352.0, 3352.0, 3352.0, 3352.0, 3352.0, 3352.0, 3351.0, 3351.0, 3351.0, 3351.0, 3351.0, 3351.0, 3351.0, 3351.0, 3351.0, 3350.0, 3351.0, 3351.0, 3350.0, 3350.0, 3350.0, 3351.0, 3350.0, 3350.0, 3350.0, 3350.0, 3350.0, 3350.0, 3350.0, 3350.0, 3350.0, 3350.0, 3350.0, 3350.0, 3350.0, 3350.0, 3350.0, 3350.0, 3350.0, 3350.0, 3349.0, 3349.0, 3349.0, 3349.0, 3349.0, 3349.0, 3349.0, 3349.0, 3349.0, 3349.0, 3349.0, 3349.0, 3349.0, 3349.0, 3349.0, 3349.0, 3349.0, 3349.0, 3349.0, 3349.0, 3348.0, 3349.0, 3348.0, 3348.0, 3349.0, 3348.0, 3348.0, 3349.0, 3348.0, 3348.0, 3348.0, 3348.0, 3348.0, 3348.0, 3348.0, 3348.0, 3348.0, 3348.0, 3348.0, 3348.0, 3348.0, 3348.0, 3347.0, 3348.0, 3348.0, 3347.0, 3347.0, 3347.0, 3347.0, 3347.0, 3347.0, 3348.0, 3347.0, 3347.0, 3347.0, 3347.0, 3347.0, 3347.0, 3347.0, 3347.0, 3347.0, 3347.0, 3347.0, 3347.0, 3347.0, 3347.0, 3347.0, 3347.0, 3347.0, 3347.0, 3347.0, 3346.0, 3347.0, 3346.0, 3346.0, 3346.0, 3346.0, 3346.0, 3347.0, 3346.0, 3347.0, 3346.0, 3346.0, 3346.0, 3346.0, 3346.0, 3346.0, 3346.0, 3346.0, 3346.0, 3346.0, 3346.0, 3346.0, 3346.0, 3346.0, 3346.0, 3346.0, 3346.0, 3346.0, 3345.0, 3345.0, 3346.0, 3345.0]
    },
    "slices": {}
  }
}