{
  "AcquisitionMatrixPE": 122,
  "AcquisitionNumber": 1,
  "AcquisitionTime": "09:31:56.067500",
  "BandwidthPerPixelPhaseEncode": 28.76,
  "BaseResolution": 122,
  "BodyPartExamined": "BRAIN",
  "CoilCombinationMethod": "Adaptive Combine",
  "ConsistencyInfo": "N4_VE11C_LATEST_20160120",
  "ConversionSoftware": "dcm2niix",
  "ConversionSoftwareVersion": "v1.0.20220720",
  "DerivedVendorReportedEchoSpacing": 0.000570008,
  "DeviceSerialNumber": "66112",
  "DiffusionScheme": "Monopolar",
  "DwellTime": 2e-06,
  "EchoTime": 0.075,
  "EchoTrainLength": 61,
  "EffectiveEchoSpacing": 0.000285004,
  "FlipAngle": 90,
  "HeudiconvVersion": "0.13.1",
  "ImageOrientationPatientDICOM": [0.98139, 0.191664, 0.0117865, -0.186145, 0.934468, 0.303512],
  "ImageOrientationText": "Tra>Cor(17.5)>Sag(-2.7)",
  "ImageType": [
    "ORIGINAL",
    "PRIMARY",
    "DIFFUSION",
    "NONE",
    "ND",
    "NORM"
],
  "ImagingFrequency": 123.252,
  "InPlanePhaseEncodingDirectionDICOM": "COL",
  "InstitutionAddress": "Maynard 3,Hanover,NH,US,03755",
  "InstitutionName": "Dartmouth College - PBS",
  "InstitutionalDepartmentName": "Department",
  "MRAcquisitionType": "2D",
  "MagneticFieldStrength": 3,
  "Manufacturer": "Siemens",
  "ManufacturersModelName": "Prisma",
  "MatrixCoilMode": "GRAPPA",
  "Modality": "MR",
  "NonlinearGradientCorrection": false,
  "ParallelReductionFactorInPlane": 2,
  "PartialFourier": 1,
  "PatientPosition": "HFS",
  "PercentPhaseFOV": 100,
  "PercentSampling": 100,
  "PhaseEncodingDirection": "j-",
  "PhaseEncodingSteps": 122,
  "PhaseResolution": 1,
  "PixelBandwidth": 2050,
  "ProcedureStepDescription": "dbic^QA",
  "ProtocolName": "dwi_acq-DTI-30-p2",
  "PulseSequenceDetails": "%SiemensSeq%\\ep2d_diff",
  "ReceiveCoilActiveElements": "HEA;HEP",
  "ReceiveCoilName": "Head_32",
  "ReconMatrixPE": 122,
  "RefLinesPE": 38,
  "RepetitionTime": 7.7,
  "SAR": 0.101835,
  "ScanOptions": "FS",
  "ScanningSequence": "EP",
  "SequenceName": "*ep_b0",
  "SequenceVariant": "SK\\SP",
  "SeriesDescription": "dwi_acq-DTI-30-p2",
  "SeriesNumber": 8,
  "ShimSetting": [4136, -7691, -7509, 324, -48, -165, -65, 26],
  "SliceThickness": 2,
  "SliceTiming": [3.84375, 0, 3.95312, 0.10938, 4.0625, 0.21875, 4.17188, 0.32812, 4.28125, 0.4375, 4.39062, 0.54688, 4.5, 0.65625, 4.60938, 0.76562, 4.71875, 0.875, 4.82812, 0.99219, 4.9375, 1.10156, 5.04688, 1.21094, 5.15625, 1.32031, 5.26562, 1.42969, 5.375, 1.53906, 5.48438, 1.64844, 5.59375, 1.75781, 5.70312, 1.86719, 5.8125, 1.97656, 5.92969, 2.08594, 6.03906, 2.19531, 6.14844, 2.30469, 6.25, 2.41406, 6.36719, 2.52344, 6.47656, 2.63281, 6.58594, 2.74219, 6.69531, 2.85156, 6.80469, 2.96094, 6.91406, 3.07031, 7.02344, 3.17969, 7.13281, 3.29688, 7.24219, 3.39844, 7.35156, 3.50781, 7.46094, 3.61719, 7.57031, 3.73438],
  "SoftwareVersions": "syngo MR E11",
  "SpacingBetweenSlices": 2,
  "SpoilingState": true,
  "StationName": "AWP66112",
  "TotalReadoutTime": 0.0344855,
  "TxRefAmp": 226.468,
  "dcmmeta_affine": [
    [-1.93060302734375, -0.3661874830722809, -0.09431600570678711, 149.92755126953125],
    [-0.37704363465309143, 1.838297963142395, 0.6001129150390625, -102.19943237304688],
    [0.023186631500720978, -0.5970719456672668, 1.9055099487304688, -36.37694549560547],
    [0.0, 0.0, 0.0, 1.0]
],
  "dcmmeta_reorient_transform": [
    [0.0, -1.0, 0.0, 121.0],
    [1.0, 0.0, 0.0, 0.0],
    [0.0, 0.0, -1.0, 69.0],
    [0.0, 0.0, 0.0, 1.0]
],
  "dcmmeta_shape": [122, 122, 70, 31],
  "dcmmeta_slice_dim": 2,
  "dcmmeta_version": 0.6,
  "global": {
    "const": {
      "AccessionNumber": "qa",
      "AcquisitionMatrix": [122, 0, 0, 122],
      "AngioFlag": "N",
      "BitsAllocated": 16,
      "BitsStored": 12,
      "BodyPartExamined": "BRAIN",
      "Columns": 122,
      "EchoNumbers": 1,
      "EchoTime": 75.0,
      "EchoTrainLength": 61,
      "FlipAngle": 90.0,
      "HighBit": 11,
      "ImageOrientationPatient": [0.98138985451314, 0.19166384893745, 0.01178653762396, -0.1861452964923, 0.93446811063487, 0.30351157935122],
      "ImageType": [
        "ORIGINAL",
        "PRIMARY",
        "DIFFUSION",
        "NONE",
        "ND",
        "NORM"
],
      "ImagedNucleus": "1H",
      "ImagingFrequency": 123.252414,
      "InPlanePhaseEncodingDirection": "COL",
      "MRAcquisitionType": "2D",
      "MagneticFieldStrength": 3.0,
      "Manufacturer": "SIEMENS",
      "ManufacturerModelName": "Prisma",
      "Modality": "MR",
      "NumberOfAverages": 1.0,
      "NumberOfPhaseEncodingSteps": 122,
      "PercentPhaseFieldOfView": 100.0,
      "PercentSampling": 100.0,
      "PerformedProcedureStepStartTime": "090201.702000",
      "PhotometricInterpretation": "MONOCHROME2",
      "PixelBandwidth": 2050.0,
      "PixelRepresentation": 0,
      "PixelSpacing": [1.9672131538391, 1.9672131538391],
      "ProtocolName": "dwi_acq-DTI-30-p2",
      "RepetitionTime": 7700.0,
      "Rows": 122,
      "SAR": 0.10183521189823,
      "SamplesPerPixel": 1,
      "ScanOptions": "FS",
      "ScanningSequence": "EP",
      "SequenceVariant": [
        "SK",
        "SP"
],
      "SeriesDescription": "dwi_acq-DTI-30-p2",
      "SeriesNumber": 8,
      "SeriesTime": "093202.129000",
      "SliceThickness": 2.0,
      "SmallestImagePixelValue": 0,
      "SoftwareVersions": "syngo MR E11",
      "SpacingBetweenSlices": 2.0,
      "SpecificCharacterSet": "ISO_IR 100",
      "StudyID": "84",
      "StudyTime": "090201.640000",
      "TransmitCoilName": "Body",
      "VariableFlipAngleFlag": "N",
      "WindowCenterWidthExplanation": "Algo1",
      "dBdt": 0.0},
    "slices": {
      "AcquisitionTime": ["093156.067500", "093152.227500", "093156.177500", "093152.337500", "093156.287500", "093152.447500", "093156.397500", "093152.557500", "093156.507500", "093152.667500", "093156.615000", "093152.775000", "093156.725000", "093152.885000", "093156.835000", "093152.995000", "093156.945000", "093153.105000", "093157.055000", "093153.215000", "093157.165000", "093153.325000", "093157.275000", "093153.435000", "093157.385000", "093153.545000", "093157.492500", "093153.655000", "093157.602500", "093153.762500", "093157.712500", "093153.872500", "093157.822500", "093153.982500", "093157.932500", "093154.092500", "093158.042500", "093154.202500", "093158.152500", "093154.312500", "093158.262500", "093154.422500", "093158.372500", "093154.532500", "093158.480000", "093154.642500", "093158.590000", "093154.750000", "093158.700000", "093154.860000", "093158.810000", "093154.970000", "093158.920000", "093155.080000", "093159.030000", "093155.190000", "093159.140000", "093155.300000", "093159.250000", "093155.410000", "093159.360000", "093155.520000", "093159.467500", "093155.627500", "093159.577500", "093155.737500", "093159.687500", "093155.847500", "093159.797500", "093155.957500", "093203.767500", "093159.927500", "093203.877500", "093200.037500", "093203.987500", "093200.147500", "093204.097500", "093200.257500", "093204.207500", "093200.367500", "093204.315000", "093200.475000", "093204.425000", "093200.585000", "093204.535000", "093200.695000", "093204.645000", "093200.805000", "093204.755000", "093200.915000", "093204.865000", "093201.025000", "093204.975000", "093201.135000", "093205.085000", "093201.245000", "093205.192500", "093201.355000", "093205.302500", "093201.462500", "093205.412500", "093201.572500", "093205.522500", "093201.682500", "093205.632500", "093201.792500", "093205.742500", "093201.902500", "093205.852500", "093202.012500", "093205.962500", "093202.122500", "093206.072500", "093202.232500", "093206.180000", "093202.342500", "093206.290000", "093202.450000", "093206.400000", "093202.560000", "093206.510000", "093202.670000", "093206.620000", "093202.780000", "093206.730000", "093202.890000", "093206.840000", "093203.000000", "093206.950000", "093203.110000", "093207.060000", "093203.220000", "093207.167500", "093203.327500", "093207.277500", "093203.437500", "093207.387500", "093203.547500", "093207.497500", "093203.657500", "093211.467500", "093207.627500", "093211.577500", "093207.737500", "093211.687500", "093207.847500", "093211.797500", "093207.957500", "093211.907500", "093208.067500", "093212.015000", "093208.175000", "093212.125000", "093208.285000", "093212.235000", "093208.395000", "093212.345000", "093208.505000", "093212.455000", "093208.615000", "093212.565000", "093208.725000", "093212.675000", "093208.835000", "093212.785000", "093208.945000", "093212.892500", "093209.055000", "093213.002500", "093209.162500", "093213.112500", "093209.272500", "093213.222500", "093209.382500", "093213.332500", "093209.492500", "093213.442500", "093209.602500", "093213.552500", "093209.712500", "093213.662500", "093209.822500", "093213.772500", "093209.932500", "093213.880000", "093210.042500", "093213.990000", "093210.150000", "093214.100000", "093210.260000", "093214.210000", "093210.370000", "093214.320000", "093210.480000", "093214.430000", "093210.590000", "093214.540000", "093210.700000", "093214.650000", "093210.810000", "093214.760000", "093210.920000", "093214.867500", "093211.027500", "093214.977500", "093211.137500", "093215.087500", "093211.247500", "093215.197500", "093211.357500", "093219.167500", "093215.327500", "093219.277500", "093215.437500", "093219.387500", "093215.547500", "093219.497500", "093215.657500", "093219.607500", "093215.767500", "093219.715000", "093215.875000", "093219.825000", "093215.985000", "093219.935000", "093216.095000", "093220.045000", "093216.205000", "093220.155000", "093216.315000", "093220.265000", "093216.425000", "093220.375000", "093216.535000", "093220.485000", "093216.645000", "093220.592500", "093216.755000", "093220.702500", "093216.862500", "093220.812500", "093216.972500", "093220.922500", "093217.082500", "093221.032500", "093217.192500", "093221.142500", "093217.302500", "093221.252500", "093217.412500", "093221.362500", "093217.522500", "093221.472500", "093217.632500", "093221.580000", "093217.742500", "093221.690000", "093217.850000", "093221.800000", "093217.960000", "093221.910000", "093218.070000", "093222.020000", "093218.180000", "093222.130000", "093218.290000", "093222.240000", "093218.400000", "093222.350000", "093218.510000", "093222.460000", "093218.620000", "093222.567500", "093218.727500", "093222.677500", "093218.837500", "093222.787500", "093218.947500", "093222.897500", "093219.057500", "093226.867500", "093223.027500", "093226.977500", "093223.137500", "093227.087500", "093223.247500", "093227.197500", "093223.357500", "093227.307500", "093223.467500", "093227.415000", "093223.575000", "093227.525000", "093223.685000", "093227.635000", "093223.795000", "093227.745000", "093223.905000", "093227.855000", "093224.015000", "093227.965000", "093224.125000", "093228.075000", "093224.235000", "093228.185000", "093224.345000", "093228.292500", "093224.455000", "093228.402500", "093224.562500", "093228.512500", "093224.672500", "093228.622500", "093224.782500", "093228.732500", "093224.892500", "093228.842500", "093225.002500", "093228.952500", "093225.112500", "093229.062500", "093225.222500", "093229.172500", "093225.332500", "093229.280000", "093225.442500", "093229.390000", "093225.550000", "093229.500000", "093225.660000", "093229.610000", "093225.770000", "093229.720000", "093225.880000", "093229.830000", "093225.990000", "093229.940000", "093226.100000", "093230.050000", "093226.210000", "093230.160000", "093226.320000", "093230.267500", "093226.427500", "093230.377500", "093226.537500", "093230.487500", "093226.647500", "093230.597500", "093226.757500", "093234.567500", "093230.727500", "093234.677500", "093230.837500", "093234.787500", "093230.947500", "093234.897500", "093231.057500", "093235.007500", "093231.167500", "093235.115000", "093231.275000", "093235.225000", "093231.385000", "093235.335000", "093231.495000", "093235.445000", "093231.605000", "093235.555000", "093231.715000", "093235.665000", "093231.825000", "093235.775000", "093231.935000", "093235.885000", "093232.045000", "093235.992500", "093232.155000", "093236.102500", "093232.262500", "093236.212500", "093232.372500", "093236.322500", "093232.482500", "093236.432500", "093232.592500", "093236.542500", "093232.702500", "093236.652500", "093232.812500", "093236.762500", "093232.922500", "093236.872500", "093233.032500", "093236.980000", "093233.142500", "093237.090000", "093233.250000", "093237.200000", "093233.360000", "093237.310000", "093233.470000", "093237.420000", "093233.580000", "093237.530000", "093233.690000", "093237.640000", "093233.800000", "093237.750000", "093233.910000", "093237.860000", "093234.020000", "093237.967500", "093234.127500", "093238.077500", "093234.237500", "093238.187500", "093234.347500", "093238.297500", "093234.457500", "093242.267500", "093238.427500", "093242.377500", "093238.537500", "093242.487500", "093238.647500", "093242.597500", "093238.757500", "093242.707500", "093238.867500", "093242.815000", "093238.975000", "093242.925000", "093239.085000", "093243.035000", "093239.195000", "093243.145000", "093239.305000", "093243.255000", "093239.415000", "093243.365000", "093239.525000", "093243.475000", "093239.635000", "093243.585000", "093239.745000", "093243.692500", "093239.855000", "093243.802500", "093239.962500", "093243.912500", "093240.072500", "093244.022500", "093240.182500", "093244.132500", "093240.292500", "093244.242500", "093240.402500", "093244.352500", "093240.512500", "093244.462500", "093240.622500", "093244.572500", "093240.732500", "093244.680000", "093240.842500", "093244.790000", "093240.950000", "093244.900000", "093241.060000", "093245.010000", "093241.170000", "093245.120000", "093241.280000", "093245.230000", "093241.390000", "093245.340000", "093241.500000", "093245.450000", "093241.610000", "093245.560000", "093241.720000", "093245.667500", "093241.827500", "093245.777500", "093241.937500", "093245.887500", "093242.047500", "093245.997500", "093242.157500", "093249.967500", "093246.127500", "093250.077500", "093246.237500", "093250.187500", "093246.347500", "093250.297500", "093246.457500", "093250.407500", "093246.567500", "093250.515000", "093246.675000", "093250.625000", "093246.785000", "093250.735000", "093246.895000", "093250.845000", "093247.005000", "093250.955000", "093247.115000", "093251.065000", "093247.225000", "093251.175000", "093247.335000", "093251.285000", "093247.445000", "093251.392500", "093247.555000", "093251.502500", "093247.662500", "093251.612500", "093247.772500", "093251.722500", "093247.882500", "093251.832500", "093247.992500", "093251.942500", "093248.102500", "093252.052500", "093248.212500", "093252.162500", "093248.322500", "093252.272500", "093248.432500", "093252.380000", "093248.542500", "093252.490000", "093248.650000", "093252.600000", "093248.760000", "093252.710000", "093248.870000", "093252.820000", "093248.980000", "093252.930000", "093249.090000", "093253.040000", "093249.200000", "093253.150000", "093249.310000", "093253.260000", "093249.420000", "093253.367500", "093249.527500", "093253.477500", "093249.637500", "093253.587500", "093249.747500", "093253.697500", "093249.857500", "093257.667500", "093253.827500", "093257.777500", "093253.937500", "093257.887500", "093254.047500", "093257.997500", "093254.157500", "093258.107500", "093254.267500", "093258.215000", "093254.375000", "093258.325000", "093254.485000", "093258.435000", "093254.595000", "093258.545000", "093254.705000", "093258.655000", "093254.815000", "093258.765000", "093254.925000", "093258.875000", "093255.035000", "093258.985000", "093255.145000", "093259.092500", "093255.255000", "093259.202500", "093255.362500", "093259.312500", "093255.472500", "093259.422500", "093255.582500", "093259.532500", "093255.692500", "093259.642500", "093255.802500", "093259.752500", "093255.912500", "093259.862500", "093256.022500", "093259.972500", "093256.132500", "093300.080000", "093256.242500", "093300.190000", "093256.350000", "093300.300000", "093256.460000", "093300.410000", "093256.570000", "093300.520000", "093256.680000", "093300.630000", "093256.790000", "093300.740000", "093256.900000", "093300.850000", "093257.010000", "093300.960000", "093257.120000", "093301.067500", "093257.227500", "093301.177500", "093257.337500", "093301.287500", "093257.447500", "093301.397500", "093257.557500", "093305.367500", "093301.527500", "093305.477500", "093301.637500", "093305.587500", "093301.747500", "093305.697500", "093301.857500", "093305.807500", "093301.967500", "093305.915000", "093302.075000", "093306.025000", "093302.185000", "093306.135000", "093302.295000", "093306.245000", "093302.405000", "093306.355000", "093302.515000", "093306.465000", "093302.625000", "093306.575000", "093302.735000", "093306.685000", "093302.845000", "093306.792500", "093302.955000", "093306.902500", "093303.062500", "093307.012500", "093303.172500", "093307.122500", "093303.282500", "093307.232500", "093303.392500", "093307.342500", "093303.502500", "093307.452500", "093303.612500", "093307.562500", "093303.722500", "093307.672500", "093303.832500", "093307.780000", "093303.942500", "093307.890000", "093304.050000", "093308.000000", "093304.160000", "093308.110000", "093304.270000", "093308.220000", "093304.380000", "093308.330000", "093304.490000", "093308.440000", "093304.600000", "093308.550000", "093304.710000", "093308.660000", "093304.820000", "093308.767500", "093304.927500", "093308.877500", "093305.037500", "093308.987500", "093305.147500", "093309.097500", "093305.257500", "093313.067500", "093309.227500", "093313.177500", "093309.337500", "093313.287500", "093309.447500", "093313.397500", "093309.557500", "093313.507500", "093309.667500", "093313.615000", "093309.775000", "093313.725000", "093309.885000", "093313.835000", "093309.995000", "093313.945000", "093310.105000", "093314.055000", "093310.215000", "093314.165000", "093310.325000", "093314.275000", "093310.435000", "093314.385000", "093310.545000", "093314.492500", "093310.655000", "093314.602500", "093310.762500", "093314.712500", "093310.872500", "093314.822500", "093310.982500", "093314.932500", "093311.092500", "093315.042500", "093311.202500", "093315.152500", "093311.312500", "093315.262500", "093311.422500", "093315.372500", "093311.532500", "093315.480000", "093311.642500", "093315.590000", "093311.750000", "093315.700000", "093311.860000", "093315.810000", "093311.970000", "093315.920000", "093312.080000", "093316.030000", "093312.190000", "093316.140000", "093312.300000", "093316.250000", "093312.410000", "093316.360000", "093312.520000", "093316.467500", "093312.627500", "093316.577500", "093312.737500", "093316.687500", "093312.847500", "093316.797500", "093312.957500", "093320.767500", "093316.927500", "093320.877500", "093317.037500", "093320.987500", "093317.147500", "093321.097500", "093317.257500", "093321.207500", "093317.367500", "093321.315000", "093317.475000", "093321.425000", "093317.585000", "093321.535000", "093317.695000", "093321.645000", "093317.805000", "093321.755000", "093317.915000", "093321.865000", "093318.025000", "093321.975000", "093318.135000", "093322.085000", "093318.245000", "093322.192500", "093318.355000", "093322.302500", "093318.462500", "093322.412500", "093318.572500", "093322.522500", "093318.682500", "093322.632500", "093318.792500", "093322.742500", "093318.902500", "093322.852500", "093319.012500", "093322.962500", "093319.122500", "093323.072500", "093319.232500", "093323.180000", "093319.342500", "093323.290000", "093319.450000", "093323.400000", "093319.560000", "093323.510000", "093319.670000", "093323.620000", "093319.780000", "093323.730000", "093319.890000", "093323.840000", "093320.000000", "093323.950000", "093320.110000", "093324.060000", "093320.220000", "093324.167500", "093320.327500", "093324.277500", "093320.437500", "093324.387500", "093320.547500", "093324.497500", "093320.657500", "093328.467500", "093324.627500", "093328.577500", "093324.737500", "093328.687500", "093324.847500", "093328.797500", "093324.957500", "093328.907500", "093325.067500", "093329.015000", "093325.175000", "093329.125000", "093325.285000", "093329.235000", "093325.395000", "093329.345000", "093325.505000", "093329.455000", "093325.615000", "093329.565000", "093325.725000", "093329.675000", "093325.835000", "093329.785000", "093325.945000", "093329.892500", "093326.055000", "093330.002500", "093326.162500", "093330.112500", "093326.272500", "093330.222500", "093326.382500", "093330.332500", "093326.492500", "093330.442500", "093326.602500", "093330.552500", "093326.712500", "093330.662500", "093326.822500", "093330.772500", "093326.932500", "093330.880000", "093327.042500", "093330.990000", "093327.150000", "093331.100000", "093327.260000", "093331.210000", "093327.370000", "093331.320000", "093327.480000", "093331.430000", "093327.590000", "093331.540000", "093327.700000", "093331.650000", "093327.810000", "093331.760000", "093327.920000", "093331.867500", "093328.027500", "093331.977500", "093328.137500", "093332.087500", "093328.247500", "093332.197500", "093328.357500", "093336.167500", "093332.327500", "093336.277500", "093332.437500", "093336.387500", "093332.547500", "093336.497500", "093332.657500", "093336.607500", "093332.767500", "093336.715000", "093332.875000", "093336.825000", "093332.985000", "093336.935000", "093333.095000", "093337.045000", "093333.205000", "093337.155000", "093333.315000", "093337.265000", "093333.425000", "093337.375000", "093333.535000", "093337.485000", "093333.645000", "093337.592500", "093333.755000", "093337.702500", "093333.862500", "093337.812500", "093333.972500", "093337.922500", "093334.082500", "093338.032500", "093334.192500", "093338.142500", "093334.302500", "093338.252500", "093334.412500", "093338.362500", "093334.522500", "093338.472500", "093334.632500", "093338.580000", "093334.742500", "093338.690000", "093334.850000", "093338.800000", "093334.960000", "093338.910000", "093335.070000", "093339.020000", "093335.180000", "093339.130000", "093335.290000", "093339.240000", "093335.400000", "093339.350000", "093335.510000", "093339.460000", "093335.620000", "093339.567500", "093335.727500", "093339.677500", "093335.837500", "093339.787500", "093335.947500", "093339.897500", "093336.057500", "093343.867500", "093340.027500", "093343.977500", "093340.137500", "093344.087500", "093340.247500", "093344.197500", "093340.357500", "093344.307500", "093340.467500", "093344.415000", "093340.575000", "093344.525000", "093340.685000", "093344.635000", "093340.795000", "093344.745000", "093340.905000", "093344.855000", "093341.015000", "093344.965000", "093341.125000", "093345.075000", "093341.235000", "093345.185000", "093341.345000", "093345.292500", "093341.455000", "093345.402500", "093341.562500", "093345.512500", "093341.672500", "093345.622500", "093341.782500", "093345.732500", "093341.892500", "093345.842500", "093342.002500", "093345.952500", "093342.112500", "093346.062500", "093342.222500", "093346.172500", "093342.332500", "093346.280000", "093342.442500", "093346.390000", "093342.550000", "093346.500000", "093342.660000", "093346.610000", "093342.770000", "093346.720000", "093342.880000", "093346.830000", "093342.990000", "093346.940000", "093343.100000", "093347.050000", "093343.210000", "093347.160000", "093343.320000", "093347.267500", "093343.427500", "093347.377500", "093343.537500", "093347.487500", "093343.647500", "093347.597500", "093343.757500", "093351.567500", "093347.727500", "093351.677500", "093347.837500", "093351.787500", "093347.947500", "093351.897500", "093348.057500", "093352.007500", "093348.167500", "093352.115000", "093348.275000", "093352.225000", "093348.385000", "093352.335000", "093348.495000", "093352.445000", "093348.605000", "093352.555000", "093348.715000", "093352.665000", "093348.825000", "093352.775000", "093348.935000", "093352.885000", "093349.045000", "093352.992500", "093349.155000", "093353.102500", "093349.262500", "093353.212500", "093349.372500", "093353.322500", "093349.482500", "093353.432500", "093349.592500", "093353.542500", "093349.702500", "093353.652500", "093349.812500", "093353.762500", "093349.922500", "093353.872500", "093350.032500", "093353.980000", "093350.142500", "093354.090000", "093350.250000", "093354.200000", "093350.360000", "093354.310000", "093350.470000", "093354.420000", "093350.580000", "093354.530000", "093350.690000", "093354.640000", "093350.800000", "093354.750000", "093350.910000", "093354.860000", "093351.020000", "093354.967500", "093351.127500", "093355.077500", "093351.237500", "093355.187500", "093351.347500", "093355.297500", "093351.457500", "093359.267500", "093355.427500", "093359.377500", "093355.537500", "093359.487500", "093355.647500", "093359.597500", "093355.757500", "093359.707500", "093355.867500", "093359.815000", "093355.975000", "093359.925000", "093356.085000", "093400.035000", "093356.195000", "093400.145000", "093356.305000", "093400.255000", "093356.415000", "093400.365000", "093356.525000", "093400.475000", "093356.635000", "093400.585000", "093356.745000", "093400.692500", "093356.855000", "093400.802500", "093356.962500", "093400.912500", "093357.072500", "093401.022500", "093357.182500", "093401.132500", "093357.292500", "093401.242500", "093357.402500", "093401.352500", "093357.512500", "093401.462500", "093357.622500", "093401.572500", "093357.732500", "093401.680000", "093357.842500", "093401.790000", "093357.950000", "093401.900000", "093358.060000", "093402.010000", "093358.170000", "093402.120000", "093358.280000", "093402.230000", "093358.390000", "093402.340000", "093358.500000", "093402.450000", "093358.610000", "093402.560000", "093358.720000", "093402.667500", "093358.827500", "093402.777500", "093358.937500", "093402.887500", "093359.047500", "093402.997500", "093359.157500", "093406.967500", "093403.127500", "093407.077500", "093403.237500", "093407.187500", "093403.347500", "093407.297500", "093403.457500", "093407.407500", "093403.567500", "093407.515000", "093403.675000", "093407.625000", "093403.785000", "093407.735000", "093403.895000", "093407.845000", "093404.005000", "093407.955000", "093404.115000", "093408.065000", "093404.225000", "093408.175000", "093404.335000", "093408.285000", "093404.445000", "093408.392500", "093404.555000", "093408.502500", "093404.662500", "093408.612500", "093404.772500", "093408.722500", "093404.882500", "093408.832500", "093404.992500", "093408.942500", "093405.102500", "093409.052500", "093405.212500", "093409.162500", "093405.322500", "093409.272500", "093405.432500", "093409.380000", "093405.542500", "093409.490000", "093405.650000", "093409.600000", "093405.760000", "093409.710000", "093405.870000", "093409.820000", "093405.980000", "093409.930000", "093406.090000", "093410.040000", "093406.200000", "093410.150000", "093406.310000", "093410.260000", "093406.420000", "093410.367500", "093406.527500", "093410.477500", "093406.637500", "093410.587500", "093406.747500", "093410.697500", "093406.857500", "093414.667500", "093410.827500", "093414.777500", "093410.937500", "093414.887500", "093411.047500", "093414.997500", "093411.157500", "093415.107500", "093411.267500", "093415.215000", "093411.375000", "093415.325000", "093411.485000", "093415.435000", "093411.595000", "093415.545000", "093411.705000", "093415.655000", "093411.815000", "093415.765000", "093411.925000", "093415.875000", "093412.035000", "093415.985000", "093412.145000", "093416.092500", "093412.255000", "093416.202500", "093412.362500", "093416.312500", "093412.472500", "093416.422500", "093412.582500", "093416.532500", "093412.692500", "093416.642500", "093412.802500", "093416.752500", "093412.912500", "093416.862500", "093413.022500", "093416.972500", "093413.132500", "093417.080000", "093413.242500", "093417.190000", "093413.350000", "093417.300000", "093413.460000", "093417.410000", "093413.570000", "093417.520000", "093413.680000", "093417.630000", "093413.790000", "093417.740000", "093413.900000", "093417.850000", "093414.010000", "093417.960000", "093414.120000", "093418.067500", "093414.227500", "093418.177500", "093414.337500", "093418.287500", "093414.447500", "093418.397500", "093414.557500", "093422.367500", "093418.527500", "093422.477500", "093418.637500", "093422.587500", "093418.747500", "093422.697500", "093418.857500", "093422.807500", "093418.967500", "093422.915000", "093419.075000", "093423.025000", "093419.185000", "093423.135000", "093419.295000", "093423.245000", "093419.405000", "093423.355000", "093419.515000", "093423.465000", "093419.625000", "093423.575000", "093419.735000", "093423.685000", "093419.845000", "093423.792500", "093419.955000", "093423.902500", "093420.062500", "093424.012500", "093420.172500", "093424.122500", "093420.282500", "093424.232500", "093420.392500", "093424.342500", "093420.502500", "093424.452500", "093420.612500", "093424.562500", "093420.722500", "093424.672500", "093420.832500", "093424.780000", "093420.942500", "093424.890000", "093421.050000", "093425.000000", "093421.160000", "093425.110000", "093421.270000", "093425.220000", "093421.380000", "093425.330000", "093421.490000", "093425.440000", "093421.600000", "093425.550000", "093421.710000", "093425.660000", "093421.820000", "093425.767500", "093421.927500", "093425.877500", "093422.037500", "093425.987500", "093422.147500", "093426.097500", "093422.257500", "093430.067500", "093426.227500", "093430.177500", "093426.337500", "093430.287500", "093426.447500", "093430.397500", "093426.557500", "093430.507500", "093426.667500", "093430.615000", "093426.775000", "093430.725000", "093426.885000", "093430.835000", "093426.995000", "093430.945000", "093427.105000", "093431.055000", "093427.215000", "093431.165000", "093427.325000", "093431.275000", "093427.435000", "093431.385000", "093427.545000", "093431.492500", "093427.655000", "093431.602500", "093427.762500", "093431.712500", "093427.872500", "093431.822500", "093427.982500", "093431.932500", 