{
  "AcquisitionMatrixPE": 80,
  "AcquisitionNumber": 1,
  "AcquisitionTime": "10:33:29.515000",
  "BandwidthPerPixelPhaseEncode": 25,
  "BaseResolution": 80,
  "BodyPartExamined": "BRAIN",
  "CoilCombinationMethod": "Sum of Squares",
  "ConsistencyInfo": "N4_VE11C_LATEST_20160120",
  "ConversionSoftware": "dcm2niix",
  "ConversionSoftwareVersion": "v1.0.20220720",
  "DerivedVendorReportedEchoSpacing": 0.0005,
  "DeviceSerialNumber": "66112",
  "DwellTime": 2.7e-06,
  "EchoTime": 0.03,
  "EchoTrainLength": 80,
  "EffectiveEchoSpacing": 0.0005,
  "FlipAngle": 10,
  "HeudiconvVersion": "0.13.1",
  "ImageOrientationPatientDICOM": [0.988339, 0.1521, 0.00721166, -0.147003, 0.940727, 0.305651],
  "ImageOrientationText": "Tra>Cor(17.7)>Sag(-2.3)",
  "ImageType": [
    "ORIGINAL",
    "PRIMARY",
    "M",
    "ND",
    "NORM",
    "MOSAIC"
],
  "ImagingFrequency": 123.252,
  "InPlanePhaseEncodingDirectionDICOM": "COL",
  "InstitutionAddress": "Maynard 3,Hanover,NH,US,03755",
  "InstitutionName": "Dartmouth College - PBS",
  "InstitutionalDepartmentName": "Department",
  "MRAcquisitionType": "2D",
  "MagneticFieldStrength": 3,
  "Manufacturer": "Siemens",
  "ManufacturersModelName": "Prisma",
  "MatrixCoilMode": "SENSE",
  "Modality": "MR",
  "NonlinearGradientCorrection": false,
  "PartialFourier": 1,
  "PatientPosition": "HFS",
  "PercentPhaseFOV": 100,
  "PercentSampling": 100,
  "PhaseEncodingDirection": "j-",
  "PhaseEncodingSteps": 80,
  "PhaseResolution": 1,
  "PixelBandwidth": 2315,
  "ProcedureStepDescription": "dbic^QA",
  "ProtocolName": "func-bold_fa-10",
  "PulseSequenceDetails": "%SiemensSeq%\\ep2d_bold",
  "ReceiveCoilActiveElements": "HEA;HEP",
  "ReceiveCoilName": "Head_32",
  "ReconMatrixPE": 80,
  "RepetitionTime": 2,
  "SAR": 0.0100051,
  "ScanOptions": "FS",
  "ScanningSequence": "EP",
  "SequenceName": "*epfid2d1_80",
  "SequenceVariant": "SK",
  "SeriesDescription": "func-bold_fa-10",
  "SeriesNumber": 10,
  "ShimSetting": [4141, -7698, -7522, 246, -45, -103, -79, 64],
  "SliceThickness": 3.5,
  "SliceTiming": [0.99, 0, 1.055, 0.065, 1.1225, 0.1325, 1.1875, 0.1975, 1.2525, 0.2625, 1.32, 0.33, 1.385, 0.395, 1.45, 0.4625, 1.5175, 0.5275, 1.5825, 0.5925, 1.65, 0.66, 1.715, 0.725, 1.78, 0.7925, 1.8475, 0.8575, 1.9125, 0.9225],
  "SoftwareVersions": "syngo MR E11",
  "SpacingBetweenSlices": 3.99,
  "StationName": "AWP66112",
  "TotalReadoutTime": 0.0395,
  "TxRefAmp": 220.359,
  "dcmmeta_affine": [
    [-2.9650166034698486, -0.4410085678100586, -0.15842406451702118, 139.5101776123047],
    [-0.4562993347644806, 2.822181224822998, 1.209557056427002, -110.05227661132812],
    [0.021634990349411964, -0.9169537425041199, 3.7989437580108643, -21.788671493530273],
    [0.0, 0.0, 0.0, 1.0]
],
  "dcmmeta_reorient_transform": [
    [0.0, -1.0, 0.0, 79.0],
    [1.0, 0.0, 0.0, 0.0],
    [0.0, 0.0, 1.0, 0.0],
    [0.0, 0.0, 0.0, 1.0]
],
  "dcmmeta_shape": [80, 80, 30, 200],
  "dcmmeta_slice_dim": 2,
  "dcmmeta_version": 0.6,
  "global": {
    "const": {
      "AccessionNumber": "qa",
      "AcquisitionMatrix": [80, 0, 0, 80],
      "AngioFlag": "N",
      "BitsAllocated": 16,
      "BitsStored": 12,
      "BodyPartExamined": "BRAIN",
      "Columns": 480,
      "EchoNumbers": 1,
      "EchoTime": 30.0,
      "EchoTrainLength": 80,
      "FlipAngle": 10.0,
      "HighBit": 11,
      "ImageOrientationPatient": [0.9883388338294, 0.15209977468329, 0.00721166319511, -0.1470028587523, 0.94072710165385, 0.3056512387225],
      "ImagePositionPatient": [-609.47207804656, -768.59617516623, -281.94575669635],
      "ImageType": [
        "ORIGINAL",
        "PRIMARY",
        "M",
        "ND",
        "NORM",
        "MOSAIC"
],
      "ImagedNucleus": "1H",
      "ImagingFrequency": 123.252366,
      "InPlanePhaseEncodingDirection": "COL",
      "MRAcquisitionType": "2D",
      "MagneticFieldStrength": 3.0,
      "Manufacturer": "SIEMENS",
      "ManufacturerModelName": "Prisma",
      "Modality": "MR",
      "NumberOfAverages": 1.0,
      "NumberOfPhaseEncodingSteps": 80,
      "PercentPhaseFieldOfView": 100.0,
      "PercentSampling": 100.0,
      "PerformedProcedureStepStartTime": "100455.421000",
      "PhotometricInterpretation": "MONOCHROME2",
      "PixelBandwidth": 2315.0,
      "PixelRepresentation": 0,
      "PixelSpacing": [3.0, 3.0],
      "ProtocolName": "func-bold_fa-10",
      "RepetitionTime": 2000.0,
      "Rows": 480,
      "SAR": 0.01000511576475,
      "SamplesPerPixel": 1,
      "ScanOptions": "FS",
      "ScanningSequence": "EP",
      "SequenceName": "*epfid2d1_80",
      "SequenceVariant": "SK",
      "SeriesDescription": "func-bold_fa-10",
      "SeriesNumber": 10,
      "SeriesTime": "103402.880000",
      "SliceLocation": -59.646668476677,
      "SliceThickness": 3.5,
      "SmallestImagePixelValue": 0,
      "SoftwareVersions": "syngo MR E11",
      "SpacingBetweenSlices": 3.9900000039375,
      "SpecificCharacterSet": "ISO_IR 100",
      "StudyID": "28",
      "StudyTime": "100455.369000",
      "TransmitCoilName": "Body",
      "VariableFlipAngleFlag": "N",
      "WindowCenterWidthExplanation": "Algo1",
      "dBdt": 0.0},
    "slices": {}
  },
  "time": {
    "samples": {
      "AcquisitionNumber": [1, 2, 3, 4, 5, 6, 7, 8, 9, 10, 11, 12, 13, 14, 15, 16, 17, 18, 19, 20, 21, 22, 23, 24, 25, 26, 27, 28, 29, 30, 31, 32, 33, 34, 35, 36, 37, 38, 39, 40, 41, 42, 43, 44, 45, 46, 47, 48, 49, 50, 51, 52, 53, 54, 55, 56, 57, 58, 59, 60, 61, 62, 63, 64, 65, 66, 67, 68, 69, 70, 71, 72, 73, 74, 75, 76, 77, 78, 79, 80, 81, 82, 83, 84, 85, 86, 87, 88, 89, 90, 91, 92, 93, 94, 95, 96, 97, 98, 99, 100, 101, 102, 103, 104, 105, 106, 107, 108, 109, 110, 111, 112, 113, 114, 115, 116, 117, 118, 119, 120, 121, 122, 123, 124, 125, 126, 127, 128, 129, 130, 131, 132, 133, 134, 135, 136, 137, 138, 139, 140, 141, 142, 143, 144, 145, 146, 147, 148, 149, 150, 151, 152, 153, 154, 155, 156, 157, 158, 159, 160, 161, 162, 163, 164, 165, 166, 167, 168, 169, 170, 171, 172, 173, 174, 175, 176, 177, 178, 179, 180, 181, 182, 183, 184, 185, 186, 187, 188, 189, 190, 191, 192, 193, 194, 195, 196, 197, 198, 199, 200],
      "AcquisitionTime": ["103329.515000", "103331.515000", "103333.515000", "103335.515000", "103337.515000", "103339.515000", "103341.515000", "103343.515000", "103345.515000", "103347.515000", "103349.515000", "103351.515000", "103353.515000", "103355.515000", "103357.515000", "103359.515000", "103401.515000", "103403.515000", "103405.515000", "103407.515000", "103409.515000", "103411.515000", "103413.515000", "103415.515000", "103417.515000", "103419.515000", "103421.515000", "103423.515000", "103425.515000", "103427.515000", "103429.515000", "103431.515000", "103433.515000", "103435.515000", "103437.515000", "103439.515000", "103441.515000", "103443.515000", "103445.515000", "103447.515000", "103449.515000", "103451.515000", "103453.515000", "103455.515000", "103457.515000", "103459.515000", "103501.515000", "103503.515000", "103505.515000", "103507.515000", "103509.515000", "103511.515000", "103513.515000", "103515.515000", "103517.515000", "103519.515000", "103521.515000", "103523.515000", "103525.515000", "103527.515000", "103529.515000", "103531.515000", "103533.515000", "103535.515000", "103537.515000", "103539.515000", "103541.515000", "103543.515000", "103545.515000", "103547.515000", "103549.515000", "103551.515000", "103553.515000", "103555.515000", "103557.515000", "103559.515000", "103601.515000", "103603.515000", "103605.515000", "103607.515000", "103609.515000", "103611.515000", "103613.515000", "103615.515000", "103617.515000", "103619.515000", "103621.515000", "103623.515000", "103625.515000", "103627.515000", "103629.515000", "103631.515000", "103633.515000", "103635.515000", "103637.515000", "103639.515000", "103641.515000", "103643.515000", "103645.515000", "103647.515000", "103649.515000", "103651.515000", "103653.515000", "103655.515000", "103657.515000", "103659.515000", "103701.515000", "103703.515000", "103705.515000", "103707.515000", "103709.515000", "103711.515000", "103713.515000", "103715.515000", "103717.515000", "103719.515000", "103721.515000", "103723.515000", "103725.515000", "103727.515000", "103729.515000", "103731.515000", "103733.515000", "103735.515000", "103737.515000", "103739.515000", "103741.515000", "103743.515000", "103745.515000", "103747.515000", "103749.515000", "103751.515000", "103753.515000", "103755.515000", "103757.515000", "103759.515000", "103801.515000", "103803.515000", "103805.515000", "103807.515000", "103809.515000", "103811.515000", "103813.515000", "103815.515000", "103817.515000", "103819.515000", "103821.515000", "103823.515000", "103825.515000", "103827.515000", "103829.515000", "103831.515000", "103833.515000", "103835.515000", "103837.515000", "103839.515000", "103841.515000", "103843.515000", "103845.515000", "103847.515000", "103849.515000", "103851.515000", "103853.515000", "103855.515000", "103857.515000", "103859.515000", "103901.515000", "103903.515000", "103905.515000", "103907.515000", "103909.515000", "103911.515000", "103913.515000", "103915.515000", "103917.515000", "103919.515000", "103921.515000", "103923.515000", "103925.515000", "103927.515000", "103929.515000", "103931.515000", "103933.515000", "103935.515000", "103937.515000", "103939.515000", "103941.515000", "103943.515000", "103945.515000", "103947.515000", "103949.515000", "103951.515000", "103953.515000", "103955.515000", "103957.515000", "103959.515000", "104001.515000", "104003.515000", "104005.515000", "104007.515000"],
      "ContentTime": ["103402.883000", "103402.886000", "103402.889000", "103402.891000", "103402.894000", "103402.896000", "103402.899000", "103402.901000", "103402.903000", "103402.906000", "103402.908000", "103402.911000", "103402.913000", "103402.916000", "103402.918000", "103402.921000", "103442.878000", "103442.881000", "103442.884000", "103442.886000", "103442.888000", "103442.891000", "103442.893000", "103442.896000", "103442.898000", "103442.901000", "103442.915000", "103442.917000", "103442.920000", "103442.922000", "103442.925000", "103442.927000", "103442.929000", "103442.932000", "103442.934000", "103442.937000", "103522.879000", "103522.882000", "103522.885000", "103522.887000", "103522.889000", "103522.892000", "103522.894000", "103522.897000", "103522.899000", "103522.902000", "103522.904000", "103522.906000", "103522.909000", "103522.911000", "103522.914000", "103522.916000", "103522.919000", "103522.921000", "103522.924000", "103522.926000", "103602.879000", "103602.882000", "103602.885000", "103602.887000", "103602.889000", "103602.892000", "103602.894000", "103602.897000", "103602.899000", "103602.902000", "103602.904000", "103602.907000", "103602.909000", "103602.912000", "103602.914000", "103602.917000", "103602.919000", "103602.921000", "103602.924000", "103602.926000", "103642.878000", "103642.881000", "103642.884000", "103642.886000", "103642.889000", "103642.891000", "103642.893000", "103642.896000", "103642.898000", "103642.901000", "103642.903000", "103642.906000", "103642.908000", "103642.910000", "103642.913000", "103642.915000", "103642.918000", "103642.920000", "103642.923000", "103642.925000", "103722.878000", "103722.881000", "103722.884000", "103722.886000", "103722.888000", "103722.891000", "103722.893000", "103722.896000", "103722.898000", "103722.901000", "103722.903000", "103722.906000", "103722.908000", "103722.910000", "103722.913000", "103722.925000", "103722.927000", "103722.930000", "103722.932000", "103722.935000", "103802.879000", "103802.882000", "103802.885000", "103802.887000", "103802.890000", "103802.892000", "103802.894000", "103802.897000", "103802.910000", "103802.913000", "103802.915000", "103802.917000", "103802.920000", "103802.922000", "103802.925000", "103802.927000", "103802.930000", "103802.932000", "103802.934000", "103802.937000", "103842.878000", "103842.881000", "103842.884000", "103842.886000", "103842.889000", "103842.891000", "103842.893000", "103842.896000", "103842.898000", "103842.901000", "103842.903000", "103842.906000", "103842.908000", "103842.911000", "103842.913000", "103842.915000", "103842.918000", "103842.921000", "103842.923000", "103842.925000", "103922.878000", "103922.881000", "103922.884000", "103922.886000", "103922.889000", "103922.891000", "103922.893000", "103922.896000", "103922.898000", "103922.901000", "103922.903000", "103922.906000", "103922.908000", "103922.911000", "103922.913000", "103922.915000", "103922.918000", "103922.920000", "103922.923000", "103922.925000", "104002.879000", "104002.882000", "104002.885000", "104002.887000", "104002.890000", "104002.892000", "104002.894000", "104002.897000", "104002.899000", "104002.902000", "104002.904000", "104002.907000", "104002.909000", "104002.912000", "104002.914000", "104002.916000", "104002.919000", "104002.921000", "104002.924000", "104002.926000", "104009.312000", "104009.315000", "104009.318000", "104009.320000"],
      "InstanceCreationTime": ["103402.883000", "103402.886000", "103402.889000", "103402.891000", "103402.894000", "103402.896000", "103402.899000", "103402.901000", "103402.903000", "103402.906000", "103402.908000", "103402.911000", "103402.913000", "103402.916000", "103402.918000", "103402.921000", "103442.878000", "103442.881000", "103442.884000", "103442.886000", "103442.888000", "103442.891000", "103442.893000", "103442.896000", "103442.898000", "103442.901000", "103442.915000", "103442.917000", "103442.920000", "103442.922000", "103442.925000", "103442.927000", "103442.929000", "103442.932000", "103442.934000", "103442.937000", "103522.879000", "103522.882000", "103522.885000", "103522.887000", "103522.889000", "103522.892000", "103522.894000", "103522.897000", "103522.899000", "103522.902000", "103522.904000", "103522.906000", "103522.909000", "103522.911000", "103522.914000", "103522.916000", "103522.919000", "103522.921000", "103522.924000", "103522.926000", "103602.879000", "103602.882000", "103602.885000", "103602.887000", "103602.889000", "103602.892000", "103602.894000", "103602.897000", "103602.899000", "103602.902000", "103602.904000", "103602.907000", "103602.909000", "103602.912000", "103602.914000", "103602.917000", "103602.919000", "103602.921000", "103602.924000", "103602.926000", "103642.878000", "103642.881000", "103642.884000", "103642.886000", "103642.889000", "103642.891000", "103642.893000", "103642.896000", "103642.898000", "103642.901000", "103642.903000", "103642.906000", "103642.908000", "103642.910000", "103642.913000", "103642.915000", "103642.918000", "103642.920000", "103642.923000", "103642.925000", "103722.878000", "103722.881000", "103722.884000", "103722.886000", "103722.888000", "103722.891000", "103722.893000", "103722.896000", "103722.898000", "103722.901000", "103722.903000", "103722.906000", "103722.908000", "103722.910000", "103722.913000", "103722.925000", "103722.927000", "103722.930000", "103722.932000", "103722.935000", "103802.879000", "103802.882000", "103802.885000", "103802.887000", "103802.890000", "103802.892000", "103802.894000", "103802.897000", "103802.910000", "103802.913000", "103802.915000", "103802.917000", "103802.920000", "103802.922000", "103802.925000", "103802.927000", "103802.930000", "103802.932000", "103802.934000", "103802.937000", "103842.878000", "103842.881000", "103842.884000", "103842.886000", "103842.889000", "103842.891000", "103842.893000", "103842.896000", "103842.898000", "103842.901000", "103842.903000", "103842.906000", "103842.908000", "103842.911000", "103842.913000", "103842.915000", "103842.918000", "103842.921000", "103842.923000", "103842.925000", "103922.878000", "103922.881000", "103922.884000", "103922.886000", "103922.889000", "103922.891000", "103922.893000", "103922.896000", "103922.898000", "103922.901000", "103922.903000", "103922.906000", "103922.908000", "103922.911000", "103922.913000", "103922.915000", "103922.918000", "103922.920000", "103922.923000", "103922.925000", "104002.879000", "104002.882000", "104002.885000", "104002.887000", "104002.890000", "104002.892000", "104002.894000", "104002.897000", "104002.899000", "104002.902000", "104002.904000", "104002.907000", "104002.909000", "104002.912000", "104002.914000", "104002.916000", "104002.919000", "104002.921000", "104002.924000", "104002.926000", "104009.312000", "104009.315000", "104009.318000", "104009.320000"],
      "InstanceNumber": [1, 2, 3, 4, 5, 6, 7, 8, 9, 10, 11, 12, 13, 14, 15, 16, 17, 18, 19, 20, 21, 22, 23, 24, 25, 26, 27, 28, 29, 30, 31, 32, 33, 34, 35, 36, 37, 38, 39, 40, 41, 42, 43, 44, 45, 46, 47, 48, 49, 50, 51, 52, 53, 54, 55, 56, 57, 58, 59, 60, 61, 62, 63, 64, 65, 66, 67, 68, 69, 70, 71, 72, 73, 74, 75, 76, 77, 78, 79, 80, 81, 82, 83, 84, 85, 86, 87, 88, 89, 90, 91, 92, 93, 94, 95, 96, 97, 98, 99, 100, 101, 102, 103, 104, 105, 106, 107, 108, 109, 110, 111, 112, 113, 114, 115, 116, 117, 118, 119, 120, 121, 122, 123, 124, 125, 126, 127, 128, 129, 130, 131, 132, 133, 134, 135, 136, 137, 138, 139, 140, 141, 142, 143, 144, 145, 146, 147, 148, 149, 150, 151, 152, 153, 154, 155, 156, 157, 158, 159, 160, 161, 162, 163, 164, 165, 166, 167, 168, 169, 170, 171, 172, 173, 174, 175, 176, 177, 178, 179, 180, 181, 182, 183, 184, 185, 186, 187, 188, 189, 190, 191, 192, 193, 194, 195, 196, 197, 198, 199, 200],
      "LargestImagePixelValue": [412, 413, 411, 411, 412, 411, 413, 414, 412, 414, 412, 412, 411, 413, 414, 413, 412, 411, 412, 412, 413, 412, 413, 413, 411, 412, 412, 412, 411, 410, 412, 412, 412, 413, 410, 412, 411, 412, 411, 410, 410, 411, 409, 412, 411, 414, 412, 411, 412, 413, 411, 412, 416, 412, 410, 412, 410, 413, 411, 412, 411, 411, 411, 413, 412, 411, 410, 413, 412, 412, 412, 409, 411, 411, 412, 413, 412, 412, 411, 412, 411, 412, 411, 411, 410, 412, 411, 412, 413, 415, 409, 411, 412, 412, 412, 412, 412, 412, 412, 412, 412, 411, 412, 411, 411, 412, 411, 411, 412, 412, 411, 411, 413, 412, 410, 411, 412, 412, 411, 412, 412, 415, 414, 412, 412, 411, 413, 412, 414, 414, 411, 413, 411, 413, 412, 410, 411, 410, 413, 412, 413, 409, 412, 413, 412, 411, 411, 413, 412, 412, 411, 410, 412, 412, 412, 412, 412, 412, 414, 411, 410, 411, 410, 412, 410, 410, 410, 411, 410, 410, 411, 411, 411, 413, 415, 410, 411, 415, 411, 412, 412, 411, 411, 412, 411, 413, 414, 414, 415, 413, 415, 414, 413, 414, 414, 414, 411, 411, 410, 410],
      "WindowCenter": [300.0, 299.0, 299.0, 300.0, 300.0, 300.0, 299.0, 300.0, 300.0, 300.0, 300.0, 300.0, 300.0, 300.0, 300.0, 299.0, 299.0, 300.0, 299.0, 299.0, 299.0, 299.0, 300.0, 299.0, 299.0, 300.0, 299.0, 299.0, 299.0, 299.0, 299.0, 299.0, 299.0, 299.0, 299.0, 299.0, 299.0, 299.0, 299.0, 299.0, 299.0, 299.0, 299.0, 299.0, 299.0, 299.0, 299.0, 299.0, 299.0, 299.0, 299.0, 299.0, 301.0, 299.0, 299.0, 299.0, 299.0, 299.0, 299.0, 299.0, 300.0, 299.0, 299.0, 299.0, 299.0, 299.0, 299.0, 299.0, 299.0, 299.0, 299.0, 299.0, 299.0, 299.0, 299.0, 299.0, 299.0, 299.0, 299.0, 299.0, 299.0, 299.0, 299.0, 299.0, 299.0, 299.0, 299.0, 299.0, 299.0, 300.0, 298.0, 299.0, 299.0, 299.0, 299.0, 299.0, 299.0, 299.0, 299.0, 299.0, 299.0, 299.0, 299.0, 299.0, 299.0, 299.0, 299.0, 299.0, 299.0, 299.0, 299.0, 299.0, 299.0, 299.0, 299.0, 299.0, 299.0, 299.0, 299.0, 299.0, 300.0, 301.0, 300.0, 299.0, 299.0, 299.0, 299.0, 299.0, 299.0, 299.0, 299.0, 299.0, 299.0, 299.0, 299.0, 299.0, 299.0, 299.0, 299.0, 299.0, 299.0, 298.0, 299.0, 299.0, 299.0, 299.0, 299.0, 299.0, 299.0, 299.0, 299.0, 299.0, 299.0, 299.0, 299.0, 299.0, 299.0, 299.0, 299.0, 299.0, 299.0, 299.0, 299.0, 299.0, 299.0, 299.0, 299.0, 299.0, 299.0, 299.0, 299.0, 299.0, 299.0, 299.0, 299.0, 299.0, 299.0, 301.0, 299.0, 299.0, 299.0, 299.0, 299.0, 299.0, 300.0, 301.0, 300.0, 300.0, 301.0, 301.0, 301.0, 301.0, 301.0, 301.0, 301.0, 300.0, 299.0, 299.0, 299.0, 299.0],
      "WindowWidth": [649.0, 649.0, 648.0, 650.0, 650.0, 649.0, 649.0, 649.0, 649.0, 650.0, 649.0, 649.0, 649.0, 649.0, 650.0, 649.0, 649.0, 650.0, 648.0, 649.0, 648.0, 649.0, 649.0, 648.0, 649.0, 649.0, 649.0, 649.0, 648.0, 648.0, 649.0, 649.0, 648.0, 648.0, 648.0, 648.0, 648.0, 648.0, 648.0, 649.0, 648.0, 648.0, 648.0, 648.0, 648.0, 648.0, 648.0, 648.0, 648.0, 648.0, 648.0, 648.0, 651.0, 648.0, 648.0, 649.0, 649.0, 648.0, 648.0, 648.0, 649.0, 648.0, 649.0, 648.0, 648.0, 649.0, 648.0, 648.0, 649.0, 648.0, 648.0, 648.0, 648.0, 648.0, 648.0, 648.0, 648.0, 648.0, 648.0, 648.0, 648.0, 648.0, 648.0, 648.0, 648.0, 648.0, 648.0, 648.0, 649.0, 650.0, 647.0, 648.0, 648.0, 648.0, 648.0, 648.0, 649.0, 648.0, 648.0, 648.0, 648.0, 648.0, 648.0, 648.0, 648.0, 648.0, 648.0, 648.0, 648.0, 648.0, 648.0, 648.0, 648.0, 648.0, 648.0, 648.0, 648.0, 648.0, 648.0, 648.0, 649.0, 652.0, 650.0, 648.0, 648.0, 648.0, 648.0, 648.0, 648.0, 648.0, 648.0, 648.0, 648.0, 648.0, 648.0, 648.0, 648.0, 648.0, 648.0, 648.0, 648.0, 647.0, 648.0, 648.0, 648.0, 648.0, 648.0, 648.0, 648.0, 648.0, 648.0, 648.0, 648.0, 648.0, 648.0, 648.0, 648.0, 648.0, 648.0, 648.0, 648.0, 648.0, 648.0, 648.0, 648.0, 648.0, 648.0, 648.0, 648.0, 648.0, 648.0, 648.0, 648.0, 648.0, 648.0, 648.0, 648.0, 652.0, 648.0, 648.0, 648.0, 648.0, 648.0, 648.0, 650.0, 651.0, 650.0, 651.0, 651.0, 651.0, 651.0, 652.0, 651.0, 651.0, 651.0, 650.0, 648.0, 648.0, 648.0, 648.0]
    },
    "slices": {}
  }
}