{
  "AcquisitionMatrixPE": 80,
  "AcquisitionNumber": 1,
  "AcquisitionTime": "10:19:1.417500",
  "BandwidthPerPixelPhaseEncode": 25,
  "BaseResolution": 80,
  "BodyPartExamined": "BRAIN",
  "CoilCombinationMethod": "Sum of Squares",
  "ConsistencyInfo": "N4_VE11E_LATEST_20181129",
  "ConversionSoftware": "dcm2niix",
  "ConversionSoftwareVersion": "v1.0.20220720",
  "DerivedVendorReportedEchoSpacing": 0.0005,
  "DeviceSerialNumber": "66112",
  "DwellTime": 2.7e-06,
  "EchoTime": 0.03,
  "EchoTrainLength": 80,
  "EffectiveEchoSpacing": 0.0005,
  "FlipAngle": 77,
  "HeudiconvVersion": "0.13.1",
  "ImageOrientationPatientDICOM": [0.999398, -0.0340788, 0.00653361, 0.0305343, 0.95315, 0.300952],
  "ImageOrientationText": "Tra>Cor(17.5)>Sag(0.9)",
  "ImageType": [
    "ORIGINAL",
    "PRIMARY",
    "M",
    "ND",
    "NORM",
    "MOSAIC"
],
  "ImagingFrequency": 123.261,
  "InPlanePhaseEncodingDirectionDICOM": "COL",
  "InstitutionAddress": "Maynard 3,Hanover,NH,US,03755",
  "InstitutionName": "Dartmouth College - PBS",
  "InstitutionalDepartmentName": "Department",
  "MRAcquisitionType": "2D",
  "MagneticFieldStrength": 3,
  "Manufacturer": "Siemens",
  "ManufacturersModelName": "Prisma",
  "MatrixCoilMode": "SENSE",
  "Modality": "MR",
  "NonlinearGradientCorrection": false,
  "PartialFourier": 1,
  "PatientPosition": "HFS",
  "PercentPhaseFOV": 100,
  "PercentSampling": 100,
  "PhaseEncodingDirection": "j-",
  "PhaseEncodingSteps": 80,
  "PhaseResolution": 1,
  "PixelBandwidth": 2315,
  "ProcedureStepDescription": "dbic^QA",
  "ProtocolName": "func-bold_fa-77",
  "PulseSequenceDetails": "%SiemensSeq%\\ep2d_bold",
  "ReceiveCoilActiveElements": "HEA;HEP",
  "ReceiveCoilName": "Head_32",
  "ReconMatrixPE": 80,
  "RepetitionTime": 2,
  "SAR": 0.0430141,
  "ScanOptions": "FS",
  "ScanningSequence": "EP",
  "SequenceName": "*epfid2d1_80",
  "SequenceVariant": "SK",
  "SeriesDescription": "func-bold_fa-77",
  "SeriesNumber": 7,
  "ShimSetting": [4244, -7739, -7479, 16, -181, -56, -19, 74],
  "SliceThickness": 3.5,
  "SliceTiming": [0.99, 0, 1.0575, 0.0675, 1.1225, 0.1325, 1.1875, 0.1975, 1.255, 0.265, 1.32, 0.33, 1.385, 0.3975, 1.4525, 0.4625, 1.5175, 0.5275, 1.585, 0.595, 1.65, 0.66, 1.715, 0.7275, 1.7825, 0.7925, 1.8475, 0.8575, 1.915, 0.925],
  "SoftwareVersions": "syngo MR E11",
  "SpacingBetweenSlices": 3.99,
  "StationName": "AWP66112",
  "TotalReadoutTime": 0.0395,
  "TxRefAmp": 228.809,
  "dcmmeta_affine": [
    [-2.9981932640075684, 0.09160295873880386, 0.0657695010304451, 117.2326431274414],
    [0.10223642736673355, 2.8594512939453125, 1.1992778778076172, -132.09365844726562],
    [0.019600823521614075, -0.9028549194335938, 3.804931879043579, -13.190417289733887],
    [0.0, 0.0, 0.0, 1.0]
],
  "dcmmeta_reorient_transform": [
    [0.0, -1.0, 0.0, 79.0],
    [1.0, 0.0, 0.0, 0.0],
    [0.0, 0.0, 1.0, 0.0],
    [0.0, 0.0, 0.0, 1.0]
],
  "dcmmeta_shape": [80, 80, 30, 200],
  "dcmmeta_slice_dim": 2,
  "dcmmeta_version": 0.6,
  "global": {
    "const": {
      "AccessionNumber": "qa",
      "AcquisitionMatrix": [80, 0, 0, 80],
      "AngioFlag": "N",
      "BitsAllocated": 16,
      "BitsStored": 12,
      "BodyPartExamined": "BRAIN",
      "Columns": 480,
      "EchoNumbers": 1,
      "EchoTime": 30.0,
      "EchoTrainLength": 80,
      "FlipAngle": 77.0,
      "HighBit": 11,
      "ImageOrientationPatient": [0.99939779207097, -0.0340788082906, 0.00653360766891, 0.03053431934028, 0.95315044375343, 0.3009516355082],
      "ImagePositionPatient": [-742.42854457542, -645.24597038601, -269.00710045983],
      "ImageType": [
        "ORIGINAL",
        "PRIMARY",
        "M",
        "ND",
        "NORM",
        "MOSAIC"
],
      "ImagedNucleus": "1H",
      "ImagingFrequency": 123.261255,
      "InPlanePhaseEncodingDirection": "COL",
      "MRAcquisitionType": "2D",
      "MagneticFieldStrength": 3.0,
      "Manufacturer": "SIEMENS",
      "ManufacturerModelName": "Prisma",
      "Modality": "MR",
      "NumberOfAverages": 1.0,
      "NumberOfPhaseEncodingSteps": 80,
      "PercentPhaseFieldOfView": 100.0,
      "PercentSampling": 100.0,
      "PerformedProcedureStepStartTime": "095618.017000",
      "PhotometricInterpretation": "MONOCHROME2",
      "PixelBandwidth": 2315.0,
      "PixelRepresentation": 0,
      "PixelSpacing": [3.0, 3.0],
      "ProtocolName": "func-bold_fa-77",
      "RepetitionTime": 2000.0,
      "Rows": 480,
      "SAR": 0.04301407472556,
      "SamplesPerPixel": 1,
      "ScanOptions": "FS",
      "ScanningSequence": "EP",
      "SequenceName": "*epfid2d1_80",
      "SequenceVariant": "SK",
      "SeriesDescription": "func-bold_fa-77",
      "SeriesNumber": 7,
      "SeriesTime": "101948.613000",
      "SliceLocation": -50.349704166095,
      "SliceThickness": 3.5,
      "SmallestImagePixelValue": 0,
      "SoftwareVersions": "syngo MR E11",
      "SpacingBetweenSlices": 3.9899999811843,
      "SpecificCharacterSet": "ISO_IR 100",
      "StudyID": "43",
      "StudyTime": "095617.970000",
      "TransmitCoilName": "Body",
      "VariableFlipAngleFlag": "N",
      "WindowCenterWidthExplanation": "Algo1"
    },
    "slices": {}
  },
  "time": {
    "samples": {
      "AcquisitionNumber": [1, 2, 3, 4, 5, 6, 7, 8, 9, 10, 11, 12, 13, 14, 15, 16, 17, 18, 19, 20, 21, 22, 23, 24, 25, 26, 27, 28, 29, 30, 31, 32, 33, 34, 35, 36, 37, 38, 39, 40, 41, 42, 43, 44, 45, 46, 47, 48, 49, 50, 51, 52, 53, 54, 55, 56, 57, 58, 59, 60, 61, 62, 63, 64, 65, 66, 67, 68, 69, 70, 71, 72, 73, 74, 75, 76, 77, 78, 79, 80, 81, 82, 83, 84, 85, 86, 87, 88, 89, 90, 91, 92, 93, 94, 95, 96, 97, 98, 99, 100, 101, 102, 103, 104, 105, 106, 107, 108, 109, 110, 111, 112, 113, 114, 115, 116, 117, 118, 119, 120, 121, 122, 123, 124, 125, 126, 127, 128, 129, 130, 131, 132, 133, 134, 135, 136, 137, 138, 139, 140, 141, 142, 143, 144, 145, 146, 147, 148, 149, 150, 151, 152, 153, 154, 155, 156, 157, 158, 159, 160, 161, 162, 163, 164, 165, 166, 167, 168, 169, 170, 171, 172, 173, 174, 175, 176, 177, 178, 179, 180, 181, 182, 183, 184, 185, 186, 187, 188, 189, 190, 191, 192, 193, 194, 195, 196, 197, 198, 199, 200],
      "AcquisitionTime": ["101901.417500", "101903.417500", "101905.417500", "101907.417500", "101909.417500", "101911.417500", "101913.417500", "101915.417500", "101917.417500", "101919.417500", "101921.417500", "101923.417500", "101925.417500", "101927.417500", "101929.417500", "101931.417500", "101933.417500", "101935.417500", "101937.417500", "101939.417500", "101941.417500", "101943.417500", "101945.417500", "101947.417500", "101949.417500", "101951.417500", "101953.417500", "101955.417500", "101957.417500", "101959.417500", "102001.417500", "102003.417500", "102005.417500", "102007.417500", "102009.417500", "102011.417500", "102013.417500", "102015.417500", "102017.417500", "102019.417500", "102021.417500", "102023.417500", "102025.417500", "102027.417500", "102029.417500", "102031.417500", "102033.417500", "102035.417500", "102037.417500", "102039.417500", "102041.417500", "102043.417500", "102045.417500", "102047.417500", "102049.417500", "102051.417500", "102053.417500", "102055.417500", "102057.417500", "102059.417500", "102101.417500", "102103.417500", "102105.417500", "102107.417500", "102109.417500", "102111.417500", "102113.417500", "102115.417500", "102117.417500", "102119.417500", "102121.417500", "102123.417500", "102125.417500", "102127.417500", "102129.417500", "102131.417500", "102133.417500", "102135.417500", "102137.417500", "102139.417500", "102141.417500", "102143.417500", "102145.417500", "102147.417500", "102149.417500", "102151.417500", "102153.417500", "102155.417500", "102157.417500", "102159.417500", "102201.417500", "102203.417500", "102205.417500", "102207.417500", "102209.417500", "102211.417500", "102213.417500", "102215.417500", "102217.417500", "102219.417500", "102221.417500", "102223.417500", "102225.417500", "102227.417500", "102229.417500", "102231.417500", "102233.417500", "102235.417500", "102237.417500", "102239.417500", "102241.417500", "102243.417500", "102245.417500", "102247.417500", "102249.417500", "102251.417500", "102253.417500", "102255.417500", "102257.417500", "102259.417500", "102301.417500", "102303.417500", "102305.417500", "102307.417500", "102309.417500", "102311.417500", "102313.417500", "102315.417500", "102317.417500", "102319.417500", "102321.417500", "102323.417500", "102325.417500", "102327.417500", "102329.417500", "102331.417500", "102333.417500", "102335.417500", "102337.417500", "102339.417500", "102341.417500", "102343.417500", "102345.417500", "102347.417500", "102349.417500", "102351.417500", "102353.417500", "102355.417500", "102357.417500", "102359.417500", "102401.417500", "102403.417500", "102405.417500", "102407.417500", "102409.417500", "102411.417500", "102413.417500", "102415.417500", "102417.417500", "102419.417500", "102421.417500", "102423.417500", "102425.417500", "102427.417500", "102429.417500", "102431.417500", "102433.417500", "102435.417500", "102437.417500", "102439.417500", "102441.417500", "102443.417500", "102445.417500", "102447.417500", "102449.417500", "102451.417500", "102453.417500", "102455.417500", "102457.417500", "102459.417500", "102501.417500", "102503.417500", "102505.417500", "102507.417500", "102509.417500", "102511.417500", "102513.417500", "102515.417500", "102517.417500", "102519.417500", "102521.417500", "102523.417500", "102525.417500", "102527.417500", "102529.417500", "102531.417500", "102533.417500", "102535.417500", "102537.417500", "102539.417500"],
      "ContentTime": ["101948.616000", "101948.619000", "101948.621000", "101948.624000", "101948.626000", "101948.628000", "101948.631000", "101948.633000", "101948.635000", "101948.638000", "101948.640000", "101948.642000", "101948.645000", "101948.647000", "101948.649000", "101948.652000", "101948.654000", "101948.656000", "101948.658000", "101948.661000", "101948.663000", "101948.665000", "101948.668000", "102028.610000", "102028.613000", "102028.615000", "102028.617000", "102028.620000", "102028.622000", "102028.624000", "102028.627000", "102028.629000", "102028.631000", "102028.634000", "102028.636000", "102028.638000", "102028.641000", "102028.643000", "102028.645000", "102028.648000", "102028.650000", "102028.652000", "102028.654000", "102108.611000", "102108.614000", "102108.616000", "102108.619000", "102108.621000", "102108.623000", "102108.625000", "102108.628000", "102108.630000", "102108.632000", "102108.635000", "102108.637000", "102108.639000", "102108.642000", "102108.644000", "102108.646000", "102108.648000", "102108.651000", "102108.653000", "102108.655000", "102148.611000", "102148.614000", "102148.616000", "102148.619000", "102148.621000", "102148.623000", "102148.625000", "102148.628000", "102148.630000", "102148.632000", "102148.635000", "102148.637000", "102148.639000", "102148.641000", "102148.644000", "102148.646000", "102148.648000", "102148.651000", "102148.653000", "102148.655000", "102228.610000", "102228.613000", "102228.615000", "102228.618000", "102228.620000", "102228.622000", "102228.625000", "102228.627000", "102228.629000", "102228.632000", "102228.634000", "102228.636000", "102228.639000", "102228.641000", "102228.643000", "102228.646000", "102228.648000", "102228.650000", "102228.653000", "102228.655000", "102308.610000", "102308.613000", "102308.615000", "102308.618000", "102308.620000", "102308.622000", "102308.624000", "102308.627000", "102308.629000", "102308.631000", "102308.634000", "102308.636000", "102308.638000", "102308.641000", "102308.643000", "102308.645000", "102308.648000", "102308.650000", "102308.652000", "102308.655000", "102348.611000", "102348.614000", "102348.616000", "102348.618000", "102348.621000", "102348.623000", "102348.625000", "102348.628000", "102348.630000", "102348.632000", "102348.635000", "102348.637000", "102348.639000", "102348.642000", "102348.644000", "102348.646000", "102348.649000", "102348.651000", "102348.653000", "102348.656000", "102428.612000", "102428.615000", "102428.617000", "102428.619000", "102428.622000", "102428.624000", "102428.626000", "102428.629000", "102428.631000", "102428.634000", "102428.636000", "102428.638000", "102428.641000", "102428.643000", "102428.645000", "102428.647000", "102428.650000", "102428.652000", "102428.654000", "102428.657000", "102508.610000", "102508.613000", "102508.615000", "102508.618000", "102508.620000", "102508.622000", "102508.625000", "102508.627000", "102508.629000", "102508.632000", "102508.634000", "102508.636000", "102508.639000", "102508.641000", "102508.643000", "102508.646000", "102508.648000", "102508.650000", "102508.653000", "102508.655000", "102541.572000", "102541.575000", "102541.577000", "102541.579000", "102541.582000", "102541.585000", "102541.587000", "102541.590000", "102541.592000", "102541.594000", "102541.597000", "102541.599000", "102541.602000", "102541.604000", "102541.606000", "102541.609000", "102541.611000"],
      "InstanceCreationTime": ["101948.616000", "101948.619000", "101948.621000", "101948.624000", "101948.626000", "101948.628000", "101948.631000", "101948.633000", "101948.635000", "101948.638000", "101948.640000", "101948.642000", "101948.645000", "101948.647000", "101948.649000", "101948.652000", "101948.654000", "101948.656000", "101948.658000", "101948.661000", "101948.663000", "101948.665000", "101948.668000", "102028.610000", "102028.613000", "102028.615000", "102028.617000", "102028.620000", "102028.622000", "102028.624000", "102028.627000", "102028.629000", "102028.631000", "102028.634000", "102028.636000", "102028.638000", "102028.641000", "102028.643000", "102028.645000", "102028.648000", "102028.650000", "102028.652000", "102028.654000", "102108.611000", "102108.614000", "102108.616000", "102108.619000", "102108.621000", "102108.623000", "102108.625000", "102108.628000", "102108.630000", "102108.632000", "102108.635000", "102108.637000", "102108.639000", "102108.642000", "102108.644000", "102108.646000", "102108.648000", "102108.651000", "102108.653000", "102108.655000", "102148.611000", "102148.614000", "102148.616000", "102148.619000", "102148.621000", "102148.623000", "102148.625000", "102148.628000", "102148.630000", "102148.632000", "102148.635000", "102148.637000", "102148.639000", "102148.641000", "102148.644000", "102148.646000", "102148.648000", "102148.651000", "102148.653000", "102148.655000", "102228.610000", "102228.613000", "102228.615000", "102228.618000", "102228.620000", "102228.622000", "102228.625000", "102228.627000", "102228.629000", "102228.632000", "102228.634000", "102228.636000", "102228.639000", "102228.641000", "102228.643000", "102228.646000", "102228.648000", "102228.650000", "102228.653000", "102228.655000", "102308.610000", "102308.613000", "102308.615000", "102308.618000", "102308.620000", "102308.622000", "102308.624000", "102308.627000", "102308.629000", "102308.631000", "102308.634000", "102308.636000", "102308.638000", "102308.641000", "102308.643000", "102308.645000", "102308.648000", "102308.650000", "102308.652000", "102308.655000", "102348.611000", "102348.614000", "102348.616000", "102348.618000", "102348.621000", "102348.623000", "102348.625000", "102348.628000", "102348.630000", "102348.632000", "102348.635000", "102348.637000", "102348.639000", "102348.642000", "102348.644000", "102348.646000", "102348.649000", "102348.651000", "102348.653000", "102348.656000", "102428.612000", "102428.615000", "102428.617000", "102428.619000", "102428.622000", "102428.624000", "102428.626000", "102428.629000", "102428.631000", "102428.634000", "102428.636000", "102428.638000", "102428.641000", "102428.643000", "102428.645000", "102428.647000", "102428.650000", "102428.652000", "102428.654000", "102428.657000", "102508.610000", "102508.613000", "102508.615000", "102508.618000", "102508.620000", "102508.622000", "102508.625000", "102508.627000", "102508.629000", "102508.632000", "102508.634000", "102508.636000", "102508.639000", "102508.641000", "102508.643000", "102508.646000", "102508.648000", "102508.650000", "102508.653000", "102508.655000", "102541.572000", "102541.575000", "102541.577000", "102541.579000", "102541.582000", "102541.585000", "102541.587000", "102541.590000", "102541.592000", "102541.594000", "102541.597000", "102541.599000", "102541.602000", "102541.604000", "102541.606000", "102541.609000", "102541.611000"],
      "InstanceNumber": [1, 2, 3, 4, 5, 6, 7, 8, 9, 10, 11, 12, 13, 14, 15, 16, 17, 18, 19, 20, 21, 22, 23, 24, 25, 26, 27, 28, 29, 30, 31, 32, 33, 34, 35, 36, 37, 38, 39, 40, 41, 42, 43, 44, 45, 46, 47, 48, 49, 50, 51, 52, 53, 54, 55, 56, 57, 58, 59, 60, 61, 62, 63, 64, 65, 66, 67, 68, 69, 70, 71, 72, 73, 74, 75, 76, 77, 78, 79, 80, 81, 82, 83, 84, 85, 86, 87, 88, 89, 90, 91, 92, 93, 94, 95, 96, 97, 98, 99, 100, 101, 102, 103, 104, 105, 106, 107, 108, 109, 110, 111, 112, 113, 114, 115, 116, 117, 118, 119, 120, 121, 122, 123, 124, 125, 126, 127, 128, 129, 130, 131, 132, 133, 134, 135, 136, 137, 138, 139, 140, 141, 142, 143, 144, 145, 146, 147, 148, 149, 150, 151, 152, 153, 154, 155, 156, 157, 158, 159, 160, 161, 162, 163, 164, 165, 166, 167, 168, 169, 170, 171, 172, 173, 174, 175, 176, 177, 178, 179, 180, 181, 182, 183, 184, 185, 186, 187, 188, 189, 190, 191, 192, 193, 194, 195, 196, 197, 198, 199, 200],
      "LargestImagePixelValue": [2171, 2170, 2172, 2169, 2172, 2171, 2170, 2169, 2172, 2170, 2170, 2171, 2170, 2169, 2169, 2171, 2169, 2168, 2168, 2170, 2169, 2171, 2170, 2169, 2171, 2170, 2171, 2171, 2169, 2171, 2169, 2170, 2170, 2170, 2170, 2169, 2169, 2168, 2171, 2171, 2171, 2169, 2171, 2169, 2170, 2170, 2170, 2170, 2169, 2171, 2170, 2171, 2171, 2169, 2170, 2171, 2170, 2172, 2170, 2169, 2170, 2169, 2169, 2169, 2168, 2171, 2169, 2168, 2170, 2169, 2170, 2168, 2171, 2170, 2168, 2168, 2169, 2169, 2169, 2168, 2170, 2171, 2170, 2169, 2172, 2171, 2171, 2170, 2170, 2171, 2170, 2171, 2171, 2171, 2171, 2171, 2172, 2172, 2170, 2170, 2169, 2169, 2170, 2169, 2169, 2169, 2171, 2170, 2170, 2168, 2171, 2170, 2169, 2171, 2170, 2169, 2170, 2170, 2170, 2171, 2169, 2169, 2169, 2170, 2171, 2169, 2170, 2170, 2168, 2169, 2168, 2170, 2169, 2170, 2170, 2170, 2169, 2170, 2171, 2170, 2172, 2171, 2168, 2172, 2169, 2170, 2168, 2167, 2166, 2167, 2170, 2169, 2169, 2169, 2170, 2168, 2167, 2172, 2170, 2170, 2171, 2170, 2170, 2170, 2171, 2170, 2168, 2170, 2169, 2171, 2169, 2169, 2170, 2168, 2167, 2168, 2168, 2168, 2168, 2171, 2169, 2169, 2169, 2169, 2171, 2171, 2167, 2170, 2168, 2170, 2169, 2170, 2170, 2167, 2169, 2169, 2170, 2170, 2171, 2170],
      "WindowCenter": [1004.0, 1004.0, 1004.0, 1003.0, 1004.0, 1003.0, 1004.0, 1004.0, 1004.0, 1003.0, 1004.0, 1004.0, 1003.0, 1004.0, 1004.0, 1004.0, 1003.0, 1004.0, 1004.0, 1004.0, 1004.0, 1004.0, 1003.0, 1003.0, 1003.0, 1004.0, 1004.0, 1004.0, 1004.0, 1004.0, 1004.0, 1003.0, 1004.0, 1004.0, 1004.0, 1004.0, 1004.0, 1004.0, 1003.0, 1004.0, 1004.0, 1003.0, 1003.0, 1004.0, 1004.0, 1004.0, 1004.0, 1004.0, 1004.0, 1004.0, 1004.0, 1003.0, 1004.0, 1003.0, 1004.0, 1004.0, 1004.0, 1004.0, 1003.0, 1003.0, 1003.0, 1003.0, 1003.0, 1003.0, 1003.0, 1003.0, 1003.0, 1003.0, 1002.0, 1003.0, 1003.0, 1003.0, 1002.0, 1002.0, 1003.0, 1003.0, 1002.0, 1002.0, 1003.0, 1002.0, 1002.0, 1003.0, 1003.0, 1003.0, 1003.0, 1003.0, 1003.0, 1003.0, 1002.0, 1002.0, 1003.0, 1002.0, 1003.0, 1003.0, 1003.0, 1002.0, 1002.0, 1002.0, 1003.0, 1002.0, 1003.0, 1002.0, 1002.0, 1003.0, 1002.0, 1002.0, 1002.0, 1003.0, 1004.0, 1002.0, 1002.0, 1002.0, 1002.0, 1003.0, 1002.0, 1003.0, 1003.0, 1003.0, 1002.0, 1002.0, 1003.0, 1003.0, 1002.0, 1002.0, 1003.0, 1002.0, 1003.0, 1003.0, 1003.0, 1002.0, 1003.0, 1003.0, 1003.0, 1003.0, 1003.0, 1002.0, 1003.0, 1003.0, 1002.0, 1003.0, 1003.0, 1003.0, 1002.0, 1003.0, 1003.0, 1003.0, 1003.0, 1003.0, 1003.0, 1002.0, 1002.0, 1003.0, 1002.0, 1002.0, 1002.0, 1002.0, 1003.0, 1003.0, 1003.0, 1002.0, 1003.0, 1003.0, 1003.0, 1003.0, 1003.0, 1003.0, 1003.0, 1002.0, 1003.0, 1002.0, 1003.0, 1003.0, 1002.0, 1003.0, 1002.0, 1003.0, 1002.0, 1002.0, 1002.0, 1002.0, 1002.0, 1002.0, 1002.0, 1002.0, 1001.0, 1001.0, 1002.0, 1002.0, 1002.0, 1001.0, 1002.0, 1002.0, 1002.0, 1002.0, 1002.0, 1002.0, 1002.0, 1002.0, 1001.0, 1002.0],
      "WindowWidth": [2234.0, 2234.0, 2235.0, 2234.0, 2235.0, 2234.0, 2235.0, 2234.0, 2235.0, 2234.0, 2235.0, 2234.0, 2233.0, 2234.0, 2233.0, 2234.0, 2233.0, 2233.0, 2234.0, 2234.0, 2233.0, 2234.0, 2233.0, 2233.0, 2233.0, 2234.0, 2234.0, 2234.0, 2233.0, 2234.0, 2233.0, 2233.0, 2233.0, 2233.0, 2233.0, 2233.0, 2233.0, 2233.0, 2232.0, 2233.0, 2233.0, 2232.0, 2233.0, 2233.0, 2233.0, 2233.0, 2233.0, 2233.0, 2233.0, 2233.0, 2233.0, 2232.0, 2233.0, 2232.0, 2233.0, 2233.0, 2233.0, 2233.0, 2233.0, 2232.0, 2233.0, 2233.0, 2232.0, 2233.0, 2233.0, 2232.0, 2232.0, 2232.0, 2232.0, 2232.0, 2232.0, 2232.0, 2232.0, 2232.0, 2232.0, 2232.0, 2232.0, 2231.0, 2232.0, 2232.0, 2232.0, 2232.0, 2232.0, 2232.0, 2232.0, 2232.0, 2232.0, 2232.0, 2231.0, 2231.0, 2232.0, 2231.0, 2232.0, 2232.0, 2232.0, 2231.0, 2231.0, 2231.0, 2232.0, 2231.0, 2232.0, 2231.0, 2231.0, 2232.0, 2231.0, 2231.0, 2231.0, 2232.0, 2232.0, 2231.0, 2231.0, 2231.0, 2231.0, 2231.0, 2231.0, 2231.0, 2231.0, 2232.0, 2231.0, 2231.0, 2231.0, 2231.0, 2231.0, 2231.0, 2231.0, 2231.0, 2232.0, 2231.0, 2231.0, 2231.0, 2231.0, 2231.0, 2231.0, 2231.0, 2231.0, 2230.0, 2231.0, 2231.0, 2230.0, 2231.0, 2231.0, 2231.0, 2230.0, 2231.0, 2231.0, 2231.0, 2231.0, 2231.0, 2231.0, 2230.0, 2230.0, 2231.0, 2230.0, 2230.0, 2230.0, 2230.0, 2231.0, 2231.0, 2231.0, 2230.0, 2231.0, 2231.0, 2231.0, 2231.0, 2231.0, 2231.0, 2230.0, 2230.0, 2230.0, 2230.0, 2230.0, 2230.0, 2231.0, 2230.0, 2230.0, 2230.0, 2230.0, 2229.0, 2229.0, 2229.0, 2230.0, 2229.0, 2230.0, 2230.0, 2230.0, 2230.0, 2230.0, 2231.0, 2230.0, 2230.0, 2230.0, 2230.0, 2231.0, 2230.0, 2230.0, 2230.0, 2230.0, 2230.0, 2229.0, 2230.0]
    },
    "slices": {}
  }
}