{
  "AcquisitionMatrixPE": 80,
  "AcquisitionNumber": 1,
  "AcquisitionTime": "08:57:6.407500",
  "BandwidthPerPixelPhaseEncode": 25,
  "BaseResolution": 80,
  "BodyPartExamined": "BRAIN",
  "CoilCombinationMethod": "Sum of Squares",
  "ConsistencyInfo": "N4_VE11E_LATEST_20181129",
  "ConversionSoftware": "dcm2niix",
  "ConversionSoftwareVersion": "v1.0.20220720",
  "DerivedVendorReportedEchoSpacing": 0.0005,
  "DeviceSerialNumber": "66112",
  "DwellTime": 2.7e-06,
  "EchoTime": 0.03,
  "EchoTrainLength": 80,
  "EffectiveEchoSpacing": 0.0005,
  "FlipAngle": 77,
  "HeudiconvVersion": "0.13.1",
  "ImageOrientationPatientDICOM": [0.98759, -0.157039, 0.00203663, 0.149006, 0.941016, 0.303785],
  "ImageOrientationText": "Tra>Cor(17.5)>Sag(2.8)",
  "ImageType": [
    "ORIGINAL",
    "PRIMARY",
    "M",
    "ND",
    "NORM",
    "MOSAIC"
],
  "ImagingFrequency": 123.259,
  "InPlanePhaseEncodingDirectionDICOM": "COL",
  "InstitutionAddress": "Maynard 3,Hanover,NH,US,03755",
  "InstitutionName": "Dartmouth College - PBS",
  "InstitutionalDepartmentName": "Department",
  "MRAcquisitionType": "2D",
  "MagneticFieldStrength": 3,
  "Manufacturer": "Siemens",
  "ManufacturersModelName": "Prisma",
  "MatrixCoilMode": "SENSE",
  "Modality": "MR",
  "NonlinearGradientCorrection": false,
  "PartialFourier": 1,
  "PatientPosition": "HFS",
  "PercentPhaseFOV": 100,
  "PercentSampling": 100,
  "PhaseEncodingDirection": "j-",
  "PhaseEncodingSteps": 80,
  "PhaseResolution": 1,
  "PixelBandwidth": 2315,
  "ProcedureStepDescription": "dbic^QA",
  "ProtocolName": "func-bold_fa-77",
  "PulseSequenceDetails": "%SiemensSeq%\\ep2d_bold",
  "ReceiveCoilActiveElements": "HEA;HEP",
  "ReceiveCoilName": "Head_32",
  "ReconMatrixPE": 80,
  "RepetitionTime": 2,
  "SAR": 0.0395111,
  "ScanOptions": "FS",
  "ScanningSequence": "EP",
  "SequenceName": "*epfid2d1_80",
  "SequenceVariant": "SK",
  "SeriesDescription": "func-bold_fa-77",
  "SeriesNumber": 8,
  "ShimSetting": [4209, -7739, -7493, -25, -196, -51, 1, 21],
  "SliceThickness": 3.5,
  "SliceTiming": [0.99, 0, 1.055, 0.065, 1.1225, 0.1325, 1.1875, 0.1975, 1.2525, 0.265, 1.32, 0.33, 1.385, 0.395, 1.4525, 0.4625, 1.5175, 0.5275, 1.5825, 0.595, 1.65, 0.66, 1.715, 0.725, 1.7825, 0.7925, 1.8475, 0.8575, 1.9125, 0.9225],
  "SoftwareVersions": "syngo MR E11",
  "SpacingBetweenSlices": 3.99,
  "StationName": "AWP66112",
  "TotalReadoutTime": 0.0395,
  "TxRefAmp": 231.749,
  "dcmmeta_affine": [
    [-2.962770938873291, 0.4470192492008209, 0.19799348711967468, 98.4591064453125],
    [0.4711160659790039, 2.823049545288086, 1.195847749710083, -143.5325927734375],
    [0.006109889131039381, -0.9113536477088928, 3.801426887512207, -20.148813247680664],
    [0.0, 0.0, 0.0, 1.0]
],
  "dcmmeta_reorient_transform": [
    [0.0, -1.0, 0.0, 79.0],
    [1.0, 0.0, 0.0, 0.0],
    [0.0, 0.0, 1.0, 0.0],
    [0.0, 0.0, 0.0, 1.0]
],
  "dcmmeta_shape": [80, 80, 30, 200],
  "dcmmeta_slice_dim": 2,
  "dcmmeta_version": 0.6,
  "global": {
    "const": {
      "AccessionNumber": "qa",
      "AcquisitionMatrix": [80, 0, 0, 80],
      "AngioFlag": "N",
      "BitsAllocated": 16,
      "BitsStored": 12,
      "BodyPartExamined": "BRAIN",
      "Columns": 480,
      "EchoNumbers": 1,
      "EchoTime": 30.0,
      "EchoTrainLength": 80,
      "FlipAngle": 77.0,
      "HighBit": 11,
      "ImageOrientationPatient": [0.9875903520876, -0.1570386850531, 0.00203662963847, 0.14900641319259, 0.94101649299226, 0.30378454329347],
      "ImagePositionPatient": [-815.73168813736, -549.87499812612, -275.63845291554],
      "ImageType": [
        "ORIGINAL",
        "PRIMARY",
        "M",
        "ND",
        "NORM",
        "MOSAIC"
],
      "ImagedNucleus": "1H",
      "ImagingFrequency": 123.259275,
      "InPlanePhaseEncodingDirection": "COL",
      "MRAcquisitionType": "2D",
      "MagneticFieldStrength": 3.0,
      "Manufacturer": "SIEMENS",
      "ManufacturerModelName": "Prisma",
      "Modality": "MR",
      "NumberOfAverages": 1.0,
      "NumberOfPhaseEncodingSteps": 80,
      "PercentPhaseFieldOfView": 100.0,
      "PercentSampling": 100.0,
      "PerformedProcedureStepStartTime": "084138.001000",
      "PhotometricInterpretation": "MONOCHROME2",
      "PixelBandwidth": 2315.0,
      "PixelRepresentation": 0,
      "PixelSpacing": [3.0, 3.0],
      "ProtocolName": "func-bold_fa-77",
      "RepetitionTime": 2000.0,
      "Rows": 480,
      "SAR": 0.03951110680847,
      "SamplesPerPixel": 1,
      "ScanOptions": "FS",
      "ScanningSequence": "EP",
      "SequenceName": "*epfid2d1_80",
      "SequenceVariant": "SK",
      "SeriesDescription": "func-bold_fa-77",
      "SeriesNumber": 8,
      "SeriesTime": "085753.710000",
      "SliceLocation": -57.329099269981,
      "SliceThickness": 3.5,
      "SmallestImagePixelValue": 0,
      "SoftwareVersions": "syngo MR E11",
      "SpacingBetweenSlices": 3.9899999196242,
      "SpecificCharacterSet": "ISO_IR 100",
      "StudyID": "18",
      "StudyTime": "084137.907000",
      "TransmitCoilName": "Body",
      "VariableFlipAngleFlag": "N",
      "WindowCenterWidthExplanation": "Algo1"
    },
    "slices": {}
  },
  "time": {
    "samples": {
      "AcquisitionNumber": [1, 2, 3, 4, 5, 6, 7, 8, 9, 10, 11, 12, 13, 14, 15, 16, 17, 18, 19, 20, 21, 22, 23, 24, 25, 26, 27, 28, 29, 30, 31, 32, 33, 34, 35, 36, 37, 38, 39, 40, 41, 42, 43, 44, 45, 46, 47, 48, 49, 50, 51, 52, 53, 54, 55, 56, 57, 58, 59, 60, 61, 62, 63, 64, 65, 66, 67, 68, 69, 70, 71, 72, 73, 74, 75, 76, 77, 78, 79, 80, 81, 82, 83, 84, 85, 86, 87, 88, 89, 90, 91, 92, 93, 94, 95, 96, 97, 98, 99, 100, 101, 102, 103, 104, 105, 106, 107, 108, 109, 110, 111, 112, 113, 114, 115, 116, 117, 118, 119, 120, 121, 122, 123, 124, 125, 126, 127, 128, 129, 130, 131, 132, 133, 134, 135, 136, 137, 138, 139, 140, 141, 142, 143, 144, 145, 146, 147, 148, 149, 150, 151, 152, 153, 154, 155, 156, 157, 158, 159, 160, 161, 162, 163, 164, 165, 166, 167, 168, 169, 170, 171, 172, 173, 174, 175, 176, 177, 178, 179, 180, 181, 182, 183, 184, 185, 186, 187, 188, 189, 190, 191, 192, 193, 194, 195, 196, 197, 198, 199, 200],
      "AcquisitionTime": ["085706.407500", "085708.407500", "085710.407500", "085712.407500", "085714.407500", "085716.407500", "085718.407500", "085720.407500", "085722.407500", "085724.407500", "085726.407500", "085728.407500", "085730.407500", "085732.407500", "085734.407500", "085736.407500", "085738.407500", "085740.407500", "085742.407500", "085744.407500", "085746.407500", "085748.407500", "085750.407500", "085752.407500", "085754.407500", "085756.407500", "085758.407500", "085800.407500", "085802.407500", "085804.407500", "085806.407500", "085808.407500", "085810.407500", "085812.407500", "085814.407500", "085816.407500", "085818.407500", "085820.407500", "085822.407500", "085824.407500", "085826.407500", "085828.407500", "085830.407500", "085832.407500", "085834.407500", "085836.407500", "085838.407500", "085840.407500", "085842.407500", "085844.407500", "085846.407500", "085848.407500", "085850.407500", "085852.407500", "085854.407500", "085856.407500", "085858.407500", "085900.407500", "085902.407500", "085904.407500", "085906.407500", "085908.407500", "085910.407500", "085912.407500", "085914.407500", "085916.407500", "085918.407500", "085920.407500", "085922.407500", "085924.407500", "085926.407500", "085928.407500", "085930.407500", "085932.407500", "085934.407500", "085936.407500", "085938.407500", "085940.407500", "085942.407500", "085944.407500", "085946.407500", "085948.407500", "085950.407500", "085952.407500", "085954.407500", "085956.407500", "085958.407500", "090000.407500", "090002.407500", "090004.407500", "090006.407500", "090008.407500", "090010.407500", "090012.407500", "090014.407500", "090016.407500", "090018.407500", "090020.407500", "090022.407500", "090024.407500", "090026.407500", "090028.407500", "090030.407500", "090032.407500", "090034.407500", "090036.407500", "090038.407500", "090040.407500", "090042.407500", "090044.407500", "090046.407500", "090048.407500", "090050.407500", "090052.407500", "090054.407500", "090056.407500", "090058.407500", "090100.407500", "090102.407500", "090104.407500", "090106.407500", "090108.407500", "090110.407500", "090112.407500", "090114.407500", "090116.407500", "090118.407500", "090120.407500", "090122.407500", "090124.407500", "090126.407500", "090128.407500", "090130.407500", "090132.407500", "090134.407500", "090136.407500", "090138.407500", "090140.407500", "090142.407500", "090144.407500", "090146.407500", "090148.407500", "090150.407500", "090152.407500", "090154.407500", "090156.407500", "090158.407500", "090200.407500", "090202.407500", "090204.407500", "090206.407500", "090208.407500", "090210.407500", "090212.407500", "090214.407500", "090216.407500", "090218.407500", "090220.407500", "090222.407500", "090224.407500", "090226.407500", "090228.407500", "090230.407500", "090232.407500", "090234.407500", "090236.407500", "090238.407500", "090240.407500", "090242.407500", "090244.407500", "090246.407500", "090248.407500", "090250.407500", "090252.407500", "090254.407500", "090256.407500", "090258.407500", "090300.407500", "090302.407500", "090304.407500", "090306.407500", "090308.407500", "090310.407500", "090312.407500", "090314.407500", "090316.407500", "090318.407500", "090320.407500", "090322.407500", "090324.407500", "090326.407500", "090328.407500", "090330.407500", "090332.407500", "090334.407500", "090336.407500", "090338.407500", "090340.407500", "090342.407500", "090344.407500"],
      "ContentTime": ["085753.713000", "085753.716000", "085753.718000", "085753.720000", "085753.723000", "085753.725000", "085753.727000", "085753.730000", "085753.732000", "085753.734000", "085753.736000", "085753.739000", "085753.741000", "085753.752000", "085753.754000", "085753.756000", "085753.758000", "085753.761000", "085753.763000", "085753.765000", "085753.768000", "085753.770000", "085753.772000", "085833.709000", "085833.712000", "085833.714000", "085833.717000", "085833.719000", "085833.721000", "085833.723000", "085833.726000", "085833.728000", "085833.730000", "085833.733000", "085833.735000", "085833.737000", "085833.739000", "085833.742000", "085833.744000", "085833.746000", "085833.748000", "085833.751000", "085833.753000", "085913.708000", "085913.710000", "085913.713000", "085913.715000", "085913.717000", "085913.720000", "085913.722000", "085913.724000", "085913.726000", "085913.729000", "085913.731000", "085913.733000", "085913.735000", "085913.738000", "085913.740000", "085913.743000", "085913.745000", "085913.747000", "085913.749000", "085913.752000", "085953.708000", "085953.711000", "085953.713000", "085953.715000", "085953.717000", "085953.720000", "085953.722000", "085953.724000", "085953.727000", "085953.729000", "085953.731000", "085953.733000", "085953.736000", "085953.738000", "085953.740000", "085953.742000", "085953.745000", "085953.747000", "085953.749000", "085953.752000", "090033.709000", "090033.712000", "090033.714000", "090033.716000", "090033.718000", "090033.721000", "090033.723000", "090033.725000", "090033.728000", "090033.730000", "090033.732000", "090033.735000", "090033.737000", "090033.739000", "090033.742000", "090033.744000", "090033.746000", "090033.748000", "090033.751000", "090033.753000", "090113.708000", "090113.711000", "090113.713000", "090113.715000", "090113.718000", "090113.720000", "090113.722000", "090113.725000", "090113.727000", "090113.729000", "090113.731000", "090113.734000", "090113.736000", "090113.738000", "090113.740000", "090113.743000", "090113.745000", "090113.747000", "090113.749000", "090113.752000", "090153.708000", "090153.711000", "090153.713000", "090153.715000", "090153.718000", "090153.720000", "090153.722000", "090153.725000", "090153.727000", "090153.729000", "090153.732000", "090153.734000", "090153.736000", "090153.738000", "090153.741000", "090153.743000", "090153.745000", "090153.748000", "090153.750000", "090153.761000", "090233.708000", "090233.711000", "090233.713000", "090233.715000", "090233.718000", "090233.720000", "090233.722000", "090233.724000", "090233.727000", "090233.729000", "090233.731000", "090233.742000", "090233.744000", "090233.747000", "090233.749000", "090233.752000", "090233.754000", "090233.756000", "090233.758000", "090233.761000", "090313.709000", "090313.712000", "090313.714000", "090313.716000", "090313.719000", "090313.721000", "090313.723000", "090313.726000", "090313.728000", "090313.730000", "090313.732000", "090313.735000", "090313.737000", "090313.739000", "090313.742000", "090313.744000", "090313.746000", "090313.749000", "090313.751000", "090313.753000", "090346.365000", "090346.367000", "090346.370000", "090346.373000", "090346.375000", "090346.377000", "090346.380000", "090346.382000", "090346.384000", "090346.387000", "090346.389000", "090346.391000", "090346.394000", "090346.396000", "090346.400000", "090346.405000", "090346.407000"],
      "InstanceCreationTime": ["085753.713000", "085753.716000", "085753.718000", "085753.720000", "085753.723000", "085753.725000", "085753.727000", "085753.730000", "085753.732000", "085753.734000", "085753.736000", "085753.739000", "085753.741000", "085753.752000", "085753.754000", "085753.756000", "085753.758000", "085753.761000", "085753.763000", "085753.765000", "085753.768000", "085753.770000", "085753.772000", "085833.709000", "085833.712000", "085833.714000", "085833.717000", "085833.719000", "085833.721000", "085833.723000", "085833.726000", "085833.728000", "085833.730000", "085833.733000", "085833.735000", "085833.737000", "085833.739000", "085833.742000", "085833.744000", "085833.746000", "085833.748000", "085833.751000", "085833.753000", "085913.708000", "085913.710000", "085913.713000", "085913.715000", "085913.717000", "085913.720000", "085913.722000", "085913.724000", "085913.726000", "085913.729000", "085913.731000", "085913.733000", "085913.735000", "085913.738000", "085913.740000", "085913.743000", "085913.745000", "085913.747000", "085913.749000", "085913.752000", "085953.708000", "085953.711000", "085953.713000", "085953.715000", "085953.717000", "085953.720000", "085953.722000", "085953.724000", "085953.727000", "085953.729000", "085953.731000", "085953.733000", "085953.736000", "085953.738000", "085953.740000", "085953.742000", "085953.745000", "085953.747000", "085953.749000", "085953.752000", "090033.709000", "090033.712000", "090033.714000", "090033.716000", "090033.718000", "090033.721000", "090033.723000", "090033.725000", "090033.728000", "090033.730000", "090033.732000", "090033.735000", "090033.737000", "090033.739000", "090033.742000", "090033.744000", "090033.746000", "090033.748000", "090033.751000", "090033.753000", "090113.708000", "090113.711000", "090113.713000", "090113.715000", "090113.718000", "090113.720000", "090113.722000", "090113.725000", "090113.727000", "090113.729000", "090113.731000", "090113.734000", "090113.736000", "090113.738000", "090113.740000", "090113.743000", "090113.745000", "090113.747000", "090113.749000", "090113.752000", "090153.708000", "090153.711000", "090153.713000", "090153.715000", "090153.718000", "090153.720000", "090153.722000", "090153.725000", "090153.727000", "090153.729000", "090153.732000", "090153.734000", "090153.736000", "090153.738000", "090153.741000", "090153.743000", "090153.745000", "090153.748000", "090153.750000", "090153.761000", "090233.708000", "090233.711000", "090233.713000", "090233.715000", "090233.718000", "090233.720000", "090233.722000", "090233.724000", "090233.727000", "090233.729000", "090233.731000", "090233.742000", "090233.744000", "090233.747000", "090233.749000", "090233.752000", "090233.754000", "090233.756000", "090233.758000", "090233.761000", "090313.709000", "090313.712000", "090313.714000", "090313.716000", "090313.719000", "090313.721000", "090313.723000", "090313.726000", "090313.728000", "090313.730000", "090313.732000", "090313.735000", "090313.737000", "090313.739000", "090313.742000", "090313.744000", "090313.746000", "090313.749000", "090313.751000", "090313.753000", "090346.365000", "090346.367000", "090346.370000", "090346.373000", "090346.375000", "090346.377000", "090346.380000", "090346.382000", "090346.384000", "090346.387000", "090346.389000", "090346.391000", "090346.394000", "090346.396000", "090346.400000", "090346.405000", "090346.407000"],
      "InstanceNumber": [1, 2, 3, 4, 5, 6, 7, 8, 9, 10, 11, 12, 13, 14, 15, 16, 17, 18, 19, 20, 21, 22, 23, 24, 25, 26, 27, 28, 29, 30, 31, 32, 33, 34, 35, 36, 37, 38, 39, 40, 41, 42, 43, 44, 45, 46, 47, 48, 49, 50, 51, 52, 53, 54, 55, 56, 57, 58, 59, 60, 61, 62, 63, 64, 65, 66, 67, 68, 69, 70, 71, 72, 73, 74, 75, 76, 77, 78, 79, 80, 81, 82, 83, 84, 85, 86, 87, 88, 89, 90, 91, 92, 93, 94, 95, 96, 97, 98, 99, 100, 101, 102, 103, 104, 105, 106, 107, 108, 109, 110, 111, 112, 113, 114, 115, 116, 117, 118, 119, 120, 121, 122, 123, 124, 125, 126, 127, 128, 129, 130, 131, 132, 133, 134, 135, 136, 137, 138, 139, 140, 141, 142, 143, 144, 145, 146, 147, 148, 149, 150, 151, 152, 153, 154, 155, 156, 157, 158, 159, 160, 161, 162, 163, 164, 165, 166, 167, 168, 169, 170, 171, 172, 173, 174, 175, 176, 177, 178, 179, 180, 181, 182, 183, 184, 185, 186, 187, 188, 189, 190, 191, 192, 193, 194, 195, 196, 197, 198, 199, 200],
      "LargestImagePixelValue": [2265, 2262, 2263, 2262, 2261, 2261, 2260, 2261, 2264, 2264, 2265, 2263, 2267, 2265, 2262, 2263, 2263, 2263, 2262, 2263, 2262, 2261, 2261, 2261, 2263, 2262, 2262, 2264, 2264, 2264, 2266, 2266, 2267, 2266, 2264, 2263, 2265, 2262, 2265, 2263, 2261, 2261, 2262, 2260, 2262, 2262, 2259, 2262, 2262, 2265, 2263, 2263, 2263, 2264, 2263, 2264, 2266, 2264, 2263, 2263, 2263, 2263, 2261, 2261, 2265, 2264, 2264, 2266, 2261, 2262, 2262, 2261, 2263, 2262, 2262, 2265, 2265, 2266, 2267, 2263, 2264, 2265, 2263, 2262, 2265, 2264, 2266, 2265, 2266, 2265, 2263, 2263, 2266, 2266, 2265, 2265, 2265, 2267, 2264, 2263, 2264, 2264, 2261, 2260, 2260, 2261, 2262, 2259, 2262, 2261, 2260, 2263, 2264, 2265, 2265, 2262, 2262, 2258, 2262, 2261, 2262, 2264, 2263, 2263, 2263, 2263, 2262, 2263, 2263, 2261, 2264, 2262, 2264, 2264, 2266, 2267, 2266, 2265, 2265, 2263, 2266, 2264, 2263, 2264, 2263, 2261, 2259, 2262, 2263, 2261, 2265, 2263, 2263, 2263, 2261, 2264, 2261, 2261, 2258, 2259, 2258, 2261, 2260, 2263, 2261, 2261, 2261, 2265, 2264, 2263, 2263, 2261, 2259, 2259, 2261, 2260, 2260, 2261, 2262, 2260, 2261, 2261, 2259, 2260, 2261, 2262, 2264, 2259, 2261, 2261, 2261, 2261, 2261, 2258, 2258, 2259, 2259, 2257, 2258, 2259],
      "WindowCenter": [1024.0, 1024.0, 1023.0, 1023.0, 1023.0, 1023.0, 1023.0, 1024.0, 1022.0, 1022.0, 1022.0, 1022.0, 1023.0, 1023.0, 1023.0, 1022.0, 1023.0, 1023.0, 1023.0, 1024.0, 1023.0, 1023.0, 1022.0, 1023.0, 1023.0, 1024.0, 1024.0, 1022.0, 1023.0, 1023.0, 1024.0, 1023.0, 1022.0, 1022.0, 1024.0, 1023.0, 1023.0, 1024.0, 1023.0, 1023.0, 1023.0, 1022.0, 1023.0, 1024.0, 1024.0, 1023.0, 1023.0, 1023.0, 1022.0, 1023.0, 1024.0, 1024.0, 1023.0, 1022.0, 1024.0, 1022.0, 1022.0, 1022.0, 1023.0, 1023.0, 1022.0, 1024.0, 1024.0, 1023.0, 1023.0, 1023.0, 1022.0, 1024.0, 1022.0, 1024.0, 1023.0, 1022.0, 1023.0, 1022.0, 1024.0, 1024.0, 1022.0, 1022.0, 1023.0, 1023.0, 1024.0, 1024.0, 1023.0, 1023.0, 1023.0, 1023.0, 1024.0, 1023.0, 1023.0, 1022.0, 1023.0, 1023.0, 1023.0, 1022.0, 1024.0, 1024.0, 1023.0, 1023.0, 1021.0, 1023.0, 1022.0, 1023.0, 1022.0, 1022.0, 1023.0, 1022.0, 1024.0, 1022.0, 1022.0, 1023.0, 1023.0, 1022.0, 1024.0, 1023.0, 1023.0, 1024.0, 1023.0, 1023.0, 1023.0, 1022.0, 1023.0, 1024.0, 1024.0, 1022.0, 1023.0, 1023.0, 1023.0, 1023.0, 1023.0, 1023.0, 1023.0, 1024.0, 1023.0, 1023.0, 1022.0, 1021.0, 1023.0, 1023.0, 1022.0, 1022.0, 1023.0, 1022.0, 1023.0, 1023.0, 1023.0, 1022.0, 1023.0, 1024.0, 1023.0, 1024.0, 1022.0, 1021.0, 1024.0, 1024.0, 1023.0, 1022.0, 1023.0, 1024.0, 1023.0, 1023.0, 1024.0, 1022.0, 1024.0, 1023.0, 1023.0, 1023.0, 1023.0, 1021.0, 1022.0, 1023.0, 1024.0, 1023.0, 1021.0, 1022.0, 1023.0, 1021.0, 1024.0, 1022.0, 1023.0, 1023.0, 1023.0, 1023.0, 1024.0, 1023.0, 1022.0, 1024.0, 1023.0, 1022.0, 1023.0, 1023.0, 1024.0, 1022.0, 1023.0, 1023.0, 1024.0, 1023.0, 1023.0, 1023.0, 1022.0, 1022.0],
      "WindowWidth": [2289.0, 2289.0, 2288.0, 2288.0, 2288.0, 2288.0, 2288.0, 2289.0, 2288.0, 2288.0, 2288.0, 2288.0, 2288.0, 2288.0, 2288.0, 2288.0, 2288.0, 2288.0, 2289.0, 2289.0, 2288.0, 2288.0, 2288.0, 2288.0, 2288.0, 2289.0, 2289.0, 2288.0, 2288.0, 2288.0, 2290.0, 2288.0, 2288.0, 2288.0, 2289.0, 2288.0, 2288.0, 2289.0, 2288.0, 2289.0, 2288.0, 2288.0, 2288.0, 2289.0, 2289.0, 2288.0, 2288.0, 2288.0, 2288.0, 2288.0, 2289.0, 2289.0, 2288.0, 2288.0, 2289.0, 2288.0, 2288.0, 2288.0, 2288.0, 2288.0, 2288.0, 2289.0, 2289.0, 2288.0, 2288.0, 2288.0, 2287.0, 2289.0, 2287.0, 2289.0, 2288.0, 2287.0, 2288.0, 2287.0, 2289.0, 2289.0, 2287.0, 2287.0, 2288.0, 2288.0, 2289.0, 2289.0, 2288.0, 2287.0, 2288.0, 2288.0, 2289.0, 2288.0, 2288.0, 2287.0, 2288.0, 2288.0, 2288.0, 2287.0, 2289.0, 2289.0, 2288.0, 2288.0, 2287.0, 2288.0, 2287.0, 2288.0, 2287.0, 2287.0, 2288.0, 2287.0, 2288.0, 2287.0, 2287.0, 2288.0, 2288.0, 2287.0, 2289.0, 2288.0, 2288.0, 2289.0, 2288.0, 2288.0, 2288.0, 2287.0, 2288.0, 2289.0, 2289.0, 2287.0, 2288.0, 2287.0, 2288.0, 2288.0, 2288.0, 2288.0, 2288.0, 2289.0, 2288.0, 2288.0, 2287.0, 2286.0, 2288.0, 2287.0, 2287.0, 2287.0, 2288.0, 2287.0, 2288.0, 2288.0, 2288.0, 2287.0, 2288.0, 2288.0, 2287.0, 2288.0, 2287.0, 2286.0, 2288.0, 2288.0, 2288.0, 2287.0, 2288.0, 2288.0, 2287.0, 2287.0, 2288.0, 2287.0, 2288.0, 2288.0, 2288.0, 2287.0, 2288.0, 2286.0, 2287.0, 2288.0, 2288.0, 2287.0, 2286.0, 2287.0, 2287.0, 2286.0, 2288.0, 2287.0, 2287.0, 2287.0, 2287.0, 2287.0, 2288.0, 2288.0, 2288.0, 2288.0, 2288.0, 2286.0, 2287.0, 2287.0, 2288.0, 2287.0, 2288.0, 2287.0, 2288.0, 2288.0, 2287.0, 2287.0, 2288.0, 2287.0]
    },
    "slices": {}
  }
}