{
  "AcquisitionMatrixPE": 80,
  "AcquisitionNumber": 1,
  "AcquisitionTime": "11:26:23.090000",
  "BandwidthPerPixelPhaseEncode": 46.296,
  "BaseResolution": 80,
  "BodyPartExamined": "BRAIN",
  "CoilCombinationMethod": "Sum of Squares",
  "ConsistencyInfo": "N4_VE11E_LATEST_20181129",
  "ConversionSoftware": "dcm2niix",
  "ConversionSoftwareVersion": "v1.0.20220720",
  "DerivedVendorReportedEchoSpacing": 0.000540003,
  "DeviceSerialNumber": "66112",
  "DwellTime": 2.7e-06,
  "EchoTime": 0.035,
  "EchoTrainLength": 39,
  "EffectiveEchoSpacing": 0.000270002,
  "FlipAngle": 90,
  "HeudiconvVersion": "0.13.1",
  "ImageOrientationPatientDICOM": [0.999979, 0.00559687, 0.00317511, -0.00628308, 0.955772, 0.294042],
  "ImageOrientationText": "Tra>Cor(17.1)>Sag(0.1)",
  "ImageType": [
    "ORIGINAL",
    "PRIMARY",
    "M",
    "ND",
    "NORM",
    "MOSAIC"
],
  "ImagingFrequency": 123.259,
  "InPlanePhaseEncodingDirectionDICOM": "COL",
  "InstitutionAddress": "Maynard 3,Hanover,NH,US,03755",
  "InstitutionName": "Dartmouth College - PBS",
  "InstitutionalDepartmentName": "Department",
  "MRAcquisitionType": "2D",
  "MagneticFieldStrength": 3,
  "Manufacturer": "Siemens",
  "ManufacturersModelName": "Prisma",
  "Modality": "MR",
  "MultibandAccelerationFactor": 4,
  "NonlinearGradientCorrection": false,
  "ParallelReductionFactorInPlane": 2,
  "PartialFourier": 1,
  "PatientPosition": "HFS",
  "PercentPhaseFOV": 100,
  "PercentSampling": 100,
  "PhaseEncodingDirection": "j-",
  "PhaseEncodingSteps": 79,
  "PhaseResolution": 1,
  "PixelBandwidth": 2315,
  "ProcedureStepDescription": "dbic^QA",
  "ProtocolName": "func-bold_task-rest_acq-p2-s4-3.5mm",
  "PulseSequenceDetails": "%SiemensSeq%\\ep2d_bold",
  "ReceiveCoilActiveElements": "HEA;HEP",
  "ReceiveCoilName": "Head_32",
  "ReconMatrixPE": 80,
  "RefLinesPE": 24,
  "RepetitionTime": 2,
  "SAR": 0.0270105,
  "ScanOptions": "FS",
  "ScanningSequence": "EP",
  "SequenceName": "*epfid2d1_80",
  "SequenceVariant": "SK",
  "SeriesDescription": "func-bold_task-rest_acq-p2-s4-3.5mm",
  "SeriesNumber": 6,
  "ShimSetting": [4222, -7733, -7505, -32, -145, -15, -6, 90],
  "SliceThickness": 3.5,
  "SliceTiming": [1.485, 0, 0.99, 0.2475, 1.2375, 0.7425, 1.7325, 0.495, 1.485, 0, 0.99, 0.2475, 1.2375, 0.7425, 1.7325, 0.495, 1.485, 0, 0.99, 0.2475, 1.2375, 0.7425, 1.7325, 0.495, 1.485, 0, 0.99, 0.2475, 1.2375, 0.7425, 1.7325, 0.495],
  "SoftwareVersions": "syngo MR E11",
  "SpacingBetweenSlices": 3.99,
  "StationName": "AWP66112",
  "TaskName": "rest",
  "TotalReadoutTime": 0.0213301,
  "TxRefAmp": 227.883,
  "dcmmeta_affine": [
    [-2.9999377727508545, -0.018849238753318787, 0.0055419704876840115, 121.10037994384766],
    [-0.016790619120001793, 2.8673155307769775, 1.1732828617095947, -125.76932525634766],
    [0.009525329805910587, -0.882125973701477, 3.8135910034179688, -27.663969039916992],
    [0.0, 0.0, 0.0, 1.0]
],
  "dcmmeta_reorient_transform": [
    [0.0, -1.0, 0.0, 79.0],
    [1.0, 0.0, 0.0, 0.0],
    [0.0, 0.0, 1.0, 0.0],
    [0.0, 0.0, 0.0, 1.0]
],
  "dcmmeta_shape": [80, 80, 32, 200],
  "dcmmeta_slice_dim": 2,
  "dcmmeta_version": 0.6,
  "global": {
    "const": {
      "AccessionNumber": "qa",
      "AcquisitionMatrix": [80, 0, 0, 80],
      "AngioFlag": "N",
      "BitsAllocated": 16,
      "BitsStored": 12,
      "BodyPartExamined": "BRAIN",
      "Columns": 480,
      "EchoNumbers": 1,
      "EchoTime": 35.0,
      "EchoTrainLength": 39,
      "FlipAngle": 90.0,
      "HighBit": 11,
      "ImageOrientationPatient": [0.99997929662847, 0.00559687330892, 0.00317511001303, -0.0062830797016, 0.95577185259611, 0.29404198457782],
      "ImagePositionPatient": [-715.82901997747, -677.56984296504, -275.68217541498],
      "ImageType": [
        "ORIGINAL",
        "PRIMARY",
        "M",
        "ND",
        "NORM",
        "MOSAIC"
],
      "ImagedNucleus": "1H",
      "ImagingFrequency": 123.259166,
      "InPlanePhaseEncodingDirection": "COL",
      "MRAcquisitionType": "2D",
      "MagneticFieldStrength": 3.0,
      "Manufacturer": "SIEMENS",
      "ManufacturerModelName": "Prisma",
      "Modality": "MR",
      "NumberOfAverages": 1.0,
      "NumberOfPhaseEncodingSteps": 79,
      "PercentPhaseFieldOfView": 100.0,
      "PercentSampling": 100.0,
      "PerformedProcedureStepStartTime": "105618.104000",
      "PhotometricInterpretation": "MONOCHROME2",
      "PixelBandwidth": 2315.0,
      "PixelRepresentation": 0,
      "PixelSpacing": [3.0, 3.0],
      "ProtocolName": "func-bold_task-rest_acq-p2-s4-3.5mm",
      "RepetitionTime": 2000.0,
      "Rows": 480,
      "SAR": 0.02701049271973,
      "SamplesPerPixel": 1,
      "ScanOptions": "FS",
      "ScanningSequence": "EP",
      "SequenceName": "*epfid2d1_80",
      "SequenceVariant": "SK",
      "SeriesDescription": "func-bold_task-rest_acq-p2-s4-3.5mm",
      "SeriesNumber": 6,
      "SeriesTime": "112721.476000",
      "SliceLocation": -63.255867791897,
      "SliceThickness": 3.5,
      "SmallestImagePixelValue": 0,
      "SoftwareVersions": "syngo MR E11",
      "SpacingBetweenSlices": 3.9900000586261,
      "SpecificCharacterSet": "ISO_IR 100",
      "StudyID": "35",
      "StudyTime": "105618.010000",
      "TransmitCoilName": "Body",
      "VariableFlipAngleFlag": "N",
      "WindowCenterWidthExplanation": "Algo1"
    },
    "slices": {}
  },
  "time": {
    "samples": {
      "AcquisitionNumber": [1, 2, 3, 4, 5, 6, 7, 8, 9, 10, 11, 12, 13, 14, 15, 16, 17, 18, 19, 20, 21, 22, 23, 24, 25, 26, 27, 28, 29, 30, 31, 32, 33, 34, 35, 36, 37, 38, 39, 40, 41, 42, 43, 44, 45, 46, 47, 48, 49, 50, 51, 52, 53, 54, 55, 56, 57, 58, 59, 60, 61, 62, 63, 64, 65, 66, 67, 68, 69, 70, 71, 72, 73, 74, 75, 76, 77, 78, 79, 80, 81, 82, 83, 84, 85, 86, 87, 88, 89, 90, 91, 92, 93, 94, 95, 96, 97, 98, 99, 100, 101, 102, 103, 104, 105, 106, 107, 108, 109, 110, 111, 112, 113, 114, 115, 116, 117, 118, 119, 120, 121, 122, 123, 124, 125, 126, 127, 128, 129, 130, 131, 132, 133, 134, 135, 136, 137, 138, 139, 140, 141, 142, 143, 144, 145, 146, 147, 148, 149, 150, 151, 152, 153, 154, 155, 156, 157, 158, 159, 160, 161, 162, 163, 164, 165, 166, 167, 168, 169, 170, 171, 172, 173, 174, 175, 176, 177, 178, 179, 180, 181, 182, 183, 184, 185, 186, 187, 188, 189, 190, 191, 192, 193, 194, 195, 196, 197, 198, 199, 200],
      "AcquisitionTime": ["112623.090000", "112625.090000", "112627.090000", "112629.090000", "112631.090000", "112633.090000", "112635.090000", "112637.090000", "112639.090000", "112641.090000", "112643.090000", "112645.090000", "112647.090000", "112649.090000", "112651.090000", "112653.090000", "112655.090000", "112657.090000", "112659.090000", "112701.090000", "112703.090000", "112705.090000", "112707.090000", "112709.090000", "112711.090000", "112713.090000", "112715.090000", "112717.090000", "112719.090000", "112721.090000", "112723.090000", "112725.090000", "112727.090000", "112729.090000", "112731.090000", "112733.090000", "112735.090000", "112737.090000", "112739.090000", "112741.090000", "112743.090000", "112745.090000", "112747.090000", "112749.090000", "112751.090000", "112753.090000", "112755.090000", "112757.090000", "112759.090000", "112801.090000", "112803.090000", "112805.090000", "112807.090000", "112809.090000", "112811.090000", "112813.090000", "112815.090000", "112817.090000", "112819.090000", "112821.090000", "112823.090000", "112825.090000", "112827.090000", "112829.090000", "112831.090000", "112833.090000", "112835.090000", "112837.090000", "112839.090000", "112841.090000", "112843.090000", "112845.090000", "112847.090000", "112849.090000", "112851.090000", "112853.090000", "112855.090000", "112857.090000", "112859.090000", "112901.090000", "112903.090000", "112905.090000", "112907.090000", "112909.090000", "112911.090000", "112913.090000", "112915.090000", "112917.090000", "112919.090000", "112921.090000", "112923.090000", "112925.090000", "112927.090000", "112929.090000", "112931.090000", "112933.090000", "112935.090000", "112937.090000", "112939.090000", "112941.090000", "112943.090000", "112945.090000", "112947.090000", "112949.090000", "112951.090000", "112953.090000", "112955.090000", "112957.090000", "112959.090000", "113001.090000", "113003.090000", "113005.090000", "113007.090000", "113009.090000", "113011.090000", "113013.090000", "113015.090000", "113017.090000", "113019.090000", "113021.090000", "113023.090000", "113025.090000", "113027.090000", "113029.090000", "113031.090000", "113033.090000", "113035.090000", "113037.090000", "113039.090000", "113041.090000", "113043.090000", "113045.090000", "113047.090000", "113049.090000", "113051.090000", "113053.090000", "113055.090000", "113057.090000", "113059.090000", "113101.090000", "113103.090000", "113105.090000", "113107.090000", "113109.090000", "113111.090000", "113113.090000", "113115.090000", "113117.090000", "113119.090000", "113121.090000", "113123.090000", "113125.090000", "113127.090000", "113129.090000", "113131.090000", "113133.090000", "113135.090000", "113137.090000", "113139.090000", "113141.090000", "113143.090000", "113145.090000", "113147.090000", "113149.090000", "113151.090000", "113153.090000", "113155.090000", "113157.090000", "113159.090000", "113201.090000", "113203.090000", "113205.090000", "113207.090000", "113209.090000", "113211.090000", "113213.090000", "113215.090000", "113217.090000", "113219.090000", "113221.090000", "113223.090000", "113225.090000", "113227.090000", "113229.090000", "113231.090000", "113233.090000", "113235.090000", "113237.090000", "113239.090000", "113241.090000", "113243.090000", "113245.090000", "113247.090000", "113249.090000", "113251.090000", "113253.090000", "113255.090000", "113257.090000", "113259.090000", "113301.090000"],
      "ContentTime": ["112721.479000", "112721.482000", "112721.495000", "112721.497000", "112721.500000", "112721.502000", "112721.505000", "112721.507000", "112721.509000", "112721.512000", "112721.514000", "112721.516000", "112721.519000", "112721.521000", "112721.523000", "112721.526000", "112721.528000", "112721.530000", "112721.533000", "112721.535000", "112721.537000", "112721.540000", "112721.542000", "112721.545000", "112721.547000", "112721.549000", "112721.552000", "112721.554000", "112721.556000", "112801.473000", "112801.476000", "112801.484000", "112801.486000", "112801.489000", "112801.491000", "112801.493000", "112801.496000", "112801.498000", "112801.501000", "112801.503000", "112801.505000", "112801.507000", "112801.510000", "112801.512000", "112801.514000", "112801.517000", "112801.519000", "112801.522000", "112801.524000", "112841.473000", "112841.476000", "112841.478000", "112841.480000", "112841.483000", "112841.485000", "112841.488000", "112841.490000", "112841.493000", "112841.495000", "112841.497000", "112841.499000", "112841.502000", "112841.504000", "112841.506000", "112841.509000", "112841.511000", "112841.513000", "112841.516000", "112841.518000", "112921.473000", "112921.476000", "112921.478000", "112921.480000", "112921.483000", "112921.485000", "112921.488000", "112921.490000", "112921.493000", "112921.495000", "112921.497000", "112921.500000", "112921.502000", "112921.505000", "112921.507000", "112921.509000", "112921.512000", "112921.514000", "112921.516000", "112921.519000", "113001.473000", "113001.476000", "113001.478000", "113001.480000", "113001.483000", "113001.485000", "113001.488000", "113001.490000", "113001.492000", "113001.495000", "113001.497000", "113001.500000", "113001.502000", "113001.504000", "113001.507000", "113001.509000", "113001.511000", "113001.514000", "113001.516000", "113001.518000", "113041.473000", "113041.476000", "113041.478000", "113041.480000", "113041.483000", "113041.485000", "113041.487000", "113041.490000", "113041.492000", "113041.495000", "113041.497000", "113041.499000", "113041.502000", "113041.504000", "113041.506000", "113041.509000", "113041.511000", "113041.513000", "113041.516000", "113041.518000", "113121.473000", "113121.476000", "113121.478000", "113121.480000", "113121.483000", "113121.485000", "113121.487000", "113121.490000", "113121.492000", "113121.495000", "113121.497000", "113121.499000", "113121.502000", "113121.504000", "113121.507000", "113121.509000", "113121.511000", "113121.514000", "113121.516000", "113121.518000", "113201.474000", "113201.477000", "113201.479000", "113201.482000", "113201.484000", "113201.486000", "113201.489000", "113201.491000", "113201.494000", "113201.496000", "113201.498000", "113201.501000", "113201.503000", "113201.506000", "113201.508000", "113201.510000", "113201.513000", "113201.515000", "113201.517000", "113201.520000", "113241.473000", "113241.490000", "113241.493000", "113241.504000", "113241.506000", "113241.509000", "113241.511000", "113241.513000", "113241.516000", "113241.518000", "113241.520000", "113241.523000", "113241.525000", "113241.527000", "113241.530000", "113241.532000", "113241.534000", "113241.537000", "113241.539000", "113241.541000", "113301.947000", "113301.950000", "113301.953000", "113301.955000", "113301.958000", "113301.960000", "113301.963000", "113301.965000", "113301.967000", "113301.970000", "113301.972000"],
      "InstanceCreationTime": ["112721.479000", "112721.482000", "112721.495000", "112721.497000", "112721.500000", "112721.502000", "112721.505000", "112721.507000", "112721.509000", "112721.512000", "112721.514000", "112721.516000", "112721.519000", "112721.521000", "112721.523000", "112721.526000", "112721.528000", "112721.530000", "112721.533000", "112721.535000", "112721.537000", "112721.540000", "112721.542000", "112721.545000", "112721.547000", "112721.549000", "112721.552000", "112721.554000", "112721.556000", "112801.473000", "112801.476000", "112801.484000", "112801.486000", "112801.489000", "112801.491000", "112801.493000", "112801.496000", "112801.498000", "112801.501000", "112801.503000", "112801.505000", "112801.507000", "112801.510000", "112801.512000", "112801.514000", "112801.517000", "112801.519000", "112801.522000", "112801.524000", "112841.473000", "112841.476000", "112841.478000", "112841.480000", "112841.483000", "112841.485000", "112841.488000", "112841.490000", "112841.493000", "112841.495000", "112841.497000", "112841.499000", "112841.502000", "112841.504000", "112841.506000", "112841.509000", "112841.511000", "112841.513000", "112841.516000", "112841.518000", "112921.473000", "112921.476000", "112921.478000", "112921.480000", "112921.483000", "112921.485000", "112921.488000", "112921.490000", "112921.493000", "112921.495000", "112921.497000", "112921.500000", "112921.502000", "112921.505000", "112921.507000", "112921.509000", "112921.512000", "112921.514000", "112921.516000", "112921.519000", "113001.473000", "113001.476000", "113001.478000", "113001.480000", "113001.483000", "113001.485000", "113001.488000", "113001.490000", "113001.492000", "113001.495000", "113001.497000", "113001.500000", "113001.502000", "113001.504000", "113001.507000", "113001.509000", "113001.511000", "113001.514000", "113001.516000", "113001.518000", "113041.473000", "113041.476000", "113041.478000", "113041.480000", "113041.483000", "113041.485000", "113041.487000", "113041.490000", "113041.492000", "113041.495000", "113041.497000", "113041.499000", "113041.502000", "113041.504000", "113041.506000", "113041.509000", "113041.511000", "113041.513000", "113041.516000", "113041.518000", "113121.473000", "113121.476000", "113121.478000", "113121.480000", "113121.483000", "113121.485000", "113121.487000", "113121.490000", "113121.492000", "113121.495000", "113121.497000", "113121.499000", "113121.502000", "113121.504000", "113121.507000", "113121.509000", "113121.511000", "113121.514000", "113121.516000", "113121.518000", "113201.474000", "113201.477000", "113201.479000", "113201.482000", "113201.484000", "113201.486000", "113201.489000", "113201.491000", "113201.494000", "113201.496000", "113201.498000", "113201.501000", "113201.503000", "113201.506000", "113201.508000", "113201.510000", "113201.513000", "113201.515000", "113201.517000", "113201.520000", "113241.473000", "113241.490000", "113241.493000", "113241.504000", "113241.506000", "113241.509000", "113241.511000", "113241.513000", "113241.516000", "113241.518000", "113241.520000", "113241.523000", "113241.525000", "113241.527000", "113241.530000", "113241.532000", "113241.534000", "113241.537000", "113241.539000", "113241.541000", "113301.947000", "113301.950000", "113301.953000", "113301.955000", "113301.958000", "113301.960000", "113301.963000", "113301.965000", "113301.967000", "113301.970000", "113301.972000"],
      "InstanceNumber": [1, 2, 3, 4, 5, 6, 7, 8, 9, 10, 11, 12, 13, 14, 15, 16, 17, 18, 19, 20, 21, 22, 23, 24, 25, 26, 27, 28, 29, 30, 31, 32, 33, 34, 35, 36, 37, 38, 39, 40, 41, 42, 43, 44, 45, 46, 47, 48, 49, 50, 51, 52, 53, 54, 55, 56, 57, 58, 59, 60, 61, 62, 63, 64, 65, 66, 67, 68, 69, 70, 71, 72, 73, 74, 75, 76, 77, 78, 79, 80, 81, 82, 83, 84, 85, 86, 87, 88, 89, 90, 91, 92, 93, 94, 95, 96, 97, 98, 99, 100, 101, 102, 103, 104, 105, 106, 107, 108, 109, 110, 111, 112, 113, 114, 115, 116, 117, 118, 119, 120, 121, 122, 123, 124, 125, 126, 127, 128, 129, 130, 131, 132, 133, 134, 135, 136, 137, 138, 139, 140, 141, 142, 143, 144, 145, 146, 147, 148, 149, 150, 151, 152, 153, 154, 155, 156, 157, 158, 159, 160, 161, 162, 163, 164, 165, 166, 167, 168, 169, 170, 171, 172, 173, 174, 175, 176, 177, 178, 179, 180, 181, 182, 183, 184, 185, 186, 187, 188, 189, 190, 191, 192, 193, 194, 195, 196, 197, 198, 199, 200],
      "LargestImagePixelValue": [2214, 2219, 2210, 2218, 2209, 2213, 2213, 2213, 2213, 2211, 2217, 2216, 2217, 2214, 2210, 2216, 2214, 2214, 2211, 2215, 2218, 2217, 2212, 2213, 2219, 2212, 2210, 2210, 2211, 2217, 2209, 2220, 2212, 2213, 2210, 2215, 2215, 2216, 2216, 2213, 2212, 2212, 2212, 2211, 2214, 2219, 2211, 2212, 2219, 2213, 2214, 2214, 2216, 2214, 2213, 2209, 2211, 2215, 2214, 2212, 2209, 2215, 2212, 2216, 2217, 2211, 2218, 2208, 2207, 2210, 2212, 2213, 2210, 2211, 2211, 2218, 2215, 2216, 2216, 2212, 2216, 2209, 2215, 2215, 2217, 2216, 2209, 2215, 2212, 2214, 2214, 2212, 2212, 2209, 2218, 2211, 2220, 2215, 2214, 2216, 2211, 2214, 2212, 2220, 2213, 2214, 2216, 2215, 2217, 2216, 2217, 2213, 2219, 2215, 2213, 2216, 2215, 2218, 2217, 2213, 2210, 2211, 2216, 2215, 2216, 2214, 2216, 2218, 2210, 2217, 2211, 2216, 2215, 2216, 2220, 2219, 2220, 2216, 2220, 2216, 2217, 2219, 2214, 2220, 2213, 2218, 2217, 2218, 2215, 2217, 2219, 2216, 2218, 2218, 2216, 2214, 2214, 2214, 2213, 2217, 2215, 2213, 2216, 2217, 2215, 2212, 2220, 2215, 2220, 2214, 2215, 2214, 2210, 2217, 2215, 2219, 2215, 2217, 2217, 2216, 2220, 2214, 2220, 2218, 2211, 2219, 2216, 2215, 2213, 2216, 2219, 2215, 2217, 2218, 2215, 2218, 2222, 2220, 2219, 2220],
      "WindowCenter": [966.0, 965.0, 967.0, 966.0, 965.0, 966.0, 967.0, 967.0, 966.0, 968.0, 966.0, 965.0, 966.0, 966.0, 966.0, 966.0, 965.0, 966.0, 965.0, 965.0, 966.0, 968.0, 966.0, 966.0, 966.0, 964.0, 965.0, 966.0, 965.0, 966.0, 966.0, 966.0, 967.0, 965.0, 965.0, 966.0, 965.0, 966.0, 966.0, 965.0, 966.0, 967.0, 966.0, 966.0, 966.0, 967.0, 967.0, 967.0, 965.0, 965.0, 967.0, 966.0, 965.0, 966.0, 966.0, 967.0, 965.0, 967.0, 965.0, 965.0, 966.0, 967.0, 966.0, 966.0, 965.0, 966.0, 967.0, 965.0, 967.0, 965.0, 966.0, 966.0, 965.0, 965.0, 966.0, 966.0, 966.0, 966.0, 966.0, 967.0, 966.0, 965.0, 966.0, 966.0, 966.0, 967.0, 965.0, 967.0, 965.0, 966.0, 966.0, 967.0, 966.0, 967.0, 965.0, 967.0, 965.0, 966.0, 966.0, 967.0, 966.0, 967.0, 967.0, 965.0, 968.0, 965.0, 965.0, 966.0, 965.0, 964.0, 968.0, 966.0, 965.0, 966.0, 965.0, 967.0, 967.0, 966.0, 966.0, 967.0, 966.0, 966.0, 966.0, 967.0, 965.0, 966.0, 966.0, 964.0, 967.0, 966.0, 966.0, 966.0, 967.0, 966.0, 966.0, 965.0, 965.0, 966.0, 966.0, 965.0, 966.0, 965.0, 966.0, 966.0, 965.0, 966.0, 967.0, 965.0, 967.0, 964.0, 967.0, 968.0, 966.0, 966.0, 965.0, 967.0, 965.0, 967.0, 965.0, 966.0, 966.0, 966.0, 966.0, 966.0, 967.0, 966.0, 966.0, 965.0, 965.0, 966.0, 965.0, 965.0, 966.0, 967.0, 966.0, 965.0, 966.0, 968.0, 965.0, 967.0, 966.0, 965.0, 966.0, 966.0, 965.0, 965.0, 966.0, 966.0, 967.0, 966.0, 966.0, 965.0, 967.0, 966.0, 967.0, 965.0, 967.0, 965.0, 967.0, 965.0],
      "WindowWidth": [2276.0, 2276.0, 2277.0, 2277.0, 2275.0, 2277.0, 2277.0, 2277.0, 2277.0, 2278.0, 2276.0, 2275.0, 2276.0, 2277.0, 2277.0, 2277.0, 2276.0, 2277.0, 2276.0, 2275.0, 2277.0, 2278.0, 2277.0, 2277.0, 2277.0, 2274.0, 2276.0, 2277.0, 2276.0, 2276.0, 2275.0, 2276.0, 2277.0, 2276.0, 2274.0, 2277.0, 2276.0, 2277.0, 2277.0, 2276.0, 2277.0, 2277.0, 2276.0, 2277.0, 2276.0, 2278.0, 2277.0, 2278.0, 2275.0, 2276.0, 2277.0, 2277.0, 2275.0, 2276.0, 2277.0, 2277.0, 2276.0, 2278.0, 2276.0, 2276.0, 2277.0, 2278.0, 2277.0, 2277.0, 2276.0, 2277.0, 2278.0, 2275.0, 2278.0, 2275.0, 2277.0, 2276.0, 2276.0, 2276.0, 2277.0, 2277.0, 2276.0, 2277.0, 2277.0, 2277.0, 2276.0, 2276.0, 2276.0, 2276.0, 2277.0, 2277.0, 2276.0, 2277.0, 2276.0, 2277.0, 2276.0, 2277.0, 2276.0, 2277.0, 2276.0, 2277.0, 2276.0, 2276.0, 2277.0, 2277.0, 2277.0, 2277.0, 2277.0, 2276.0, 2278.0, 2276.0, 2276.0, 2276.0, 2276.0, 2275.0, 2278.0, 2276.0, 2276.0, 2276.0, 2276.0, 2277.0, 2277.0, 2277.0, 2276.0, 2277.0, 2276.0, 2276.0, 2276.0, 2277.0, 2276.0, 2276.0, 2277.0, 2275.0, 2277.0, 2276.0, 2276.0, 2277.0, 2277.0, 2277.0, 2276.0, 2276.0, 2276.0, 2276.0, 2276.0, 2275.0, 2276.0, 2275.0, 2276.0, 2276.0, 2275.0, 2276.0, 2277.0, 2276.0, 2277.0, 2275.0, 2277.0, 2278.0, 2276.0, 2276.0, 2276.0, 2277.0, 2276.0, 2277.0, 2276.0, 2276.0, 2276.0, 2277.0, 2276.0, 2277.0, 2277.0, 2276.0, 2276.0, 2275.0, 2276.0, 2276.0, 2276.0, 2275.0, 2276.0, 2277.0, 2276.0, 2276.0, 2276.0, 2278.0, 2275.0, 2277.0, 2276.0, 2275.0, 2276.0, 2276.0, 2276.0, 2275.0, 2276.0, 2277.0, 2277.0, 2276.0, 2276.0, 2276.0, 2277.0, 2276.0, 2277.0, 2275.0, 2277.0, 2275.0, 2277.0, 2275.0]
    },
    "slices": {}
  }
}