{
  "AcquisitionMatrixPE": 80,
  "AcquisitionNumber": 1,
  "AcquisitionTime": "11:39:59.475000",
  "BandwidthPerPixelPhaseEncode": 25,
  "BaseResolution": 80,
  "BodyPartExamined": "BRAIN",
  "CoilCombinationMethod": "Sum of Squares",
  "ConsistencyInfo": "N4_VE11E_LATEST_20181129",
  "ConversionSoftware": "dcm2niix",
  "ConversionSoftwareVersion": "v1.0.20220720",
  "DerivedVendorReportedEchoSpacing": 0.0005,
  "DeviceSerialNumber": "66112",
  "DwellTime": 2.7e-06,
  "EchoTime": 0.03,
  "EchoTrainLength": 80,
  "EffectiveEchoSpacing": 0.0005,
  "FlipAngle": 10,
  "HeudiconvVersion": "0.13.1",
  "ImageOrientationPatientDICOM": [0.999979, 0.00559687, 0.00317511, -0.00628308, 0.955772, 0.294042],
  "ImageOrientationText": "Tra>Cor(17.1)>Sag(0.1)",
  "ImageType": [
    "ORIGINAL",
    "PRIMARY",
    "M",
    "ND",
    "NORM",
    "MOSAIC"
],
  "ImagingFrequency": 123.259,
  "InPlanePhaseEncodingDirectionDICOM": "COL",
  "InstitutionAddress": "Maynard 3,Hanover,NH,US,03755",
  "InstitutionName": "Dartmouth College - PBS",
  "InstitutionalDepartmentName": "Department",
  "MRAcquisitionType": "2D",
  "MagneticFieldStrength": 3,
  "Manufacturer": "Siemens",
  "ManufacturersModelName": "Prisma",
  "MatrixCoilMode": "SENSE",
  "Modality": "MR",
  "NonlinearGradientCorrection": false,
  "PartialFourier": 1,
  "PatientPosition": "HFS",
  "PercentPhaseFOV": 100,
  "PercentSampling": 100,
  "PhaseEncodingDirection": "j-",
  "PhaseEncodingSteps": 80,
  "PhaseResolution": 1,
  "PixelBandwidth": 2315,
  "ProcedureStepDescription": "dbic^QA",
  "ProtocolName": "func-bold_fa-10",
  "PulseSequenceDetails": "%SiemensSeq%\\ep2d_bold",
  "ReceiveCoilActiveElements": "HEA;HEP",
  "ReceiveCoilName": "Head_32",
  "ReconMatrixPE": 80,
  "RepetitionTime": 2,
  "SAR": 0.0151412,
  "ScanOptions": "FS",
  "ScanningSequence": "EP",
  "SequenceName": "*epfid2d1_80",
  "SequenceVariant": "SK",
  "SeriesDescription": "func-bold_fa-10",
  "SeriesNumber": 8,
  "ShimSetting": [4222, -7733, -7505, -35, -148, -14, -7, 91],
  "SliceThickness": 3.5,
  "SliceTiming": [0.99, 0, 1.055, 0.065, 1.12, 0.13, 1.1875, 0.1975, 1.2525, 0.2625, 1.32, 0.33, 1.385, 0.395, 1.45, 0.46, 1.5175, 0.5275, 1.5825, 0.5925, 1.6475, 0.66, 1.715, 0.725, 1.78, 0.79, 1.8475, 0.8575, 1.9125, 0.9225],
  "SoftwareVersions": "syngo MR E11",
  "SpacingBetweenSlices": 3.99,
  "StationName": "AWP66112",
  "TotalReadoutTime": 0.0395,
  "TxRefAmp": 227.883,
  "dcmmeta_affine": [
    [-2.9999377727508545, -0.018849238753318787, 0.0055419704876840115, 121.08999633789062],
    [-0.016790619120001793, 2.8673155307769775, 1.1732828617095947, -122.14995574951172],
    [0.009525329805910587, -0.882125973701477, 3.8135910034179688, -24.597349166870117],
    [0.0, 0.0, 0.0, 1.0]
],
  "dcmmeta_reorient_transform": [
    [0.0, -1.0, 0.0, 79.0],
    [1.0, 0.0, 0.0, 0.0],
    [0.0, 0.0, 1.0, 0.0],
    [0.0, 0.0, 0.0, 1.0]
],
  "dcmmeta_shape": [80, 80, 30, 200],
  "dcmmeta_slice_dim": 2,
  "dcmmeta_version": 0.6,
  "global": {
    "const": {
      "AccessionNumber": "qa",
      "AcquisitionMatrix": [80, 0, 0, 80],
      "AngioFlag": "N",
      "BitsAllocated": 16,
      "BitsStored": 12,
      "BodyPartExamined": "BRAIN",
      "Columns": 480,
      "EchoNumbers": 1,
      "EchoTime": 30.0,
      "EchoTrainLength": 80,
      "FlipAngle": 10.0,
      "HighBit": 11,
      "ImageOrientationPatient": [0.99997929662847, 0.00559687330892, 0.00317511001303, -0.0062830797016, 0.95577185259611, 0.29404198457782],
      "ImagePositionPatient": [-715.81863938155, -681.1892077035, -272.61555554194],
      "ImageType": [
        "ORIGINAL",
        "PRIMARY",
        "M",
        "ND",
        "NORM",
        "MOSAIC"
],
      "ImagedNucleus": "1H",
      "ImagingFrequency": 123.259168,
      "InPlanePhaseEncodingDirection": "COL",
      "MRAcquisitionType": "2D",
      "MagneticFieldStrength": 3.0,
      "Manufacturer": "SIEMENS",
      "ManufacturerModelName": "Prisma",
      "Modality": "MR",
      "NumberOfAverages": 1.0,
      "NumberOfPhaseEncodingSteps": 80,
      "PercentPhaseFieldOfView": 100.0,
      "PercentSampling": 100.0,
      "PerformedProcedureStepStartTime": "105618.104000",
      "PhotometricInterpretation": "MONOCHROME2",
      "PixelBandwidth": 2315.0,
      "PixelRepresentation": 0,
      "PixelSpacing": [3.0, 3.0],
      "ProtocolName": "func-bold_fa-10",
      "RepetitionTime": 2000.0,
      "Rows": 480,
      "SAR": 0.01514122274875,
      "SamplesPerPixel": 1,
      "ScanOptions": "FS",
      "ScanningSequence": "EP",
      "SequenceName": "*epfid2d1_80",
      "SequenceVariant": "SK",
      "SeriesDescription": "func-bold_fa-10",
      "SeriesNumber": 8,
      "SeriesTime": "114041.390000",
      "SliceLocation": -59.260550733183,
      "SliceThickness": 3.5,
      "SmallestImagePixelValue": 0,
      "SoftwareVersions": "syngo MR E11",
      "SpacingBetweenSlices": 3.9899999538027,
      "SpecificCharacterSet": "ISO_IR 100",
      "StudyID": "35",
      "StudyTime": "105618.010000",
      "TransmitCoilName": "Body",
      "VariableFlipAngleFlag": "N",
      "WindowCenterWidthExplanation": "Algo1"
    },
    "slices": {}
  },
  "time": {
    "samples": {
      "AcquisitionNumber": [1, 2, 3, 4, 5, 6, 7, 8, 9, 10, 11, 12, 13, 14, 15, 16, 17, 18, 19, 20, 21, 22, 23, 24, 25, 26, 27, 28, 29, 30, 31, 32, 33, 34, 35, 36, 37, 38, 39, 40, 41, 42, 43, 44, 45, 46, 47, 48, 49, 50, 51, 52, 53, 54, 55, 56, 57, 58, 59, 60, 61, 62, 63, 64, 65, 66, 67, 68, 69, 70, 71, 72, 73, 74, 75, 76, 77, 78, 79, 80, 81, 82, 83, 84, 85, 86, 87, 88, 89, 90, 91, 92, 93, 94, 95, 96, 97, 98, 99, 100, 101, 102, 103, 104, 105, 106, 107, 108, 109, 110, 111, 112, 113, 114, 115, 116, 117, 118, 119, 120, 121, 122, 123, 124, 125, 126, 127, 128, 129, 130, 131, 132, 133, 134, 135, 136, 137, 138, 139, 140, 141, 142, 143, 144, 145, 146, 147, 148, 149, 150, 151, 152, 153, 154, 155, 156, 157, 158, 159, 160, 161, 162, 163, 164, 165, 166, 167, 168, 169, 170, 171, 172, 173, 174, 175, 176, 177, 178, 179, 180, 181, 182, 183, 184, 185, 186, 187, 188, 189, 190, 191, 192, 193, 194, 195, 196, 197, 198, 199, 200],
      "AcquisitionTime": ["113959.475000", "114001.475000", "114003.475000", "114005.475000", "114007.475000", "114009.475000", "114011.475000", "114013.475000", "114015.475000", "114017.475000", "114019.475000", "114021.475000", "114023.475000", "114025.475000", "114027.475000", "114029.475000", "114031.475000", "114033.475000", "114035.475000", "114037.475000", "114039.475000", "114041.475000", "114043.475000", "114045.475000", "114047.475000", "114049.475000", "114051.475000", "114053.475000", "114055.475000", "114057.475000", "114059.475000", "114101.475000", "114103.475000", "114105.475000", "114107.475000", "114109.475000", "114111.475000", "114113.475000", "114115.475000", "114117.475000", "114119.475000", "114121.475000", "114123.475000", "114125.475000", "114127.475000", "114129.475000", "114131.475000", "114133.475000", "114135.475000", "114137.475000", "114139.475000", "114141.475000", "114143.475000", "114145.475000", "114147.475000", "114149.475000", "114151.475000", "114153.475000", "114155.475000", "114157.475000", "114159.475000", "114201.475000", "114203.475000", "114205.475000", "114207.475000", "114209.475000", "114211.475000", "114213.475000", "114215.475000", "114217.475000", "114219.475000", "114221.475000", "114223.475000", "114225.475000", "114227.475000", "114229.475000", "114231.475000", "114233.475000", "114235.475000", "114237.475000", "114239.475000", "114241.475000", "114243.475000", "114245.475000", "114247.475000", "114249.475000", "114251.475000", "114253.475000", "114255.475000", "114257.475000", "114259.475000", "114301.475000", "114303.475000", "114305.475000", "114307.475000", "114309.475000", "114311.475000", "114313.475000", "114315.475000", "114317.475000", "114319.475000", "114321.475000", "114323.475000", "114325.475000", "114327.475000", "114329.475000", "114331.475000", "114333.475000", "114335.475000", "114337.475000", "114339.475000", "114341.475000", "114343.475000", "114345.475000", "114347.475000", "114349.475000", "114351.475000", "114353.475000", "114355.475000", "114357.475000", "114359.475000", "114401.475000", "114403.475000", "114405.475000", "114407.475000", "114409.475000", "114411.475000", "114413.475000", "114415.475000", "114417.475000", "114419.475000", "114421.475000", "114423.475000", "114425.475000", "114427.475000", "114429.475000", "114431.475000", "114433.475000", "114435.475000", "114437.475000", "114439.475000", "114441.475000", "114443.475000", "114445.475000", "114447.475000", "114449.475000", "114451.475000", "114453.475000", "114455.475000", "114457.475000", "114459.475000", "114501.475000", "114503.475000", "114505.475000", "114507.475000", "114509.475000", "114511.475000", "114513.475000", "114515.475000", "114517.475000", "114519.475000", "114521.475000", "114523.475000", "114525.475000", "114527.475000", "114529.475000", "114531.475000", "114533.475000", "114535.475000", "114537.475000", "114539.475000", "114541.475000", "114543.475000", "114545.475000", "114547.475000", "114549.475000", "114551.475000", "114553.475000", "114555.475000", "114557.475000", "114559.475000", "114601.475000", "114603.475000", "114605.475000", "114607.475000", "114609.475000", "114611.475000", "114613.475000", "114615.475000", "114617.475000", "114619.475000", "114621.475000", "114623.475000", "114625.475000", "114627.475000", "114629.475000", "114631.475000", "114633.475000", "114635.475000", "114637.475000"],
      "ContentTime": ["114041.393000", "114041.396000", "114041.399000", "114041.401000", "114041.403000", "114041.406000", "114041.408000", "114041.410000", "114041.413000", "114041.415000", "114041.417000", "114041.419000", "114041.422000", "114041.424000", "114041.426000", "114041.429000", "114041.431000", "114041.433000", "114041.436000", "114041.438000", "114041.440000", "114121.389000", "114121.392000", "114121.394000", "114121.396000", "114121.399000", "114121.402000", "114121.404000", "114121.406000", "114121.409000", "114121.411000", "114121.413000", "114121.415000", "114121.418000", "114121.420000", "114121.422000", "114121.425000", "114121.427000", "114121.429000", "114121.432000", "114121.434000", "114201.388000", "114201.391000", "114201.393000", "114201.395000", "114201.398000", "114201.400000", "114201.403000", "114201.405000", "114201.407000", "114201.410000", "114201.412000", "114201.414000", "114201.417000", "114201.419000", "114201.421000", "114201.424000", "114201.426000", "114201.428000", "114201.431000", "114201.433000", "114241.388000", "114241.391000", "114241.393000", "114241.395000", "114241.398000", "114241.400000", "114241.402000", "114241.405000", "114241.407000", "114241.409000", "114241.412000", "114241.414000", "114241.416000", "114241.419000", "114241.421000", "114241.423000", "114241.426000", "114241.428000", "114241.430000", "114241.432000", "114321.389000", "114321.392000", "114321.394000", "114321.396000", "114321.399000", "114321.401000", "114321.403000", "114321.406000", "114321.408000", "114321.411000", "114321.413000", "114321.415000", "114321.418000", "114321.420000", "114321.422000", "114321.424000", "114321.427000", "114321.429000", "114321.431000", "114321.434000", "114401.388000", "114401.391000", "114401.393000", "114401.395000", "114401.398000", "114401.400000", "114401.412000", "114401.415000", "114401.417000", "114401.420000", "114401.422000", "114401.424000", "114401.426000", "114401.429000", "114401.431000", "114401.433000", "114401.436000", "114401.438000", "114401.440000", "114401.443000", "114441.388000", "114441.391000", "114441.393000", "114441.395000", "114441.398000", "114441.400000", "114441.402000", "114441.405000", "114441.407000", "114441.409000", "114441.412000", "114441.414000", "114441.416000", "114441.419000", "114441.421000", "114441.423000", "114441.426000", "114441.428000", "114441.430000", "114441.433000", "114521.388000", "114521.391000", "114521.393000", "114521.395000", "114521.398000", "114521.400000", "114521.402000", "114521.405000", "114521.407000", "114521.409000", "114521.412000", "114521.414000", "114521.416000", "114521.419000", "114521.421000", "114521.423000", "114521.426000", "114521.428000", "114521.430000", "114521.433000", "114601.389000", "114601.400000", "114601.402000", "114601.405000", "114601.407000", "114601.409000", "114601.412000", "114601.414000", "114601.416000", "114601.419000", "114601.421000", "114601.423000", "114601.426000", "114601.428000", "114601.431000", "114601.433000", "114601.435000", "114601.438000", "114601.440000", "114601.442000", "114638.533000", "114638.536000", "114638.538000", "114638.541000", "114638.543000", "114638.545000", "114638.548000", "114638.550000", "114638.552000", "114638.555000", "114638.557000", "114638.559000", "114638.562000", "114638.564000", "114638.572000", "114638.575000", "114638.578000", "114638.581000", "114638.590000"],
      "InstanceCreationTime": ["114041.393000", "114041.396000", "114041.399000", "114041.401000", "114041.403000", "114041.406000", "114041.408000", "114041.410000", "114041.413000", "114041.415000", "114041.417000", "114041.419000", "114041.422000", "114041.424000", "114041.426000", "114041.429000", "114041.431000", "114041.433000", "114041.436000", "114041.438000", "114041.440000", "114121.389000", "114121.392000", "114121.394000", "114121.396000", "114121.399000", "114121.402000", "114121.404000", "114121.406000", "114121.409000", "114121.411000", "114121.413000", "114121.415000", "114121.418000", "114121.420000", "114121.422000", "114121.425000", "114121.427000", "114121.429000", "114121.432000", "114121.434000", "114201.388000", "114201.391000", "114201.393000", "114201.395000", "114201.398000", "114201.400000", "114201.403000", "114201.405000", "114201.407000", "114201.410000", "114201.412000", "114201.414000", "114201.417000", "114201.419000", "114201.421000", "114201.424000", "114201.426000", "114201.428000", "114201.431000", "114201.433000", "114241.388000", "114241.391000", "114241.393000", "114241.395000", "114241.398000", "114241.400000", "114241.402000", "114241.405000", "114241.407000", "114241.409000", "114241.412000", "114241.414000", "114241.416000", "114241.419000", "114241.421000", "114241.423000", "114241.426000", "114241.428000", "114241.430000", "114241.432000", "114321.389000", "114321.392000", "114321.394000", "114321.396000", "114321.399000", "114321.401000", "114321.403000", "114321.406000", "114321.408000", "114321.411000", "114321.413000", "114321.415000", "114321.418000", "114321.420000", "114321.422000", "114321.424000", "114321.427000", "114321.429000", "114321.431000", "114321.434000", "114401.388000", "114401.391000", "114401.393000", "114401.395000", "114401.398000", "114401.400000", "114401.412000", "114401.415000", "114401.417000", "114401.420000", "114401.422000", "114401.424000", "114401.426000", "114401.429000", "114401.431000", "114401.433000", "114401.436000", "114401.438000", "114401.440000", "114401.443000", "114441.388000", "114441.391000", "114441.393000", "114441.395000", "114441.398000", "114441.400000", "114441.402000", "114441.405000", "114441.407000", "114441.409000", "114441.412000", "114441.414000", "114441.416000", "114441.419000", "114441.421000", "114441.423000", "114441.426000", "114441.428000", "114441.430000", "114441.433000", "114521.388000", "114521.391000", "114521.393000", "114521.395000", "114521.398000", "114521.400000", "114521.402000", "114521.405000", "114521.407000", "114521.409000", "114521.412000", "114521.414000", "114521.416000", "114521.419000", "114521.421000", "114521.423000", "114521.426000", "114521.428000", "114521.430000", "114521.433000", "114601.389000", "114601.400000", "114601.402000", "114601.405000", "114601.407000", "114601.409000", "114601.412000", "114601.414000", "114601.416000", "114601.419000", "114601.421000", "114601.423000", "114601.426000", "114601.428000", "114601.431000", "114601.433000", "114601.435000", "114601.438000", "114601.440000", "114601.442000", "114638.533000", "114638.536000", "114638.538000", "114638.541000", "114638.543000", "114638.545000", "114638.548000", "114638.550000", "114638.552000", "114638.555000", "114638.557000", "114638.559000", "114638.562000", "114638.564000", "114638.572000", "114638.575000", "114638.578000", "114638.581000", "114638.590000"],
      "InstanceNumber": [1, 2, 3, 4, 5, 6, 7, 8, 9, 10, 11, 12, 13, 14, 15, 16, 17, 18, 19, 20, 21, 22, 23, 24, 25, 26, 27, 28, 29, 30, 31, 32, 33, 34, 35, 36, 37, 38, 39, 40, 41, 42, 43, 44, 45, 46, 47, 48, 49, 50, 51, 52, 53, 54, 55, 56, 57, 58, 59, 60, 61, 62, 63, 64, 65, 66, 67, 68, 69, 70, 71, 72, 73, 74, 75, 76, 77, 78, 79, 80, 81, 82, 83, 84, 85, 86, 87, 88, 89, 90, 91, 92, 93, 94, 95, 96, 97, 98, 99, 100, 101, 102, 103, 104, 105, 106, 107, 108, 109, 110, 111, 112, 113, 114, 115, 116, 117, 118, 119, 120, 121, 122, 123, 124, 125, 126, 127, 128, 129, 130, 131, 132, 133, 134, 135, 136, 137, 138, 139, 140, 141, 142, 143, 144, 145, 146, 147, 148, 149, 150, 151, 152, 153, 154, 155, 156, 157, 158, 159, 160, 161, 162, 163, 164, 165, 166, 167, 168, 169, 170, 171, 172, 173, 174, 175, 176, 177, 178, 179, 180, 181, 182, 183, 184, 185, 186, 187, 188, 189, 190, 191, 192, 193, 194, 195, 196, 197, 198, 199, 200],
      "LargestImagePixelValue": [371, 373, 371, 374, 373, 373, 373, 374, 372, 373, 372, 373, 373, 372, 375, 371, 372, 372, 372, 372, 371, 371, 374, 372, 370, 372, 372, 374, 372, 372, 374, 371, 373, 372, 374, 372, 372, 374, 373, 374, 374, 373, 372, 373, 371, 373, 372, 374, 374, 371, 373, 371, 371, 373, 371, 374, 373, 373, 374, 372, 373, 373, 373, 372, 372, 372, 373, 373, 373, 372, 373, 372, 372, 374, 373, 374, 372, 371, 373, 372, 373, 373, 372, 372, 373, 372, 374, 372, 372, 373, 372, 373, 372, 372, 374, 372, 373, 372, 373, 373, 372, 373, 372, 371, 373, 373, 372, 374, 372, 374, 372, 370, 372, 371, 373, 372, 373, 374, 371, 373, 372, 370, 373, 373, 372, 373, 372, 374, 371, 371, 373, 373, 373, 371, 372, 373, 371, 373, 373, 370, 373, 373, 371, 374, 372, 373, 372, 372, 375, 371, 373, 372, 372, 372, 370, 372, 372, 372, 373, 372, 373, 373, 371, 372, 371, 372, 374, 371, 373, 374, 372, 373, 373, 373, 373, 370, 372, 372, 373, 373, 372, 373, 372, 372, 373, 372, 372, 371, 372, 371, 372, 372, 372, 370, 373, 370, 372, 373, 369, 373],
      "WindowCenter": [302.0, 301.0, 301.0, 302.0, 301.0, 301.0, 301.0, 301.0, 302.0, 301.0, 301.0, 301.0, 301.0, 301.0, 301.0, 301.0, 301.0, 301.0, 301.0, 301.0, 301.0, 301.0, 301.0, 301.0, 301.0, 301.0, 301.0, 301.0, 301.0, 301.0, 301.0, 301.0, 301.0, 301.0, 301.0, 301.0, 301.0, 301.0, 301.0, 301.0, 301.0, 301.0, 301.0, 301.0, 301.0, 301.0, 301.0, 301.0, 301.0, 301.0, 301.0, 301.0, 301.0, 301.0, 301.0, 301.0, 301.0, 301.0, 301.0, 301.0, 301.0, 301.0, 301.0, 301.0, 301.0, 301.0, 301.0, 301.0, 301.0, 301.0, 301.0, 301.0, 301.0, 301.0, 301.0, 301.0, 301.0, 301.0, 301.0, 301.0, 301.0, 301.0, 301.0, 301.0, 301.0, 301.0, 301.0, 301.0, 301.0, 301.0, 301.0, 301.0, 301.0, 301.0, 301.0, 301.0, 301.0, 301.0, 301.0, 301.0, 301.0, 301.0, 301.0, 301.0, 301.0, 301.0, 301.0, 301.0, 301.0, 301.0, 301.0, 301.0, 301.0, 301.0, 301.0, 301.0, 301.0, 301.0, 301.0, 301.0, 301.0, 301.0, 301.0, 301.0, 301.0, 301.0, 301.0, 301.0, 301.0, 301.0, 301.0, 301.0, 301.0, 301.0, 301.0, 301.0, 301.0, 301.0, 301.0, 301.0, 301.0, 301.0, 301.0, 301.0, 301.0, 301.0, 301.0, 301.0, 301.0, 301.0, 301.0, 301.0, 301.0, 301.0, 301.0, 301.0, 301.0, 301.0, 301.0, 301.0, 301.0, 301.0, 301.0, 301.0, 301.0, 301.0, 301.0, 301.0, 301.0, 301.0, 301.0, 301.0, 301.0, 301.0, 301.0, 301.0, 301.0, 301.0, 301.0, 301.0, 301.0, 301.0, 301.0, 301.0, 301.0, 301.0, 301.0, 300.0, 301.0, 301.0, 301.0, 301.0, 301.0, 301.0, 300.0, 301.0, 301.0, 301.0, 300.0, 301.0],
      "WindowWidth": [653.0, 652.0, 652.0, 653.0, 652.0, 652.0, 652.0, 652.0, 653.0, 652.0, 652.0, 652.0, 652.0, 652.0, 652.0, 652.0, 652.0, 652.0, 652.0, 651.0, 652.0, 652.0, 652.0, 652.0, 652.0, 652.0, 652.0, 651.0, 652.0, 652.0, 651.0, 652.0, 651.0, 652.0, 652.0, 652.0, 652.0, 652.0, 652.0, 652.0, 652.0, 652.0, 652.0, 651.0, 652.0, 652.0, 651.0, 651.0, 652.0, 651.0, 652.0, 652.0, 652.0, 651.0, 652.0, 651.0, 652.0, 652.0, 651.0, 652.0, 651.0, 652.0, 652.0, 652.0, 652.0, 651.0, 652.0, 651.0, 651.0, 652.0, 652.0, 652.0, 652.0, 652.0, 652.0, 652.0, 651.0, 651.0, 651.0, 652.0, 652.0, 651.0, 652.0, 651.0, 651.0, 652.0, 651.0, 651.0, 651.0, 651.0, 652.0, 652.0, 651.0, 651.0, 651.0, 651.0, 652.0, 651.0, 651.0, 651.0, 651.0, 652.0, 651.0, 652.0, 651.0, 651.0, 651.0, 651.0, 652.0, 651.0, 651.0, 651.0, 651.0, 651.0, 651.0, 651.0, 651.0, 651.0, 651.0, 651.0, 651.0, 652.0, 651.0, 651.0, 651.0, 651.0, 651.0, 652.0, 652.0, 651.0, 651.0, 651.0, 651.0, 651.0, 651.0, 651.0, 652.0, 651.0, 651.0, 651.0, 651.0, 651.0, 651.0, 651.0, 651.0, 651.0, 651.0, 651.0, 651.0, 651.0, 652.0, 651.0, 652.0, 651.0, 651.0, 651.0, 651.0, 651.0, 651.0, 651.0, 651.0, 651.0, 652.0, 651.0, 651.0, 651.0, 651.0, 651.0, 651.0, 651.0, 652.0, 651.0, 651.0, 651.0, 651.0, 651.0, 651.0, 651.0, 651.0, 651.0, 651.0, 651.0, 651.0, 651.0, 651.0, 651.0, 651.0, 650.0, 651.0, 651.0, 651.0, 651.0, 651.0, 651.0, 650.0, 651.0, 651.0, 651.0, 650.0, 651.0]
    },
    "slices": {}
  }
}