{
  "AcquisitionMatrixPE": 80,
  "AcquisitionNumber": 1,
  "AcquisitionTime": "10:01:47.502500",
  "BandwidthPerPixelPhaseEncode": 25,
  "BaseResolution": 80,
  "BodyPartExamined": "BRAIN",
  "CoilCombinationMethod": "Sum of Squares",
  "ConsistencyInfo": "N4_VE11C_LATEST_20160120",
  "ConversionSoftware": "dcm2niix",
  "ConversionSoftwareVersion": "v1.0.20220720",
  "DerivedVendorReportedEchoSpacing": 0.0005,
  "DeviceSerialNumber": "66112",
  "DwellTime": 2.7e-06,
  "EchoTime": 0.03,
  "EchoTrainLength": 80,
  "EffectiveEchoSpacing": 0.0005,
  "FlipAngle": 10,
  "HeudiconvVersion": "0.13.1",
  "ImageOrientationPatientDICOM": [0.999936, 0.0080225, -0.00802984, -0.00523574, 0.953671, 0.300806],
  "ImageOrientationText": "Tra>Cor(17.5)>Sag(-0.6)",
  "ImageType": [
    "ORIGINAL",
    "PRIMARY",
    "M",
    "ND",
    "NORM",
    "MOSAIC"
],
  "ImagingFrequency": 123.252,
  "InPlanePhaseEncodingDirectionDICOM": "COL",
  "InstitutionAddress": "Maynard 3,Hanover,NH,US,03755",
  "InstitutionName": "Dartmouth College - PBS",
  "InstitutionalDepartmentName": "Department",
  "MRAcquisitionType": "2D",
  "MagneticFieldStrength": 3,
  "Manufacturer": "Siemens",
  "ManufacturersModelName": "Prisma",
  "MatrixCoilMode": "SENSE",
  "Modality": "MR",
  "NonlinearGradientCorrection": false,
  "PartialFourier": 1,
  "PatientPosition": "HFS",
  "PercentPhaseFOV": 100,
  "PercentSampling": 100,
  "PhaseEncodingDirection": "j-",
  "PhaseEncodingSteps": 80,
  "PhaseResolution": 1,
  "PixelBandwidth": 2315,
  "ProcedureStepDescription": "dbic^QA",
  "ProtocolName": "func-bold_fa-10",
  "PulseSequenceDetails": "%SiemensSeq%\\ep2d_bold",
  "ReceiveCoilActiveElements": "HEA;HEP",
  "ReceiveCoilName": "Head_32",
  "ReconMatrixPE": 80,
  "RepetitionTime": 2,
  "SAR": 0.011723,
  "ScanOptions": "FS",
  "ScanningSequence": "EP",
  "SequenceName": "*epfid2d1_80",
  "SequenceVariant": "SK",
  "SeriesDescription": "func-bold_fa-10",
  "SeriesNumber": 10,
  "ShimSetting": [4148, -7712, -7517, 279, -67, -70, 41, 85],
  "SliceThickness": 3.5,
  "SliceTiming": [0.99, 0, 1.0575, 0.0675, 1.1225, 0.1325, 1.1875, 0.1975, 1.255, 0.265, 1.32, 0.33, 1.3875, 0.3975, 1.4525, 0.4625, 1.5175, 0.5275, 1.585, 0.595, 1.65, 0.66, 1.7175, 0.7275, 1.7825, 0.7925, 1.8475, 0.8575, 1.915, 0.925],
  "SoftwareVersions": "syngo MR E11",
  "SpacingBetweenSlices": 3.99,
  "StationName": "AWP66112",
  "TotalReadoutTime": 0.0395,
  "TxRefAmp": 227.18,
  "dcmmeta_affine": [
    [-2.9998066425323486, -0.015707217156887054, -0.040183477103710175, 120.75067901611328],
    [-0.024067509919404984, 2.8610126972198486, 1.1999716758728027, -122.60449981689453],
    [-0.024089528247714043, -0.9024186134338379, 3.8050694465637207, -11.826505661010742],
    [0.0, 0.0, 0.0, 1.0]
],
  "dcmmeta_reorient_transform": [
    [0.0, -1.0, 0.0, 79.0],
    [1.0, 0.0, 0.0, 0.0],
    [0.0, 0.0, 1.0, 0.0],
    [0.0, 0.0, 0.0, 1.0]
],
  "dcmmeta_shape": [80, 80, 30, 200],
  "dcmmeta_slice_dim": 2,
  "dcmmeta_version": 0.6,
  "global": {
    "const": {
      "AccessionNumber": "qa",
      "AcquisitionMatrix": [80, 0, 0, 80],
      "AngioFlag": "N",
      "BitsAllocated": 16,
      "BitsStored": 12,
      "BodyPartExamined": "BRAIN",
      "Columns": 480,
      "EchoNumbers": 1,
      "EchoTime": 30.0,
      "EchoTrainLength": 80,
      "FlipAngle": 10.0,
      "HighBit": 11,
      "ImageOrientationPatient": [0.99993557845428, 0.00802250360761, -0.0080298429105, -0.0052357390227, 0.95367091333677, 0.3008062101957],
      "ImagePositionPatient": [-716.32971235466, -680.43155783027, -258.78339759229],
      "ImageType": [
        "ORIGINAL",
        "PRIMARY",
        "M",
        "ND",
        "NORM",
        "MOSAIC"
],
      "ImagedNucleus": "1H",
      "ImagingFrequency": 123.252346,
      "InPlanePhaseEncodingDirection": "COL",
      "MRAcquisitionType": "2D",
      "MagneticFieldStrength": 3.0,
      "Manufacturer": "SIEMENS",
      "ManufacturerModelName": "Prisma",
      "Modality": "MR",
      "NumberOfAverages": 1.0,
      "NumberOfPhaseEncodingSteps": 80,
      "PercentPhaseFieldOfView": 100.0,
      "PercentSampling": 100.0,
      "PerformedProcedureStepStartTime": "093859.191000",
      "PhotometricInterpretation": "MONOCHROME2",
      "PixelBandwidth": 2315.0,
      "PixelRepresentation": 0,
      "PixelSpacing": [3.0, 3.0],
      "ProtocolName": "func-bold_fa-10",
      "RepetitionTime": 2000.0,
      "Rows": 480,
      "SAR": 0.01172303482878,
      "SamplesPerPixel": 1,
      "ScanOptions": "FS",
      "ScanningSequence": "EP",
      "SequenceName": "*epfid2d1_80",
      "SequenceVariant": "SK",
      "SeriesDescription": "func-bold_fa-10",
      "SeriesNumber": 10,
      "SeriesTime": "100234.852000",
      "SliceLocation": -49.367114287749,
      "SliceThickness": 3.5,
      "SmallestImagePixelValue": 0,
      "SoftwareVersions": "syngo MR E11",
      "SpacingBetweenSlices": 3.9899999645335,
      "SpecificCharacterSet": "ISO_IR 100",
      "StudyID": "1",
      "StudyTime": "093859.141000",
      "TransmitCoilName": "Body",
      "VariableFlipAngleFlag": "N",
      "WindowCenterWidthExplanation": "Algo1",
      "dBdt": 0.0},
    "slices": {}
  },
  "time": {
    "samples": {
      "AcquisitionNumber": [1, 2, 3, 4, 5, 6, 7, 8, 9, 10, 11, 12, 13, 14, 15, 16, 17, 18, 19, 20, 21, 22, 23, 24, 25, 26, 27, 28, 29, 30, 31, 32, 33, 34, 35, 36, 37, 38, 39, 40, 41, 42, 43, 44, 45, 46, 47, 48, 49, 50, 51, 52, 53, 54, 55, 56, 57, 58, 59, 60, 61, 62, 63, 64, 65, 66, 67, 68, 69, 70, 71, 72, 73, 74, 75, 76, 77, 78, 79, 80, 81, 82, 83, 84, 85, 86, 87, 88, 89, 90, 91, 92, 93, 94, 95, 96, 97, 98, 99, 100, 101, 102, 103, 104, 105, 106, 107, 108, 109, 110, 111, 112, 113, 114, 115, 116, 117, 118, 119, 120, 121, 122, 123, 124, 125, 126, 127, 128, 129, 130, 131, 132, 133, 134, 135, 136, 137, 138, 139, 140, 141, 142, 143, 144, 145, 146, 147, 148, 149, 150, 151, 152, 153, 154, 155, 156, 157, 158, 159, 160, 161, 162, 163, 164, 165, 166, 167, 168, 169, 170, 171, 172, 173, 174, 175, 176, 177, 178, 179, 180, 181, 182, 183, 184, 185, 186, 187, 188, 189, 190, 191, 192, 193, 194, 195, 196, 197, 198, 199, 200],
      "AcquisitionTime": ["100147.502500", "100149.502500", "100151.502500", "100153.502500", "100155.502500", "100157.502500", "100159.502500", "100201.502500", "100203.502500", "100205.502500", "100207.502500", "100209.502500", "100211.502500", "100213.502500", "100215.502500", "100217.502500", "100219.502500", "100221.502500", "100223.502500", "100225.502500", "100227.502500", "100229.502500", "100231.502500", "100233.502500", "100235.502500", "100237.502500", "100239.502500", "100241.502500", "100243.502500", "100245.502500", "100247.502500", "100249.502500", "100251.502500", "100253.502500", "100255.502500", "100257.502500", "100259.502500", "100301.502500", "100303.502500", "100305.502500", "100307.502500", "100309.502500", "100311.502500", "100313.502500", "100315.502500", "100317.502500", "100319.502500", "100321.502500", "100323.502500", "100325.502500", "100327.502500", "100329.502500", "100331.502500", "100333.502500", "100335.502500", "100337.502500", "100339.502500", "100341.502500", "100343.502500", "100345.502500", "100347.502500", "100349.502500", "100351.502500", "100353.502500", "100355.502500", "100357.502500", "100359.502500", "100401.502500", "100403.502500", "100405.502500", "100407.502500", "100409.502500", "100411.502500", "100413.502500", "100415.502500", "100417.502500", "100419.502500", "100421.502500", "100423.502500", "100425.502500", "100427.502500", "100429.502500", "100431.502500", "100433.502500", "100435.502500", "100437.502500", "100439.502500", "100441.502500", "100443.502500", "100445.502500", "100447.502500", "100449.502500", "100451.502500", "100453.502500", "100455.502500", "100457.502500", "100459.502500", "100501.502500", "100503.502500", "100505.502500", "100507.502500", "100509.502500", "100511.502500", "100513.502500", "100515.502500", "100517.502500", "100519.502500", "100521.502500", "100523.502500", "100525.502500", "100527.502500", "100529.502500", "100531.502500", "100533.502500", "100535.502500", "100537.502500", "100539.502500", "100541.502500", "100543.502500", "100545.502500", "100547.502500", "100549.502500", "100551.502500", "100553.502500", "100555.502500", "100557.502500", "100559.502500", "100601.502500", "100603.502500", "100605.502500", "100607.502500", "100609.502500", "100611.502500", "100613.502500", "100615.502500", "100617.502500", "100619.502500", "100621.502500", "100623.502500", "100625.502500", "100627.502500", "100629.502500", "100631.502500", "100633.502500", "100635.502500", "100637.502500", "100639.502500", "100641.502500", "100643.502500", "100645.502500", "100647.502500", "100649.502500", "100651.502500", "100653.502500", "100655.502500", "100657.502500", "100659.502500", "100701.502500", "100703.502500", "100705.502500", "100707.502500", "100709.502500", "100711.502500", "100713.502500", "100715.502500", "100717.502500", "100719.502500", "100721.502500", "100723.502500", "100725.502500", "100727.502500", "100729.502500", "100731.502500", "100733.502500", "100735.502500", "100737.502500", "100739.502500", "100741.502500", "100743.502500", "100745.502500", "100747.502500", "100749.502500", "100751.502500", "100753.502500", "100755.502500", "100757.502500", "100759.502500", "100801.502500", "100803.502500", "100805.502500", "100807.502500", "100809.502500", "100811.502500", "100813.502500", "100815.502500", "100817.502500", "100819.502500", "100821.502500", "100823.502500", "100825.502500"],
      "ContentTime": ["100234.855000", "100234.858000", "100234.861000", "100234.870000", "100234.873000", "100234.875000", "100234.878000", "100234.880000", "100234.883000", "100234.885000", "100234.888000", "100234.890000", "100234.893000", "100234.895000", "100234.898000", "100234.900000", "100234.903000", "100234.905000", "100234.908000", "100234.910000", "100234.913000", "100234.916000", "100234.918000", "100314.850000", "100314.853000", "100314.856000", "100314.858000", "100314.861000", "100314.863000", "100314.866000", "100314.868000", "100314.871000", "100314.873000", "100314.876000", "100314.878000", "100314.881000", "100314.883000", "100314.886000", "100314.888000", "100314.891000", "100314.893000", "100314.896000", "100314.898000", "100354.851000", "100354.854000", "100354.857000", "100354.859000", "100354.862000", "100354.864000", "100354.867000", "100354.869000", "100354.872000", "100354.874000", "100354.877000", "100354.879000", "100354.882000", "100354.884000", "100354.887000", "100354.889000", "100354.892000", "100354.894000", "100354.897000", "100354.899000", "100434.850000", "100434.853000", "100434.856000", "100434.858000", "100434.861000", "100434.863000", "100434.866000", "100434.868000", "100434.871000", "100434.873000", "100434.876000", "100434.878000", "100434.881000", "100434.883000", "100434.886000", "100434.888000", "100434.891000", "100434.893000", "100434.896000", "100434.898000", "100514.850000", "100514.853000", "100514.856000", "100514.858000", "100514.861000", "100514.863000", "100514.866000", "100514.868000", "100514.871000", "100514.873000", "100514.876000", "100514.879000", "100514.881000", "100514.884000", "100514.886000", "100514.889000", "100514.891000", "100514.894000", "100514.896000", "100514.899000", "100554.851000", "100554.854000", "100554.857000", "100554.859000", "100554.862000", "100554.864000", "100554.867000", "100554.870000", "100554.872000", "100554.875000", "100554.877000", "100554.880000", "100554.882000", "100554.884000", "100554.887000", "100554.890000", "100554.892000", "100554.895000", "100554.897000", "100554.900000", "100634.850000", "100634.853000", "100634.856000", "100634.858000", "100634.861000", "100634.863000", "100634.866000", "100634.868000", "100634.871000", "100634.873000", "100634.876000", "100634.878000", "100634.881000", "100634.883000", "100634.886000", "100634.888000", "100634.891000", "100634.893000", "100634.896000", "100634.898000", "100714.850000", "100714.853000", "100714.856000", "100714.859000", "100714.861000", "100714.864000", "100714.866000", "100714.869000", "100714.871000", "100714.874000", "100714.876000", "100714.879000", "100714.882000", "100714.884000", "100714.887000", "100714.889000", "100714.892000", "100714.894000", "100714.897000", "100714.900000", "100754.851000", "100754.854000", "100754.857000", "100754.859000", "100754.862000", "100754.864000", "100754.876000", "100754.879000", "100754.881000", "100754.884000", "100754.886000", "100754.889000", "100754.892000", "100754.894000", "100754.897000", "100754.899000", "100754.902000", "100754.904000", "100754.907000", "100754.910000", "100814.852000", "100814.854000", "100814.857000", "100814.860000", "100814.862000", "100814.865000", "100814.867000", "100814.870000", "100814.873000", "100814.875000", "100827.528000", "100827.531000", "100827.533000", "100827.536000", "100827.538000", "100827.541000", "100827.544000"],
      "InstanceCreationTime": ["100234.855000", "100234.858000", "100234.861000", "100234.870000", "100234.873000", "100234.875000", "100234.878000", "100234.880000", "100234.883000", "100234.885000", "100234.888000", "100234.890000", "100234.893000", "100234.895000", "100234.898000", "100234.900000", "100234.903000", "100234.905000", "100234.908000", "100234.910000", "100234.913000", "100234.916000", "100234.918000", "100314.850000", "100314.853000", "100314.856000", "100314.858000", "100314.861000", "100314.863000", "100314.866000", "100314.868000", "100314.871000", "100314.873000", "100314.876000", "100314.878000", "100314.881000", "100314.883000", "100314.886000", "100314.888000", "100314.891000", "100314.893000", "100314.896000", "100314.898000", "100354.851000", "100354.854000", "100354.857000", "100354.859000", "100354.862000", "100354.864000", "100354.867000", "100354.869000", "100354.872000", "100354.874000", "100354.877000", "100354.879000", "100354.882000", "100354.884000", "100354.887000", "100354.889000", "100354.892000", "100354.894000", "100354.897000", "100354.899000", "100434.850000", "100434.853000", "100434.856000", "100434.858000", "100434.861000", "100434.863000", "100434.866000", "100434.868000", "100434.871000", "100434.873000", "100434.876000", "100434.878000", "100434.881000", "100434.883000", "100434.886000", "100434.888000", "100434.891000", "100434.893000", "100434.896000", "100434.898000", "100514.850000", "100514.853000", "100514.856000", "100514.858000", "100514.861000", "100514.863000", "100514.866000", "100514.868000", "100514.871000", "100514.873000", "100514.876000", "100514.879000", "100514.881000", "100514.884000", "100514.886000", "100514.889000", "100514.891000", "100514.894000", "100514.896000", "100514.899000", "100554.851000", "100554.854000", "100554.857000", "100554.859000", "100554.862000", "100554.864000", "100554.867000", "100554.870000", "100554.872000", "100554.875000", "100554.877000", "100554.880000", "100554.882000", "100554.884000", "100554.887000", "100554.890000", "100554.892000", "100554.895000", "100554.897000", "100554.900000", "100634.850000", "100634.853000", "100634.856000", "100634.858000", "100634.861000", "100634.863000", "100634.866000", "100634.868000", "100634.871000", "100634.873000", "100634.876000", "100634.878000", "100634.881000", "100634.883000", "100634.886000", "100634.888000", "100634.891000", "100634.893000", "100634.896000", "100634.898000", "100714.850000", "100714.853000", "100714.856000", "100714.859000", "100714.861000", "100714.864000", "100714.866000", "100714.869000", "100714.871000", "100714.874000", "100714.876000", "100714.879000", "100714.882000", "100714.884000", "100714.887000", "100714.889000", "100714.892000", "100714.894000", "100714.897000", "100714.900000", "100754.851000", "100754.854000", "100754.857000", "100754.859000", "100754.862000", "100754.864000", "100754.876000", "100754.879000", "100754.881000", "100754.884000", "100754.886000", "100754.889000", "100754.892000", "100754.894000", "100754.897000", "100754.899000", "100754.902000", "100754.904000", "100754.907000", "100754.910000", "100814.852000", "100814.854000", "100814.857000", "100814.860000", "100814.862000", "100814.865000", "100814.867000", "100814.870000", "100814.873000", "100814.875000", "100827.528000", "100827.531000", "100827.533000", "100827.536000", "100827.538000", "100827.541000", "100827.544000"],
      "InstanceNumber": [1, 2, 3, 4, 5, 6, 7, 8, 9, 10, 11, 12, 13, 14, 15, 16, 17, 18, 19, 20, 21, 22, 23, 24, 25, 26, 27, 28, 29, 30, 31, 32, 33, 34, 35, 36, 37, 38, 39, 40, 41, 42, 43, 44, 45, 46, 47, 48, 49, 50, 51, 52, 53, 54, 55, 56, 57, 58, 59, 60, 61, 62, 63, 64, 65, 66, 67, 68, 69, 70, 71, 72, 73, 74, 75, 76, 77, 78, 79, 80, 81, 82, 83, 84, 85, 86, 87, 88, 89, 90, 91, 92, 93, 94, 95, 96, 97, 98, 99, 100, 101, 102, 103, 104, 105, 106, 107, 108, 109, 110, 111, 112, 113, 114, 115, 116, 117, 118, 119, 120, 121, 122, 123, 124, 125, 126, 127, 128, 129, 130, 131, 132, 133, 134, 135, 136, 137, 138, 139, 140, 141, 142, 143, 144, 145, 146, 147, 148, 149, 150, 151, 152, 153, 154, 155, 156, 157, 158, 159, 160, 161, 162, 163, 164, 165, 166, 167, 168, 169, 170, 171, 172, 173, 174, 175, 176, 177, 178, 179, 180, 181, 182, 183, 184, 185, 186, 187, 188, 189, 190, 191, 192, 193, 194, 195, 196, 197, 198, 199, 200],
      "LargestImagePixelValue": [347, 347, 346, 348, 346, 346, 348, 346, 348, 347, 348, 347, 346, 345, 347, 346, 347, 345, 347, 348, 346, 347, 348, 348, 348, 346, 348, 347, 348, 347, 347, 345, 347, 347, 347, 347, 346, 347, 347, 346, 346, 346, 347, 347, 347, 347, 346, 347, 346, 347, 347, 347, 348, 346, 346, 347, 348, 346, 348, 348, 346, 348, 346, 348, 346, 347, 347, 347, 346, 347, 346, 349, 346, 346, 349, 347, 346, 349, 347, 346, 344, 346, 349, 346, 348, 346, 347, 347, 347, 346, 348, 347, 346, 348, 347, 347, 346, 346, 346, 347, 346, 348, 346, 345, 348, 349, 346, 347, 346, 347, 348, 347, 348, 348, 348, 349, 348, 347, 346, 347, 347, 347, 347, 347, 348, 346, 346, 346, 346, 347, 346, 345, 346, 347, 348, 347, 347, 347, 348, 347, 346, 346, 347, 351, 348, 346, 348, 347, 347, 347, 346, 347, 347, 346, 348, 346, 349, 346, 346, 345, 346, 347, 346, 349, 346, 348, 348, 348, 348, 347, 348, 348, 347, 348, 344, 347, 347, 347, 347, 346, 348, 349, 349, 347, 346, 347, 346, 347, 347, 347, 346, 349, 346, 347, 346, 346, 347, 346, 346, 347],
      "WindowCenter": [285.0, 285.0, 285.0, 285.0, 285.0, 285.0, 285.0, 285.0, 285.0, 285.0, 285.0, 285.0, 285.0, 285.0, 285.0, 285.0, 285.0, 285.0, 285.0, 286.0, 286.0, 285.0, 285.0, 285.0, 286.0, 285.0, 285.0, 285.0, 285.0, 285.0, 285.0, 285.0, 285.0, 285.0, 285.0, 285.0, 285.0, 286.0, 285.0, 285.0, 285.0, 285.0, 285.0, 285.0, 285.0, 285.0, 285.0, 284.0, 284.0, 285.0, 285.0, 285.0, 285.0, 285.0, 285.0, 285.0, 285.0, 285.0, 285.0, 285.0, 285.0, 285.0, 285.0, 285.0, 285.0, 285.0, 285.0, 285.0, 285.0, 285.0, 285.0, 285.0, 285.0, 284.0, 285.0, 285.0, 285.0, 285.0, 285.0, 285.0, 285.0, 285.0, 285.0, 285.0, 284.0, 285.0, 285.0, 284.0, 285.0, 285.0, 285.0, 285.0, 285.0, 285.0, 285.0, 285.0, 285.0, 285.0, 285.0, 285.0, 285.0, 285.0, 285.0, 285.0, 285.0, 285.0, 285.0, 285.0, 285.0, 285.0, 285.0, 285.0, 285.0, 285.0, 285.0, 285.0, 285.0, 285.0, 285.0, 284.0, 285.0, 285.0, 285.0, 285.0, 285.0, 285.0, 285.0, 285.0, 285.0, 285.0, 285.0, 285.0, 285.0, 285.0, 285.0, 285.0, 285.0, 285.0, 284.0, 285.0, 284.0, 285.0, 285.0, 285.0, 285.0, 285.0, 284.0, 285.0, 284.0, 285.0, 285.0, 284.0, 285.0, 284.0, 285.0, 284.0, 285.0, 285.0, 285.0, 285.0, 285.0, 285.0, 285.0, 284.0, 285.0, 284.0, 285.0, 284.0, 284.0, 285.0, 285.0, 284.0, 284.0, 285.0, 284.0, 285.0, 285.0, 285.0, 284.0, 284.0, 285.0, 285.0, 284.0, 285.0, 285.0, 284.0, 285.0, 284.0, 285.0, 285.0, 285.0, 285.0, 285.0, 285.0, 285.0, 285.0, 285.0, 284.0, 285.0, 284.0],
      "WindowWidth": [621.0, 621.0, 621.0, 621.0, 622.0, 621.0, 621.0, 622.0, 622.0, 622.0, 621.0, 622.0, 621.0, 621.0, 621.0, 621.0, 621.0, 621.0, 621.0, 622.0, 622.0, 621.0, 621.0, 621.0, 622.0, 621.0, 621.0, 621.0, 621.0, 621.0, 622.0, 621.0, 621.0, 621.0, 621.0, 621.0, 621.0, 622.0, 621.0, 621.0, 621.0, 621.0, 621.0, 621.0, 621.0, 621.0, 621.0, 621.0, 621.0, 621.0, 621.0, 621.0, 621.0, 621.0, 621.0, 621.0, 621.0, 621.0, 621.0, 621.0, 621.0, 621.0, 621.0, 621.0, 621.0, 621.0, 621.0, 622.0, 621.0, 621.0, 621.0, 621.0, 621.0, 620.0, 621.0, 621.0, 621.0, 621.0, 621.0, 621.0, 621.0, 621.0, 621.0, 621.0, 620.0, 621.0, 621.0, 620.0, 621.0, 621.0, 621.0, 621.0, 621.0, 621.0, 621.0, 621.0, 621.0, 621.0, 621.0, 621.0, 621.0, 621.0, 621.0, 621.0, 621.0, 621.0, 621.0, 621.0, 621.0, 621.0, 621.0, 621.0, 621.0, 621.0, 621.0, 621.0, 621.0, 620.0, 621.0, 620.0, 621.0, 620.0, 621.0, 620.0, 621.0, 621.0, 620.0, 620.0, 621.0, 621.0, 620.0, 620.0, 620.0, 620.0, 620.0, 620.0, 621.0, 621.0, 620.0, 621.0, 620.0, 621.0, 621.0, 621.0, 621.0, 621.0, 620.0, 621.0, 620.0, 621.0, 621.0, 620.0, 621.0, 620.0, 621.0, 620.0, 621.0, 621.0, 620.0, 620.0, 620.0, 620.0, 621.0, 620.0, 621.0, 620.0, 621.0, 620.0, 620.0, 620.0, 621.0, 620.0, 620.0, 621.0, 620.0, 621.0, 621.0, 621.0, 620.0, 620.0, 621.0, 620.0, 620.0, 620.0, 620.0, 620.0, 621.0, 620.0, 621.0, 620.0, 621.0, 620.0, 620.0, 620.0, 620.0, 620.0, 621.0, 620.0, 620.0, 620.0]
    },
    "slices": {}
  }
}