{
  "AcquisitionMatrixPE": 80,
  "AcquisitionNumber": 1,
  "AcquisitionTime": "09:55:1.507500",
  "BandwidthPerPixelPhaseEncode": 25,
  "BaseResolution": 80,
  "BodyPartExamined": "BRAIN",
  "CoilCombinationMethod": "Sum of Squares",
  "ConsistencyInfo": "N4_VE11C_LATEST_20160120",
  "ConversionSoftware": "dcm2niix",
  "ConversionSoftwareVersion": "v1.0.20220720",
  "DerivedVendorReportedEchoSpacing": 0.0005,
  "DeviceSerialNumber": "66112",
  "DwellTime": 2.7e-06,
  "EchoTime": 0.03,
  "EchoTrainLength": 80,
  "EffectiveEchoSpacing": 0.0005,
  "FlipAngle": 77,
  "HeudiconvVersion": "0.13.1",
  "ImageOrientationPatientDICOM": [0.999936, 0.0080225, -0.00802984, -0.00523574, 0.953671, 0.300806],
  "ImageOrientationText": "Tra>Cor(17.5)>Sag(-0.6)",
  "ImageType": [
    "ORIGINAL",
    "PRIMARY",
    "M",
    "ND",
    "NORM",
    "MOSAIC"
],
  "ImagingFrequency": 123.252,
  "InPlanePhaseEncodingDirectionDICOM": "COL",
  "InstitutionAddress": "Maynard 3,Hanover,NH,US,03755",
  "InstitutionName": "Dartmouth College - PBS",
  "InstitutionalDepartmentName": "Department",
  "MRAcquisitionType": "2D",
  "MagneticFieldStrength": 3,
  "Manufacturer": "Siemens",
  "ManufacturersModelName": "Prisma",
  "MatrixCoilMode": "SENSE",
  "Modality": "MR",
  "NonlinearGradientCorrection": false,
  "PartialFourier": 1,
  "PatientPosition": "HFS",
  "PercentPhaseFOV": 100,
  "PercentSampling": 100,
  "PhaseEncodingDirection": "j-",
  "PhaseEncodingSteps": 80,
  "PhaseResolution": 1,
  "PixelBandwidth": 2315,
  "ProcedureStepDescription": "dbic^QA",
  "ProtocolName": "func-bold_fa-77",
  "PulseSequenceDetails": "%SiemensSeq%\\ep2d_bold",
  "ReceiveCoilActiveElements": "HEA;HEP",
  "ReceiveCoilName": "Head_32",
  "ReconMatrixPE": 80,
  "RepetitionTime": 2,
  "SAR": 0.043702,
  "ScanOptions": "FS",
  "ScanningSequence": "EP",
  "SequenceName": "*epfid2d1_80",
  "SequenceVariant": "SK",
  "SeriesDescription": "func-bold_fa-77",
  "SeriesNumber": 8,
  "ShimSetting": [4148, -7712, -7517, 279, -67, -70, 41, 85],
  "SliceThickness": 3.5,
  "SliceTiming": [0.99, 0, 1.055, 0.065, 1.12, 0.13, 1.1875, 0.1975, 1.2525, 0.2625, 1.32, 0.33, 1.385, 0.395, 1.45, 0.46, 1.5175, 0.5275, 1.5825, 0.5925, 1.65, 0.66, 1.715, 0.725, 1.78, 0.79, 1.8475, 0.8575, 1.9125, 0.9225],
  "SoftwareVersions": "syngo MR E11",
  "SpacingBetweenSlices": 3.99,
  "StationName": "AWP66112",
  "TotalReadoutTime": 0.0395,
  "TxRefAmp": 227.18,
  "dcmmeta_affine": [
    [-2.9998066425323486, -0.015707217156887054, -0.040183477103710175, 120.75067901611328],
    [-0.024067509919404984, 2.8610126972198486, 1.1999716758728027, -122.60449981689453],
    [-0.024089528247714043, -0.9024186134338379, 3.8050694465637207, -11.826505661010742],
    [0.0, 0.0, 0.0, 1.0]
],
  "dcmmeta_reorient_transform": [
    [0.0, -1.0, 0.0, 79.0],
    [1.0, 0.0, 0.0, 0.0],
    [0.0, 0.0, 1.0, 0.0],
    [0.0, 0.0, 0.0, 1.0]
],
  "dcmmeta_shape": [80, 80, 30, 200],
  "dcmmeta_slice_dim": 2,
  "dcmmeta_version": 0.6,
  "global": {
    "const": {
      "AccessionNumber": "qa",
      "AcquisitionMatrix": [80, 0, 0, 80],
      "AngioFlag": "N",
      "BitsAllocated": 16,
      "BitsStored": 12,
      "BodyPartExamined": "BRAIN",
      "Columns": 480,
      "EchoNumbers": 1,
      "EchoTime": 30.0,
      "EchoTrainLength": 80,
      "FlipAngle": 77.0,
      "HighBit": 11,
      "ImageOrientationPatient": [0.99993557845428, 0.00802250360761, -0.0080298429105, -0.0052357390227, 0.95367091333677, 0.3008062101957],
      "ImagePositionPatient": [-716.32971235466, -680.43155783027, -258.78339759229],
      "ImageType": [
        "ORIGINAL",
        "PRIMARY",
        "M",
        "ND",
        "NORM",
        "MOSAIC"
],
      "ImagedNucleus": "1H",
      "ImagingFrequency": 123.252345,
      "InPlanePhaseEncodingDirection": "COL",
      "MRAcquisitionType": "2D",
      "MagneticFieldStrength": 3.0,
      "Manufacturer": "SIEMENS",
      "ManufacturerModelName": "Prisma",
      "Modality": "MR",
      "NumberOfAverages": 1.0,
      "NumberOfPhaseEncodingSteps": 80,
      "PercentPhaseFieldOfView": 100.0,
      "PercentSampling": 100.0,
      "PerformedProcedureStepStartTime": "093859.191000",
      "PhotometricInterpretation": "MONOCHROME2",
      "PixelBandwidth": 2315.0,
      "PixelRepresentation": 0,
      "PixelSpacing": [3.0, 3.0],
      "ProtocolName": "func-bold_fa-77",
      "RepetitionTime": 2000.0,
      "Rows": 480,
      "SAR": 0.04370204112922,
      "SamplesPerPixel": 1,
      "ScanOptions": "FS",
      "ScanningSequence": "EP",
      "SequenceName": "*epfid2d1_80",
      "SequenceVariant": "SK",
      "SeriesDescription": "func-bold_fa-77",
      "SeriesNumber": 8,
      "SeriesTime": "095554.993000",
      "SliceLocation": -49.367114287749,
      "SliceThickness": 3.5,
      "SmallestImagePixelValue": 0,
      "SoftwareVersions": "syngo MR E11",
      "SpacingBetweenSlices": 3.9899999645335,
      "SpecificCharacterSet": "ISO_IR 100",
      "StudyID": "1",
      "StudyTime": "093859.141000",
      "TransmitCoilName": "Body",
      "VariableFlipAngleFlag": "N",
      "WindowCenterWidthExplanation": "Algo1",
      "dBdt": 0.0},
    "slices": {}
  },
  "time": {
    "samples": {
      "AcquisitionNumber": [1, 2, 3, 4, 5, 6, 7, 8, 9, 10, 11, 12, 13, 14, 15, 16, 17, 18, 19, 20, 21, 22, 23, 24, 25, 26, 27, 28, 29, 30, 31, 32, 33, 34, 35, 36, 37, 38, 39, 40, 41, 42, 43, 44, 45, 46, 47, 48, 49, 50, 51, 52, 53, 54, 55, 56, 57, 58, 59, 60, 61, 62, 63, 64, 65, 66, 67, 68, 69, 70, 71, 72, 73, 74, 75, 76, 77, 78, 79, 80, 81, 82, 83, 84, 85, 86, 87, 88, 89, 90, 91, 92, 93, 94, 95, 96, 97, 98, 99, 100, 101, 102, 103, 104, 105, 106, 107, 108, 109, 110, 111, 112, 113, 114, 115, 116, 117, 118, 119, 120, 121, 122, 123, 124, 125, 126, 127, 128, 129, 130, 131, 132, 133, 134, 135, 136, 137, 138, 139, 140, 141, 142, 143, 144, 145, 146, 147, 148, 149, 150, 151, 152, 153, 154, 155, 156, 157, 158, 159, 160, 161, 162, 163, 164, 165, 166, 167, 168, 169, 170, 171, 172, 173, 174, 175, 176, 177, 178, 179, 180, 181, 182, 183, 184, 185, 186, 187, 188, 189, 190, 191, 192, 193, 194, 195, 196, 197, 198, 199, 200],
      "AcquisitionTime": ["095501.507500", "095503.507500", "095505.507500", "095507.507500", "095509.507500", "095511.507500", "095513.507500", "095515.507500", "095517.507500", "095519.507500", "095521.507500", "095523.507500", "095525.507500", "095527.507500", "095529.507500", "095531.507500", "095533.507500", "095535.507500", "095537.507500", "095539.507500", "095541.507500", "095543.507500", "095545.507500", "095547.507500", "095549.507500", "095551.507500", "095553.507500", "095555.507500", "095557.507500", "095559.507500", "095601.507500", "095603.507500", "095605.507500", "095607.507500", "095609.507500", "095611.507500", "095613.507500", "095615.507500", "095617.507500", "095619.507500", "095621.507500", "095623.507500", "095625.507500", "095627.507500", "095629.507500", "095631.507500", "095633.507500", "095635.507500", "095637.507500", "095639.507500", "095641.507500", "095643.507500", "095645.507500", "095647.507500", "095649.507500", "095651.507500", "095653.507500", "095655.507500", "095657.507500", "095659.507500", "095701.507500", "095703.507500", "095705.507500", "095707.507500", "095709.507500", "095711.507500", "095713.507500", "095715.507500", "095717.507500", "095719.507500", "095721.507500", "095723.507500", "095725.507500", "095727.507500", "095729.507500", "095731.507500", "095733.507500", "095735.507500", "095737.507500", "095739.507500", "095741.507500", "095743.507500", "095745.507500", "095747.507500", "095749.507500", "095751.507500", "095753.507500", "095755.507500", "095757.507500", "095759.507500", "095801.507500", "095803.507500", "095805.507500", "095807.507500", "095809.507500", "095811.507500", "095813.507500", "095815.507500", "095817.507500", "095819.507500", "095821.507500", "095823.507500", "095825.507500", "095827.507500", "095829.507500", "095831.507500", "095833.507500", "095835.507500", "095837.507500", "095839.507500", "095841.507500", "095843.507500", "095845.507500", "095847.507500", "095849.507500", "095851.507500", "095853.507500", "095855.507500", "095857.507500", "095859.507500", "095901.507500", "095903.507500", "095905.507500", "095907.507500", "095909.507500", "095911.507500", "095913.507500", "095915.507500", "095917.507500", "095919.507500", "095921.507500", "095923.507500", "095925.507500", "095927.507500", "095929.507500", "095931.507500", "095933.507500", "095935.507500", "095937.507500", "095939.507500", "095941.507500", "095943.507500", "095945.507500", "095947.507500", "095949.507500", "095951.507500", "095953.507500", "095955.507500", "095957.507500", "095959.507500", "100001.507500", "100003.507500", "100005.507500", "100007.507500", "100009.507500", "100011.507500", "100013.507500", "100015.507500", "100017.507500", "100019.507500", "100021.507500", "100023.507500", "100025.507500", "100027.507500", "100029.507500", "100031.507500", "100033.507500", "100035.507500", "100037.507500", "100039.507500", "100041.507500", "100043.507500", "100045.507500", "100047.507500", "100049.507500", "100051.507500", "100053.507500", "100055.507500", "100057.507500", "100059.507500", "100101.507500", "100103.507500", "100105.507500", "100107.507500", "100109.507500", "100111.507500", "100113.507500", "100115.507500", "100117.507500", "100119.507500", "100121.507500", "100123.507500", "100125.507500", "100127.507500", "100129.507500", "100131.507500", "100133.507500", "100135.507500", "100137.507500", "100139.507500"],
      "ContentTime": ["095554.996000", "095555.005000", "095555.007000", "095555.010000", "095555.012000", "095555.015000", "095555.017000", "095555.020000", "095555.022000", "095555.025000", "095555.028000", "095555.030000", "095555.033000", "095555.035000", "095555.038000", "095555.041000", "095555.043000", "095555.046000", "095555.048000", "095555.051000", "095555.053000", "095555.056000", "095555.058000", "095555.061000", "095555.063000", "095555.066000", "095555.069000", "095634.992000", "095634.995000", "095634.998000", "095635.001000", "095635.004000", "095635.006000", "095635.009000", "095635.011000", "095635.014000", "095635.016000", "095635.019000", "095635.022000", "095635.025000", "095635.027000", "095635.030000", "095635.032000", "095635.035000", "095635.037000", "095635.040000", "095635.042000", "095714.991000", "095714.994000", "095714.997000", "095715.000000", "095715.003000", "095715.005000", "095715.008000", "095715.010000", "095715.013000", "095715.015000", "095715.018000", "095715.020000", "095715.024000", "095715.026000", "095715.029000", "095715.032000", "095715.034000", "095715.037000", "095715.039000", "095715.042000", "095754.991000", "095754.994000", "095754.997000", "095755.000000", "095755.003000", "095755.005000", "095755.008000", "095755.014000", "095755.017000", "095755.019000", "095755.022000", "095755.024000", "095755.027000", "095755.029000", "095755.032000", "095755.035000", "095755.037000", "095755.040000", "095755.042000", "095755.045000", "095834.992000", "095834.994000", "095834.997000", "095835.001000", "095835.005000", "095835.007000", "095835.010000", "095835.013000", "095835.015000", "095835.018000", "095835.020000", "095835.023000", "095835.026000", "095835.028000", "095835.031000", "095835.033000", "095835.036000", "095835.038000", "095835.041000", "095835.043000", "095914.992000", "095914.995000", "095914.998000", "095915.001000", "095915.004000", "095915.006000", "095915.010000", "095915.013000", "095915.016000", "095915.018000", "095915.021000", "095915.024000", "095915.026000", "095915.029000", "095915.031000", "095915.034000", "095915.036000", "095915.039000", "095915.041000", "095915.044000", "095954.991000", "095954.994000", "095954.997000", "095955.001000", "095955.005000", "095955.007000", "095955.010000", "095955.013000", "095955.015000", "095955.018000", "095955.020000", "095955.023000", "095955.025000", "095955.028000", "095955.030000", "095955.033000", "095955.036000", "095955.038000", "095955.041000", "095955.043000", "100034.992000", "100034.994000", "100034.997000", "100035.000000", "100035.003000", "100035.007000", "100035.010000", "100035.012000", "100035.015000", "100035.018000", "100035.020000", "100035.023000", "100035.025000", "100035.028000", "100035.031000", "100035.033000", "100035.036000", "100035.038000", "100035.041000", "100035.043000", "100114.992000", "100114.995000", "100114.998000", "100115.001000", "100115.004000", "100115.007000", "100115.009000", "100115.012000", "100115.014000", "100115.017000", "100115.020000", "100115.022000", "100115.025000", "100115.027000", "100115.030000", "100115.033000", "100115.035000", "100115.038000", "100115.040000", "100115.043000", "100141.015000", "100141.018000", "100141.021000", "100141.023000", "100141.026000", "100141.029000", "100141.031000", "100141.034000", "100141.036000", "100141.039000", "100141.041000", "100141.044000", "100141.047000"],
      "InstanceCreationTime": ["095554.996000", "095555.005000", "095555.007000", "095555.010000", "095555.012000", "095555.015000", "095555.017000", "095555.020000", "095555.022000", "095555.025000", "095555.028000", "095555.030000", "095555.033000", "095555.035000", "095555.038000", "095555.041000", "095555.043000", "095555.046000", "095555.048000", "095555.051000", "095555.053000", "095555.056000", "095555.058000", "095555.061000", "095555.063000", "095555.066000", "095555.069000", "095634.992000", "095634.995000", "095634.998000", "095635.001000", "095635.004000", "095635.006000", "095635.009000", "095635.011000", "095635.014000", "095635.016000", "095635.019000", "095635.022000", "095635.025000", "095635.027000", "095635.030000", "095635.032000", "095635.035000", "095635.037000", "095635.040000", "095635.042000", "095714.991000", "095714.994000", "095714.997000", "095715.000000", "095715.003000", "095715.005000", "095715.008000", "095715.010000", "095715.013000", "095715.015000", "095715.018000", "095715.020000", "095715.024000", "095715.026000", "095715.029000", "095715.032000", "095715.034000", "095715.037000", "095715.039000", "095715.042000", "095754.991000", "095754.994000", "095754.997000", "095755.000000", "095755.003000", "095755.005000", "095755.008000", "095755.014000", "095755.017000", "095755.019000", "095755.022000", "095755.024000", "095755.027000", "095755.029000", "095755.032000", "095755.035000", "095755.037000", "095755.040000", "095755.042000", "095755.045000", "095834.992000", "095834.994000", "095834.997000", "095835.001000", "095835.005000", "095835.007000", "095835.010000", "095835.013000", "095835.015000", "095835.018000", "095835.020000", "095835.023000", "095835.026000", "095835.028000", "095835.031000", "095835.033000", "095835.036000", "095835.038000", "095835.041000", "095835.043000", "095914.992000", "095914.995000", "095914.998000", "095915.001000", "095915.004000", "095915.006000", "095915.010000", "095915.013000", "095915.016000", "095915.018000", "095915.021000", "095915.024000", "095915.026000", "095915.029000", "095915.031000", "095915.034000", "095915.036000", "095915.039000", "095915.041000", "095915.044000", "095954.991000", "095954.994000", "095954.997000", "095955.001000", "095955.005000", "095955.007000", "095955.010000", "095955.013000", "095955.015000", "095955.018000", "095955.020000", "095955.023000", "095955.025000", "095955.028000", "095955.030000", "095955.033000", "095955.036000", "095955.038000", "095955.041000", "095955.043000", "100034.992000", "100034.994000", "100034.997000", "100035.000000", "100035.003000", "100035.007000", "100035.010000", "100035.012000", "100035.015000", "100035.018000", "100035.020000", "100035.023000", "100035.025000", "100035.028000", "100035.031000", "100035.033000", "100035.036000", "100035.038000", "100035.041000", "100035.043000", "100114.992000", "100114.995000", "100114.998000", "100115.001000", "100115.004000", "100115.007000", "100115.009000", "100115.012000", "100115.014000", "100115.017000", "100115.020000", "100115.022000", "100115.025000", "100115.027000", "100115.030000", "100115.033000", "100115.035000", "100115.038000", "100115.040000", "100115.043000", "100141.015000", "100141.018000", "100141.021000", "100141.023000", "100141.026000", "100141.029000", "100141.031000", "100141.034000", "100141.036000", "100141.039000", "100141.041000", "100141.044000", "100141.047000"],
      "InstanceNumber": [1, 2, 3, 4, 5, 6, 7, 8, 9, 10, 11, 12, 13, 14, 15, 16, 17, 18, 19, 20, 21, 22, 23, 24, 25, 26, 27, 28, 29, 30, 31, 32, 33, 34, 35, 36, 37, 38, 39, 40, 41, 42, 43, 44, 45, 46, 47, 48, 49, 50, 51, 52, 53, 54, 55, 56, 57, 58, 59, 60, 61, 62, 63, 64, 65, 66, 67, 68, 69, 70, 71, 72, 73, 74, 75, 76, 77, 78, 79, 80, 81, 82, 83, 84, 85, 86, 87, 88, 89, 90, 91, 92, 93, 94, 95, 96, 97, 98, 99, 100, 101, 102, 103, 104, 105, 106, 107, 108, 109, 110, 111, 112, 113, 114, 115, 116, 117, 118, 119, 120, 121, 122, 123, 124, 125, 126, 127, 128, 129, 130, 131, 132, 133, 134, 135, 136, 137, 138, 139, 140, 141, 142, 143, 144, 145, 146, 147, 148, 149, 150, 151, 152, 153, 154, 155, 156, 157, 158, 159, 160, 161, 162, 163, 164, 165, 166, 167, 168, 169, 170, 171, 172, 173, 174, 175, 176, 177, 178, 179, 180, 181, 182, 183, 184, 185, 186, 187, 188, 189, 190, 191, 192, 193, 194, 195, 196, 197, 198, 199, 200],
      "LargestImagePixelValue": [2029, 2030, 2032, 2031, 2028, 2030, 2032, 2033, 2030, 2028, 2030, 2032, 2032, 2031, 2031, 2031, 2029, 2030, 2032, 2032, 2033, 2032, 2029, 2029, 2031, 2033, 2034, 2034, 2032, 2028, 2029, 2029, 2028, 2029, 2030, 2031, 2028, 2031, 2031, 2032, 2031, 2029, 2030, 2029, 2030, 2031, 2029, 2027, 2028, 2027, 2028, 2029, 2027, 2027, 2028, 2024, 2027, 2028, 2026, 2026, 2026, 2027, 2027, 2027, 2026, 2024, 2027, 2026, 2024, 2024, 2024, 2022, 2025, 2026, 2023, 2025, 2026, 2024, 2026, 2027, 2026, 2025, 2026, 2027, 2029, 2025, 2023, 2023, 2026, 2026, 2026, 2024, 2024, 2026, 2028, 2027, 2025, 2024, 2024, 2024, 2026, 2025, 2027, 2029, 2027, 2028, 2027, 2029, 2027, 2026, 2029, 2028, 2028, 2028, 2031, 2032, 2029, 2029, 2029, 2030, 2029, 2031, 2031, 2031, 2032, 2029, 2028, 2036, 2034, 2028, 2029, 2027, 2027, 2030, 2034, 2029, 2031, 2030, 2028, 2035, 2032, 2029, 2027, 2028, 2028, 2032, 2030, 2033, 2030, 2030, 2030, 2032, 2033, 2027, 2028, 2032, 2032, 2029, 2028, 2032, 2032, 2033, 2032, 2032, 2035, 2033, 2029, 2030, 2034, 2037, 2035, 2031, 2032, 2030, 2032, 2037, 2035, 2035, 2037, 2030, 2032, 2032, 2034, 2034, 2036, 2034, 2030, 2029, 2028, 2031, 2037, 2033, 2033, 2030, 2031, 2035, 2029, 2029, 2029, 2032],
      "WindowCenter": [991.0, 991.0, 991.0, 991.0, 992.0, 990.0, 991.0, 991.0, 991.0, 991.0, 991.0, 991.0, 991.0, 991.0, 991.0, 991.0, 989.0, 991.0, 991.0, 991.0, 991.0, 991.0, 990.0, 991.0, 991.0, 991.0, 991.0, 991.0, 991.0, 990.0, 991.0, 990.0, 991.0, 991.0, 991.0, 991.0, 991.0, 990.0, 990.0, 991.0, 991.0, 991.0, 990.0, 991.0, 990.0, 989.0, 991.0, 990.0, 991.0, 990.0, 990.0, 990.0, 990.0, 990.0, 990.0, 990.0, 989.0, 990.0, 990.0, 990.0, 990.0, 990.0, 990.0, 990.0, 990.0, 989.0, 990.0, 991.0, 990.0, 990.0, 990.0, 990.0, 990.0, 990.0, 990.0, 990.0, 990.0, 990.0, 990.0, 989.0, 989.0, 990.0, 990.0, 990.0, 990.0, 990.0, 990.0, 990.0, 990.0, 990.0, 990.0, 990.0, 990.0, 990.0, 990.0, 990.0, 990.0, 990.0, 990.0, 990.0, 990.0, 991.0, 990.0, 990.0, 990.0, 990.0, 990.0, 990.0, 990.0, 990.0, 990.0, 990.0, 990.0, 990.0, 990.0, 990.0, 990.0, 989.0, 990.0, 990.0, 990.0, 990.0, 990.0, 990.0, 990.0, 990.0, 990.0, 990.0, 990.0, 990.0, 988.0, 990.0, 990.0, 990.0, 990.0, 990.0, 990.0, 990.0, 990.0, 990.0, 990.0, 990.0, 990.0, 990.0, 990.0, 990.0, 990.0, 990.0, 989.0, 990.0, 990.0, 990.0, 990.0, 988.0, 990.0, 988.0, 990.0, 989.0, 989.0, 989.0, 990.0, 988.0, 990.0, 989.0, 990.0, 990.0, 990.0, 988.0, 990.0, 990.0, 990.0, 991.0, 990.0, 990.0, 990.0, 988.0, 990.0, 990.0, 990.0, 990.0, 990.0, 990.0, 990.0, 990.0, 990.0, 990.0, 990.0, 989.0, 990.0, 988.0, 990.0, 988.0, 990.0, 990.0, 990.0, 990.0, 990.0, 990.0, 990.0, 990.0],
      "WindowWidth": [2172.0, 2172.0, 2172.0, 2172.0, 2173.0, 2171.0, 2172.0, 2172.0, 2172.0, 2172.0, 2173.0, 2172.0, 2172.0, 2172.0, 2172.0, 2172.0, 2171.0, 2172.0, 2172.0, 2172.0, 2172.0, 2172.0, 2171.0, 2172.0, 2172.0, 2172.0, 2172.0, 2172.0, 2172.0, 2171.0, 2172.0, 2172.0, 2172.0, 2172.0, 2172.0, 2172.0, 2172.0, 2172.0, 2172.0, 2172.0, 2172.0, 2172.0, 2172.0, 2172.0, 2172.0, 2171.0, 2172.0, 2172.0, 2172.0, 2172.0, 2172.0, 2172.0, 2172.0, 2172.0, 2172.0, 2172.0, 2171.0, 2172.0, 2172.0, 2172.0, 2172.0, 2172.0, 2172.0, 2172.0, 2172.0, 2172.0, 2172.0, 2173.0, 2172.0, 2172.0, 2172.0, 2172.0, 2172.0, 2172.0, 2172.0, 2172.0, 2172.0, 2172.0, 2172.0, 2171.0, 2171.0, 2172.0, 2172.0, 2172.0, 2172.0, 2172.0, 2172.0, 2172.0, 2171.0, 2171.0, 2172.0, 2171.0, 2171.0, 2172.0, 2171.0, 2171.0, 2171.0, 2171.0, 2171.0, 2172.0, 2171.0, 2172.0, 2171.0, 2171.0, 2171.0, 2171.0, 2171.0, 2172.0, 2171.0, 2172.0, 2172.0, 2171.0, 2172.0, 2172.0, 2171.0, 2171.0, 2172.0, 2171.0, 2172.0, 2172.0, 2172.0, 2172.0, 2172.0, 2172.0, 2172.0, 2172.0, 2172.0, 2172.0, 2172.0, 2172.0, 2170.0, 2172.0, 2172.0, 2172.0, 2172.0, 2171.0, 2171.0, 2171.0, 2171.0, 2171.0, 2171.0, 2171.0, 2172.0, 2171.0, 2171.0, 2171.0, 2171.0, 2171.0, 2171.0, 2172.0, 2171.0, 2171.0, 2171.0, 2170.0, 2171.0, 2170.0, 2171.0, 2170.0, 2171.0, 2170.0, 2171.0, 2170.0, 2171.0, 2171.0, 2172.0, 2172.0, 2171.0, 2170.0, 2172.0, 2172.0, 2171.0, 2172.0, 2171.0, 2172.0, 2171.0, 2170.0, 2172.0, 2172.0, 2172.0, 2171.0, 2171.0, 2171.0, 2171.0, 2171.0, 2171.0, 2171.0, 2171.0, 2170.0, 2171.0, 2170.0, 2171.0, 2170.0, 2171.0, 2171.0, 2171.0, 2171.0, 2171.0, 2171.0, 2171.0, 2171.0]
    },
    "slices": {}
  }
}