{
  "AcquisitionMatrixPE": 80,
  "AcquisitionNumber": 1,
  "AcquisitionTime": "09:24:0.862500",
  "BandwidthPerPixelPhaseEncode": 48.077,
  "BaseResolution": 80,
  "BodyPartExamined": "BRAIN",
  "CoilCombinationMethod": "Sum of Squares",
  "ConsistencyInfo": "N4_VE11E_LATEST_20181129",
  "ConversionSoftware": "dcm2niix",
  "ConversionSoftwareVersion": "v1.0.20220720",
  "DerivedVendorReportedEchoSpacing": 0.000519999,
  "DeviceSerialNumber": "66112",
  "DwellTime": 2.7e-06,
  "EchoTime": 0.035,
  "EchoTrainLength": 39,
  "EffectiveEchoSpacing": 0.00026,
  "FlipAngle": 90,
  "HeudiconvVersion": "0.13.1",
  "ImageOrientationPatientDICOM": [0.986742, 0.162223, 0.00491649, -0.156285, 0.941579, 0.298336],
  "ImageOrientationText": "Tra>Cor(17.2)>Sag(-2.5)",
  "ImageType": [
    "ORIGINAL",
    "PRIMARY",
    "M",
    "ND",
    "NORM",
    "MOSAIC"
],
  "ImagingFrequency": 123.259,
  "InPlanePhaseEncodingDirectionDICOM": "COL",
  "InstitutionAddress": "Maynard 3,Hanover,NH,US,03755",
  "InstitutionName": "Dartmouth College - PBS",
  "InstitutionalDepartmentName": "Department",
  "MRAcquisitionType": "2D",
  "MagneticFieldStrength": 3,
  "Manufacturer": "Siemens",
  "ManufacturersModelName": "Prisma",
  "MatrixCoilMode": "GRAPPA",
  "Modality": "MR",
  "NonlinearGradientCorrection": false,
  "ParallelReductionFactorInPlane": 2,
  "PartialFourier": 1,
  "PatientPosition": "HFS",
  "PercentPhaseFOV": 100,
  "PercentSampling": 100,
  "PhaseEncodingDirection": "j-",
  "PhaseEncodingSteps": 79,
  "PhaseResolution": 1,
  "PixelBandwidth": 2315,
  "ProcedureStepDescription": "dbic^QA",
  "ProtocolName": "func-bold_task-rest_acq-p2",
  "PulseSequenceDetails": "%SiemensSeq%\\ep2d_bold",
  "ReceiveCoilActiveElements": "HEA;HEP",
  "ReceiveCoilName": "Head_32",
  "ReconMatrixPE": 80,
  "RefLinesPE": 24,
  "RepetitionTime": 2,
  "SAR": 0.0719208,
  "ScanOptions": "FS",
  "ScanningSequence": "EP",
  "SequenceName": "*epfid2d1_80",
  "SequenceVariant": "SK",
  "SeriesDescription": "func-bold_task-rest_acq-p2",
  "SeriesNumber": 5,
  "ShimSetting": [4221, -7741, -7489, -7, -146, -78, 25, 72],
  "SliceThickness": 3.5,
  "SliceTiming": [0.9875, 0, 1.055, 0.065, 1.12, 0.13, 1.1875, 0.1975, 1.2525, 0.2625, 1.3175, 0.33, 1.385, 0.395, 1.45, 0.46, 1.5175, 0.5275, 1.5825, 0.5925, 1.6475, 0.6575, 1.715, 0.725, 1.78, 0.79, 1.8475, 0.8575, 1.9125, 0.9225],
  "SoftwareVersions": "syngo MR E11",
  "SpacingBetweenSlices": 3.99,
  "StationName": "AWP66112",
  "TaskName": "rest",
  "TotalReadoutTime": 0.02054,
  "TxRefAmp": 227.467,
  "dcmmeta_affine": [
    [-2.9602255821228027, -0.46885374188423157, -0.17463326454162598, 141.3699493408203],
    [-0.4866690933704376, 2.8247363567352295, 1.177645206451416, -112.57963562011719],
    [0.01474947389215231, -0.8950085043907166, 3.808248281478882, -23.233097076416016],
    [0.0, 0.0, 0.0, 1.0]
],
  "dcmmeta_reorient_transform": [
    [0.0, -1.0, 0.0, 79.0],
    [1.0, 0.0, 0.0, 0.0],
    [0.0, 0.0, 1.0, 0.0],
    [0.0, 0.0, 0.0, 1.0]
],
  "dcmmeta_shape": [80, 80, 30, 200],
  "dcmmeta_slice_dim": 2,
  "dcmmeta_version": 0.6,
  "global": {
    "const": {
      "AccessionNumber": "qa",
      "AcquisitionMatrix": [80, 0, 0, 80],
      "AngioFlag": "N",
      "BitsAllocated": 16,
      "BitsStored": 12,
      "BodyPartExamined": "BRAIN",
      "Columns": 480,
      "EchoNumbers": 1,
      "EchoTime": 35.0,
      "EchoTrainLength": 39,
      "FlipAngle": 90.0,
      "HighBit": 11,
      "ImageOrientationPatient": [0.98674186839481, 0.16222303556778, 0.00491649142051, -0.1562845819721, 0.94157881260021, 0.29833616793844],
      "ImagePositionPatient": [-602.60486773393, -772.85565114604, -275.89036520841],
      "ImageType": [
        "ORIGINAL",
        "PRIMARY",
        "M",
        "ND",
        "NORM",
        "MOSAIC"
],
      "ImagedNucleus": "1H",
      "ImagingFrequency": 123.259383,
      "InPlanePhaseEncodingDirection": "COL",
      "MRAcquisitionType": "2D",
      "MagneticFieldStrength": 3.0,
      "Manufacturer": "SIEMENS",
      "ManufacturerModelName": "Prisma",
      "Modality": "MR",
      "NumberOfAverages": 1.0,
      "NumberOfPhaseEncodingSteps": 79,
      "PercentPhaseFieldOfView": 100.0,
      "PercentSampling": 100.0,
      "PerformedProcedureStepStartTime": "091905.165000",
      "PhotometricInterpretation": "MONOCHROME2",
      "PixelBandwidth": 2315.0,
      "PixelRepresentation": 0,
      "PixelSpacing": [3.0, 3.0],
      "ProtocolName": "func-bold_task-rest_acq-p2",
      "RepetitionTime": 2000.0,
      "Rows": 480,
      "SAR": 0.07192075890385,
      "SamplesPerPixel": 1,
      "ScanOptions": "FS",
      "ScanningSequence": "EP",
      "SequenceName": "*epfid2d1_80",
      "SequenceVariant": "SK",
      "SeriesDescription": "func-bold_task-rest_acq-p2",
      "SeriesNumber": 5,
      "SeriesTime": "092448.257000",
      "SliceLocation": -61.590015424726,
      "SliceThickness": 3.5,
      "SmallestImagePixelValue": 0,
      "SoftwareVersions": "syngo MR E11",
      "SpacingBetweenSlices": 3.9900000015719,
      "SpecificCharacterSet": "ISO_IR 100",
      "StudyID": "18",
      "StudyTime": "091905.127000",
      "TransmitCoilName": "Body",
      "VariableFlipAngleFlag": "N",
      "WindowCenterWidthExplanation": "Algo1"
    },
    "slices": {}
  },
  "time": {
    "samples": {
      "AcquisitionNumber": [1, 2, 3, 4, 5, 6, 7, 8, 9, 10, 11, 12, 13, 14, 15, 16, 17, 18, 19, 20, 21, 22, 23, 24, 25, 26, 27, 28, 29, 30, 31, 32, 33, 34, 35, 36, 37, 38, 39, 40, 41, 42, 43, 44, 45, 46, 47, 48, 49, 50, 51, 52, 53, 54, 55, 56, 57, 58, 59, 60, 61, 62, 63, 64, 65, 66, 67, 68, 69, 70, 71, 72, 73, 74, 75, 76, 77, 78, 79, 80, 81, 82, 83, 84, 85, 86, 87, 88, 89, 90, 91, 92, 93, 94, 95, 96, 97, 98, 99, 100, 101, 102, 103, 104, 105, 106, 107, 108, 109, 110, 111, 112, 113, 114, 115, 116, 117, 118, 119, 120, 121, 122, 123, 124, 125, 126, 127, 128, 129, 130, 131, 132, 133, 134, 135, 136, 137, 138, 139, 140, 141, 142, 143, 144, 145, 146, 147, 148, 149, 150, 151, 152, 153, 154, 155, 156, 157, 158, 159, 160, 161, 162, 163, 164, 165, 166, 167, 168, 169, 170, 171, 172, 173, 174, 175, 176, 177, 178, 179, 180, 181, 182, 183, 184, 185, 186, 187, 188, 189, 190, 191, 192, 193, 194, 195, 196, 197, 198, 199, 200],
      "AcquisitionTime": ["092400.862500", "092402.862500", "092404.862500", "092406.862500", "092408.862500", "092410.862500", "092412.862500", "092414.862500", "092416.862500", "092418.862500", "092420.862500", "092422.862500", "092424.862500", "092426.862500", "092428.862500", "092430.862500", "092432.862500", "092434.862500", "092436.862500", "092438.862500", "092440.862500", "092442.862500", "092444.862500", "092446.862500", "092448.862500", "092450.862500", "092452.862500", "092454.862500", "092456.862500", "092458.862500", "092500.862500", "092502.862500", "092504.862500", "092506.862500", "092508.862500", "092510.862500", "092512.862500", "092514.862500", "092516.862500", "092518.862500", "092520.862500", "092522.862500", "092524.862500", "092526.862500", "092528.862500", "092530.862500", "092532.862500", "092534.862500", "092536.862500", "092538.862500", "092540.862500", "092542.862500", "092544.862500", "092546.862500", "092548.862500", "092550.862500", "092552.862500", "092554.862500", "092556.862500", "092558.862500", "092600.862500", "092602.862500", "092604.862500", "092606.862500", "092608.862500", "092610.862500", "092612.862500", "092614.862500", "092616.862500", "092618.862500", "092620.862500", "092622.862500", "092624.862500", "092626.862500", "092628.862500", "092630.862500", "092632.862500", "092634.862500", "092636.862500", "092638.862500", "092640.862500", "092642.862500", "092644.862500", "092646.862500", "092648.862500", "092650.862500", "092652.862500", "092654.862500", "092656.862500", "092658.862500", "092700.862500", "092702.862500", "092704.862500", "092706.862500", "092708.862500", "092710.862500", "092712.862500", "092714.862500", "092716.862500", "092718.862500", "092720.862500", "092722.862500", "092724.862500", "092726.862500", "092728.862500", "092730.862500", "092732.862500", "092734.862500", "092736.862500", "092738.862500", "092740.862500", "092742.862500", "092744.862500", "092746.862500", "092748.862500", "092750.862500", "092752.862500", "092754.862500", "092756.862500", "092758.862500", "092800.862500", "092802.862500", "092804.862500", "092806.862500", "092808.862500", "092810.862500", "092812.862500", "092814.862500", "092816.862500", "092818.862500", "092820.862500", "092822.862500", "092824.862500", "092826.862500", "092828.862500", "092830.862500", "092832.862500", "092834.862500", "092836.862500", "092838.862500", "092840.862500", "092842.862500", "092844.862500", "092846.862500", "092848.862500", "092850.862500", "092852.862500", "092854.862500", "092856.862500", "092858.862500", "092900.862500", "092902.862500", "092904.862500", "092906.862500", "092908.862500", "092910.862500", "092912.862500", "092914.862500", "092916.862500", "092918.862500", "092920.862500", "092922.862500", "092924.862500", "092926.862500", "092928.862500", "092930.862500", "092932.862500", "092934.862500", "092936.862500", "092938.862500", "092940.862500", "092942.862500", "092944.862500", "092946.862500", "092948.862500", "092950.862500", "092952.862500", "092954.862500", "092956.862500", "092958.862500", "093000.862500", "093002.862500", "093004.862500", "093006.862500", "093008.862500", "093010.862500", "093012.862500", "093014.862500", "093016.862500", "093018.862500", "093020.862500", "093022.862500", "093024.862500", "093026.862500", "093028.862500", "093030.862500", "093032.862500", "093034.862500", "093036.862500", "093038.862500"],
      "ContentTime": ["092448.260000", "092448.264000", "092448.266000", "092448.268000", "092448.271000", "092448.273000", "092448.275000", "092448.278000", "092448.281000", "092448.283000", "092448.285000", "092448.292000", "092448.295000", "092448.297000", "092448.302000", "092448.309000", "092448.311000", "092448.313000", "092448.316000", "092448.318000", "092448.320000", "092448.323000", "092448.325000", "092528.256000", "092528.259000", "092528.261000", "092528.263000", "092528.266000", "092528.268000", "092528.270000", "092528.273000", "092528.275000", "092528.277000", "092528.280000", "092528.283000", "092528.285000", "092528.287000", "092528.290000", "092528.292000", "092528.295000", "092528.297000", "092528.299000", "092528.302000", "092608.256000", "092608.259000", "092608.269000", "092608.271000", "092608.274000", "092608.276000", "092608.279000", "092608.282000", "092608.284000", "092608.287000", "092608.289000", "092608.291000", "092608.294000", "092608.296000", "092608.299000", "092608.301000", "092608.303000", "092608.306000", "092608.308000", "092608.310000", "092648.255000", "092648.258000", "092648.260000", "092648.262000", "092648.265000", "092648.267000", "092648.270000", "092648.272000", "092648.275000", "092648.277000", "092648.280000", "092648.282000", "092648.285000", "092648.287000", "092648.290000", "092648.292000", "092648.294000", "092648.297000", "092648.299000", "092648.306000", "092728.256000", "092728.259000", "092728.261000", "092728.264000", "092728.266000", "092728.269000", "092728.271000", "092728.273000", "092728.276000", "092728.278000", "092728.282000", "092728.284000", "092728.287000", "092728.289000", "092728.291000", "092728.293000", "092728.296000", "092728.298000", "092728.301000", "092728.303000", "092808.256000", "092808.259000", "092808.261000", "092808.264000", "092808.266000", "092808.269000", "092808.271000", "092808.273000", "092808.275000", "092808.278000", "092808.281000", "092808.284000", "092808.286000", "092808.288000", "092808.291000", "092808.293000", "092808.295000", "092808.298000", "092808.300000", "092808.302000", "092848.255000", "092848.258000", "092848.260000", "092848.263000", "092848.265000", "092848.267000", "092848.270000", "092848.272000", "092848.274000", "092848.277000", "092848.280000", "092848.282000", "092848.285000", "092848.287000", "092848.290000", "092848.292000", "092848.295000", "092848.297000", "092848.299000", "092848.302000", "092928.256000", "092928.259000", "092928.261000", "092928.264000", "092928.266000", "092928.269000", "092928.271000", "092928.273000", "092928.276000", "092928.279000", "092928.281000", "092928.284000", "092928.286000", "092928.289000", "092928.291000", "092928.293000", "092928.296000", "092928.298000", "092928.300000", "092928.303000", "092948.256000", "092948.259000", "092948.261000", "092948.264000", "092948.266000", "092948.268000", "092948.271000", "092948.273000", "092948.276000", "092948.279000", "093028.256000", "093028.259000", "093028.261000", "093028.264000", "093028.266000", "093028.268000", "093028.271000", "093028.273000", "093028.276000", "093028.279000", "093028.281000", "093028.283000", "093028.286000", "093028.288000", "093028.291000", "093028.293000", "093028.295000", "093028.298000", "093028.300000", "093028.303000", "093040.312000", "093040.315000", "093040.317000", "093040.320000", "093040.322000", "093040.325000", "093040.327000"],
      "InstanceCreationTime": ["092448.260000", "092448.264000", "092448.266000", "092448.268000", "092448.271000", "092448.273000", "092448.275000", "092448.278000", "092448.281000", "092448.283000", "092448.285000", "092448.292000", "092448.295000", "092448.297000", "092448.302000", "092448.309000", "092448.311000", "092448.313000", "092448.316000", "092448.318000", "092448.320000", "092448.323000", "092448.325000", "092528.256000", "092528.259000", "092528.261000", "092528.263000", "092528.266000", "092528.268000", "092528.270000", "092528.273000", "092528.275000", "092528.277000", "092528.280000", "092528.283000", "092528.285000", "092528.287000", "092528.290000", "092528.292000", "092528.295000", "092528.297000", "092528.299000", "092528.302000", "092608.256000", "092608.259000", "092608.269000", "092608.271000", "092608.274000", "092608.276000", "092608.279000", "092608.282000", "092608.284000", "092608.287000", "092608.289000", "092608.291000", "092608.294000", "092608.296000", "092608.299000", "092608.301000", "092608.303000", "092608.306000", "092608.308000", "092608.310000", "092648.255000", "092648.258000", "092648.260000", "092648.262000", "092648.265000", "092648.267000", "092648.270000", "092648.272000", "092648.275000", "092648.277000", "092648.280000", "092648.282000", "092648.285000", "092648.287000", "092648.290000", "092648.292000", "092648.294000", "092648.297000", "092648.299000", "092648.306000", "092728.256000", "092728.259000", "092728.261000", "092728.264000", "092728.266000", "092728.269000", "092728.271000", "092728.273000", "092728.276000", "092728.278000", "092728.282000", "092728.284000", "092728.287000", "092728.289000", "092728.291000", "092728.293000", "092728.296000", "092728.298000", "092728.301000", "092728.303000", "092808.256000", "092808.259000", "092808.261000", "092808.264000", "092808.266000", "092808.269000", "092808.271000", "092808.273000", "092808.275000", "092808.278000", "092808.281000", "092808.284000", "092808.286000", "092808.288000", "092808.291000", "092808.293000", "092808.295000", "092808.298000", "092808.300000", "092808.302000", "092848.255000", "092848.258000", "092848.260000", "092848.263000", "092848.265000", "092848.267000", "092848.270000", "092848.272000", "092848.274000", "092848.277000", "092848.280000", "092848.282000", "092848.285000", "092848.287000", "092848.290000", "092848.292000", "092848.295000", "092848.297000", "092848.299000", "092848.302000", "092928.256000", "092928.259000", "092928.261000", "092928.264000", "092928.266000", "092928.269000", "092928.271000", "092928.273000", "092928.276000", "092928.279000", "092928.281000", "092928.284000", "092928.286000", "092928.289000", "092928.291000", "092928.293000", "092928.296000", "092928.298000", "092928.300000", "092928.303000", "092948.256000", "092948.259000", "092948.261000", "092948.264000", "092948.266000", "092948.268000", "092948.271000", "092948.273000", "092948.276000", "092948.279000", "093028.256000", "093028.259000", "093028.261000", "093028.264000", "093028.266000", "093028.268000", "093028.271000", "093028.273000", "093028.276000", "093028.279000", "093028.281000", "093028.283000", "093028.286000", "093028.288000", "093028.291000", "093028.293000", "093028.295000", "093028.298000", "093028.300000", "093028.303000", "093040.312000", "093040.315000", "093040.317000", "093040.320000", "093040.322000", "093040.325000", "093040.327000"],
      "InstanceNumber": [1, 2, 3, 4, 5, 6, 7, 8, 9, 10, 11, 12, 13, 14, 15, 16, 17, 18, 19, 20, 21, 22, 23, 24, 25, 26, 27, 28, 29, 30, 31, 32, 33, 34, 35, 36, 37, 38, 39, 40, 41, 42, 43, 44, 45, 46, 47, 48, 49, 50, 51, 52, 53, 54, 55, 56, 57, 58, 59, 60, 61, 62, 63, 64, 65, 66, 67, 68, 69, 70, 71, 72, 73, 74, 75, 76, 77, 78, 79, 80, 81, 82, 83, 84, 85, 86, 87, 88, 89, 90, 91, 92, 93, 94, 95, 96, 97, 98, 99, 100, 101, 102, 103, 104, 105, 106, 107, 108, 109, 110, 111, 112, 113, 114, 115, 116, 117, 118, 119, 120, 121, 122, 123, 124, 125, 126, 127, 128, 129, 130, 131, 132, 133, 134, 135, 136, 137, 138, 139, 140, 141, 142, 143, 144, 145, 146, 147, 148, 149, 150, 151, 152, 153, 154, 155, 156, 157, 158, 159, 160, 161, 162, 163, 164, 165, 166, 167, 168, 169, 170, 171, 172, 173, 174, 175, 176, 177, 178, 179, 180, 181, 182, 183, 184, 185, 186, 187, 188, 189, 190, 191, 192, 193, 194, 195, 196, 197, 198, 199, 200],
      "LargestImagePixelValue": [2291, 2294, 2297, 2291, 2293, 2292, 2284, 2286, 2294, 2289, 2291, 2290, 2298, 2296, 2287, 2292, 2295, 2287, 2293, 2296, 2288, 2283, 2287, 2289, 2294, 2285, 2290, 2290, 2291, 2292, 2290, 2295, 2289, 2291, 2284, 2292, 2292, 2297, 2288, 2290, 2290, 2290, 2289, 2296, 2289, 2296, 2290, 2290, 2287, 2281, 2294, 2288, 2290, 2293, 2300, 2285, 2291, 2293, 2295, 2294, 2294, 2291, 2285, 2282, 2293, 2284, 2288, 2288, 2290, 2284, 2285, 2282, 2292, 2284, 2285, 2296, 2283, 2282, 2284, 2285, 2286, 2287, 2293, 2286, 2290, 2290, 2291, 2284, 2288, 2285, 2292, 2299, 2286, 2293, 2285, 2296, 2274, 2287, 2289, 2287, 2285, 2289, 2285, 2281, 2288, 2289, 2299, 2290, 2286, 2287, 2292, 2288, 2287, 2286, 2287, 2277, 2286, 2290, 2276, 2288, 2285, 2288, 2283, 2290, 2283, 2285, 2287, 2285, 2293, 2282, 2278, 2279, 2289, 2293, 2290, 2293, 2277, 2288, 2287, 2282, 2287, 2285, 2288, 2282, 2295, 2286, 2282, 2288, 2285, 2287, 2287, 2288, 2285, 2292, 2289, 2288, 2286, 2289, 2283, 2290, 2285, 2279, 2280, 2284, 2281, 2290, 2287, 2290, 2286, 2273, 2284, 2286, 2283, 2284, 2283, 2286, 2287, 2284, 2278, 2281, 2282, 2285, 2278, 2285, 2279, 2279, 2280, 2286, 2282, 2279, 2288, 2281, 2292, 2284, 2283, 2287, 2289, 2287, 2284, 2282],
      "WindowCenter": [1059.0, 1059.0, 1059.0, 1059.0, 1059.0, 1059.0, 1059.0, 1059.0, 1059.0, 1059.0, 1059.0, 1059.0, 1059.0, 1059.0, 1059.0, 1058.0, 1058.0, 1059.0, 1059.0, 1059.0, 1059.0, 1059.0, 1059.0, 1059.0, 1058.0, 1059.0, 1058.0, 1059.0, 1058.0, 1059.0, 1058.0, 1058.0, 1058.0, 1058.0, 1058.0, 1058.0, 1058.0, 1058.0, 1058.0, 1058.0, 1058.0, 1058.0, 1058.0, 1058.0, 1058.0, 1058.0, 1058.0, 1058.0, 1058.0, 1058.0, 1058.0, 1058.0, 1058.0, 1058.0, 1058.0, 1058.0, 1058.0, 1058.0, 1058.0, 1058.0, 1058.0, 1058.0, 1058.0, 1058.0, 1058.0, 1058.0, 1058.0, 1058.0, 1058.0, 1058.0, 1058.0, 1058.0, 1058.0, 1058.0, 1058.0, 1058.0, 1058.0, 1058.0, 1058.0, 1058.0, 1058.0, 1058.0, 1058.0, 1058.0, 1058.0, 1058.0, 1058.0, 1058.0, 1058.0, 1058.0, 1058.0, 1058.0, 1058.0, 1058.0, 1058.0, 1058.0, 1058.0, 1058.0, 1058.0, 1058.0, 1058.0, 1058.0, 1058.0, 1058.0, 1058.0, 1058.0, 1058.0, 1058.0, 1058.0, 1058.0, 1057.0, 1058.0, 1057.0, 1058.0, 1058.0, 1058.0, 1058.0, 1057.0, 1058.0, 1058.0, 1058.0, 1058.0, 1058.0, 1057.0, 1058.0, 1057.0, 1058.0, 1058.0, 1057.0, 1057.0, 1057.0, 1057.0, 1057.0, 1057.0, 1057.0, 1057.0, 1057.0, 1057.0, 1057.0, 1057.0, 1057.0, 1057.0, 1057.0, 1057.0, 1057.0, 1058.0, 1057.0, 1057.0, 1057.0, 1057.0, 1057.0, 1057.0, 1057.0, 1057.0, 1057.0, 1057.0, 1057.0, 1057.0, 1057.0, 1057.0, 1057.0, 1057.0, 1057.0, 1057.0, 1057.0, 1057.0, 1057.0, 1057.0, 1057.0, 1057.0, 1057.0, 1057.0, 1057.0, 1057.0, 1057.0, 1057.0, 1057.0, 1057.0, 1057.0, 1057.0, 1057.0, 1057.0, 1057.0, 1057.0, 1057.0, 1057.0, 1057.0, 1057.0, 1057.0, 1057.0, 1057.0, 1057.0, 1057.0, 1057.0, 1057.0, 1057.0, 1057.0, 1057.0, 1057.0, 1057.0],
      "WindowWidth": [2382.0, 2381.0, 2381.0, 2381.0, 2381.0, 2381.0, 2381.0, 2381.0, 2381.0, 2380.0, 2380.0, 2380.0, 2380.0, 2381.0, 2380.0, 2381.0, 2381.0, 2381.0, 2380.0, 2380.0, 2380.0, 2380.0, 2380.0, 2380.0, 2381.0, 2380.0, 2380.0, 2380.0, 2380.0, 2380.0, 2380.0, 2380.0, 2380.0, 2380.0, 2380.0, 2380.0, 2380.0, 2380.0, 2380.0, 2380.0, 2380.0, 2380.0, 2380.0, 2380.0, 2380.0, 2379.0, 2379.0, 2380.0, 2379.0, 2379.0, 2379.0, 2379.0, 2379.0, 2379.0, 2379.0, 2379.0, 2379.0, 2379.0, 2379.0, 2379.0, 2379.0, 2379.0, 2379.0, 2379.0, 2379.0, 2379.0, 2379.0, 2379.0, 2379.0, 2379.0, 2379.0, 2379.0, 2379.0, 2379.0, 2379.0, 2379.0, 2379.0, 2378.0, 2379.0, 2379.0, 2379.0, 2379.0, 2379.0, 2379.0, 2379.0, 2379.0, 2378.0, 2378.0, 2378.0, 2378.0, 2378.0, 2378.0, 2378.0, 2378.0, 2378.0, 2378.0, 2378.0, 2378.0, 2378.0, 2378.0, 2378.0, 2378.0, 2378.0, 2378.0, 2378.0, 2378.0, 2378.0, 2378.0, 2378.0, 2378.0, 2378.0, 2378.0, 2378.0, 2378.0, 2378.0, 2378.0, 2378.0, 2378.0, 2378.0, 2378.0, 2378.0, 2378.0, 2378.0, 2378.0, 2378.0, 2378.0, 2378.0, 2378.0, 2378.0, 2378.0, 2378.0, 2378.0, 2377.0, 2378.0, 2377.0, 2378.0, 2377.0, 2377.0, 2377.0, 2377.0, 2377.0, 2377.0, 2377.0, 2377.0, 2377.0, 2377.0, 2377.0, 2377.0, 2377.0, 2377.0, 2377.0, 2377.0, 2377.0, 2377.0, 2377.0, 2377.0, 2377.0, 2377.0, 2377.0, 2377.0, 2377.0, 2377.0, 2377.0, 2377.0, 2377.0, 2377.0, 2377.0, 2377.0, 2377.0, 2377.0, 2377.0, 2377.0, 2377.0, 2377.0, 2377.0, 2377.0, 2377.0, 2377.0, 2377.0, 2377.0, 2377.0, 2377.0, 2376.0, 2377.0, 2377.0, 2377.0, 2377.0, 2376.0, 2377.0, 2377.0, 2376.0, 2376.0, 2377.0, 2377.0, 2376.0, 2376.0, 2376.0, 2376.0, 2376.0, 2376.0]
    },
    "slices": {}
  }
}