{
  "AcquisitionMatrixPE": 80,
  "AcquisitionNumber": 1,
  "AcquisitionTime": "09:30:55.055000",
  "BandwidthPerPixelPhaseEncode": 46.296,
  "BaseResolution": 80,
  "BodyPartExamined": "BRAIN",
  "CoilCombinationMethod": "Sum of Squares",
  "ConsistencyInfo": "N4_VE11E_LATEST_20181129",
  "ConversionSoftware": "dcm2niix",
  "ConversionSoftwareVersion": "v1.0.20220720",
  "DerivedVendorReportedEchoSpacing": 0.000540003,
  "DeviceSerialNumber": "66112",
  "DwellTime": 2.7e-06,
  "EchoTime": 0.035,
  "EchoTrainLength": 39,
  "EffectiveEchoSpacing": 0.000270002,
  "FlipAngle": 90,
  "HeudiconvVersion": "0.13.1",
  "ImageOrientationPatientDICOM": [0.986742, 0.162223, 0.00491649, -0.156285, 0.941579, 0.298336],
  "ImageOrientationText": "Tra>Cor(17.2)>Sag(-2.5)",
  "ImageType": [
    "ORIGINAL",
    "PRIMARY",
    "M",
    "ND",
    "NORM",
    "MOSAIC"
],
  "ImagingFrequency": 123.259,
  "InPlanePhaseEncodingDirectionDICOM": "COL",
  "InstitutionAddress": "Maynard 3,Hanover,NH,US,03755",
  "InstitutionName": "Dartmouth College - PBS",
  "InstitutionalDepartmentName": "Department",
  "MRAcquisitionType": "2D",
  "MagneticFieldStrength": 3,
  "Manufacturer": "Siemens",
  "ManufacturersModelName": "Prisma",
  "Modality": "MR",
  "MultibandAccelerationFactor": 4,
  "NonlinearGradientCorrection": false,
  "ParallelReductionFactorInPlane": 2,
  "PartialFourier": 1,
  "PatientPosition": "HFS",
  "PercentPhaseFOV": 100,
  "PercentSampling": 100,
  "PhaseEncodingDirection": "j-",
  "PhaseEncodingSteps": 79,
  "PhaseResolution": 1,
  "PixelBandwidth": 2315,
  "ProcedureStepDescription": "dbic^QA",
  "ProtocolName": "func-bold_task-rest_acq-p2-s4-3.5mm",
  "PulseSequenceDetails": "%SiemensSeq%\\ep2d_bold",
  "ReceiveCoilActiveElements": "HEA;HEP",
  "ReceiveCoilName": "Head_32",
  "ReconMatrixPE": 80,
  "RefLinesPE": 24,
  "RepetitionTime": 2,
  "SAR": 0.027046,
  "ScanOptions": "FS",
  "ScanningSequence": "EP",
  "SequenceName": "*epfid2d1_80",
  "SequenceVariant": "SK",
  "SeriesDescription": "func-bold_task-rest_acq-p2-s4-3.5mm",
  "SeriesNumber": 6,
  "ShimSetting": [4222, -7742, -7489, -3, -145, -78, 27, 72],
  "SliceThickness": 3.5,
  "SliceTiming": [1.485, 0, 0.99, 0.2475, 1.2375, 0.7425, 1.7325, 0.495, 1.485, 0, 0.99, 0.2475, 1.2375, 0.7425, 1.7325, 0.495, 1.485, 0, 0.99, 0.2475, 1.2375, 0.7425, 1.7325, 0.495, 1.485, 0, 0.99, 0.2475, 1.2375, 0.7425, 1.7325, 0.495],
  "SoftwareVersions": "syngo MR E11",
  "SpacingBetweenSlices": 3.99,
  "StationName": "AWP66112",
  "TaskName": "rest",
  "TotalReadoutTime": 0.0213301,
  "TxRefAmp": 227.467,
  "dcmmeta_affine": [
    [-2.9602255821228027, -0.46885374188423157, -0.17463326454162598, 141.54457092285156],
    [-0.4866690933704376, 2.8247363567352295, 1.177645206451416, -113.75727844238281],
    [0.01474947389215231, -0.8950085043907166, 3.808248281478882, -27.04134750366211],
    [0.0, 0.0, 0.0, 1.0]
],
  "dcmmeta_reorient_transform": [
    [0.0, -1.0, 0.0, 79.0],
    [1.0, 0.0, 0.0, 0.0],
    [0.0, 0.0, 1.0, 0.0],
    [0.0, 0.0, 0.0, 1.0]
],
  "dcmmeta_shape": [80, 80, 32, 200],
  "dcmmeta_slice_dim": 2,
  "dcmmeta_version": 0.6,
  "global": {
    "const": {
      "AccessionNumber": "qa",
      "AcquisitionMatrix": [80, 0, 0, 80],
      "AngioFlag": "N",
      "BitsAllocated": 16,
      "BitsStored": 12,
      "BodyPartExamined": "BRAIN",
      "Columns": 480,
      "EchoNumbers": 1,
      "EchoTime": 35.0,
      "EchoTrainLength": 39,
      "FlipAngle": 90.0,
      "HighBit": 11,
      "ImageOrientationPatient": [0.98674186839481, 0.16222303556778, 0.00491649142051, -0.1562845819721, 0.94157881260021, 0.29833616793844],
      "ImagePositionPatient": [-602.77950076006, -771.67800641643, -279.69861563566],
      "ImageType": [
        "ORIGINAL",
        "PRIMARY",
        "M",
        "ND",
        "NORM",
        "MOSAIC"
],
      "ImagedNucleus": "1H",
      "ImagingFrequency": 123.259384,
      "InPlanePhaseEncodingDirection": "COL",
      "MRAcquisitionType": "2D",
      "MagneticFieldStrength": 3.0,
      "Manufacturer": "SIEMENS",
      "ManufacturerModelName": "Prisma",
      "Modality": "MR",
      "NumberOfAverages": 1.0,
      "NumberOfPhaseEncodingSteps": 79,
      "PercentPhaseFieldOfView": 100.0,
      "PercentSampling": 100.0,
      "PerformedProcedureStepStartTime": "091905.165000",
      "PhotometricInterpretation": "MONOCHROME2",
      "PixelBandwidth": 2315.0,
      "PixelRepresentation": 0,
      "PixelSpacing": [3.0, 3.0],
      "ProtocolName": "func-bold_task-rest_acq-p2-s4-3.5mm",
      "RepetitionTime": 2000.0,
      "Rows": 480,
      "SAR": 0.02704604076559,
      "SamplesPerPixel": 1,
      "ScanOptions": "FS",
      "ScanningSequence": "EP",
      "SequenceName": "*epfid2d1_80",
      "SequenceVariant": "SK",
      "SeriesDescription": "func-bold_task-rest_acq-p2-s4-3.5mm",
      "SeriesNumber": 6,
      "SeriesTime": "093148.342000",
      "SliceLocation": -65.580017319414,
      "SliceThickness": 3.5,
      "SmallestImagePixelValue": 0,
      "SoftwareVersions": "syngo MR E11",
      "SpacingBetweenSlices": 3.9900000065115,
      "SpecificCharacterSet": "ISO_IR 100",
      "StudyID": "18",
      "StudyTime": "091905.127000",
      "TransmitCoilName": "Body",
      "VariableFlipAngleFlag": "N",
      "WindowCenterWidthExplanation": "Algo1"
    },
    "slices": {}
  },
  "time": {
    "samples": {
      "AcquisitionNumber": [1, 2, 3, 4, 5, 6, 7, 8, 9, 10, 11, 12, 13, 14, 15, 16, 17, 18, 19, 20, 21, 22, 23, 24, 25, 26, 27, 28, 29, 30, 31, 32, 33, 34, 35, 36, 37, 38, 39, 40, 41, 42, 43, 44, 45, 46, 47, 48, 49, 50, 51, 52, 53, 54, 55, 56, 57, 58, 59, 60, 61, 62, 63, 64, 65, 66, 67, 68, 69, 70, 71, 72, 73, 74, 75, 76, 77, 78, 79, 80, 81, 82, 83, 84, 85, 86, 87, 88, 89, 90, 91, 92, 93, 94, 95, 96, 97, 98, 99, 100, 101, 102, 103, 104, 105, 106, 107, 108, 109, 110, 111, 112, 113, 114, 115, 116, 117, 118, 119, 120, 121, 122, 123, 124, 125, 126, 127, 128, 129, 130, 131, 132, 133, 134, 135, 136, 137, 138, 139, 140, 141, 142, 143, 144, 145, 146, 147, 148, 149, 150, 151, 152, 153, 154, 155, 156, 157, 158, 159, 160, 161, 162, 163, 164, 165, 166, 167, 168, 169, 170, 171, 172, 173, 174, 175, 176, 177, 178, 179, 180, 181, 182, 183, 184, 185, 186, 187, 188, 189, 190, 191, 192, 193, 194, 195, 196, 197, 198, 199, 200],
      "AcquisitionTime": ["093055.055000", "093057.055000", "093059.055000", "093101.055000", "093103.055000", "093105.055000", "093107.055000", "093109.055000", "093111.055000", "093113.055000", "093115.055000", "093117.055000", "093119.055000", "093121.055000", "093123.055000", "093125.055000", "093127.055000", "093129.055000", "093131.055000", "093133.055000", "093135.055000", "093137.055000", "093139.055000", "093141.055000", "093143.055000", "093145.055000", "093147.055000", "093149.055000", "093151.055000", "093153.055000", "093155.055000", "093157.055000", "093159.055000", "093201.055000", "093203.055000", "093205.055000", "093207.055000", "093209.055000", "093211.055000", "093213.055000", "093215.055000", "093217.055000", "093219.055000", "093221.055000", "093223.055000", "093225.055000", "093227.055000", "093229.055000", "093231.055000", "093233.055000", "093235.055000", "093237.055000", "093239.055000", "093241.055000", "093243.055000", "093245.055000", "093247.055000", "093249.055000", "093251.055000", "093253.055000", "093255.055000", "093257.055000", "093259.055000", "093301.055000", "093303.055000", "093305.055000", "093307.055000", "093309.055000", "093311.055000", "093313.055000", "093315.055000", "093317.055000", "093319.055000", "093321.055000", "093323.055000", "093325.055000", "093327.055000", "093329.055000", "093331.055000", "093333.055000", "093335.055000", "093337.055000", "093339.055000", "093341.055000", "093343.055000", "093345.055000", "093347.055000", "093349.055000", "093351.055000", "093353.055000", "093355.055000", "093357.055000", "093359.055000", "093401.055000", "093403.055000", "093405.055000", "093407.055000", "093409.055000", "093411.055000", "093413.055000", "093415.055000", "093417.055000", "093419.055000", "093421.055000", "093423.055000", "093425.055000", "093427.055000", "093429.055000", "093431.055000", "093433.055000", "093435.055000", "093437.055000", "093439.055000", "093441.055000", "093443.055000", "093445.055000", "093447.055000", "093449.055000", "093451.055000", "093453.055000", "093455.055000", "093457.055000", "093459.055000", "093501.055000", "093503.055000", "093505.055000", "093507.055000", "093509.055000", "093511.055000", "093513.055000", "093515.055000", "093517.055000", "093519.055000", "093521.055000", "093523.055000", "093525.055000", "093527.055000", "093529.055000", "093531.055000", "093533.055000", "093535.055000", "093537.055000", "093539.055000", "093541.055000", "093543.055000", "093545.055000", "093547.055000", "093549.055000", "093551.055000", "093553.055000", "093555.055000", "093557.055000", "093559.055000", "093601.055000", "093603.055000", "093605.055000", "093607.055000", "093609.055000", "093611.055000", "093613.055000", "093615.055000", "093617.055000", "093619.055000", "093621.055000", "093623.055000", "093625.055000", "093627.055000", "093629.055000", "093631.055000", "093633.055000", "093635.055000", "093637.055000", "093639.055000", "093641.055000", "093643.055000", "093645.055000", "093647.055000", "093649.055000", "093651.055000", "093653.055000", "093655.055000", "093657.055000", "093659.055000", "093701.055000", "093703.055000", "093705.055000", "093707.055000", "093709.055000", "093711.055000", "093713.055000", "093715.055000", "093717.055000", "093719.055000", "093721.055000", "093723.055000", "093725.055000", "093727.055000", "093729.055000", "093731.055000", "093733.055000"],
      "ContentTime": ["093148.345000", "093148.348000", "093148.351000", "093148.353000", "093148.355000", "093148.358000", "093148.360000", "093148.362000", "093148.365000", "093148.367000", "093148.370000", "093148.372000", "093148.374000", "093148.377000", "093148.379000", "093148.381000", "093148.384000", "093148.386000", "093148.419000", "093148.421000", "093148.423000", "093148.426000", "093148.428000", "093148.431000", "093148.433000", "093148.436000", "093148.438000", "093228.340000", "093228.343000", "093228.345000", "093228.347000", "093228.373000", "093228.376000", "093228.378000", "093228.381000", "093228.383000", "093228.385000", "093228.388000", "093228.390000", "093228.392000", "093228.395000", "093228.397000", "093228.399000", "093228.402000", "093228.404000", "093228.406000", "093228.409000", "093308.340000", "093308.343000", "093308.345000", "093308.348000", "093308.350000", "093308.352000", "093308.378000", "093308.380000", "093308.383000", "093308.385000", "093308.388000", "093308.390000", "093308.392000", "093308.395000", "093308.397000", "093308.399000", "093308.402000", "093308.404000", "093308.407000", "093308.409000", "093348.339000", "093348.342000", "093348.345000", "093348.347000", "093348.349000", "093348.352000", "093348.354000", "093348.356000", "093348.359000", "093348.361000", "093348.364000", "093348.366000", "093348.368000", "093348.371000", "093348.373000", "093348.375000", "093348.378000", "093348.380000", "093348.382000", "093348.385000", "093428.340000", "093428.343000", "093428.345000", "093428.348000", "093428.351000", "093428.353000", "093428.356000", "093428.358000", "093428.360000", "093428.363000", "093428.365000", "093428.367000", "093428.370000", "093428.372000", "093428.375000", "093428.377000", "093428.379000", "093428.381000", "093428.384000", "093428.386000", "093508.340000", "093508.343000", "093508.346000", "093508.348000", "093508.351000", "093508.353000", "093508.356000", "093508.358000", "093508.360000", "093508.363000", "093508.365000", "093508.368000", "093508.370000", "093508.372000", "093508.375000", "093508.377000", "093508.379000", "093508.382000", "093508.384000", "093508.387000", "093548.339000", "093548.342000", "093548.344000", "093548.347000", "093548.349000", "093548.351000", "093548.354000", "093548.356000", "093548.358000", "093548.361000", "093548.363000", "093548.365000", "093548.368000", "093548.370000", "093548.372000", "093548.375000", "093548.377000", "093548.379000", "093548.382000", "093548.384000", "093628.340000", "093628.343000", "093628.345000", "093628.348000", "093628.350000", "093628.352000", "093628.354000", "093628.357000", "093628.359000", "093628.361000", "093628.364000", "093628.367000", "093628.369000", "093628.371000", "093628.374000", "093628.376000", "093628.379000", "093628.381000", "093628.383000", "093628.386000", "093708.340000", "093708.343000", "093708.345000", "093708.348000", "093708.350000", "093708.352000", "093708.355000", "093708.357000", "093708.359000", "093708.362000", "093708.364000", "093708.367000", "093708.369000", "093708.371000", "093708.374000", "093708.376000", "093708.378000", "093708.381000", "093708.383000", "093708.386000", "093734.178000", "093734.182000", "093734.185000", "093734.187000", "093734.190000", "093734.193000", "093734.195000", "093734.197000", "093734.200000", "093734.202000", "093734.205000", "093734.207000", "093734.210000"],
      "InstanceCreationTime": ["093148.345000", "093148.348000", "093148.351000", "093148.353000", "093148.355000", "093148.358000", "093148.360000", "093148.362000", "093148.365000", "093148.367000", "093148.370000", "093148.372000", "093148.374000", "093148.377000", "093148.379000", "093148.381000", "093148.384000", "093148.386000", "093148.419000", "093148.421000", "093148.423000", "093148.426000", "093148.428000", "093148.431000", "093148.433000", "093148.436000", "093148.438000", "093228.340000", "093228.343000", "093228.345000", "093228.347000", "093228.373000", "093228.376000", "093228.378000", "093228.381000", "093228.383000", "093228.385000", "093228.388000", "093228.390000", "093228.392000", "093228.395000", "093228.397000", "093228.399000", "093228.402000", "093228.404000", "093228.406000", "093228.409000", "093308.340000", "093308.343000", "093308.345000", "093308.348000", "093308.350000", "093308.352000", "093308.378000", "093308.380000", "093308.383000", "093308.385000", "093308.388000", "093308.390000", "093308.392000", "093308.395000", "093308.397000", "093308.399000", "093308.402000", "093308.404000", "093308.407000", "093308.409000", "093348.339000", "093348.342000", "093348.345000", "093348.347000", "093348.349000", "093348.352000", "093348.354000", "093348.356000", "093348.359000", "093348.361000", "093348.364000", "093348.366000", "093348.368000", "093348.371000", "093348.373000", "093348.375000", "093348.378000", "093348.380000", "093348.382000", "093348.385000", "093428.340000", "093428.343000", "093428.345000", "093428.348000", "093428.351000", "093428.353000", "093428.356000", "093428.358000", "093428.360000", "093428.363000", "093428.365000", "093428.367000", "093428.370000", "093428.372000", "093428.375000", "093428.377000", "093428.379000", "093428.381000", "093428.384000", "093428.386000", "093508.340000", "093508.343000", "093508.346000", "093508.348000", "093508.351000", "093508.353000", "093508.356000", "093508.358000", "093508.360000", "093508.363000", "093508.365000", "093508.368000", "093508.370000", "093508.372000", "093508.375000", "093508.377000", "093508.379000", "093508.382000", "093508.384000", "093508.387000", "093548.339000", "093548.342000", "093548.344000", "093548.347000", "093548.349000", "093548.351000", "093548.354000", "093548.356000", "093548.358000", "093548.361000", "093548.363000", "093548.365000", "093548.368000", "093548.370000", "093548.372000", "093548.375000", "093548.377000", "093548.379000", "093548.382000", "093548.384000", "093628.340000", "093628.343000", "093628.345000", "093628.348000", "093628.350000", "093628.352000", "093628.354000", "093628.357000", "093628.359000", "093628.361000", "093628.364000", "093628.367000", "093628.369000", "093628.371000", "093628.374000", "093628.376000", "093628.379000", "093628.381000", "093628.383000", "093628.386000", "093708.340000", "093708.343000", "093708.345000", "093708.348000", "093708.350000", "093708.352000", "093708.355000", "093708.357000", "093708.359000", "093708.362000", "093708.364000", "093708.367000", "093708.369000", "093708.371000", "093708.374000", "093708.376000", "093708.378000", "093708.381000", "093708.383000", "093708.386000", "093734.178000", "093734.182000", "093734.185000", "093734.187000", "093734.190000", "093734.193000", "093734.195000", "093734.197000", "093734.200000", "093734.202000", "093734.205000", "093734.207000", "093734.210000"],
      "InstanceNumber": [1, 2, 3, 4, 5, 6, 7, 8, 9, 10, 11, 12, 13, 14, 15, 16, 17, 18, 19, 20, 21, 22, 23, 24, 25, 26, 27, 28, 29, 30, 31, 32, 33, 34, 35, 36, 37, 38, 39, 40, 41, 42, 43, 44, 45, 46, 47, 48, 49, 50, 51, 52, 53, 54, 55, 56, 57, 58, 59, 60, 61, 62, 63, 64, 65, 66, 67, 68, 69, 70, 71, 72, 73, 74, 75, 76, 77, 78, 79, 80, 81, 82, 83, 84, 85, 86, 87, 88, 89, 90, 91, 92, 93, 94, 95, 96, 97, 98, 99, 100, 101, 102, 103, 104, 105, 106, 107, 108, 109, 110, 111, 112, 113, 114, 115, 116, 117, 118, 119, 120, 121, 122, 123, 124, 125, 126, 127, 128, 129, 130, 131, 132, 133, 134, 135, 136, 137, 138, 139, 140, 141, 142, 143, 144, 145, 146, 147, 148, 149, 150, 151, 152, 153, 154, 155, 156, 157, 158, 159, 160, 161, 162, 163, 164, 165, 166, 167, 168, 169, 170, 171, 172, 173, 174, 175, 176, 177, 178, 179, 180, 181, 182, 183, 184, 185, 186, 187, 188, 189, 190, 191, 192, 193, 194, 195, 196, 197, 198, 199, 200],
      "LargestImagePixelValue": [2312, 2313, 2315, 2315, 2314, 2314, 2314, 2311, 2313, 2313, 2319, 2316, 2315, 2316, 2316, 2317, 2312, 2315, 2316, 2316, 2312, 2312, 2315, 2310, 2313, 2319, 2316, 2313, 2314, 2319, 2313, 2315, 2315, 2314, 2315, 2314, 2313, 2317, 2312, 2314, 2314, 2311, 2315, 2317, 2312, 2315, 2318, 2318, 2311, 2315, 2315, 2315, 2318, 2313, 2315, 2317, 2317, 2315, 2318, 2320, 2316, 2312, 2315, 2314, 2314, 2317, 2319, 2315, 2318, 2318, 2316, 2315, 2317, 2319, 2315, 2320, 2314, 2314, 2316, 2318, 2316, 2316, 2315, 2317, 2317, 2321, 2319, 2316, 2314, 2314, 2316, 2315, 2314, 2317, 2316, 2316, 2317, 2316, 2313, 2317, 2319, 2316, 2319, 2317, 2321, 2321, 2317, 2318, 2317, 2319, 2315, 2315, 2318, 2315, 2316, 2314, 2313, 2316, 2316, 2319, 2313, 2316, 2315, 2316, 2318, 2316, 2321, 2317, 2316, 2317, 2319, 2314, 2315, 2318, 2316, 2317, 2315, 2313, 2317, 2320, 2316, 2321, 2317, 2319, 2318, 2319, 2315, 2320, 2321, 2317, 2319, 2317, 2316, 2318, 2317, 2318, 2322, 2318, 2319, 2316, 2319, 2319, 2314, 2318, 2317, 2318, 2316, 2318, 2319, 2320, 2320, 2320, 2318, 2314, 2317, 2315, 2319, 2318, 2317, 2317, 2317, 2319, 2321, 2319, 2322, 2318, 2316, 2319, 2316, 2317, 2316, 2322, 2322, 2318, 2319, 2320, 2320, 2319, 2319, 2318],
      "WindowCenter": [984.0, 983.0, 983.0, 982.0, 983.0, 984.0, 982.0, 982.0, 983.0, 984.0, 984.0, 985.0, 983.0, 985.0, 985.0, 982.0, 984.0, 982.0, 984.0, 984.0, 983.0, 983.0, 983.0, 983.0, 982.0, 982.0, 983.0, 984.0, 981.0, 982.0, 983.0, 983.0, 982.0, 984.0, 983.0, 982.0, 982.0, 982.0, 983.0, 982.0, 983.0, 983.0, 982.0, 984.0, 984.0, 983.0, 983.0, 984.0, 982.0, 983.0, 982.0, 984.0, 983.0, 983.0, 984.0, 983.0, 983.0, 984.0, 985.0, 982.0, 984.0, 984.0, 982.0, 984.0, 983.0, 984.0, 983.0, 982.0, 982.0, 984.0, 982.0, 982.0, 982.0, 984.0, 982.0, 984.0, 984.0, 984.0, 985.0, 983.0, 982.0, 984.0, 984.0, 982.0, 985.0, 982.0, 982.0, 984.0, 983.0, 982.0, 984.0, 982.0, 984.0, 983.0, 983.0, 983.0, 983.0, 985.0, 984.0, 982.0, 983.0, 985.0, 983.0, 983.0, 984.0, 983.0, 984.0, 982.0, 984.0, 985.0, 983.0, 983.0, 984.0, 982.0, 985.0, 984.0, 982.0, 984.0, 984.0, 985.0, 983.0, 983.0, 984.0, 983.0, 982.0, 981.0, 983.0, 981.0, 983.0, 983.0, 984.0, 982.0, 982.0, 983.0, 981.0, 981.0, 982.0, 983.0, 983.0, 984.0, 983.0, 982.0, 982.0, 983.0, 983.0, 983.0, 982.0, 982.0, 983.0, 982.0, 984.0, 984.0, 985.0, 984.0, 982.0, 981.0, 982.0, 983.0, 983.0, 984.0, 985.0, 982.0, 982.0, 982.0, 982.0, 983.0, 982.0, 982.0, 984.0, 985.0, 983.0, 984.0, 981.0, 983.0, 984.0, 985.0, 985.0, 981.0, 983.0, 983.0, 982.0, 983.0, 985.0, 982.0, 983.0, 982.0, 982.0, 984.0, 984.0, 982.0, 982.0, 983.0, 982.0, 983.0, 982.0, 985.0, 984.0, 983.0, 982.0, 983.0],
      "WindowWidth": [2350.0, 2349.0, 2349.0, 2348.0, 2349.0, 2350.0, 2349.0, 2348.0, 2350.0, 2350.0, 2350.0, 2351.0, 2349.0, 2351.0, 2352.0, 2348.0, 2350.0, 2349.0, 2350.0, 2350.0, 2350.0, 2349.0, 2349.0, 2349.0, 2348.0, 2348.0, 2350.0, 2350.0, 2347.0, 2348.0, 2349.0, 2349.0, 2348.0, 2350.0, 2351.0, 2348.0, 2350.0, 2349.0, 2349.0, 2348.0, 2350.0, 2349.0, 2348.0, 2350.0, 2350.0, 2350.0, 2349.0, 2350.0, 2349.0, 2349.0, 2350.0, 2350.0, 2350.0, 2350.0, 2350.0, 2350.0, 2349.0, 2350.0, 2351.0, 2349.0, 2351.0, 2350.0, 2349.0, 2350.0, 2351.0, 2350.0, 2351.0, 2348.0, 2349.0, 2350.0, 2348.0, 2349.0, 2350.0, 2350.0, 2350.0, 2351.0, 2351.0, 2350.0, 2351.0, 2349.0, 2348.0, 2351.0, 2350.0, 2350.0, 2351.0, 2348.0, 2349.0, 2351.0, 2351.0, 2350.0, 2350.0, 2348.0, 2350.0, 2349.0, 2351.0, 2350.0, 2350.0, 2351.0, 2350.0, 2349.0, 2350.0, 2351.0, 2349.0, 2351.0, 2350.0, 2350.0, 2350.0, 2349.0, 2351.0, 2351.0, 2349.0, 2350.0, 2351.0, 2350.0, 2351.0, 2351.0, 2349.0, 2350.0, 2350.0, 2351.0, 2349.0, 2349.0, 2350.0, 2350.0, 2350.0, 2347.0, 2349.0, 2348.0, 2350.0, 2350.0, 2350.0, 2350.0, 2350.0, 2349.0, 2348.0, 2347.0, 2348.0, 2351.0, 2351.0, 2351.0, 2349.0, 2350.0, 2348.0, 2349.0, 2350.0, 2350.0, 2350.0, 2350.0, 2351.0, 2350.0, 2351.0, 2351.0, 2352.0, 2350.0, 2350.0, 2349.0, 2349.0, 2349.0, 2349.0, 2351.0, 2351.0, 2350.0, 2348.0, 2348.0, 2348.0, 2349.0, 2349.0, 2349.0, 2351.0, 2351.0, 2349.0, 2350.0, 2347.0, 2349.0, 2350.0, 2352.0, 2351.0, 2347.0, 2349.0, 2350.0, 2350.0, 2350.0, 2351.0, 2350.0, 2350.0, 2350.0, 2349.0, 2350.0, 2350.0, 2348.0, 2350.0, 2350.0, 2348.0, 2350.0, 2348.0, 2351.0, 2350.0, 2349.0, 2350.0, 2350.0]
    },
    "slices": {}
  }
}