{
  "AcquisitionMatrixPE": 80,
  "AcquisitionNumber": 1,
  "AcquisitionTime": "09:37:44.435000",
  "BandwidthPerPixelPhaseEncode": 25,
  "BaseResolution": 80,
  "BodyPartExamined": "BRAIN",
  "CoilCombinationMethod": "Sum of Squares",
  "ConsistencyInfo": "N4_VE11E_LATEST_20181129",
  "ConversionSoftware": "dcm2niix",
  "ConversionSoftwareVersion": "v1.0.20220720",
  "DerivedVendorReportedEchoSpacing": 0.0005,
  "DeviceSerialNumber": "66112",
  "DwellTime": 2.7e-06,
  "EchoTime": 0.03,
  "EchoTrainLength": 80,
  "EffectiveEchoSpacing": 0.0005,
  "FlipAngle": 77,
  "HeudiconvVersion": "0.13.1",
  "ImageOrientationPatientDICOM": [0.986742, 0.162223, 0.00491649, -0.156285, 0.941579, 0.298336],
  "ImageOrientationText": "Tra>Cor(17.2)>Sag(-2.5)",
  "ImageType": [
    "ORIGINAL",
    "PRIMARY",
    "M",
    "ND",
    "NORM",
    "MOSAIC"
],
  "ImagingFrequency": 123.259,
  "InPlanePhaseEncodingDirectionDICOM": "COL",
  "InstitutionAddress": "Maynard 3,Hanover,NH,US,03755",
  "InstitutionName": "Dartmouth College - PBS",
  "InstitutionalDepartmentName": "Department",
  "MRAcquisitionType": "2D",
  "MagneticFieldStrength": 3,
  "Manufacturer": "Siemens",
  "ManufacturersModelName": "Prisma",
  "MatrixCoilMode": "SENSE",
  "Modality": "MR",
  "NonlinearGradientCorrection": false,
  "PartialFourier": 1,
  "PatientPosition": "HFS",
  "PercentPhaseFOV": 100,
  "PercentSampling": 100,
  "PhaseEncodingDirection": "j-",
  "PhaseEncodingSteps": 80,
  "PhaseResolution": 1,
  "PixelBandwidth": 2315,
  "ProcedureStepDescription": "dbic^QA",
  "ProtocolName": "func-bold_fa-77",
  "PulseSequenceDetails": "%SiemensSeq%\\ep2d_bold",
  "ReceiveCoilActiveElements": "HEA;HEP",
  "ReceiveCoilName": "Head_32",
  "ReconMatrixPE": 80,
  "RepetitionTime": 2,
  "SAR": 0.0565189,
  "ScanOptions": "FS",
  "ScanningSequence": "EP",
  "SequenceName": "*epfid2d1_80",
  "SequenceVariant": "SK",
  "SeriesDescription": "func-bold_fa-77",
  "SeriesNumber": 7,
  "ShimSetting": [4222, -7741, -7488, -4, -145, -73, 28, 72],
  "SliceThickness": 3.5,
  "SliceTiming": [0.99, 0, 1.055, 0.065, 1.1225, 0.1325, 1.1875, 0.1975, 1.2525, 0.2625, 1.32, 0.33, 1.385, 0.395, 1.4525, 0.4625, 1.5175, 0.5275, 1.5825, 0.5925, 1.65, 0.66, 1.715, 0.725, 1.7825, 0.7925, 1.8475, 0.8575, 1.9125, 0.9225],
  "SoftwareVersions": "syngo MR E11",
  "SpacingBetweenSlices": 3.99,
  "StationName": "AWP66112",
  "TotalReadoutTime": 0.0395,
  "TxRefAmp": 227.467,
  "dcmmeta_affine": [
    [-2.9602255821228027, -0.46885374188423157, -0.17463326454162598, 140.72991943359375],
    [-0.4866690933704376, 2.8247363567352295, 1.177645206451416, -108.622314453125],
    [0.01474947389215231, -0.8950085043907166, 3.808248281478882, -21.131568908691406],
    [0.0, 0.0, 0.0, 1.0]
],
  "dcmmeta_reorient_transform": [
    [0.0, -1.0, 0.0, 79.0],
    [1.0, 0.0, 0.0, 0.0],
    [0.0, 0.0, 1.0, 0.0],
    [0.0, 0.0, 0.0, 1.0]
],
  "dcmmeta_shape": [80, 80, 30, 200],
  "dcmmeta_slice_dim": 2,
  "dcmmeta_version": 0.6,
  "global": {
    "const": {
      "AccessionNumber": "qa",
      "AcquisitionMatrix": [80, 0, 0, 80],
      "AngioFlag": "N",
      "BitsAllocated": 16,
      "BitsStored": 12,
      "BodyPartExamined": "BRAIN",
      "Columns": 480,
      "EchoNumbers": 1,
      "EchoTime": 30.0,
      "EchoTrainLength": 80,
      "FlipAngle": 77.0,
      "HighBit": 11,
      "ImageOrientationPatient": [0.98674186839481, 0.16222303556778, 0.00491649142051, -0.1562845819721, 0.94157881260021, 0.29833616793844],
      "ImagePositionPatient": [-601.96484593294, -776.81297231303, -273.78883704069],
      "ImageType": [
        "ORIGINAL",
        "PRIMARY",
        "M",
        "ND",
        "NORM",
        "MOSAIC"
],
      "ImagedNucleus": "1H",
      "ImagingFrequency": 123.259383,
      "InPlanePhaseEncodingDirection": "COL",
      "MRAcquisitionType": "2D",
      "MagneticFieldStrength": 3.0,
      "Manufacturer": "SIEMENS",
      "ManufacturerModelName": "Prisma",
      "Modality": "MR",
      "NumberOfAverages": 1.0,
      "NumberOfPhaseEncodingSteps": 80,
      "PercentPhaseFieldOfView": 100.0,
      "PercentSampling": 100.0,
      "PerformedProcedureStepStartTime": "091905.165000",
      "PhotometricInterpretation": "MONOCHROME2",
      "PixelBandwidth": 2315.0,
      "PixelRepresentation": 0,
      "PixelSpacing": [3.0, 3.0],
      "ProtocolName": "func-bold_fa-77",
      "RepetitionTime": 2000.0,
      "Rows": 480,
      "SAR": 0.05651892271146,
      "SamplesPerPixel": 1,
      "ScanOptions": "FS",
      "ScanningSequence": "EP",
      "SequenceName": "*epfid2d1_80",
      "SequenceVariant": "SK",
      "SeriesDescription": "func-bold_fa-77",
      "SeriesNumber": 7,
      "SeriesTime": "093828.426000",
      "SliceLocation": -58.388203335097,
      "SliceThickness": 3.5,
      "SmallestImagePixelValue": 0,
      "SoftwareVersions": "syngo MR E11",
      "SpacingBetweenSlices": 3.9900000110081,
      "SpecificCharacterSet": "ISO_IR 100",
      "StudyID": "18",
      "StudyTime": "091905.127000",
      "TransmitCoilName": "Body",
      "VariableFlipAngleFlag": "N",
      "WindowCenterWidthExplanation": "Algo1"
    },
    "slices": {}
  },
  "time": {
    "samples": {
      "AcquisitionNumber": [1, 2, 3, 4, 5, 6, 7, 8, 9, 10, 11, 12, 13, 14, 15, 16, 17, 18, 19, 20, 21, 22, 23, 24, 25, 26, 27, 28, 29, 30, 31, 32, 33, 34, 35, 36, 37, 38, 39, 40, 41, 42, 43, 44, 45, 46, 47, 48, 49, 50, 51, 52, 53, 54, 55, 56, 57, 58, 59, 60, 61, 62, 63, 64, 65, 66, 67, 68, 69, 70, 71, 72, 73, 74, 75, 76, 77, 78, 79, 80, 81, 82, 83, 84, 85, 86, 87, 88, 89, 90, 91, 92, 93, 94, 95, 96, 97, 98, 99, 100, 101, 102, 103, 104, 105, 106, 107, 108, 109, 110, 111, 112, 113, 114, 115, 116, 117, 118, 119, 120, 121, 122, 123, 124, 125, 126, 127, 128, 129, 130, 131, 132, 133, 134, 135, 136, 137, 138, 139, 140, 141, 142, 143, 144, 145, 146, 147, 148, 149, 150, 151, 152, 153, 154, 155, 156, 157, 158, 159, 160, 161, 162, 163, 164, 165, 166, 167, 168, 169, 170, 171, 172, 173, 174, 175, 176, 177, 178, 179, 180, 181, 182, 183, 184, 185, 186, 187, 188, 189, 190, 191, 192, 193, 194, 195, 196, 197, 198, 199, 200],
      "AcquisitionTime": ["093744.435000", "093746.435000", "093748.435000", "093750.435000", "093752.435000", "093754.435000", "093756.435000", "093758.435000", "093800.435000", "093802.435000", "093804.435000", "093806.435000", "093808.435000", "093810.435000", "093812.435000", "093814.435000", "093816.435000", "093818.435000", "093820.435000", "093822.435000", "093824.435000", "093826.435000", "093828.435000", "093830.435000", "093832.435000", "093834.435000", "093836.435000", "093838.435000", "093840.435000", "093842.435000", "093844.435000", "093846.435000", "093848.435000", "093850.435000", "093852.435000", "093854.435000", "093856.435000", "093858.435000", "093900.435000", "093902.435000", "093904.435000", "093906.435000", "093908.435000", "093910.435000", "093912.435000", "093914.435000", "093916.435000", "093918.435000", "093920.435000", "093922.435000", "093924.435000", "093926.435000", "093928.435000", "093930.435000", "093932.435000", "093934.435000", "093936.435000", "093938.435000", "093940.435000", "093942.435000", "093944.435000", "093946.435000", "093948.435000", "093950.435000", "093952.435000", "093954.435000", "093956.435000", "093958.435000", "094000.435000", "094002.435000", "094004.435000", "094006.435000", "094008.435000", "094010.435000", "094012.435000", "094014.435000", "094016.435000", "094018.435000", "094020.435000", "094022.435000", "094024.435000", "094026.435000", "094028.435000", "094030.435000", "094032.435000", "094034.435000", "094036.435000", "094038.435000", "094040.435000", "094042.435000", "094044.435000", "094046.435000", "094048.435000", "094050.435000", "094052.435000", "094054.435000", "094056.435000", "094058.435000", "094100.435000", "094102.435000", "094104.435000", "094106.435000", "094108.435000", "094110.435000", "094112.435000", "094114.435000", "094116.435000", "094118.435000", "094120.435000", "094122.435000", "094124.435000", "094126.435000", "094128.435000", "094130.435000", "094132.435000", "094134.435000", "094136.435000", "094138.435000", "094140.435000", "094142.435000", "094144.435000", "094146.435000", "094148.435000", "094150.435000", "094152.435000", "094154.435000", "094156.435000", "094158.435000", "094200.435000", "094202.435000", "094204.435000", "094206.435000", "094208.435000", "094210.435000", "094212.435000", "094214.435000", "094216.435000", "094218.435000", "094220.435000", "094222.435000", "094224.435000", "094226.435000", "094228.435000", "094230.435000", "094232.435000", "094234.435000", "094236.435000", "094238.435000", "094240.435000", "094242.435000", "094244.435000", "094246.435000", "094248.435000", "094250.435000", "094252.435000", "094254.435000", "094256.435000", "094258.435000", "094300.435000", "094302.435000", "094304.435000", "094306.435000", "094308.435000", "094310.435000", "094312.435000", "094314.435000", "094316.435000", "094318.435000", "094320.435000", "094322.435000", "094324.435000", "094326.435000", "094328.435000", "094330.435000", "094332.435000", "094334.435000", "094336.435000", "094338.435000", "094340.435000", "094342.435000", "094344.435000", "094346.435000", "094348.435000", "094350.435000", "094352.435000", "094354.435000", "094356.435000", "094358.435000", "094400.435000", "094402.435000", "094404.435000", "094406.435000", "094408.435000", "094410.435000", "094412.435000", "094414.435000", "094416.435000", "094418.435000", "094420.435000", "094422.435000"],
      "ContentTime": ["093828.430000", "093828.433000", "093828.435000", "093828.437000", "093828.440000", "093828.442000", "093828.444000", "093828.446000", "093828.449000", "093828.451000", "093828.453000", "093828.456000", "093828.458000", "093828.460000", "093828.462000", "093828.465000", "093828.467000", "093828.469000", "093828.472000", "093828.474000", "093828.476000", "093828.479000", "093908.426000", "093908.429000", "093908.431000", "093908.433000", "093908.436000", "093908.438000", "093908.440000", "093908.442000", "093908.445000", "093908.447000", "093908.449000", "093908.452000", "093908.454000", "093908.456000", "093908.459000", "093908.461000", "093908.463000", "093908.465000", "093908.468000", "093908.470000", "093948.426000", "093948.429000", "093948.431000", "093948.433000", "093948.436000", "093948.438000", "093948.440000", "093948.443000", "093948.445000", "093948.448000", "093948.450000", "093948.452000", "093948.455000", "093948.459000", "093948.461000", "093948.464000", "093948.466000", "093948.468000", "093948.471000", "093948.473000", "094008.426000", "094008.429000", "094008.431000", "094008.436000", "094008.439000", "094008.441000", "094008.443000", "094008.446000", "094008.448000", "094008.450000", "094048.425000", "094048.428000", "094048.430000", "094048.432000", "094048.435000", "094048.437000", "094048.439000", "094048.442000", "094048.444000", "094048.446000", "094048.449000", "094048.451000", "094048.453000", "094048.456000", "094048.458000", "094048.460000", "094048.462000", "094048.465000", "094048.473000", "094048.475000", "094128.426000", "094128.429000", "094128.431000", "094128.433000", "094128.436000", "094128.438000", "094128.440000", "094128.443000", "094128.445000", "094128.447000", "094128.450000", "094128.452000", "094128.454000", "094128.457000", "094128.459000", "094128.461000", "094128.464000", "094128.466000", "094128.468000", "094128.471000", "094208.426000", "094208.429000", "094208.431000", "094208.434000", "094208.436000", "094208.438000", "094208.441000", "094208.443000", "094208.445000", "094208.448000", "094208.450000", "094208.452000", "094208.455000", "094208.457000", "094208.459000", "094208.462000", "094208.464000", "094208.466000", "094208.469000", "094208.471000", "094248.425000", "094248.428000", "094248.430000", "094248.432000", "094248.435000", "094248.437000", "094248.440000", "094248.442000", "094248.444000", "094248.447000", "094248.449000", "094248.451000", "094248.454000", "094248.456000", "094248.458000", "094248.461000", "094248.463000", "094248.465000", "094248.468000", "094248.470000", "094328.426000", "094328.429000", "094328.431000", "094328.434000", "094328.436000", "094328.438000", "094328.441000", "094328.443000", "094328.445000", "094328.448000", "094328.450000", "094328.452000", "094328.455000", "094328.457000", "094328.459000", "094328.462000", "094328.464000", "094328.466000", "094328.469000", "094328.471000", "094408.426000", "094408.429000", "094408.431000", "094408.433000", "094408.436000", "094408.438000", "094408.440000", "094408.443000", "094408.445000", "094408.447000", "094408.449000", "094408.452000", "094408.454000", "094408.456000", "094408.459000", "094408.461000", "094408.463000", "094408.466000", "094408.468000", "094408.470000", "094424.096000", "094424.099000", "094424.101000", "094424.104000", "094424.106000", "094424.109000", "094424.111000", "094424.114000"],
      "InstanceCreationTime": ["093828.430000", "093828.433000", "093828.435000", "093828.437000", "093828.440000", "093828.442000", "093828.444000", "093828.446000", "093828.449000", "093828.451000", "093828.453000", "093828.456000", "093828.458000", "093828.460000", "093828.462000", "093828.465000", "093828.467000", "093828.469000", "093828.472000", "093828.474000", "093828.476000", "093828.479000", "093908.426000", "093908.429000", "093908.431000", "093908.433000", "093908.436000", "093908.438000", "093908.440000", "093908.442000", "093908.445000", "093908.447000", "093908.449000", "093908.452000", "093908.454000", "093908.456000", "093908.459000", "093908.461000", "093908.463000", "093908.465000", "093908.468000", "093908.470000", "093948.426000", "093948.429000", "093948.431000", "093948.433000", "093948.436000", "093948.438000", "093948.440000", "093948.443000", "093948.445000", "093948.448000", "093948.450000", "093948.452000", "093948.455000", "093948.459000", "093948.461000", "093948.464000", "093948.466000", "093948.468000", "093948.471000", "093948.473000", "094008.426000", "094008.429000", "094008.431000", "094008.436000", "094008.439000", "094008.441000", "094008.443000", "094008.446000", "094008.448000", "094008.450000", "094048.425000", "094048.428000", "094048.430000", "094048.432000", "094048.435000", "094048.437000", "094048.439000", "094048.442000", "094048.444000", "094048.446000", "094048.449000", "094048.451000", "094048.453000", "094048.456000", "094048.458000", "094048.460000", "094048.462000", "094048.465000", "094048.473000", "094048.475000", "094128.426000", "094128.429000", "094128.431000", "094128.433000", "094128.436000", "094128.438000", "094128.440000", "094128.443000", "094128.445000", "094128.447000", "094128.450000", "094128.452000", "094128.454000", "094128.457000", "094128.459000", "094128.461000", "094128.464000", "094128.466000", "094128.468000", "094128.471000", "094208.426000", "094208.429000", "094208.431000", "094208.434000", "094208.436000", "094208.438000", "094208.441000", "094208.443000", "094208.445000", "094208.448000", "094208.450000", "094208.452000", "094208.455000", "094208.457000", "094208.459000", "094208.462000", "094208.464000", "094208.466000", "094208.469000", "094208.471000", "094248.425000", "094248.428000", "094248.430000", "094248.432000", "094248.435000", "094248.437000", "094248.440000", "094248.442000", "094248.444000", "094248.447000", "094248.449000", "094248.451000", "094248.454000", "094248.456000", "094248.458000", "094248.461000", "094248.463000", "094248.465000", "094248.468000", "094248.470000", "094328.426000", "094328.429000", "094328.431000", "094328.434000", "094328.436000", "094328.438000", "094328.441000", "094328.443000", "094328.445000", "094328.448000", "094328.450000", "094328.452000", "094328.455000", "094328.457000", "094328.459000", "094328.462000", "094328.464000", "094328.466000", "094328.469000", "094328.471000", "094408.426000", "094408.429000", "094408.431000", "094408.433000", "094408.436000", "094408.438000", "094408.440000", "094408.443000", "094408.445000", "094408.447000", "094408.449000", "094408.452000", "094408.454000", "094408.456000", "094408.459000", "094408.461000", "094408.463000", "094408.466000", "094408.468000", "094408.470000", "094424.096000", "094424.099000", "094424.101000", "094424.104000", "094424.106000", "094424.109000", "094424.111000", "094424.114000"],
      "InstanceNumber": [1, 2, 3, 4, 5, 6, 7, 8, 9, 10, 11, 12, 13, 14, 15, 16, 17, 18, 19, 20, 21, 22, 23, 24, 25, 26, 27, 28, 29, 30, 31, 32, 33, 34, 35, 36, 37, 38, 39, 40, 41, 42, 43, 44, 45, 46, 47, 48, 49, 50, 51, 52, 53, 54, 55, 56, 57, 58, 59, 60, 61, 62, 63, 64, 65, 66, 67, 68, 69, 70, 71, 72, 73, 74, 75, 76, 77, 78, 79, 80, 81, 82, 83, 84, 85, 86, 87, 88, 89, 90, 91, 92, 93, 94, 95, 96, 97, 98, 99, 100, 101, 102, 103, 104, 105, 106, 107, 108, 109, 110, 111, 112, 113, 114, 115, 116, 117, 118, 119, 120, 121, 122, 123, 124, 125, 126, 127, 128, 129, 130, 131, 132, 133, 134, 135, 136, 137, 138, 139, 140, 141, 142, 143, 144, 145, 146, 147, 148, 149, 150, 151, 152, 153, 154, 155, 156, 157, 158, 159, 160, 161, 162, 163, 164, 165, 166, 167, 168, 169, 170, 171, 172, 173, 174, 175, 176, 177, 178, 179, 180, 181, 182, 183, 184, 185, 186, 187, 188, 189, 190, 191, 192, 193, 194, 195, 196, 197, 198, 199, 200],
      "LargestImagePixelValue": [2282, 2284, 2283, 2284, 2283, 2283, 2283, 2283, 2281, 2283, 2282, 2283, 2282, 2284, 2284, 2282, 2283, 2282, 2281, 2281, 2285, 2281, 2281, 2283, 2280, 2280, 2281, 2282, 2280, 2283, 2283, 2283, 2283, 2284, 2286, 2283, 2284, 2284, 2284, 2285, 2284, 2284, 2286, 2286, 2284, 2285, 2284, 2284, 2283, 2285, 2284, 2284, 2282, 2284, 2284, 2284, 2284, 2284, 2284, 2283, 2283, 2282, 2285, 2282, 2281, 2283, 2283, 2283, 2282, 2283, 2285, 2284, 2283, 2283, 2285, 2282, 2284, 2284, 2285, 2284, 2283, 2284, 2283, 2285, 2284, 2282, 2284, 2285, 2283, 2283, 2283, 2283, 2284, 2285, 2284, 2285, 2285, 2283, 2284, 2284, 2286, 2283, 2285, 2285, 2283, 2284, 2285, 2284, 2284, 2284, 2286, 2284, 2284, 2283, 2286, 2285, 2283, 2282, 2286, 2285, 2285, 2285, 2285, 2285, 2285, 2286, 2285, 2285, 2286, 2284, 2285, 2286, 2285, 2285, 2286, 2286, 2286, 2285, 2286, 2286, 2286, 2286, 2287, 2285, 2285, 2286, 2284, 2286, 2285, 2285, 2286, 2284, 2283, 2285, 2285, 2284, 2286, 2285, 2286, 2284, 2284, 2283, 2284, 2286, 2285, 2285, 2287, 2283, 2284, 2286, 2285, 2287, 2287, 2284, 2286, 2286, 2287, 2287, 2287, 2286, 2287, 2287, 2286, 2286, 2287, 2287, 2287, 2286, 2286, 2287, 2285, 2285, 2286, 2286, 2287, 2285, 2285, 2287, 2284, 2287],
      "WindowCenter": [1041.0, 1041.0, 1040.0, 1040.0, 1040.0, 1040.0, 1041.0, 1040.0, 1041.0, 1041.0, 1040.0, 1040.0, 1041.0, 1040.0, 1040.0, 1040.0, 1041.0, 1040.0, 1040.0, 1041.0, 1040.0, 1040.0, 1041.0, 1040.0, 1041.0, 1041.0, 1041.0, 1040.0, 1040.0, 1040.0, 1041.0, 1040.0, 1041.0, 1041.0, 1039.0, 1040.0, 1041.0, 1041.0, 1042.0, 1041.0, 1041.0, 1041.0, 1040.0, 1040.0, 1041.0, 1040.0, 1041.0, 1041.0, 1040.0, 1041.0, 1040.0, 1040.0, 1040.0, 1041.0, 1040.0, 1039.0, 1041.0, 1040.0, 1041.0, 1040.0, 1039.0, 1040.0, 1040.0, 1039.0, 1039.0, 1040.0, 1039.0, 1040.0, 1040.0, 1040.0, 1039.0, 1040.0, 1039.0, 1040.0, 1039.0, 1039.0, 1040.0, 1040.0, 1039.0, 1040.0, 1040.0, 1039.0, 1039.0, 1039.0, 1039.0, 1039.0, 1039.0, 1040.0, 1039.0, 1039.0, 1039.0, 1040.0, 1039.0, 1039.0, 1039.0, 1039.0, 1039.0, 1039.0, 1040.0, 1039.0, 1040.0, 1040.0, 1041.0, 1039.0, 1039.0, 1039.0, 1039.0, 1039.0, 1039.0, 1039.0, 1039.0, 1039.0, 1039.0, 1040.0, 1039.0, 1039.0, 1039.0, 1039.0, 1039.0, 1040.0, 1039.0, 1038.0, 1039.0, 1039.0, 1039.0, 1039.0, 1039.0, 1039.0, 1039.0, 1040.0, 1039.0, 1039.0, 1040.0, 1040.0, 1038.0, 1039.0, 1040.0, 1039.0, 1038.0, 1039.0, 1039.0, 1039.0, 1039.0, 1039.0, 1040.0, 1039.0, 1039.0, 1039.0, 1039.0, 1038.0, 1039.0, 1038.0, 1039.0, 1038.0, 1039.0, 1039.0, 1038.0, 1038.0, 1039.0, 1038.0, 1039.0, 1038.0, 1038.0, 1039.0, 1039.0, 1038.0, 1039.0, 1038.0, 1039.0, 1039.0, 1039.0, 1038.0, 1039.0, 1038.0, 1039.0, 1039.0, 1039.0, 1038.0, 1039.0, 1039.0, 1039.0, 1039.0, 1039.0, 1038.0, 1038.0, 1039.0, 1039.0, 1038.0, 1038.0, 1037.0, 1038.0, 1038.0, 1039.0, 1038.0, 1039.0, 1038.0, 1039.0, 1038.0, 1039.0, 1038.0],
      "WindowWidth": [2345.0, 2345.0, 2344.0, 2344.0, 2344.0, 2345.0, 2345.0, 2344.0, 2345.0, 2345.0, 2344.0, 2344.0, 2345.0, 2344.0, 2344.0, 2344.0, 2345.0, 2344.0, 2344.0, 2344.0, 2344.0, 2344.0, 2344.0, 2344.0, 2344.0, 2344.0, 2344.0, 2344.0, 2344.0, 2344.0, 2344.0, 2344.0, 2344.0, 2344.0, 2343.0, 2344.0, 2344.0, 2344.0, 2345.0, 2344.0, 2344.0, 2344.0, 2344.0, 2344.0, 2344.0, 2343.0, 2344.0, 2344.0, 2344.0, 2344.0, 2344.0, 2343.0, 2343.0, 2344.0, 2343.0, 2343.0, 2344.0, 2343.0, 2343.0, 2343.0, 2343.0, 2343.0, 2343.0, 2343.0, 2343.0, 2343.0, 2343.0, 2343.0, 2343.0, 2343.0, 2343.0, 2343.0, 2343.0, 2343.0, 2343.0, 2343.0, 2343.0, 2343.0, 2342.0, 2343.0, 2343.0, 2342.0, 2342.0, 2342.0, 2342.0, 2342.0, 2342.0, 2343.0, 2342.0, 2342.0, 2342.0, 2343.0, 2342.0, 2342.0, 2342.0, 2342.0, 2342.0, 2342.0, 2343.0, 2342.0, 2343.0, 2343.0, 2344.0, 2342.0, 2342.0, 2342.0, 2342.0, 2342.0, 2342.0, 2342.0, 2342.0, 2342.0, 2342.0, 2342.0, 2342.0, 2341.0, 2341.0, 2342.0, 2341.0, 2342.0, 2342.0, 2341.0, 2341.0, 2341.0, 2341.0, 2341.0, 2341.0, 2341.0, 2341.0, 2342.0, 2341.0, 2341.0, 2342.0, 2342.0, 2341.0, 2341.0, 2342.0, 2341.0, 2340.0, 2341.0, 2341.0, 2341.0, 2341.0, 2341.0, 2342.0, 2341.0, 2341.0, 2341.0, 2342.0, 2341.0, 2341.0, 2341.0, 2342.0, 2341.0, 2342.0, 2342.0, 2341.0, 2341.0, 2342.0, 2341.0, 2342.0, 2341.0, 2341.0, 2342.0, 2342.0, 2340.0, 2342.0, 2341.0, 2342.0, 2342.0, 2340.0, 2341.0, 2342.0, 2341.0, 2342.0, 2342.0, 2342.0, 2341.0, 2341.0, 2341.0, 2341.0, 2341.0, 2341.0, 2341.0, 2340.0, 2341.0, 2341.0, 2341.0, 2341.0, 2340.0, 2341.0, 2340.0, 2341.0, 2341.0, 2341.0, 2341.0, 2341.0, 2341.0, 2341.0, 2341.0]
    },
    "slices": {}
  }
}