{
  "AcquisitionMatrixPE": 122,
  "AcquisitionNumber": 1,
  "AcquisitionTime": "09:23:50.057500",
  "BandwidthPerPixelPhaseEncode": 28.76,
  "BaseResolution": 122,
  "BodyPartExamined": "BRAIN",
  "CoilCombinationMethod": "Adaptive Combine",
  "ConsistencyInfo": "N4_VE11C_LATEST_20160120",
  "ConversionSoftware": "dcm2niix",
  "ConversionSoftwareVersion": "v1.0.20220720",
  "DerivedVendorReportedEchoSpacing": 0.000570008,
  "DeviceSerialNumber": "66112",
  "DiffusionScheme": "Monopolar",
  "DwellTime": 2e-06,
  "EchoTime": 0.075,
  "EchoTrainLength": 61,
  "EffectiveEchoSpacing": 0.000285004,
  "FlipAngle": 90,
  "HeudiconvVersion": "0.13.1",
  "ImageOrientationPatientDICOM": [0.984971, 0.172347, 0.0113388, -0.16748, 0.93698, 0.306625],
  "ImageOrientationText": "Tra>Cor(17.7)>Sag(-2.4)",
  "ImageType": [
    "ORIGINAL",
    "PRIMARY",
    "DIFFUSION",
    "NONE",
    "ND",
    "NORM"
],
  "ImagingFrequency": 123.252,
  "InPlanePhaseEncodingDirectionDICOM": "COL",
  "InstitutionAddress": "Maynard 3,Hanover,NH,US,03755",
  "InstitutionName": "Dartmouth College - PBS",
  "InstitutionalDepartmentName": "Department",
  "MRAcquisitionType": "2D",
  "MagneticFieldStrength": 3,
  "Manufacturer": "Siemens",
  "ManufacturersModelName": "Prisma",
  "MatrixCoilMode": "GRAPPA",
  "Modality": "MR",
  "NonlinearGradientCorrection": false,
  "ParallelReductionFactorInPlane": 2,
  "PartialFourier": 1,
  "PatientPosition": "HFS",
  "PercentPhaseFOV": 100,
  "PercentSampling": 100,
  "PhaseEncodingDirection": "j-",
  "PhaseEncodingSteps": 122,
  "PhaseResolution": 1,
  "PixelBandwidth": 2050,
  "ProcedureStepDescription": "dbic^QA",
  "ProtocolName": "dwi_acq-DTI-30-p2",
  "PulseSequenceDetails": "%SiemensSeq%\\ep2d_diff",
  "ReceiveCoilActiveElements": "HEA;HEP",
  "ReceiveCoilName": "Head_32",
  "ReconMatrixPE": 122,
  "RefLinesPE": 38,
  "RepetitionTime": 7.7,
  "SAR": 0.0872732,
  "ScanOptions": "FS",
  "ScanningSequence": "EP",
  "SequenceName": "*ep_b0",
  "SequenceVariant": "SK\\SP",
  "SeriesDescription": "dwi_acq-DTI-30-p2",
  "SeriesNumber": 8,
  "ShimSetting": [4147, -7690, -7523, 270, -25, -213, -44, 67],
  "SliceThickness": 2,
  "SliceTiming": [3.83594, 0, 3.94531, 0.10938, 4.0625, 0.21875, 4.17188, 0.32812, 4.27344, 0.4375, 4.38281, 0.54688, 4.5, 0.65625, 4.60938, 0.76562, 4.71875, 0.875, 4.82812, 0.98438, 4.9375, 1.09375, 5.04688, 1.20312, 5.15625, 1.3125, 5.26562, 1.42188, 5.375, 1.53125, 5.48438, 1.64062, 5.59375, 1.75, 5.70312, 1.86719, 5.8125, 1.97656, 5.92188, 2.08594, 6.03125, 2.19531, 6.14062, 2.30469, 6.25, 2.41406, 6.35938, 2.52344, 6.46875, 2.63281, 6.57812, 2.74219, 6.6875, 2.85156, 6.80469, 2.96094, 6.91406, 3.07031, 7.02344, 3.17969, 7.125, 3.28906, 7.24219, 3.39844, 7.35156, 3.50781, 7.46094, 3.61719, 7.57031, 3.72656],
  "SoftwareVersions": "syngo MR E11",
  "SpacingBetweenSlices": 2,
  "SpoilingState": true,
  "StationName": "AWP66112",
  "TotalReadoutTime": 0.0344855,
  "TxRefAmp": 231.226,
  "dcmmeta_affine": [
    [-1.9376479387283325, -0.3294682502746582, -0.08444356918334961, 145.95272827148438],
    [-0.33904367685317993, 1.8432395458221436, 0.6078319549560547, -100.9193344116211],
    [0.022305740043520927, -0.6031965613365173, 1.9035263061523438, -40.026710510253906],
    [0.0, 0.0, 0.0, 1.0]
],
  "dcmmeta_reorient_transform": [
    [0.0, -1.0, 0.0, 121.0],
    [1.0, 0.0, 0.0, 0.0],
    [0.0, 0.0, -1.0, 69.0],
    [0.0, 0.0, 0.0, 1.0]
],
  "dcmmeta_shape": [122, 122, 70, 31],
  "dcmmeta_slice_dim": 2,
  "dcmmeta_version": 0.6,
  "global": {
    "const": {
      "AccessionNumber": "qa",
      "AcquisitionMatrix": [122, 0, 0, 122],
      "AngioFlag": "N",
      "BitsAllocated": 16,
      "BitsStored": 12,
      "BodyPartExamined": "BRAIN",
      "Columns": 122,
      "EchoNumbers": 1,
      "EchoTime": 75.0,
      "EchoTrainLength": 61,
      "FlipAngle": 90.0,
      "HighBit": 11,
      "ImageOrientationPatient": [0.98497100244667, 0.17234719915526, 0.01133875136602, -0.1674796925853, 0.93698010730664, 0.30662490290773],
      "ImageType": [
        "ORIGINAL",
        "PRIMARY",
        "DIFFUSION",
        "NONE",
        "ND",
        "NORM"
],
      "ImagedNucleus": "1H",
      "ImagingFrequency": 123.252463,
      "InPlanePhaseEncodingDirection": "COL",
      "MRAcquisitionType": "2D",
      "MagneticFieldStrength": 3.0,
      "Manufacturer": "SIEMENS",
      "ManufacturerModelName": "Prisma",
      "Modality": "MR",
      "NumberOfAverages": 1.0,
      "NumberOfPhaseEncodingSteps": 122,
      "PercentPhaseFieldOfView": 100.0,
      "PercentSampling": 100.0,
      "PerformedProcedureStepStartTime": "090648.937000",
      "PhotometricInterpretation": "MONOCHROME2",
      "PixelBandwidth": 2050.0,
      "PixelRepresentation": 0,
      "PixelSpacing": [1.9672131538391, 1.9672131538391],
      "ProtocolName": "dwi_acq-DTI-30-p2",
      "RepetitionTime": 7700.0,
      "Rows": 122,
      "SAR": 0.08727323532274,
      "SamplesPerPixel": 1,
      "ScanOptions": "FS",
      "ScanningSequence": "EP",
      "SequenceVariant": [
        "SK",
        "SP"
],
      "SeriesDescription": "dwi_acq-DTI-30-p2",
      "SeriesNumber": 8,
      "SeriesTime": "092349.243000",
      "SliceThickness": 2.0,
      "SmallestImagePixelValue": 0,
      "SoftwareVersions": "syngo MR E11",
      "SpacingBetweenSlices": 2.0,
      "SpecificCharacterSet": "ISO_IR 100",
      "StudyID": "42",
      "StudyTime": "090648.869000",
      "TransmitCoilName": "Body",
      "VariableFlipAngleFlag": "N",
      "WindowCenterWidthExplanation": "Algo1",
      "dBdt": 0.0},
    "slices": {
      "AcquisitionTime": ["092350.057500", "092346.217500", "092350.167500", "092346.327500", "092350.277500", "092346.437500", "092350.387500", "092346.547500", "092350.495000", "092346.657500", "092350.605000", "092346.765000", "092350.715000", "092346.875000", "092350.825000", "092346.985000", "092350.935000", "092347.095000", "092351.045000", "092347.205000", "092351.155000", "092347.315000", "092351.265000", "092347.425000", "092351.375000", "092347.535000", "092351.482500", "092347.642500", "092351.592500", "092347.752500", "092351.702500", "092347.862500", "092351.812500", "092347.972500", "092351.922500", "092348.082500", "092352.032500", "092348.192500", "092352.142500", "092348.302500", "092352.252500", "092348.412500", "092352.360000", "092348.522500", "092352.470000", "092348.630000", "092352.580000", "092348.740000", "092352.690000", "092348.850000", "092352.800000", "092348.960000", "092352.910000", "092349.070000", "092353.020000", "092349.180000", "092353.130000", "092349.290000", "092353.240000", "092349.400000", "092353.347500", "092349.510000", "092353.457500", "092349.617500", "092353.567500", "092349.727500", "092353.677500", "092349.837500", "092353.787500", "092349.947500", "092357.757500", "092353.917500", "092357.867500", "092354.027500", "092357.977500", "092354.137500", "092358.087500", "092354.247500", "092358.195000", "092354.357500", "092358.305000", "092354.465000", "092358.415000", "092354.575000", "092358.525000", "092354.685000", "092358.635000", "092354.795000", "092358.745000", "092354.905000", "092358.855000", "092355.015000", "092358.965000", "092355.125000", "092359.075000", "092355.235000", "092359.182500", "092355.342500", "092359.292500", "092355.452500", "092359.402500", "092355.562500", "092359.512500", "092355.672500", "092359.622500", "092355.782500", "092359.732500", "092355.892500", "092359.842500", "092356.002500", "092359.952500", "092356.112500", "092400.060000", "092356.222500", "092400.170000", "092356.330000", "092400.280000", "092356.440000", "092400.390000", "092356.550000", "092400.500000", "092356.660000", "092400.610000", "092356.770000", "092400.720000", "092356.880000", "092400.830000", "092356.990000", "092400.940000", "092357.100000", "092401.047500", "092357.210000", "092401.157500", "092357.317500", "092401.267500", "092357.427500", "092401.377500", "092357.537500", "092401.487500", "092357.647500", "092405.457500", "092401.617500", "092405.567500", "092401.727500", "092405.677500", "092401.837500", "092405.787500", "092401.947500", "092405.895000", "092402.057500", "092406.005000", "092402.165000", "092406.115000", "092402.275000", "092406.225000", "092402.385000", "092406.335000", "092402.495000", "092406.445000", "092402.605000", "092406.555000", "092402.715000", "092406.665000", "092402.825000", "092406.775000", "092402.935000", "092406.882500", "092403.042500", "092406.992500", "092403.152500", "092407.102500", "092403.262500", "092407.212500", "092403.372500", "092407.322500", "092403.482500", "092407.432500", "092403.592500", "092407.542500", "092403.702500", "092407.652500", "092403.812500", "092407.760000", "092403.922500", "092407.870000", "092404.030000", "092407.980000", "092404.140000", "092408.090000", "092404.250000", "092408.200000", "092404.360000", "092408.310000", "092404.470000", "092408.420000", "092404.580000", "092408.530000", "092404.690000", "092408.640000", "092404.800000", "092408.747500", "092404.910000", "092408.857500", "092405.017500", "092408.967500", "092405.127500", "092409.077500", "092405.237500", "092409.187500", "092405.347500", "092413.157500", "092409.317500", "092413.267500", "092409.427500", "092413.377500", "092409.537500", "092413.487500", "092409.647500", "092413.595000", "092409.757500", "092413.705000", "092409.865000", "092413.815000", "092409.975000", "092413.925000", "092410.085000", "092414.035000", "092410.195000", "092414.145000", "092410.305000", "092414.255000", "092410.415000", "092414.365000", "092410.525000", "092414.475000", "092410.635000", "092414.582500", "092410.742500", "092414.692500", "092410.852500", "092414.802500", "092410.962500", "092414.912500", "092411.072500", "092415.022500", "092411.182500", "092415.132500", "092411.292500", "092415.242500", "092411.402500", "092415.352500", "092411.512500", "092415.460000", "092411.622500", "092415.570000", "092411.730000", "092415.680000", "092411.840000", "092415.790000", "092411.950000", "092415.900000", "092412.060000", "092416.010000", "092412.170000", "092416.120000", "092412.280000", "092416.230000", "092412.390000", "092416.340000", "092412.500000", "092416.447500", "092412.610000", "092416.557500", "092412.717500", "092416.667500", "092412.827500", "092416.777500", "092412.937500", "092416.887500", "092413.047500", "092420.857500", "092417.017500", "092420.967500", "092417.127500", "092421.077500", "092417.237500", "092421.187500", "092417.347500", "092421.295000", "092417.457500", "092421.405000", "092417.565000", "092421.515000", "092417.675000", "092421.625000", "092417.785000", "092421.735000", "092417.895000", "092421.845000", "092418.005000", "092421.955000", "092418.115000", "092422.065000", "092418.225000", "092422.175000", "092418.335000", "092422.282500", "092418.442500", "092422.392500", "092418.552500", "092422.502500", "092418.662500", "092422.612500", "092418.772500", "092422.722500", "092418.882500", "092422.832500", "092418.992500", "092422.942500", "092419.102500", "092423.052500", "092419.212500", "092423.160000", "092419.322500", "092423.270000", "092419.430000", "092423.380000", "092419.540000", "092423.490000", "092419.650000", "092423.600000", "092419.760000", "092423.710000", "092419.870000", "092423.820000", "092419.980000", "092423.930000", "092420.090000", "092424.040000", "092420.200000", "092424.147500", "092420.310000", "092424.257500", "092420.417500", "092424.367500", "092420.527500", "092424.477500", "092420.637500", "092424.587500", "092420.747500", "092428.557500", "092424.717500", "092428.667500", "092424.827500", "092428.777500", "092424.937500", "092428.887500", "092425.047500", "092428.995000", "092425.157500", "092429.105000", "092425.265000", "092429.215000", "092425.375000", "092429.325000", "092425.485000", "092429.435000", "092425.595000", "092429.545000", "092425.705000", "092429.655000", "092425.815000", "092429.765000", "092425.925000", "092429.875000", "092426.035000", "092429.982500", "092426.142500", "092430.092500", "092426.252500", "092430.202500", "092426.362500", "092430.312500", "092426.472500", "092430.422500", "092426.582500", "092430.532500", "092426.692500", "092430.642500", "092426.802500", "092430.752500", "092426.912500", "092430.860000", "092427.022500", "092430.970000", "092427.130000", "092431.080000", "092427.240000", "092431.190000", "092427.350000", "092431.300000", "092427.460000", "092431.410000", "092427.570000", "092431.520000", "092427.680000", "092431.630000", "092427.790000", "092431.740000", "092427.900000", "092431.847500", "092428.010000", "092431.957500", "092428.117500", "092432.067500", "092428.227500", "092432.177500", "092428.337500", "092432.287500", "092428.447500", "092436.257500", "092432.417500", "092436.367500", "092432.527500", "092436.477500", "092432.637500", "092436.587500", "092432.747500", "092436.695000", "092432.857500", "092436.805000", "092432.965000", "092436.915000", "092433.075000", "092437.025000", "092433.185000", "092437.135000", "092433.295000", "092437.245000", "092433.405000", "092437.355000", "092433.515000", "092437.465000", "092433.625000", "092437.575000", "092433.735000", "092437.682500", "092433.842500", "092437.792500", "092433.952500", "092437.902500", "092434.062500", "092438.012500", "092434.172500", "092438.122500", "092434.282500", "092438.232500", "092434.392500", "092438.342500", "092434.502500", "092438.452500", "092434.612500", "092438.560000", "092434.722500", "092438.670000", "092434.830000", "092438.780000", "092434.940000", "092438.890000", "092435.050000", "092439.000000", "092435.160000", "092439.110000", "092435.270000", "092439.220000", "092435.380000", "092439.330000", "092435.490000", "092439.440000", "092435.600000", "092439.547500", "092435.710000", "092439.657500", "092435.817500", "092439.767500", "092435.927500", "092439.877500", "092436.037500", "092439.987500", "092436.147500", "092443.957500", "092440.117500", "092444.067500", "092440.227500", "092444.177500", "092440.337500", "092444.287500", "092440.447500", "092444.395000", "092440.557500", "092444.505000", "092440.665000", "092444.615000", "092440.775000", "092444.725000", "092440.885000", "092444.835000", "092440.995000", "092444.945000", "092441.105000", "092445.055000", "092441.215000", "092445.165000", "092441.325000", "092445.275000", "092441.435000", "092445.382500", "092441.542500", "092445.492500", "092441.652500", "092445.602500", "092441.762500", "092445.712500", "092441.872500", "092445.822500", "092441.982500", "092445.932500", "092442.092500", "092446.042500", "092442.202500", "092446.152500", "092442.312500", "092446.260000", "092442.422500", "092446.370000", "092442.530000", "092446.480000", "092442.640000", "092446.590000", "092442.750000", "092446.700000", "092442.860000", "092446.810000", "092442.970000", "092446.920000", "092443.080000", "092447.030000", "092443.190000", "092447.140000", "092443.300000", "092447.247500", "092443.410000", "092447.357500", "092443.517500", "092447.467500", "092443.627500", "092447.577500", "092443.737500", "092447.687500", "092443.847500", "092451.657500", "092447.817500", "092451.767500", "092447.927500", "092451.877500", "092448.037500", "092451.987500", "092448.147500", "092452.095000", "092448.257500", "092452.205000", "092448.365000", "092452.315000", "092448.475000", "092452.425000", "092448.585000", "092452.535000", "092448.695000", "092452.645000", "092448.805000", "092452.755000", "092448.915000", "092452.865000", "092449.025000", "092452.975000", "092449.135000", "092453.082500", "092449.242500", "092453.192500", "092449.352500", "092453.302500", "092449.462500", "092453.412500", "092449.572500", "092453.522500", "092449.682500", "092453.632500", "092449.792500", "092453.742500", "092449.902500", "092453.852500", "092450.012500", "092453.960000", "092450.122500", "092454.070000", "092450.230000", "092454.180000", "092450.340000", "092454.290000", "092450.450000", "092454.400000", "092450.560000", "092454.510000", "092450.670000", "092454.620000", "092450.780000", "092454.730000", "092450.890000", "092454.840000", "092451.000000", "092454.947500", "092451.110000", "092455.057500", "092451.217500", "092455.167500", "092451.327500", "092455.277500", "092451.437500", "092455.387500", "092451.547500", "092459.357500", "092455.517500", "092459.467500", "092455.627500", "092459.577500", "092455.737500", "092459.687500", "092455.847500", "092459.795000", "092455.957500", "092459.905000", "092456.065000", "092500.015000", "092456.175000", "092500.125000", "092456.285000", "092500.235000", "092456.395000", "092500.345000", "092456.505000", "092500.455000", "092456.615000", "092500.565000", "092456.725000", "092500.675000", "092456.835000", "092500.782500", "092456.942500", "092500.892500", "092457.052500", "092501.002500", "092457.162500", "092501.112500", "092457.272500", "092501.222500", "092457.382500", "092501.332500", "092457.492500", "092501.442500", "092457.602500", "092501.552500", "092457.712500", "092501.660000", "092457.822500", "092501.770000", "092457.930000", "092501.880000", "092458.040000", "092501.990000", "092458.150000", "092502.100000", "092458.260000", "092502.210000", "092458.370000", "092502.320000", "092458.480000", "092502.430000", "092458.590000", "092502.540000", "092458.700000", "092502.647500", "092458.810000", "092502.757500", "092458.917500", "092502.867500", "092459.027500", "092502.977500", "092459.137500", "092503.087500", "092459.247500", "092507.057500", "092503.217500", "092507.167500", "092503.327500", "092507.277500", "092503.437500", "092507.387500", "092503.547500", "092507.495000", "092503.657500", "092507.605000", "092503.765000", "092507.715000", "092503.875000", "092507.825000", "092503.985000", "092507.935000", "092504.095000", "092508.045000", "092504.205000", "092508.155000", "092504.315000", "092508.265000", "092504.425000", "092508.375000", "092504.535000", "092508.482500", "092504.642500", "092508.592500", "092504.752500", "092508.702500", "092504.862500", "092508.812500", "092504.972500", "092508.922500", "092505.082500", "092509.032500", "092505.192500", "092509.142500", "092505.302500", "092509.252500", "092505.412500", "092509.360000", "092505.522500", "092509.470000", "092505.630000", "092509.580000", "092505.740000", "092509.690000", "092505.850000", "092509.800000", "092505.960000", "092509.910000", "092506.070000", "092510.020000", "092506.180000", "092510.130000", "092506.290000", "092510.240000", "092506.400000", "092510.347500", "092506.510000", "092510.457500", "092506.617500", "092510.567500", "092506.727500", "092510.677500", "092506.837500", "092510.787500", "092506.947500", "092514.757500", "092510.917500", "092514.867500", "092511.027500", "092514.977500", "092511.137500", "092515.087500", "092511.247500", "092515.195000", "092511.357500", "092515.305000", "092511.465000", "092515.415000", "092511.575000", "092515.525000", "092511.685000", "092515.635000", "092511.795000", "092515.745000", "092511.905000", "092515.855000", "092512.015000", "092515.965000", "092512.125000", "092516.075000", "092512.235000", "092516.182500", "092512.342500", "092516.292500", "092512.452500", "092516.402500", "092512.562500", "092516.512500", "092512.672500", "092516.622500", "092512.782500", "092516.732500", "092512.892500", "092516.842500", "092513.002500", "092516.952500", "092513.112500", "092517.060000", "092513.222500", "092517.170000", "092513.330000", "092517.280000", "092513.440000", "092517.390000", "092513.550000", "092517.500000", "092513.660000", "092517.610000", "092513.770000", "092517.720000", "092513.880000", "092517.830000", "092513.990000", "092517.940000", "092514.100000", "092518.047500", "092514.210000", "092518.157500", "092514.317500", "092518.267500", "092514.427500", "092518.377500", "092514.537500", "092518.487500", "092514.647500", "092522.457500", "092518.617500", "092522.567500", "092518.727500", "092522.677500", "092518.837500", "092522.787500", "092518.947500", "092522.895000", "092519.057500", "092523.005000", "092519.165000", "092523.115000", "092519.275000", "092523.225000", "092519.385000", "092523.335000", "092519.495000", "092523.445000", "092519.605000", "092523.555000", "092519.715000", "092523.665000", "092519.825000", "092523.775000", "092519.935000", "092523.882500", "092520.042500", "092523.992500", "092520.152500", "092524.102500", "092520.262500", "092524.212500", "092520.372500", "092524.322500", "092520.482500", "092524.432500", "092520.592500", "092524.542500", "092520.702500", "092524.652500", "092520.812500", "092524.760000", "092520.922500", "092524.870000", "092521.030000", "092524.980000", "092521.140000", "092525.090000", "092521.250000", "092525.200000", "092521.360000", "092525.310000", "092521.470000", "092525.420000", "092521.580000", "092525.530000", "092521.690000", "092525.640000", "092521.800000", "092525.747500", "092521.910000", "092525.857500", "092522.017500", "092525.967500", "092522.127500", "092526.077500", "092522.237500", "092526.187500", "092522.347500", "092530.157500", "092526.317500", "092530.267500", "092526.427500", "092530.377500", "092526.537500", "092530.487500", "092526.647500", "092530.595000", "092526.757500", "092530.705000", "092526.865000", "092530.815000", "092526.975000", "092530.925000", "092527.085000", "092531.035000", "092527.195000", "092531.145000", "092527.305000", "092531.255000", "092527.415000", "092531.365000", "092527.525000", "092531.475000", "092527.635000", "092531.582500", "092527.742500", "092531.692500", "092527.852500", "092531.802500", "092527.962500", "092531.912500", "092528.072500", "092532.022500", "092528.182500", "092532.132500", "092528.292500", "092532.242500", "092528.402500", "092532.352500", "092528.512500", "092532.460000", "092528.622500", "092532.570000", "092528.730000", "092532.680000", "092528.840000", "092532.790000", "092528.950000", "092532.900000", "092529.060000", "092533.010000", "092529.170000", "092533.120000", "092529.280000", "092533.230000", "092529.390000", "092533.340000", "092529.500000", "092533.447500", "092529.610000", "092533.557500", "092529.717500", "092533.667500", "092529.827500", "092533.777500", "092529.937500", "092533.887500", "092530.047500", "092537.857500", "092534.017500", "092537.967500", "092534.127500", "092538.077500", "092534.237500", "092538.187500", "092534.347500", "092538.295000", "092534.457500", "092538.405000", "092534.565000", "092538.515000", "092534.675000", "092538.625000", "092534.785000", "092538.735000", "092534.895000", "092538.845000", "092535.005000", "092538.955000", "092535.115000", "092539.065000", "092535.225000", "092539.175000", "092535.335000", "092539.282500", "092535.442500", "092539.392500", "092535.552500", "092539.502500", "092535.662500", "092539.612500", "092535.772500", "092539.722500", "092535.882500", "092539.832500", "092535.992500", "092539.942500", "092536.102500", "092540.052500", "092536.212500", "092540.160000", "092536.322500", "092540.270000", "092536.430000", "092540.380000", "092536.540000", "092540.490000", "092536.650000", "092540.600000", "092536.760000", "092540.710000", "092536.870000", "092540.820000", "092536.980000", "092540.930000", "092537.090000", "092541.040000", "092537.200000", "092541.147500", "092537.310000", "092541.257500", "092537.417500", "092541.367500", "092537.527500", "092541.477500", "092537.637500", "092541.587500", "092537.747500", "092545.557500", "092541.717500", "092545.667500", "092541.827500", "092545.777500", "092541.937500", "092545.887500", "092542.047500", "092545.995000", "092542.157500", "092546.105000", "092542.265000", "092546.215000", "092542.375000", "092546.325000", "092542.485000", "092546.435000", "092542.595000", "092546.545000", "092542.705000", "092546.655000", "092542.815000", "092546.765000", "092542.925000", "092546.875000", "092543.035000", "092546.982500", "092543.142500", "092547.092500", "092543.252500", "092547.202500", "092543.362500", "092547.312500", "092543.472500", "092547.422500", "092543.582500", "092547.532500", "092543.692500", "092547.642500", "092543.802500", "092547.752500", "092543.912500", "092547.860000", "092544.022500", "092547.970000", "092544.130000", "092548.080000", "092544.240000", "092548.190000", "092544.350000", "092548.300000", "092544.460000", "092548.410000", "092544.570000", "092548.520000", "092544.680000", "092548.630000", "092544.790000", "092548.740000", "092544.900000", "092548.847500", "092545.010000", "092548.957500", "092545.117500", "092549.067500", "092545.227500", "092549.177500", "092545.337500", "092549.287500", "092545.447500", "092553.257500", "092549.417500", "092553.367500", "092549.527500", "092553.477500", "092549.637500", "092553.587500", "092549.747500", "092553.695000", "092549.857500", "092553.805000", "092549.965000", "092553.915000", "092550.075000", "092554.025000", "092550.185000", "092554.135000", "092550.295000", "092554.245000", "092550.405000", "092554.355000", "092550.515000", "092554.465000", "092550.625000", "092554.575000", "092550.735000", "092554.682500", "092550.842500", "092554.792500", "092550.952500", "092554.902500", "092551.062500", "092555.012500", "092551.172500", "092555.122500", "092551.282500", "092555.232500", "092551.392500", "092555.342500", "092551.502500", "092555.452500", "092551.612500", "092555.560000", "092551.722500", "092555.670000", "092551.830000", "092555.780000", "092551.940000", "092555.890000", "092552.050000", "092556.000000", "092552.160000", "092556.110000", "092552.270000", "092556.220000", "092552.380000", "092556.330000", "092552.490000", "092556.440000", "092552.600000", "092556.547500", "092552.710000", "092556.657500", "092552.817500", "092556.767500", "092552.927500", "092556.877500", "092553.037500", "092556.987500", "092553.147500", "092600.957500", "092557.117500", "092601.067500", "092557.227500", "092601.177500", "092557.337500", "092601.287500", "092557.447500", "092601.395000", "092557.557500", "092601.505000", "092557.665000", "092601.615000", "092557.775000", "092601.725000", "092557.885000", "092601.835000", "092557.995000", "092601.945000", "092558.105000", "092602.055000", "092558.215000", "092602.165000", "092558.325000", "092602.275000", "092558.435000", "092602.382500", "092558.542500", "092602.492500", "092558.652500", "092602.602500", "092558.762500", "092602.712500", "092558.872500", "092602.822500", "092558.982500", "092602.932500", "092559.092500", "092603.042500", "092559.202500", "092603.152500", "092559.312500", "092603.260000", "092559.422500", "092603.370000", "092559.530000", "092603.480000", "092559.640000", "092603.590000", "092559.750000", "092603.700000", "092559.860000", "092603.810000", "092559.970000", "092603.920000", "092600.080000", "092604.030000", "092600.190000", "092604.140000", "092600.300000", "092604.247500", "092600.410000", "092604.357500", "092600.517500", "092604.467500", "092600.627500", "092604.577500", "092600.737500", "092604.687500", "092600.847500", "092608.657500", "092604.817500", "092608.767500", "092604.927500", "092608.877500", "092605.037500", "092608.987500", "092605.147500", "092609.095000", "092605.257500", "092609.205000", "092605.365000", "092609.315000", "092605.475000", "092609.425000", "092605.585000", "092609.535000", "092605.695000", "092609.645000", "092605.805000", "092609.755000", "092605.915000", "092609.865000", "092606.025000", "092609.975000", "092606.135000", "092610.082500", "092606.242500", "092610.192500", "092606.352500", "092610.302500", "092606.462500", "092610.412500", "092606.572500", "092610.522500", "092606.682500", "092610.632500", "092606.792500", "092610.742500", "092606.902500", "092610.852500", "092607.012500", "092610.960000", "092607.122500", "092611.070000", "092607.230000", "092611.180000", "092607.340000", "092611.290000", "092607.450000", "092611.400000", "092607.560000", "092611.510000", "092607.670000", "092611.620000", "092607.780000", "092611.730000", "092607.890000", "092611.840000", "092608.000000", "092611.947500", "092608.110000", "092612.057500", "092608.217500", "092612.167500", "092608.327500", "092612.277500", "092608.437500", "092612.387500", "092608.547500", "092616.357500", "092612.517500", "092616.467500", "092612.627500", "092616.577500", "092612.737500", "092616.687500", "092612.847500", "092616.795000", "092612.957500", "092616.905000", "092613.065000", "092617.015000", "092613.175000", "092617.125000", "092613.285000", "092617.235000", "092613.395000", "092617.345000", "092613.505000", "092617.455000", "092613.615000", "092617.565000", "092613.725000", "092617.675000", "092613.835000", "092617.782500", "092613.942500", "092617.892500", "092614.052500", "092618.002500", "092614.162500", "092618.112500", "092614.272500", "092618.222500", "092614.382500", "092618.332500", "092614.492500", "092618.442500", "092614.602500", "092618.552500", "092614.712500", "092618.660000", "092614.822500", "092618.770000", "092614.930000", "092618.880000", "092615.040000", "092618.990000", "092615.150000", "092619.100000", "092615.260000", "092619.210000", "092615.370000", "092619.320000", "092615.480000", "092619.430000", "092615.590000", "092619.540000", "092615.700000", "092619.647500", "092615.810000", "092619.757500", "092615.917500", "092619.867500", "092616.027500", "092619.977500", "092616.137500", "092620.087500", "092616.247500", "092624.057500", "092620.217500", "092624.167500", "092620.327500", "092624.277500", "092620.437500", "092624.387500", "092620.547500", "092624.495000", "092620.657500", "092624.605000", "092620.765000", "092624.715000", "092620.875000", "092624.825000", "092620.985000", "092624.935000", "092621.095000", "092625.045000", "092621.205000", "092625.155000", "092621.315000", "092625.265000", "092621.425000", "092625.375000", "092621.535000", "092625.482500", "092621.642500", "092625.592500", "092621.752500", "092625.702500", "092621.862500", "092625.812500", "092621.972500", "092625.922500", "092