{
  "AcquisitionMatrixPE": 80,
  "AcquisitionNumber": 1,
  "AcquisitionTime": "08:59:44.432500",
  "BandwidthPerPixelPhaseEncode": 25,
  "BaseResolution": 80,
  "BodyPartExamined": "BRAIN",
  "CoilCombinationMethod": "Sum of Squares",
  "ConsistencyInfo": "N4_VE11E_LATEST_20181129",
  "ConversionSoftware": "dcm2niix",
  "ConversionSoftwareVersion": "v1.0.20220720",
  "DerivedVendorReportedEchoSpacing": 0.0005,
  "DeviceSerialNumber": "66112",
  "DwellTime": 2.7e-06,
  "EchoTime": 0.03,
  "EchoTrainLength": 80,
  "EffectiveEchoSpacing": 0.0005,
  "FlipAngle": 77,
  "HeudiconvVersion": "0.13.1",
  "ImageOrientationPatientDICOM": [0.999966, 0.00758753, 0.00322921, -0.00820295, 0.955302, 0.295518],
  "ImageOrientationText": "Tra>Cor(17.2)>Sag(0.0)",
  "ImageType": [
    "ORIGINAL",
    "PRIMARY",
    "M",
    "ND",
    "NORM",
    "MOSAIC"
],
  "ImagingFrequency": 123.259,
  "InPlanePhaseEncodingDirectionDICOM": "COL",
  "InstitutionAddress": "Maynard 3,Hanover,NH,US,03755",
  "InstitutionName": "Dartmouth College - PBS",
  "InstitutionalDepartmentName": "Department",
  "MRAcquisitionType": "2D",
  "MagneticFieldStrength": 3,
  "Manufacturer": "Siemens",
  "ManufacturersModelName": "Prisma",
  "MatrixCoilMode": "SENSE",
  "Modality": "MR",
  "NonlinearGradientCorrection": false,
  "PartialFourier": 1,
  "PatientPosition": "HFS",
  "PercentPhaseFOV": 100,
  "PercentSampling": 100,
  "PhaseEncodingDirection": "j-",
  "PhaseEncodingSteps": 80,
  "PhaseResolution": 1,
  "PixelBandwidth": 2315,
  "ProcedureStepDescription": "dbic^QA",
  "ProtocolName": "func-bold_fa-77",
  "PulseSequenceDetails": "%SiemensSeq%\\ep2d_bold",
  "ReceiveCoilActiveElements": "HC1-7;NC1,2",
  "ReceiveCoilName": "HeadNeck_64",
  "ReconMatrixPE": 80,
  "RepetitionTime": 2,
  "SAR": 0.0282339,
  "ScanOptions": "FS",
  "ScanningSequence": "EP",
  "SequenceName": "*epfid2d1_80",
  "SequenceVariant": "SK",
  "SeriesDescription": "func-bold_fa-77",
  "SeriesNumber": 6,
  "ShimSetting": [4214, -7732, -7491, -162, -134, -256, -55, 94],
  "SliceThickness": 3.5,
  "SliceTiming": [0.99, 0, 1.055, 0.065, 1.1225, 0.1325, 1.1875, 0.1975, 1.255, 0.265, 1.32, 0.33, 1.385, 0.395, 1.4525, 0.4625, 1.5175, 0.5275, 1.585, 0.595, 1.65, 0.66, 1.715, 0.725, 1.7825, 0.7925, 1.8475, 0.8575, 1.9125, 0.925],
  "SoftwareVersions": "syngo MR E11",
  "SpacingBetweenSlices": 3.99,
  "StationName": "AWP66112",
  "TotalReadoutTime": 0.0395,
  "TxRefAmp": 214.399,
  "dcmmeta_affine": [
    [-2.9998979568481445, -0.02460883930325508, 0.003362050047144294, 120.83240509033203],
    [-0.02276257984340191, 2.865906238555908, 1.1791812181472778, -122.12785339355469],
    [0.009687618352472782, -0.8865530490875244, 3.8117740154266357, -34.61875915527344],
    [0.0, 0.0, 0.0, 1.0]
],
  "dcmmeta_reorient_transform": [
    [0.0, -1.0, 0.0, 79.0],
    [1.0, 0.0, 0.0, 0.0],
    [0.0, 0.0, 1.0, 0.0],
    [0.0, 0.0, 0.0, 1.0]
],
  "dcmmeta_shape": [80, 80, 30, 200],
  "dcmmeta_slice_dim": 2,
  "dcmmeta_version": 0.6,
  "global": {
    "const": {
      "AccessionNumber": "qa64",
      "AcquisitionMatrix": [80, 0, 0, 80],
      "AngioFlag": "N",
      "BitsAllocated": 16,
      "BitsStored": 12,
      "BodyPartExamined": "BRAIN",
      "Columns": 480,
      "EchoNumbers": 1,
      "EchoTime": 30.0,
      "EchoTrainLength": 80,
      "FlipAngle": 77.0,
      "HighBit": 11,
      "ImageOrientationPatient": [0.99996600025342, 0.00758752687276, 0.00322920627006, -0.0082029464448, 0.95530205204412, 0.29551768310868],
      "ImagePositionPatient": [-713.94613972683, -682.01248381967, -283.90458408316],
      "ImageType": [
        "ORIGINAL",
        "PRIMARY",
        "M",
        "ND",
        "NORM",
        "MOSAIC"
],
      "ImagedNucleus": "1H",
      "ImagingFrequency": 123.25913,
      "InPlanePhaseEncodingDirection": "COL",
      "MRAcquisitionType": "2D",
      "MagneticFieldStrength": 3.0,
      "Manufacturer": "SIEMENS",
      "ManufacturerModelName": "Prisma",
      "Modality": "MR",
      "NumberOfAverages": 1.0,
      "NumberOfPhaseEncodingSteps": 80,
      "PercentPhaseFieldOfView": 100.0,
      "PercentSampling": 100.0,
      "PerformedProcedureStepStartTime": "084547.067000",
      "PhotometricInterpretation": "MONOCHROME2",
      "PixelBandwidth": 2315.0,
      "PixelRepresentation": 0,
      "PixelSpacing": [3.0, 3.0],
      "ProtocolName": "func-bold_fa-77",
      "RepetitionTime": 2000.0,
      "Rows": 480,
      "SAR": 0.0282338612128,
      "SamplesPerPixel": 1,
      "ScanOptions": "FS",
      "ScanningSequence": "EP",
      "SequenceName": "*epfid2d1_80",
      "SequenceVariant": "SK",
      "SeriesDescription": "func-bold_fa-77",
      "SeriesNumber": 6,
      "SeriesTime": "090040.613000",
      "SliceLocation": -69.063533817135,
      "SliceThickness": 3.5,
      "SmallestImagePixelValue": 0,
      "SoftwareVersions": "syngo MR E11",
      "SpacingBetweenSlices": 3.990000101184,
      "SpecificCharacterSet": "ISO_IR 100",
      "StudyID": "5",
      "StudyTime": "084546.992000",
      "TransmitCoilName": "Body",
      "VariableFlipAngleFlag": "N",
      "WindowCenterWidthExplanation": "Algo1"
    },
    "slices": {}
  },
  "time": {
    "samples": {
      "AcquisitionNumber": [1, 2, 3, 4, 5, 6, 7, 8, 9, 10, 11, 12, 13, 14, 15, 16, 17, 18, 19, 20, 21, 22, 23, 24, 25, 26, 27, 28, 29, 30, 31, 32, 33, 34, 35, 36, 37, 38, 39, 40, 41, 42, 43, 44, 45, 46, 47, 48, 49, 50, 51, 52, 53, 54, 55, 56, 57, 58, 59, 60, 61, 62, 63, 64, 65, 66, 67, 68, 69, 70, 71, 72, 73, 74, 75, 76, 77, 78, 79, 80, 81, 82, 83, 84, 85, 86, 87, 88, 89, 90, 91, 92, 93, 94, 95, 96, 97, 98, 99, 100, 101, 102, 103, 104, 105, 106, 107, 108, 109, 110, 111, 112, 113, 114, 115, 116, 117, 118, 119, 120, 121, 122, 123, 124, 125, 126, 127, 128, 129, 130, 131, 132, 133, 134, 135, 136, 137, 138, 139, 140, 141, 142, 143, 144, 145, 146, 147, 148, 149, 150, 151, 152, 153, 154, 155, 156, 157, 158, 159, 160, 161, 162, 163, 164, 165, 166, 167, 168, 169, 170, 171, 172, 173, 174, 175, 176, 177, 178, 179, 180, 181, 182, 183, 184, 185, 186, 187, 188, 189, 190, 191, 192, 193, 194, 195, 196, 197, 198, 199, 200],
      "AcquisitionTime": ["085944.432500", "085946.432500", "085948.432500", "085950.432500", "085952.432500", "085954.432500", "085956.432500", "085958.432500", "090000.432500", "090002.432500", "090004.432500", "090006.432500", "090008.432500", "090010.432500", "090012.432500", "090014.432500", "090016.432500", "090018.432500", "090020.432500", "090022.432500", "090024.432500", "090026.432500", "090028.432500", "090030.432500", "090032.432500", "090034.432500", "090036.432500", "090038.432500", "090040.432500", "090042.432500", "090044.432500", "090046.432500", "090048.432500", "090050.432500", "090052.432500", "090054.432500", "090056.432500", "090058.432500", "090100.432500", "090102.432500", "090104.432500", "090106.432500", "090108.432500", "090110.432500", "090112.432500", "090114.432500", "090116.432500", "090118.432500", "090120.432500", "090122.432500", "090124.432500", "090126.432500", "090128.432500", "090130.432500", "090132.432500", "090134.432500", "090136.432500", "090138.432500", "090140.432500", "090142.432500", "090144.432500", "090146.432500", "090148.432500", "090150.432500", "090152.432500", "090154.432500", "090156.432500", "090158.432500", "090200.432500", "090202.432500", "090204.432500", "090206.432500", "090208.432500", "090210.432500", "090212.432500", "090214.432500", "090216.432500", "090218.432500", "090220.432500", "090222.432500", "090224.432500", "090226.432500", "090228.432500", "090230.432500", "090232.432500", "090234.432500", "090236.432500", "090238.432500", "090240.432500", "090242.432500", "090244.432500", "090246.432500", "090248.432500", "090250.432500", "090252.432500", "090254.432500", "090256.432500", "090258.432500", "090300.432500", "090302.432500", "090304.432500", "090306.432500", "090308.432500", "090310.432500", "090312.432500", "090314.432500", "090316.432500", "090318.432500", "090320.432500", "090322.432500", "090324.432500", "090326.432500", "090328.432500", "090330.432500", "090332.432500", "090334.432500", "090336.432500", "090338.432500", "090340.432500", "090342.432500", "090344.432500", "090346.432500", "090348.432500", "090350.432500", "090352.432500", "090354.432500", "090356.432500", "090358.432500", "090400.432500", "090402.432500", "090404.432500", "090406.432500", "090408.432500", "090410.432500", "090412.432500", "090414.432500", "090416.432500", "090418.432500", "090420.432500", "090422.432500", "090424.432500", "090426.432500", "090428.432500", "090430.432500", "090432.432500", "090434.432500", "090436.432500", "090438.432500", "090440.432500", "090442.432500", "090444.432500", "090446.432500", "090448.432500", "090450.432500", "090452.432500", "090454.432500", "090456.432500", "090458.432500", "090500.432500", "090502.432500", "090504.432500", "090506.432500", "090508.432500", "090510.432500", "090512.432500", "090514.432500", "090516.432500", "090518.432500", "090520.432500", "090522.432500", "090524.432500", "090526.432500", "090528.432500", "090530.432500", "090532.432500", "090534.432500", "090536.432500", "090538.432500", "090540.432500", "090542.432500", "090544.432500", "090546.432500", "090548.432500", "090550.432500", "090552.432500", "090554.432500", "090556.432500", "090558.432500", "090600.432500", "090602.432500", "090604.432500", "090606.432500", "090608.432500", "090610.432500", "090612.432500", "090614.432500", "090616.432500", "090618.432500", "090620.432500", "090622.432500"],
      "ContentTime": ["090040.616000", "090040.620000", "090040.622000", "090040.624000", "090040.627000", "090040.629000", "090040.632000", "090040.634000", "090040.636000", "090040.638000", "090040.641000", "090040.643000", "090040.654000", "090040.656000", "090040.658000", "090040.661000", "090040.663000", "090040.665000", "090040.668000", "090040.670000", "090040.673000", "090040.675000", "090040.677000", "090040.680000", "090040.682000", "090040.684000", "090040.687000", "090040.689000", "090120.610000", "090120.613000", "090120.615000", "090120.618000", "090120.620000", "090120.622000", "090120.625000", "090120.627000", "090120.629000", "090120.632000", "090120.634000", "090120.636000", "090120.639000", "090120.641000", "090120.644000", "090120.646000", "090120.648000", "090120.655000", "090120.657000", "090120.660000", "090140.610000", "090140.613000", "090140.615000", "090140.618000", "090140.620000", "090140.623000", "090140.625000", "090140.627000", "090140.630000", "090140.632000", "090220.611000", "090220.614000", "090220.616000", "090220.618000", "090220.621000", "090220.623000", "090220.625000", "090220.628000", "090220.630000", "090220.632000", "090220.635000", "090220.637000", "090220.640000", "090220.642000", "090220.644000", "090220.647000", "090220.649000", "090220.651000", "090220.654000", "090220.656000", "090300.611000", "090300.614000", "090300.616000", "090300.619000", "090300.621000", "090300.623000", "090300.626000", "090300.628000", "090300.631000", "090300.633000", "090300.635000", "090300.638000", "090300.640000", "090300.642000", "090300.645000", "090300.647000", "090300.649000", "090300.652000", "090300.654000", "090300.656000", "090340.610000", "090340.613000", "090340.615000", "090340.617000", "090340.620000", "090340.622000", "090340.624000", "090340.627000", "090340.629000", "090340.631000", "090340.634000", "090340.636000", "090340.638000", "090340.641000", "090340.643000", "090340.645000", "090340.648000", "090340.650000", "090340.652000", "090340.655000", "090420.610000", "090420.613000", "090420.615000", "090420.618000", "090420.620000", "090420.622000", "090420.625000", "090420.627000", "090420.629000", "090420.632000", "090420.634000", "090420.636000", "090420.639000", "090420.641000", "090420.643000", "090420.646000", "090420.648000", "090420.651000", "090420.653000", "090420.655000", "090500.611000", "090500.614000", "090500.616000", "090500.619000", "090500.621000", "090500.631000", "090500.633000", "090500.635000", "090500.638000", "090500.640000", "090500.642000", "090500.645000", "090500.647000", "090500.649000", "090500.652000", "090500.654000", "090500.657000", "090500.659000", "090500.661000", "090500.664000", "090540.610000", "090540.613000", "090540.615000", "090540.618000", "090540.620000", "090540.622000", "090540.625000", "090540.627000", "090540.629000", "090540.632000", "090540.634000", "090540.636000", "090540.639000", "090540.641000", "090540.643000", "090540.646000", "090540.648000", "090540.650000", "090540.653000", "090540.655000", "090620.610000", "090620.613000", "090620.615000", "090620.617000", "090620.620000", "090620.622000", "090620.624000", "090620.627000", "090620.629000", "090620.632000", "090620.634000", "090620.636000", "090620.639000", "090620.641000", "090620.643000", "090620.646000", "090620.648000", "090620.650000", "090620.653000", "090620.655000", "090624.340000", "090624.343000"],
      "InstanceCreationTime": ["090040.616000", "090040.620000", "090040.622000", "090040.624000", "090040.627000", "090040.629000", "090040.632000", "090040.634000", "090040.636000", "090040.638000", "090040.641000", "090040.643000", "090040.654000", "090040.656000", "090040.658000", "090040.661000", "090040.663000", "090040.665000", "090040.668000", "090040.670000", "090040.673000", "090040.675000", "090040.677000", "090040.680000", "090040.682000", "090040.684000", "090040.687000", "090040.689000", "090120.610000", "090120.613000", "090120.615000", "090120.618000", "090120.620000", "090120.622000", "090120.625000", "090120.627000", "090120.629000", "090120.632000", "090120.634000", "090120.636000", "090120.639000", "090120.641000", "090120.644000", "090120.646000", "090120.648000", "090120.655000", "090120.657000", "090120.660000", "090140.610000", "090140.613000", "090140.615000", "090140.618000", "090140.620000", "090140.623000", "090140.625000", "090140.627000", "090140.630000", "090140.632000", "090220.611000", "090220.614000", "090220.616000", "090220.618000", "090220.621000", "090220.623000", "090220.625000", "090220.628000", "090220.630000", "090220.632000", "090220.635000", "090220.637000", "090220.640000", "090220.642000", "090220.644000", "090220.647000", "090220.649000", "090220.651000", "090220.654000", "090220.656000", "090300.611000", "090300.614000", "090300.616000", "090300.619000", "090300.621000", "090300.623000", "090300.626000", "090300.628000", "090300.631000", "090300.633000", "090300.635000", "090300.638000", "090300.640000", "090300.642000", "090300.645000", "090300.647000", "090300.649000", "090300.652000", "090300.654000", "090300.656000", "090340.610000", "090340.613000", "090340.615000", "090340.617000", "090340.620000", "090340.622000", "090340.624000", "090340.627000", "090340.629000", "090340.631000", "090340.634000", "090340.636000", "090340.638000", "090340.641000", "090340.643000", "090340.645000", "090340.648000", "090340.650000", "090340.652000", "090340.655000", "090420.610000", "090420.613000", "090420.615000", "090420.618000", "090420.620000", "090420.622000", "090420.625000", "090420.627000", "090420.629000", "090420.632000", "090420.634000", "090420.636000", "090420.639000", "090420.641000", "090420.643000", "090420.646000", "090420.648000", "090420.651000", "090420.653000", "090420.655000", "090500.611000", "090500.614000", "090500.616000", "090500.619000", "090500.621000", "090500.631000", "090500.633000", "090500.635000", "090500.638000", "090500.640000", "090500.642000", "090500.645000", "090500.647000", "090500.649000", "090500.652000", "090500.654000", "090500.657000", "090500.659000", "090500.661000", "090500.664000", "090540.610000", "090540.613000", "090540.615000", "090540.618000", "090540.620000", "090540.622000", "090540.625000", "090540.627000", "090540.629000", "090540.632000", "090540.634000", "090540.636000", "090540.639000", "090540.641000", "090540.643000", "090540.646000", "090540.648000", "090540.650000", "090540.653000", "090540.655000", "090620.610000", "090620.613000", "090620.615000", "090620.617000", "090620.620000", "090620.622000", "090620.624000", "090620.627000", "090620.629000", "090620.632000", "090620.634000", "090620.636000", "090620.639000", "090620.641000", "090620.643000", "090620.646000", "090620.648000", "090620.650000", "090620.653000", "090620.655000", "090624.340000", "090624.343000"],
      "InstanceNumber": [1, 2, 3, 4, 5, 6, 7, 8, 9, 10, 11, 12, 13, 14, 15, 16, 17, 18, 19, 20, 21, 22, 23, 24, 25, 26, 27, 28, 29, 30, 31, 32, 33, 34, 35, 36, 37, 38, 39, 40, 41, 42, 43, 44, 45, 46, 47, 48, 49, 50, 51, 52, 53, 54, 55, 56, 57, 58, 59, 60, 61, 62, 63, 64, 65, 66, 67, 68, 69, 70, 71, 72, 73, 74, 75, 76, 77, 78, 79, 80, 81, 82, 83, 84, 85, 86, 87, 88, 89, 90, 91, 92, 93, 94, 95, 96, 97, 98, 99, 100, 101, 102, 103, 104, 105, 106, 107, 108, 109, 110, 111, 112, 113, 114, 115, 116, 117, 118, 119, 120, 121, 122, 123, 124, 125, 126, 127, 128, 129, 130, 131, 132, 133, 134, 135, 136, 137, 138, 139, 140, 141, 142, 143, 144, 145, 146, 147, 148, 149, 150, 151, 152, 153, 154, 155, 156, 157, 158, 159, 160, 161, 162, 163, 164, 165, 166, 167, 168, 169, 170, 171, 172, 173, 174, 175, 176, 177, 178, 179, 180, 181, 182, 183, 184, 185, 186, 187, 188, 189, 190, 191, 192, 193, 194, 195, 196, 197, 198, 199, 200],
      "LargestImagePixelValue": [3926, 3928, 3940, 3945, 3936, 3924, 3926, 3937, 3935, 3936, 3928, 3926, 3927, 3930, 3933, 3933, 3932, 3927, 3930, 3934, 3933, 3929, 3928, 3931, 3936, 3933, 3926, 3929, 3933, 3939, 3929, 3927, 3934, 3938, 3923, 3927, 3936, 3933, 3937, 3933, 3937, 3938, 3933, 3924, 3935, 3945, 3941, 3931, 3929, 3935, 3933, 3939, 3941, 3942, 3934, 3928, 3932, 3930, 3928, 3936, 3942, 3933, 3929, 3927, 3938, 3945, 3937, 3928, 3933, 3945, 3934, 3926, 3929, 3931, 3938, 3943, 3926, 3926, 3926, 3933, 3938, 3940, 3940, 3932, 3928, 3937, 3937, 3927, 3915, 3930, 3944, 3932, 3931, 3922, 3930, 3934, 3929, 3926, 3926, 3928, 3934, 3936, 3927, 3926, 3937, 3938, 3930, 3924, 3927, 3936, 3931, 3922, 3922, 3933, 3938, 3926, 3927, 3927, 3918, 3926, 3939, 3926, 3922, 3931, 3928, 3921, 3927, 3933, 3926, 3915, 3931, 3939, 3915, 3907, 3922, 3930, 3917, 3920, 3903, 3918, 3918, 3918, 3914, 3906, 3914, 3928, 3922, 3910, 3912, 3923, 3918, 3925, 3914, 3917, 3925, 3932, 3921, 3918, 3918, 3927, 3929, 3927, 3919, 3913, 3921, 3932, 3926, 3918, 3914, 3916, 3915, 3904, 3907, 3915, 3906, 3902, 3907, 3916, 3915, 3906, 3918, 3917, 3915, 3917, 3922, 3918, 3914, 3924, 3926, 3928, 3926, 3926, 3922, 3926, 3926, 3919, 3918, 3927, 3925, 3920],
      "WindowCenter": [1402.0, 1402.0, 1402.0, 1402.0, 1402.0, 1401.0, 1401.0, 1401.0, 1401.0, 1402.0, 1401.0, 1401.0, 1401.0, 1401.0, 1400.0, 1401.0, 1401.0, 1401.0, 1401.0, 1401.0, 1401.0, 1401.0, 1400.0, 1401.0, 1400.0, 1401.0, 1401.0, 1400.0, 1400.0, 1400.0, 1400.0, 1401.0, 1400.0, 1401.0, 1400.0, 1400.0, 1400.0, 1401.0, 1400.0, 1399.0, 1400.0, 1400.0, 1399.0, 1400.0, 1400.0, 1400.0, 1400.0, 1400.0, 1400.0, 1400.0, 1400.0, 1399.0, 1399.0, 1400.0, 1400.0, 1400.0, 1400.0, 1399.0, 1400.0, 1399.0, 1399.0, 1399.0, 1399.0, 1399.0, 1399.0, 1399.0, 1399.0, 1399.0, 1400.0, 1399.0, 1400.0, 1399.0, 1399.0, 1400.0, 1399.0, 1399.0, 1399.0, 1399.0, 1399.0, 1399.0, 1399.0, 1398.0, 1399.0, 1398.0, 1399.0, 1398.0, 1399.0, 1398.0, 1398.0, 1398.0, 1398.0, 1398.0, 1398.0, 1399.0, 1398.0, 1398.0, 1399.0, 1399.0, 1399.0, 1399.0, 1399.0, 1398.0, 1398.0, 1398.0, 1397.0, 1398.0, 1397.0, 1398.0, 1398.0, 1398.0, 1398.0, 1398.0, 1398.0, 1398.0, 1397.0, 1398.0, 1399.0, 1398.0, 1397.0, 1398.0, 1397.0, 1397.0, 1397.0, 1397.0, 1398.0, 1398.0, 1398.0, 1398.0, 1398.0, 1397.0, 1397.0, 1396.0, 1398.0, 1397.0, 1397.0, 1397.0, 1397.0, 1397.0, 1397.0, 1397.0, 1398.0, 1397.0, 1397.0, 1396.0, 1397.0, 1397.0, 1397.0, 1397.0, 1397.0, 1397.0, 1396.0, 1397.0, 1397.0, 1397.0, 1396.0, 1397.0, 1396.0, 1397.0, 1397.0, 1397.0, 1397.0, 1396.0, 1397.0, 1396.0, 1396.0, 1396.0, 1396.0, 1396.0, 1396.0, 1397.0, 1396.0, 1397.0, 1396.0, 1397.0, 1396.0, 1396.0, 1395.0, 1396.0, 1397.0, 1396.0, 1396.0, 1396.0, 1396.0, 1396.0, 1395.0, 1396.0, 1396.0, 1396.0, 1396.0, 1396.0, 1396.0, 1396.0, 1396.0, 1396.0, 1396.0, 1395.0, 1396.0, 1396.0, 1396.0, 1396.0],
      "WindowWidth": [3331.0, 3331.0, 3331.0, 3331.0, 3331.0, 3331.0, 3331.0, 3331.0, 3331.0, 3331.0, 3331.0, 3331.0, 3331.0, 3331.0, 3331.0, 3331.0, 3331.0, 3331.0, 3331.0, 3330.0, 3330.0, 3331.0, 3331.0, 3330.0, 3330.0, 3330.0, 3330.0, 3330.0, 3331.0, 3330.0, 3330.0, 3330.0, 3330.0, 3330.0, 3330.0, 3330.0, 3330.0, 3330.0, 3330.0, 3330.0, 3330.0, 3330.0, 3330.0, 3330.0, 3330.0, 3330.0, 3330.0, 3330.0, 3330.0, 3330.0, 3330.0, 3330.0, 3330.0, 3329.0, 3329.0, 3329.0, 3329.0, 3329.0, 3329.0, 3329.0, 3329.0, 3329.0, 3329.0, 3329.0, 3329.0, 3329.0, 3329.0, 3329.0, 3329.0, 3329.0, 3329.0, 3329.0, 3329.0, 3329.0, 3329.0, 3329.0, 3329.0, 3329.0, 3329.0, 3329.0, 3329.0, 3329.0, 3329.0, 3329.0, 3329.0, 3328.0, 3328.0, 3328.0, 3328.0, 3328.0, 3328.0, 3328.0, 3328.0, 3328.0, 3328.0, 3328.0, 3328.0, 3328.0, 3328.0, 3328.0, 3328.0, 3328.0, 3328.0, 3328.0, 3328.0, 3328.0, 3328.0, 3328.0, 3328.0, 3328.0, 3328.0, 3328.0, 3328.0, 3328.0, 3327.0, 3327.0, 3327.0, 3327.0, 3327.0, 3328.0, 3327.0, 3327.0, 3327.0, 3327.0, 3327.0, 3327.0, 3327.0, 3327.0, 3327.0, 3327.0, 3327.0, 3327.0, 3326.0, 3327.0, 3327.0, 3327.0, 3327.0, 3327.0, 3327.0, 3327.0, 3326.0, 3327.0, 3327.0, 3327.0, 3327.0, 3327.0, 3326.0, 3326.0, 3326.0, 3326.0, 3326.0, 3326.0, 3326.0, 3326.0, 3327.0, 3326.0, 3326.0, 3326.0, 3326.0, 3326.0, 3326.0, 3326.0, 3325.0, 3326.0, 3326.0, 3326.0, 3326.0, 3326.0, 3326.0, 3325.0, 3326.0, 3325.0, 3326.0, 3325.0, 3326.0, 3325.0, 3326.0, 3326.0, 3325.0, 3325.0, 3325.0, 3325.0, 3325.0, 3325.0, 3326.0, 3325.0, 3325.0, 3325.0, 3325.0, 3325.0, 3325.0, 3325.0, 3325.0, 3325.0, 3325.0, 3325.0, 3325.0, 3325.0, 3325.0, 3325.0]
    },
    "slices": {}
  }
}