{
  "AcquisitionMatrixPE": 80,
  "AcquisitionNumber": 1,
  "AcquisitionTime": "10:00:35.587500",
  "BandwidthPerPixelPhaseEncode": 25,
  "BaseResolution": 80,
  "BodyPartExamined": "BRAIN",
  "CoilCombinationMethod": "Sum of Squares",
  "ConsistencyInfo": "N4_VE11C_LATEST_20160120",
  "ConversionSoftware": "dcm2niix",
  "ConversionSoftwareVersion": "v1.0.20220720",
  "DerivedVendorReportedEchoSpacing": 0.0005,
  "DeviceSerialNumber": "66112",
  "DwellTime": 2.7e-06,
  "EchoTime": 0.03,
  "EchoTrainLength": 80,
  "EffectiveEchoSpacing": 0.0005,
  "FlipAngle": 77,
  "HeudiconvVersion": "0.13.1",
  "ImageOrientationPatientDICOM": [0.996489, -0.0819617, -0.0171132, 0.0833271, 0.950762, 0.29851],
  "ImageOrientationText": "Tra>Cor(17.4)>Sag(0.5)",
  "ImageType": [
    "ORIGINAL",
    "PRIMARY",
    "M",
    "ND",
    "NORM",
    "MOSAIC"
],
  "ImagingFrequency": 123.252,
  "InPlanePhaseEncodingDirectionDICOM": "COL",
  "InstitutionAddress": "Maynard 3,Hanover,NH,US,03755",
  "InstitutionName": "Dartmouth College - PBS",
  "InstitutionalDepartmentName": "Department",
  "MRAcquisitionType": "2D",
  "MagneticFieldStrength": 3,
  "Manufacturer": "Siemens",
  "ManufacturersModelName": "Prisma",
  "MatrixCoilMode": "SENSE",
  "Modality": "MR",
  "NonlinearGradientCorrection": false,
  "PartialFourier": 1,
  "PatientPosition": "HFS",
  "PercentPhaseFOV": 100,
  "PercentSampling": 100,
  "PhaseEncodingDirection": "j-",
  "PhaseEncodingSteps": 80,
  "PhaseResolution": 1,
  "PixelBandwidth": 2315,
  "ProcedureStepDescription": "dbic^QA",
  "ProtocolName": "func-bold_fa-77",
  "PulseSequenceDetails": "%SiemensSeq%\\ep2d_bold",
  "ReceiveCoilActiveElements": "HC1-7;NC1,2",
  "ReceiveCoilName": "HeadNeck_64",
  "ReconMatrixPE": 80,
  "RepetitionTime": 2,
  "SAR": 0.0282874,
  "ScanOptions": "FS",
  "ScanningSequence": "EP",
  "SequenceName": "*epfid2d1_80",
  "SequenceVariant": "SK",
  "SeriesDescription": "func-bold_fa-77",
  "SeriesNumber": 7,
  "ShimSetting": [4137, -7691, -7521, 189, -76, -342, -105, 90],
  "SliceThickness": 3.5,
  "SliceTiming": [0.99, 0, 1.055, 0.065, 1.12, 0.13, 1.1875, 0.1975, 1.2525, 0.2625, 1.32, 0.33, 1.385, 0.395, 1.45, 0.46, 1.5175, 0.5275, 1.5825, 0.5925, 1.6475, 0.66, 1.715, 0.725, 1.78, 0.79, 1.8475, 0.8575, 1.9125, 0.9225],
  "SoftwareVersions": "syngo MR E11",
  "SpacingBetweenSlices": 3.99,
  "StationName": "AWP66112",
  "TotalReadoutTime": 0.0395,
  "TxRefAmp": 209.254,
  "dcmmeta_affine": [
    [-2.9894657135009766, 0.24998141825199127, 0.03270135074853897, 111.2548828125],
    [0.24588514864444733, 2.8522861003875732, 1.1925616264343262, -139.36573791503906],
    [-0.05133951082825661, -0.8955295085906982, 3.8074700832366943, -33.1749267578125],
    [0.0, 0.0, 0.0, 1.0]
],
  "dcmmeta_reorient_transform": [
    [0.0, -1.0, 0.0, 79.0],
    [1.0, 0.0, 0.0, 0.0],
    [0.0, 0.0, 1.0, 0.0],
    [0.0, 0.0, 0.0, 1.0]
],
  "dcmmeta_shape": [80, 80, 30, 200],
  "dcmmeta_slice_dim": 2,
  "dcmmeta_version": 0.6,
  "global": {
    "const": {
      "AccessionNumber": "qa64",
      "AcquisitionMatrix": [80, 0, 0, 80],
      "AngioFlag": "N",
      "BitsAllocated": 16,
      "BitsStored": 12,
      "BodyPartExamined": "BRAIN",
      "Columns": 480,
      "EchoNumbers": 1,
      "EchoTime": 30.0,
      "EchoTrainLength": 80,
      "FlipAngle": 77.0,
      "HighBit": 11,
      "ImageOrientationPatient": [0.99648854295425, -0.0819617177942, -0.0171131696988, 0.08332713954563, 0.95076204460874, 0.29850983626431],
      "ImagePositionPatient": [-778.89282302566, -607.24506518625, -272.75975947308],
      "ImageType": [
        "ORIGINAL",
        "PRIMARY",
        "M",
        "ND",
        "NORM",
        "MOSAIC"
],
      "ImagedNucleus": "1H",
      "ImagingFrequency": 123.252357,
      "InPlanePhaseEncodingDirection": "COL",
      "LargestImagePixelValue": 4095,
      "MRAcquisitionType": "2D",
      "MagneticFieldStrength": 3.0,
      "Manufacturer": "SIEMENS",
      "ManufacturerModelName": "Prisma",
      "Modality": "MR",
      "NumberOfAverages": 1.0,
      "NumberOfPhaseEncodingSteps": 80,
      "PercentPhaseFieldOfView": 100.0,
      "PercentSampling": 100.0,
      "PerformedProcedureStepStartTime": "094846.775000",
      "PhotometricInterpretation": "MONOCHROME2",
      "PixelBandwidth": 2315.0,
      "PixelRepresentation": 0,
      "PixelSpacing": [3.0, 3.0],
      "ProtocolName": "func-bold_fa-77",
      "RepetitionTime": 2000.0,
      "Rows": 480,
      "SAR": 0.02828735715771,
      "SamplesPerPixel": 1,
      "ScanOptions": "FS",
      "ScanningSequence": "EP",
      "SequenceName": "*epfid2d1_80",
      "SequenceVariant": "SK",
      "SeriesDescription": "func-bold_fa-77",
      "SeriesNumber": 7,
      "SeriesTime": "100117.378000",
      "SliceLocation": -72.400146583315,
      "SliceThickness": 3.5,
      "SmallestImagePixelValue": 0,
      "SoftwareVersions": "syngo MR E11",
      "SpacingBetweenSlices": 3.9900001556333,
      "SpecificCharacterSet": "ISO_IR 100",
      "StudyID": "35",
      "StudyTime": "094846.729000",
      "TransmitCoilName": "Body",
      "VariableFlipAngleFlag": "N",
      "WindowCenterWidthExplanation": "Algo1",
      "dBdt": 0.0},
    "slices": {}
  },
  "time": {
    "samples": {
      "AcquisitionNumber": [1, 2, 3, 4, 5, 6, 7, 8, 9, 10, 11, 12, 13, 14, 15, 16, 17, 18, 19, 20, 21, 22, 23, 24, 25, 26, 27, 28, 29, 30, 31, 32, 33, 34, 35, 36, 37, 38, 39, 40, 41, 42, 43, 44, 45, 46, 47, 48, 49, 50, 51, 52, 53, 54, 55, 56, 57, 58, 59, 60, 61, 62, 63, 64, 65, 66, 67, 68, 69, 70, 71, 72, 73, 74, 75, 76, 77, 78, 79, 80, 81, 82, 83, 84, 85, 86, 87, 88, 89, 90, 91, 92, 93, 94, 95, 96, 97, 98, 99, 100, 101, 102, 103, 104, 105, 106, 107, 108, 109, 110, 111, 112, 113, 114, 115, 116, 117, 118, 119, 120, 121, 122, 123, 124, 125, 126, 127, 128, 129, 130, 131, 132, 133, 134, 135, 136, 137, 138, 139, 140, 141, 142, 143, 144, 145, 146, 147, 148, 149, 150, 151, 152, 153, 154, 155, 156, 157, 158, 159, 160, 161, 162, 163, 164, 165, 166, 167, 168, 169, 170, 171, 172, 173, 174, 175, 176, 177, 178, 179, 180, 181, 182, 183, 184, 185, 186, 187, 188, 189, 190, 191, 192, 193, 194, 195, 196, 197, 198, 199, 200],
      "AcquisitionTime": ["100035.587500", "100037.587500", "100039.587500", "100041.587500", "100043.587500", "100045.587500", "100047.587500", "100049.587500", "100051.587500", "100053.587500", "100055.587500", "100057.587500", "100059.587500", "100101.587500", "100103.587500", "100105.587500", "100107.587500", "100109.587500", "100111.587500", "100113.587500", "100115.587500", "100117.587500", "100119.587500", "100121.587500", "100123.587500", "100125.587500", "100127.587500", "100129.587500", "100131.587500", "100133.587500", "100135.587500", "100137.587500", "100139.587500", "100141.587500", "100143.587500", "100145.587500", "100147.587500", "100149.587500", "100151.587500", "100153.587500", "100155.587500", "100157.587500", "100159.587500", "100201.587500", "100203.587500", "100205.587500", "100207.587500", "100209.587500", "100211.587500", "100213.587500", "100215.587500", "100217.587500", "100219.587500", "100221.587500", "100223.587500", "100225.587500", "100227.587500", "100229.587500", "100231.587500", "100233.587500", "100235.587500", "100237.587500", "100239.587500", "100241.587500", "100243.587500", "100245.587500", "100247.587500", "100249.587500", "100251.587500", "100253.587500", "100255.587500", "100257.587500", "100259.587500", "100301.587500", "100303.587500", "100305.587500", "100307.587500", "100309.587500", "100311.587500", "100313.587500", "100315.587500", "100317.587500", "100319.587500", "100321.587500", "100323.587500", "100325.587500", "100327.587500", "100329.587500", "100331.587500", "100333.587500", "100335.587500", "100337.587500", "100339.587500", "100341.587500", "100343.587500", "100345.587500", "100347.587500", "100349.587500", "100351.587500", "100353.587500", "100355.587500", "100357.587500", "100359.587500", "100401.587500", "100403.587500", "100405.587500", "100407.587500", "100409.587500", "100411.587500", "100413.587500", "100415.587500", "100417.587500", "100419.587500", "100421.587500", "100423.587500", "100425.587500", "100427.587500", "100429.587500", "100431.587500", "100433.587500", "100435.587500", "100437.587500", "100439.587500", "100441.587500", "100443.587500", "100445.587500", "100447.587500", "100449.587500", "100451.587500", "100453.587500", "100455.587500", "100457.587500", "100459.587500", "100501.587500", "100503.587500", "100505.587500", "100507.587500", "100509.587500", "100511.587500", "100513.587500", "100515.587500", "100517.587500", "100519.587500", "100521.587500", "100523.587500", "100525.587500", "100527.587500", "100529.587500", "100531.587500", "100533.587500", "100535.587500", "100537.587500", "100539.587500", "100541.587500", "100543.587500", "100545.587500", "100547.587500", "100549.587500", "100551.587500", "100553.587500", "100555.587500", "100557.587500", "100559.587500", "100601.587500", "100603.587500", "100605.587500", "100607.587500", "100609.587500", "100611.587500", "100613.587500", "100615.587500", "100617.587500", "100619.587500", "100621.587500", "100623.587500", "100625.587500", "100627.587500", "100629.587500", "100631.587500", "100633.587500", "100635.587500", "100637.587500", "100639.587500", "100641.587500", "100643.587500", "100645.587500", "100647.587500", "100649.587500", "100651.587500", "100653.587500", "100655.587500", "100657.587500", "100659.587500", "100701.587500", "100703.587500", "100705.587500", "100707.587500", "100709.587500", "100711.587500", "100713.587500"],
      "ContentTime": ["100117.381000", "100117.385000", "100117.387000", "100117.390000", "100117.392000", "100117.395000", "100117.397000", "100117.400000", "100117.403000", "100117.405000", "100117.408000", "100117.411000", "100117.413000", "100117.416000", "100117.418000", "100117.421000", "100117.424000", "100117.426000", "100117.429000", "100117.431000", "100157.364000", "100157.367000", "100157.370000", "100157.373000", "100157.375000", "100157.378000", "100157.380000", "100157.383000", "100157.385000", "100157.388000", "100157.390000", "100157.393000", "100157.395000", "100157.398000", "100157.400000", "100157.403000", "100157.405000", "100157.408000", "100157.411000", "100157.413000", "100237.363000", "100237.366000", "100237.369000", "100237.381000", "100237.383000", "100237.386000", "100237.388000", "100237.391000", "100237.394000", "100237.396000", "100237.399000", "100237.401000", "100237.404000", "100237.406000", "100237.409000", "100237.411000", "100237.414000", "100237.416000", "100237.419000", "100237.421000", "100317.365000", "100317.367000", "100317.370000", "100317.373000", "100317.375000", "100317.378000", "100317.380000", "100317.383000", "100317.385000", "100317.388000", "100317.391000", "100317.393000", "100317.396000", "100317.398000", "100317.401000", "100317.403000", "100317.406000", "100317.408000", "100317.411000", "100317.413000", "100357.365000", "100357.367000", "100357.370000", "100357.373000", "100357.375000", "100357.378000", "100357.380000", "100357.383000", "100357.385000", "100357.388000", "100357.391000", "100357.393000", "100357.396000", "100357.398000", "100357.401000", "100357.404000", "100357.406000", "100357.409000", "100357.411000", "100357.414000", "100437.363000", "100437.366000", "100437.369000", "100437.371000", "100437.374000", "100437.376000", "100437.379000", "100437.382000", "100437.384000", "100437.387000", "100437.389000", "100437.392000", "100437.394000", "100437.397000", "100437.400000", "100437.402000", "100437.405000", "100437.407000", "100437.410000", "100437.412000", "100517.365000", "100517.368000", "100517.370000", "100517.373000", "100517.376000", "100517.378000", "100517.381000", "100517.383000", "100517.386000", "100517.388000", "100517.391000", "100517.393000", "100517.396000", "100517.399000", "100517.401000", "100517.404000", "100517.406000", "100517.409000", "100517.411000", "100517.414000", "100557.365000", "100557.367000", "100557.370000", "100557.372000", "100557.375000", "100557.377000", "100557.380000", "100557.383000", "100557.385000", "100557.388000", "100557.390000", "100557.393000", "100557.395000", "100557.398000", "100557.401000", "100557.403000", "100557.406000", "100557.408000", "100557.411000", "100557.413000", "100637.364000", "100637.367000", "100637.370000", "100637.372000", "100637.375000", "100637.377000", "100637.380000", "100637.383000", "100637.385000", "100637.388000", "100637.391000", "100637.393000", "100637.396000", "100637.398000", "100637.401000", "100637.403000", "100637.406000", "100637.409000", "100637.411000", "100637.414000", "100715.607000", "100715.610000", "100715.613000", "100715.616000", "100715.618000", "100715.621000", "100715.624000", "100715.626000", "100715.629000", "100715.631000", "100715.634000", "100715.641000", "100715.645000", "100715.648000", "100715.654000", "100715.657000", "100715.660000", "100715.664000", "100715.668000", "100715.671000"],
      "InstanceCreationTime": ["100117.381000", "100117.385000", "100117.387000", "100117.390000", "100117.392000", "100117.395000", "100117.397000", "100117.400000", "100117.403000", "100117.405000", "100117.408000", "100117.411000", "100117.413000", "100117.416000", "100117.418000", "100117.421000", "100117.424000", "100117.426000", "100117.429000", "100117.431000", "100157.364000", "100157.367000", "100157.370000", "100157.373000", "100157.375000", "100157.378000", "100157.380000", "100157.383000", "100157.385000", "100157.388000", "100157.390000", "100157.393000", "100157.395000", "100157.398000", "100157.400000", "100157.403000", "100157.405000", "100157.408000", "100157.411000", "100157.413000", "100237.363000", "100237.366000", "100237.369000", "100237.381000", "100237.383000", "100237.386000", "100237.388000", "100237.391000", "100237.394000", "100237.396000", "100237.399000", "100237.401000", "100237.404000", "100237.406000", "100237.409000", "100237.411000", "100237.414000", "100237.416000", "100237.419000", "100237.421000", "100317.365000", "100317.367000", "100317.370000", "100317.373000", "100317.375000", "100317.378000", "100317.380000", "100317.383000", "100317.385000", "100317.388000", "100317.391000", "100317.393000", "100317.396000", "100317.398000", "100317.401000", "100317.403000", "100317.406000", "100317.408000", "100317.411000", "100317.413000", "100357.365000", "100357.367000", "100357.370000", "100357.373000", "100357.375000", "100357.378000", "100357.380000", "100357.383000", "100357.385000", "100357.388000", "100357.391000", "100357.393000", "100357.396000", "100357.398000", "100357.401000", "100357.404000", "100357.406000", "100357.409000", "100357.411000", "100357.414000", "100437.363000", "100437.366000", "100437.369000", "100437.371000", "100437.374000", "100437.376000", "100437.379000", "100437.382000", "100437.384000", "100437.387000", "100437.389000", "100437.392000", "100437.394000", "100437.397000", "100437.400000", "100437.402000", "100437.405000", "100437.407000", "100437.410000", "100437.412000", "100517.365000", "100517.368000", "100517.370000", "100517.373000", "100517.376000", "100517.378000", "100517.381000", "100517.383000", "100517.386000", "100517.388000", "100517.391000", "100517.393000", "100517.396000", "100517.399000", "100517.401000", "100517.404000", "100517.406000", "100517.409000", "100517.411000", "100517.414000", "100557.365000", "100557.367000", "100557.370000", "100557.372000", "100557.375000", "100557.377000", "100557.380000", "100557.383000", "100557.385000", "100557.388000", "100557.390000", "100557.393000", "100557.395000", "100557.398000", "100557.401000", "100557.403000", "100557.406000", "100557.408000", "100557.411000", "100557.413000", "100637.364000", "100637.367000", "100637.370000", "100637.372000", "100637.375000", "100637.377000", "100637.380000", "100637.383000", "100637.385000", "100637.388000", "100637.391000", "100637.393000", "100637.396000", "100637.398000", "100637.401000", "100637.403000", "100637.406000", "100637.409000", "100637.411000", "100637.414000", "100715.607000", "100715.610000", "100715.613000", "100715.616000", "100715.618000", "100715.621000", "100715.624000", "100715.626000", "100715.629000", "100715.631000", "100715.634000", "100715.641000", "100715.645000", "100715.648000", "100715.654000", "100715.657000", "100715.660000", "100715.664000", "100715.668000", "100715.671000"],
      "InstanceNumber": [1, 2, 3, 4, 5, 6, 7, 8, 9, 10, 11, 12, 13, 14, 15, 16, 17, 18, 19, 20, 21, 22, 23, 24, 25, 26, 27, 28, 29, 30, 31, 32, 33, 34, 35, 36, 37, 38, 39, 40, 41, 42, 43, 44, 45, 46, 47, 48, 49, 50, 51, 52, 53, 54, 55, 56, 57, 58, 59, 60, 61, 62, 63, 64, 65, 66, 67, 68, 69, 70, 71, 72, 73, 74, 75, 76, 77, 78, 79, 80, 81, 82, 83, 84, 85, 86, 87, 88, 89, 90, 91, 92, 93, 94, 95, 96, 97, 98, 99, 100, 101, 102, 103, 104, 105, 106, 107, 108, 109, 110, 111, 112, 113, 114, 115, 116, 117, 118, 119, 120, 121, 122, 123, 124, 125, 126, 127, 128, 129, 130, 131, 132, 133, 134, 135, 136, 137, 138, 139, 140, 141, 142, 143, 144, 145, 146, 147, 148, 149, 150, 151, 152, 153, 154, 155, 156, 157, 158, 159, 160, 161, 162, 163, 164, 165, 166, 167, 168, 169, 170, 171, 172, 173, 174, 175, 176, 177, 178, 179, 180, 181, 182, 183, 184, 185, 186, 187, 188, 189, 190, 191, 192, 193, 194, 195, 196, 197, 198, 199, 200],
      "WindowCenter": [1482.0, 1482.0, 1481.0, 1481.0, 1481.0, 1481.0, 1481.0, 1481.0, 1481.0, 1481.0, 1481.0, 1481.0, 1481.0, 1480.0, 1480.0, 1480.0, 1480.0, 1480.0, 1481.0, 1481.0, 1480.0, 1480.0, 1480.0, 1479.0, 1480.0, 1480.0, 1480.0, 1480.0, 1479.0, 1480.0, 1479.0, 1480.0, 1479.0, 1479.0, 1479.0, 1478.0, 1478.0, 1478.0, 1479.0, 1478.0, 1477.0, 1478.0, 1479.0, 1479.0, 1480.0, 1479.0, 1478.0, 1478.0, 1479.0, 1478.0, 1479.0, 1479.0, 1479.0, 1479.0, 1479.0, 1479.0, 1480.0, 1479.0, 1479.0, 1479.0, 1479.0, 1479.0, 1478.0, 1478.0, 1478.0, 1479.0, 1478.0, 1478.0, 1477.0, 1478.0, 1478.0, 1478.0, 1478.0, 1478.0, 1477.0, 1477.0, 1477.0, 1478.0, 1477.0, 1477.0, 1477.0, 1477.0, 1477.0, 1477.0, 1477.0, 1477.0, 1478.0, 1477.0, 1477.0, 1477.0, 1477.0, 1477.0, 1477.0, 1477.0, 1477.0, 1477.0, 1477.0, 1477.0, 1477.0, 1477.0, 1477.0, 1476.0, 1477.0, 1477.0, 1477.0, 1476.0, 1477.0, 1476.0, 1476.0, 1476.0, 1476.0, 1477.0, 1477.0, 1476.0, 1476.0, 1476.0, 1477.0, 1477.0, 1475.0, 1475.0, 1475.0, 1475.0, 1475.0, 1476.0, 1475.0, 1476.0, 1476.0, 1475.0, 1476.0, 1477.0, 1475.0, 1476.0, 1476.0, 1475.0, 1475.0, 1475.0, 1475.0, 1475.0, 1476.0, 1475.0, 1475.0, 1476.0, 1476.0, 1475.0, 1475.0, 1476.0, 1475.0, 1474.0, 1474.0, 1475.0, 1475.0, 1475.0, 1475.0, 1476.0, 1475.0, 1475.0, 1475.0, 1474.0, 1474.0, 1474.0, 1474.0, 1474.0, 1474.0, 1474.0, 1474.0, 1474.0, 1473.0, 1473.0, 1474.0, 1473.0, 1473.0, 1474.0, 1473.0, 1473.0, 1474.0, 1474.0, 1474.0, 1474.0, 1474.0, 1474.0, 1474.0, 1474.0, 1474.0, 1474.0, 1474.0, 1474.0, 1473.0, 1473.0, 1474.0, 1473.0, 1473.0, 1473.0, 1474.0, 1474.0, 1474.0, 1474.0, 1473.0, 1472.0, 1473.0, 1473.0],
      "WindowWidth": [3451.0, 3451.0, 3451.0, 3451.0, 3451.0, 3451.0, 3451.0, 3451.0, 3451.0, 3451.0, 3451.0, 3451.0, 3451.0, 3451.0, 3451.0, 3451.0, 3451.0, 3451.0, 3450.0, 3451.0, 3451.0, 3450.0, 3450.0, 3450.0, 3450.0, 3450.0, 3450.0, 3450.0, 3450.0, 3450.0, 3450.0, 3450.0, 3450.0, 3450.0, 3450.0, 3450.0, 3450.0, 3450.0, 3449.0, 3450.0, 3449.0, 3450.0, 3450.0, 3450.0, 3451.0, 3451.0, 3451.0, 3451.0, 3451.0, 3450.0, 3451.0, 3451.0, 3451.0, 3451.0, 3450.0, 3451.0, 3451.0, 3451.0, 3451.0, 3451.0, 3451.0, 3450.0, 3450.0, 3450.0, 3450.0, 3450.0, 3450.0, 3450.0, 3450.0, 3450.0, 3450.0, 3450.0, 3450.0, 3449.0, 3450.0, 3449.0, 3449.0, 3449.0, 3449.0, 3449.0, 3449.0, 3449.0, 3449.0, 3449.0, 3449.0, 3449.0, 3448.0, 3449.0, 3448.0, 3448.0, 3448.0, 3448.0, 3448.0, 3448.0, 3448.0, 3448.0, 3448.0, 3448.0, 3448.0, 3448.0, 3448.0, 3448.0, 3448.0, 3448.0, 3448.0, 3448.0, 3448.0, 3448.0, 3448.0, 3448.0, 3448.0, 3447.0, 3448.0, 3448.0, 3448.0, 3448.0, 3447.0, 3447.0, 3448.0, 3448.0, 3448.0, 3448.0, 3448.0, 3447.0, 3448.0, 3447.0, 3447.0, 3448.0, 3447.0, 3447.0, 3448.0, 3447.0, 3447.0, 3447.0, 3447.0, 3447.0, 3447.0, 3447.0, 3447.0, 3447.0, 3447.0, 3447.0, 3447.0, 3447.0, 3447.0, 3447.0, 3446.0, 3447.0, 3447.0, 3446.0, 3446.0, 3446.0, 3446.0, 3446.0, 3446.0, 3446.0, 3446.0, 3446.0, 3446.0, 3446.0, 3446.0, 3445.0, 3446.0, 3445.0, 3445.0, 3445.0, 3445.0, 3445.0, 3445.0, 3445.0, 3445.0, 3445.0, 3445.0, 3445.0, 3445.0, 3445.0, 3446.0, 3445.0, 3446.0, 3446.0, 3446.0, 3445.0, 3445.0, 3445.0, 3445.0, 3445.0, 3445.0, 3445.0, 3445.0, 3445.0, 3445.0, 3445.0, 3445.0, 3445.0, 3445.0, 3445.0, 3445.0, 3445.0, 3445.0, 3445.0]
    },
    "slices": {}
  }
}