{
  "AcquisitionMatrixPE": 122,
  "AcquisitionNumber": 1,
  "AcquisitionTime": "10:44:41.465000",
  "BandwidthPerPixelPhaseEncode": 27.785,
  "BaseResolution": 122,
  "BodyPartExamined": "BRAIN",
  "CoilCombinationMethod": "Adaptive Combine",
  "ConsistencyInfo": "N4_VE11C_LATEST_20160120",
  "ConversionSoftware": "dcm2niix",
  "ConversionSoftwareVersion": "v1.0.20220720",
  "DerivedVendorReportedEchoSpacing": 0.000590011,
  "DeviceSerialNumber": "66112",
  "DiffusionScheme": "Monopolar",
  "DwellTime": 2e-06,
  "EchoTime": 0.068,
  "EchoTrainLength": 61,
  "EffectiveEchoSpacing": 0.000295005,
  "FlipAngle": 90,
  "HeudiconvVersion": "0.13.1",
  "ImageOrientationPatientDICOM": [0.994142, -0.107872, 0.00670429, 0.100806, 0.947816, 0.30246],
  "ImageOrientationText": "Tra>Cor(17.5)>Sag(2.2)",
  "ImageType": [
    "ORIGINAL",
    "PRIMARY",
    "DIFFUSION",
    "NONE",
    "ND",
    "NORM"
],
  "ImagingFrequency": 123.252,
  "InPlanePhaseEncodingDirectionDICOM": "COL",
  "InstitutionAddress": "Maynard 3,Hanover,NH,US,03755",
  "InstitutionName": "Dartmouth College - PBS",
  "InstitutionalDepartmentName": "Department",
  "MRAcquisitionType": "2D",
  "MagneticFieldStrength": 3,
  "Manufacturer": "Siemens",
  "ManufacturersModelName": "Prisma",
  "Modality": "MR",
  "MultibandAccelerationFactor": 4,
  "NonlinearGradientCorrection": false,
  "ParallelReductionFactorInPlane": 2,
  "PartialFourier": 1,
  "PatientPosition": "HFS",
  "PercentPhaseFOV": 100,
  "PercentSampling": 100,
  "PhaseEncodingDirection": "j-",
  "PhaseEncodingSteps": 122,
  "PhaseResolution": 1,
  "PixelBandwidth": 2050,
  "ProcedureStepDescription": "dbic^QA",
  "ProtocolName": "dwi_acq-DTI-30-p2-s4",
  "PulseSequenceDetails": "%SiemensSeq%\\ep2d_diff",
  "ReceiveCoilActiveElements": "HEA;HEP",
  "ReceiveCoilName": "Head_32",
  "ReconMatrixPE": 122,
  "RefLinesPE": 38,
  "RepetitionTime": 3.6,
  "SAR": 0.161208,
  "ScanOptions": "FS",
  "ScanningSequence": "EP",
  "SequenceName": "*ep_b0",
  "SequenceVariant": "SK\\SP",
  "SeriesDescription": "dwi_acq-DTI-30-p2-s4",
  "SeriesNumber": 9,
  "ShimSetting": [4146, -7690, -7517, 344, -72, -154, -63, 72],
  "SliceThickness": 2,
  "SliceTiming": [2.58594, 0, 1.78906, 0.19531, 1.98438, 0.39844, 2.1875, 0.59375, 2.38281, 0.99219, 2.78125, 1.1875, 2.97656, 1.39062, 3.17969, 1.58594, 3.375, 0.78906, 2.58594, 0, 1.78906, 0.19531, 1.98438, 0.39844, 2.1875, 0.59375, 2.38281, 0.99219, 2.78125, 1.1875, 2.97656, 1.39062, 3.17969, 1.58594, 3.375, 0.78906, 2.58594, 0, 1.78906, 0.19531, 1.98438, 0.39844, 2.1875, 0.59375, 2.38281, 0.99219, 2.78125, 1.1875, 2.97656, 1.39062, 3.17969, 1.58594, 3.375, 0.78906, 2.58594, 0, 1.78906, 0.19531, 1.98438, 0.39844, 2.1875, 0.59375, 2.38281, 0.99219, 2.78125, 1.1875, 2.97656, 1.39062, 3.17969, 1.58594, 3.375, 0.78906],
  "SoftwareVersions": "syngo MR E11",
  "SpacingBetweenSlices": 2,
  "SpoilingState": true,
  "StationName": "AWP66112",
  "TotalReadoutTime": 0.0356956,
  "TxRefAmp": 233.584,
  "dcmmeta_affine": [
    [-1.955689549446106, 0.1983068436384201, 0.07796287536621094, 105.4510498046875],
    [0.21220801770687103, 1.8645570278167725, 0.6000232696533203, -142.3627471923828],
    [0.01318876538425684, -0.5950034260749817, 1.9062767028808594, -36.634002685546875],
    [0.0, 0.0, 0.0, 1.0]
],
  "dcmmeta_reorient_transform": [
    [0.0, -1.0, 0.0, 121.0],
    [1.0, 0.0, 0.0, 0.0],
    [0.0, 0.0, -1.0, 71.0],
    [0.0, 0.0, 0.0, 1.0]
],
  "dcmmeta_shape": [122, 122, 72, 31],
  "dcmmeta_slice_dim": 2,
  "dcmmeta_version": 0.6,
  "global": {
    "const": {
      "AccessionNumber": "qa",
      "AcquisitionMatrix": [122, 0, 0, 122],
      "AngioFlag": "N",
      "BitsAllocated": 16,
      "BitsStored": 12,
      "BodyPartExamined": "BRAIN",
      "Columns": 122,
      "EchoNumbers": 1,
      "EchoTime": 68.0,
      "EchoTrainLength": 61,
      "FlipAngle": 90.0,
      "HighBit": 11,
      "ImageOrientationPatient": [0.99414214060833, -0.1078724097055, 0.00670428900204, 0.10080597355893, 0.94781646607288, 0.30246008387218],
      "ImageType": [
        "ORIGINAL",
        "PRIMARY",
        "DIFFUSION",
        "NONE",
        "ND",
        "NORM"
],
      "ImagedNucleus": "1H",
      "ImagingFrequency": 123.25245,
      "InPlanePhaseEncodingDirection": "COL",
      "MRAcquisitionType": "2D",
      "MagneticFieldStrength": 3.0,
      "Manufacturer": "SIEMENS",
      "ManufacturerModelName": "Prisma",
      "Modality": "MR",
      "NumberOfAverages": 1.0,
      "NumberOfPhaseEncodingSteps": 122,
      "PercentPhaseFieldOfView": 100.0,
      "PercentSampling": 100.0,
      "PerformedProcedureStepStartTime": "101401.794000",
      "PhotometricInterpretation": "MONOCHROME2",
      "PixelBandwidth": 2050.0,
      "PixelRepresentation": 0,
      "PixelSpacing": [1.9672131538391, 1.9672131538391],
      "ProtocolName": "dwi_acq-DTI-30-p2-s4",
      "RepetitionTime": 3600.0,
      "Rows": 122,
      "SAR": 0.16120797590717,
      "SamplesPerPixel": 1,
      "ScanOptions": "FS",
      "ScanningSequence": "EP",
      "SequenceVariant": [
        "SK",
        "SP"
],
      "SeriesDescription": "dwi_acq-DTI-30-p2-s4",
      "SeriesNumber": 9,
      "SeriesTime": "104450.574000",
      "SliceThickness": 2.0,
      "SmallestImagePixelValue": 0,
      "SoftwareVersions": "syngo MR E11",
      "SpacingBetweenSlices": 2.0,
      "SpecificCharacterSet": "ISO_IR 100",
      "StudyID": "44",
      "StudyTime": "101401.698000",
      "TransmitCoilName": "Body",
      "VariableFlipAngleFlag": "N",
      "WindowCenterWidthExplanation": "Algo1",
      "dBdt": 0.0},
    "slices": {
      "AcquisitionTime": ["104441.465000", "104438.880000", "104440.670000", "104439.077500", "104440.867500", "104439.277500", "104441.067500", "104439.475000", "104441.265000", "104439.875000", "104441.665000", "104440.072500", "104441.862500", "104440.272500", "104442.062500", "104440.470000", "104442.260000", "104439.675000", "104441.465000", "104438.880000", "104440.670000", "104439.077500", "104440.867500", "104439.277500", "104441.067500", "104439.475000", "104441.265000", "104439.875000", "104441.665000", "104440.072500", "104441.862500", "104440.272500", "104442.062500", "104440.470000", "104442.260000", "104439.675000", "104441.465000", "104438.880000", "104440.670000", "104439.077500", "104440.867500", "104439.277500", "104441.067500", "104439.475000", "104441.265000", "104439.875000", "104441.665000", "104440.072500", "104441.862500", "104440.272500", "104442.062500", "104440.470000", "104442.260000", "104439.675000", "104441.465000", "104438.880000", "104440.670000", "104439.077500", "104440.867500", "104439.277500", "104441.067500", "104439.475000", "104441.265000", "104439.875000", "104441.665000", "104440.072500", "104441.862500", "104440.272500", "104442.062500", "104440.470000", "104442.260000", "104439.675000", "104445.065000", "104442.480000", "104444.270000", "104442.677500", "104444.467500", "104442.877500", "104444.667500", "104443.075000", "104444.865000", "104443.475000", "104445.265000", "104443.672500", "104445.462500", "104443.872500", "104445.662500", "104444.070000", "104445.860000", "104443.275000", "104445.065000", "104442.480000", "104444.270000", "104442.677500", "104444.467500", "104442.877500", "104444.667500", "104443.075000", "104444.865000", "104443.475000", "104445.265000", "104443.672500", "104445.462500", "104443.872500", "104445.662500", "104444.070000", "104445.860000", "104443.275000", "104445.065000", "104442.480000", "104444.270000", "104442.677500", "104444.467500", "104442.877500", "104444.667500", "104443.075000", "104444.865000", "104443.475000", "104445.265000", "104443.672500", "104445.462500", "104443.872500", "104445.662500", "104444.070000", "104445.860000", "104443.275000", "104445.065000", "104442.480000", "104444.270000", "104442.677500", "104444.467500", "104442.877500", "104444.667500", "104443.075000", "104444.865000", "104443.475000", "104445.265000", "104443.672500", "104445.462500", "104443.872500", "104445.662500", "104444.070000", "104445.860000", "104443.275000", "104448.665000", "104446.080000", "104447.870000", "104446.277500", "104448.067500", "104446.477500", "104448.267500", "104446.675000", "104448.465000", "104447.075000", "104448.865000", "104447.272500", "104449.062500", "104447.472500", "104449.262500", "104447.670000", "104449.460000", "104446.875000", "104448.665000", "104446.080000", "104447.870000", "104446.277500", "104448.067500", "104446.477500", "104448.267500", "104446.675000", "104448.465000", "104447.075000", "104448.865000", "104447.272500", "104449.062500", "104447.472500", "104449.262500", "104447.670000", "104449.460000", "104446.875000", "104448.665000", "104446.080000", "104447.870000", "104446.277500", "104448.067500", "104446.477500", "104448.267500", "104446.675000", "104448.465000", "104447.075000", "104448.865000", "104447.272500", "104449.062500", "104447.472500", "104449.262500", "104447.670000", "104449.460000", "104446.875000", "104448.665000", "104446.080000", "104447.870000", "104446.277500", "104448.067500", "104446.477500", "104448.267500", "104446.675000", "104448.465000", "104447.075000", "104448.865000", "104447.272500", "104449.062500", "104447.472500", "104449.262500", "104447.670000", "104449.460000", "104446.875000", "104452.265000", "104449.680000", "104451.470000", "104449.877500", "104451.667500", "104450.077500", "104451.867500", "104450.275000", "104452.065000", "104450.675000", "104452.465000", "104450.872500", "104452.662500", "104451.072500", "104452.862500", "104451.270000", "104453.060000", "104450.475000", "104452.265000", "104449.680000", "104451.470000", "104449.877500", "104451.667500", "104450.077500", "104451.867500", "104450.275000", "104452.065000", "104450.675000", "104452.465000", "104450.872500", "104452.662500", "104451.072500", "104452.862500", "104451.270000", "104453.060000", "104450.475000", "104452.265000", "104449.680000", "104451.470000", "104449.877500", "104451.667500", "104450.077500", "104451.867500", "104450.275000", "104452.065000", "104450.675000", "104452.465000", "104450.872500", "104452.662500", "104451.072500", "104452.862500", "104451.270000", "104453.060000", "104450.475000", "104452.265000", "104449.680000", "104451.470000", "104449.877500", "104451.667500", "104450.077500", "104451.867500", "104450.275000", "104452.065000", "104450.675000", "104452.465000", "104450.872500", "104452.662500", "104451.072500", "104452.862500", "104451.270000", "104453.060000", "104450.475000", "104455.865000", "104453.280000", "104455.070000", "104453.477500", "104455.267500", "104453.677500", "104455.467500", "104453.875000", "104455.665000", "104454.275000", "104456.065000", "104454.472500", "104456.262500", "104454.672500", "104456.462500", "104454.870000", "104456.660000", "104454.075000", "104455.865000", "104453.280000", "104455.070000", "104453.477500", "104455.267500", "104453.677500", "104455.467500", "104453.875000", "104455.665000", "104454.275000", "104456.065000", "104454.472500", "104456.262500", "104454.672500", "104456.462500", "104454.870000", "104456.660000", "104454.075000", "104455.865000", "104453.280000", "104455.070000", "104453.477500", "104455.267500", "104453.677500", "104455.467500", "104453.875000", "104455.665000", "104454.275000", "104456.065000", "104454.472500", "104456.262500", "104454.672500", "104456.462500", "104454.870000", "104456.660000", "104454.075000", "104455.865000", "104453.280000", "104455.070000", "104453.477500", "104455.267500", "104453.677500", "104455.467500", "104453.875000", "104455.665000", "104454.275000", "104456.065000", "104454.472500", "104456.262500", "104454.672500", "104456.462500", "104454.870000", "104456.660000", "104454.075000", "104459.465000", "104456.880000", "104458.670000", "104457.077500", "104458.867500", "104457.277500", "104459.067500", "104457.475000", "104459.265000", "104457.875000", "104459.665000", "104458.072500", "104459.862500", "104458.272500", "104500.062500", "104458.470000", "104500.260000", "104457.675000", "104459.465000", "104456.880000", "104458.670000", "104457.077500", "104458.867500", "104457.277500", "104459.067500", "104457.475000", "104459.265000", "104457.875000", "104459.665000", "104458.072500", "104459.862500", "104458.272500", "104500.062500", "104458.470000", "104500.260000", "104457.675000", "104459.465000", "104456.880000", "104458.670000", "104457.077500", "104458.867500", "104457.277500", "104459.067500", "104457.475000", "104459.265000", "104457.875000", "104459.665000", "104458.072500", "104459.862500", "104458.272500", "104500.062500", "104458.470000", "104500.260000", "104457.675000", "104459.465000", "104456.880000", "104458.670000", "104457.077500", "104458.867500", "104457.277500", "104459.067500", "104457.475000", "104459.265000", "104457.875000", "104459.665000", "104458.072500", "104459.862500", "104458.272500", "104500.062500", "104458.470000", "104500.260000", "104457.675000", "104503.065000", "104500.480000", "104502.270000", "104500.677500", "104502.467500", "104500.877500", "104502.667500", "104501.075000", "104502.865000", "104501.475000", "104503.265000", "104501.672500", "104503.462500", "104501.872500", "104503.662500", "104502.070000", "104503.860000", "104501.275000", "104503.065000", "104500.480000", "104502.270000", "104500.677500", "104502.467500", "104500.877500", "104502.667500", "104501.075000", "104502.865000", "104501.475000", "104503.265000", "104501.672500", "104503.462500", "104501.872500", "104503.662500", "104502.070000", "104503.860000", "104501.275000", "104503.065000", "104500.480000", "104502.270000", "104500.677500", "104502.467500", "104500.877500", "104502.667500", "104501.075000", "104502.865000", "104501.475000", "104503.265000", "104501.672500", "104503.462500", "104501.872500", "104503.662500", "104502.070000", "104503.860000", "104501.275000", "104503.065000", "104500.480000", "104502.270000", "104500.677500", "104502.467500", "104500.877500", "104502.667500", "104501.075000", "104502.865000", "104501.475000", "104503.265000", "104501.672500", "104503.462500", "104501.872500", "104503.662500", "104502.070000", "104503.860000", "104501.275000", "104506.665000", "104504.080000", "104505.870000", "104504.277500", "104506.067500", "104504.477500", "104506.267500", "104504.675000", "104506.465000", "104505.075000", "104506.865000", "104505.272500", "104507.062500", "104505.472500", "104507.262500", "104505.670000", "104507.460000", "104504.875000", "104506.665000", "104504.080000", "104505.870000", "104504.277500", "104506.067500", "104504.477500", "104506.267500", "104504.675000", "104506.465000", "104505.075000", "104506.865000", "104505.272500", "104507.062500", "104505.472500", "104507.262500", "104505.670000", "104507.460000", "104504.875000", "104506.665000", "104504.080000", "104505.870000", "104504.277500", "104506.067500", "104504.477500", "104506.267500", "104504.675000", "104506.465000", "104505.075000", "104506.865000", "104505.272500", "104507.062500", "104505.472500", "104507.262500", "104505.670000", "104507.460000", "104504.875000", "104506.665000", "104504.080000", "104505.870000", "104504.277500", "104506.067500", "104504.477500", "104506.267500", "104504.675000", "104506.465000", "104505.075000", "104506.865000", "104505.272500", "104507.062500", "104505.472500", "104507.262500", "104505.670000", "104507.460000", "104504.875000", "104510.265000", "104507.680000", "104509.470000", "104507.877500", "104509.667500", "104508.077500", "104509.867500", "104508.275000", "104510.065000", "104508.675000", "104510.465000", "104508.872500", "104510.662500", "104509.072500", "104510.862500", "104509.270000", "104511.060000", "104508.475000", "104510.265000", "104507.680000", "104509.470000", "104507.877500", "104509.667500", "104508.077500", "104509.867500", "104508.275000", "104510.065000", "104508.675000", "104510.465000", "104508.872500", "104510.662500", "104509.072500", "104510.862500", "104509.270000", "104511.060000", "104508.475000", "104510.265000", "104507.680000", "104509.470000", "104507.877500", "104509.667500", "104508.077500", "104509.867500", "104508.275000", "104510.065000", "104508.675000", "104510.465000", "104508.872500", "104510.662500", "104509.072500", "104510.862500", "104509.270000", "104511.060000", "104508.475000", "104510.265000", "104507.680000", "104509.470000", "104507.877500", "104509.667500", "104508.077500", "104509.867500", "104508.275000", "104510.065000", "104508.675000", "104510.465000", "104508.872500", "104510.662500", "104509.072500", "104510.862500", "104509.270000", "104511.060000", "104508.475000", "104513.865000", "104511.280000", "104513.070000", "104511.477500", "104513.267500", "104511.677500", "104513.467500", "104511.875000", "104513.665000", "104512.275000", "104514.065000", "104512.472500", "104514.262500", "104512.672500", "104514.462500", "104512.870000", "104514.660000", "104512.075000", "104513.865000", "104511.280000", "104513.070000", "104511.477500", "104513.267500", "104511.677500", "104513.467500", "104511.875000", "104513.665000", "104512.275000", "104514.065000", "104512.472500", "104514.262500", "104512.672500", "104514.462500", "104512.870000", "104514.660000", "104512.075000", "104513.865000", "104511.280000", "104513.070000", "104511.477500", "104513.267500", "104511.677500", "104513.467500", "104511.875000", "104513.665000", "104512.275000", "104514.065000", "104512.472500", "104514.262500", "104512.672500", "104514.462500", "104512.870000", "104514.660000", "104512.075000", "104513.865000", "104511.280000", "104513.070000", "104511.477500", "104513.267500", "104511.677500", "104513.467500", "104511.875000", "104513.665000", "104512.275000", "104514.065000", "104512.472500", "104514.262500", "104512.672500", "104514.462500", "104512.870000", "104514.660000", "104512.075000", "104517.465000", "104514.880000", "104516.670000", "104515.077500", "104516.867500", "104515.277500", "104517.067500", "104515.475000", "104517.265000", "104515.875000", "104517.665000", "104516.072500", "104517.862500", "104516.272500", "104518.062500", "104516.470000", "104518.260000", "104515.675000", "104517.465000", "104514.880000", "104516.670000", "104515.077500", "104516.867500", "104515.277500", "104517.067500", "104515.475000", "104517.265000", "104515.875000", "104517.665000", "104516.072500", "104517.862500", "104516.272500", "104518.062500", "104516.470000", "104518.260000", "104515.675000", "104517.465000", "104514.880000", "104516.670000", "104515.077500", "104516.867500", "104515.277500", "104517.067500", "104515.475000", "104517.265000", "104515.875000", "104517.665000", "104516.072500", "104517.862500", "104516.272500", "104518.062500", "104516.470000", "104518.260000", "104515.675000", "104517.465000", "104514.880000", "104516.670000", "104515.077500", "104516.867500", "104515.277500", "104517.067500", "104515.475000", "104517.265000", "104515.875000", "104517.665000", "104516.072500", "104517.862500", "104516.272500", "104518.062500", "104516.470000", "104518.260000", "104515.675000", "104521.065000", "104518.480000", "104520.270000", "104518.677500", "104520.467500", "104518.877500", "104520.667500", "104519.075000", "104520.865000", "104519.475000", "104521.265000", "104519.672500", "104521.462500", "104519.872500", "104521.662500", "104520.070000", "104521.860000", "104519.275000", "104521.065000", "104518.480000", "104520.270000", "104518.677500", "104520.467500", "104518.877500", "104520.667500", "104519.075000", "104520.865000", "104519.475000", "104521.265000", "104519.672500", "104521.462500", "104519.872500", "104521.662500", "104520.070000", "104521.860000", "104519.275000", "104521.065000", "104518.480000", "104520.270000", "104518.677500", "104520.467500", "104518.877500", "104520.667500", "104519.075000", "104520.865000", "104519.475000", "104521.265000", "104519.672500", "104521.462500", "104519.872500", "104521.662500", "104520.070000", "104521.860000", "104519.275000", "104521.065000", "104518.480000", "104520.270000", "104518.677500", "104520.467500", "104518.877500", "104520.667500", "104519.075000", "104520.865000", "104519.475000", "104521.265000", "104519.672500", "104521.462500", "104519.872500", "104521.662500", "104520.070000", "104521.860000", "104519.275000", "104524.665000", "104522.080000", "104523.870000", "104522.277500", "104524.067500", "104522.477500", "104524.267500", "104522.675000", "104524.465000", "104523.075000", "104524.865000", "104523.272500", "104525.062500", "104523.472500", "104525.262500", "104523.670000", "104525.460000", "104522.875000", "104524.665000", "104522.080000", "104523.870000", "104522.277500", "104524.067500", "104522.477500", "104524.267500", "104522.675000", "104524.465000", "104523.075000", "104524.865000", "104523.272500", "104525.062500", "104523.472500", "104525.262500", "104523.670000", "104525.460000", "104522.875000", "104524.665000", "104522.080000", "104523.870000", "104522.277500", "104524.067500", "104522.477500", "104524.267500", "104522.675000", "104524.465000", "104523.075000", "104524.865000", "104523.272500", "104525.062500", "104523.472500", "104525.262500", "104523.670000", "104525.460000", "104522.875000", "104524.665000", "104522.080000", "104523.870000", "104522.277500", "104524.067500", "104522.477500", "104524.267500", "104522.675000", "104524.465000", "104523.075000", "104524.865000", "104523.272500", "104525.062500", "104523.472500", "104525.262500", "104523.670000", "104525.460000", "104522.875000", "104528.265000", "104525.680000", "104527.470000", "104525.877500", "104527.667500", "104526.077500", "104527.867500", "104526.275000", "104528.065000", "104526.675000", "104528.465000", "104526.872500", "104528.662500", "104527.072500", "104528.862500", "104527.270000", "104529.060000", "104526.475000", "104528.265000", "104525.680000", "104527.470000", "104525.877500", "104527.667500", "104526.077500", "104527.867500", "104526.275000", "104528.065000", "104526.675000", "104528.465000", "104526.872500", "104528.662500", "104527.072500", "104528.862500", "104527.270000", "104529.060000", "104526.475000", "104528.265000", "104525.680000", "104527.470000", "104525.877500", "104527.667500", "104526.077500", "104527.867500", "104526.275000", "104528.065000", "104526.675000", "104528.465000", "104526.872500", "104528.662500", "104527.072500", "104528.862500", "104527.270000", "104529.060000", "104526.475000", "104528.265000", "104525.680000", "104527.470000", "104525.877500", "104527.667500", "104526.077500", "104527.867500", "104526.275000", "104528.065000", "104526.675000", "104528.465000", "104526.872500", "104528.662500", "104527.072500", "104528.862500", "104527.270000", "104529.060000", "104526.475000", "104531.865000", "104529.280000", "104531.070000", "104529.477500", "104531.267500", "104529.677500", "104531.467500", "104529.875000", "104531.665000", "104530.275000", "104532.065000", "104530.472500", "104532.262500", "104530.672500", "104532.462500", "104530.870000", "104532.660000", "104530.075000", "104531.865000", "104529.280000", "104531.070000", "104529.477500", "104531.267500", "104529.677500", "104531.467500", "104529.875000", "104531.665000", "104530.275000", "104532.065000", "104530.472500", "104532.262500", "104530.672500", "104532.462500", "104530.870000", "104532.660000", "104530.075000", "104531.865000", "104529.280000", "104531.070000", "104529.477500", "104531.267500", "104529.677500", "104531.467500", "104529.875000", "104531.665000", "104530.275000", "104532.065000", "104530.472500", "104532.262500", "104530.672500", "104532.462500", "104530.870000", "104532.660000", "104530.075000", "104531.865000", "104529.280000", "104531.070000", "104529.477500", "104531.267500", "104529.677500", "104531.467500", "104529.875000", "104531.665000", "104530.275000", "104532.065000", "104530.472500", "104532.262500", "104530.672500", "104532.462500", "104530.870000", "104532.660000", "104530.075000", "104535.465000", "104532.880000", "104534.670000", "104533.077500", "104534.867500", "104533.277500", "104535.067500", "104533.475000", "104535.265000", "104533.875000", "104535.665000", "104534.072500", "104535.862500", "104534.272500", "104536.062500", "104534.470000", "104536.260000", "104533.675000", "104535.465000", "104532.880000", "104534.670000", "104533.077500", "104534.867500", "104533.277500", "104535.067500", "104533.475000", "104535.265000", "104533.875000", "104535.665000", "104534.072500", "104535.862500", "104534.272500", "104536.062500", "104534.470000", "104536.260000", "104533.675000", "104535.465000", "104532.880000", "104534.670000", "104533.077500", "104534.867500", "104533.277500", "104535.067500", "104533.475000", "104535.265000", "104533.875000", "104535.665000", "104534.072500", "104535.862500", "104534.272500", "104536.062500", "104534.470000", "104536.260000", "104533.675000", "104535.465000", "104532.880000", "104534.670000", "104533.077500", "104534.867500", "104533.277500", "104535.067500", "104533.475000", "104535.265000", "104533.875000", "104535.665000", "104534.072500", "104535.862500", "104534.272500", "104536.062500", "104534.470000", "104536.260000", "104533.675000", "104539.065000", "104536.480000", "104538.270000", "104536.677500", "104538.467500", "104536.877500", "104538.667500", "104537.075000", "104538.865000", "104537.475000", "104539.265000", "104537.672500", "104539.462500", "104537.872500", "104539.662500", "104538.070000", "104539.860000", "104537.275000", "104539.065000", "104536.480000", "104538.270000", "104536.677500", "104538.467500", "104536.877500", "104538.667500", "104537.075000", "104538.865000", "104537.475000", "104539.265000", "104537.672500", "104539.462500", "104537.872500", "104539.662500", "104538.070000", "104539.860000", "104537.275000", "104539.065000", "104536.480000", "104538.270000", "104536.677500", "104538.467500", "104536.877500", "104538.667500", "104537.075000", "104538.865000", "104537.475000", "104539.265000", "104537.672500", "104539.462500", "104537.872500", "104539.662500", "104538.070000", "104539.860000", "104537.275000", "104539.065000", "104536.480000", "104538.270000", "104536.677500", "104538.467500", "104536.877500", "104538.667500", "104537.075000", "104538.865000", "104537.475000", "104539.265000", "104537.672500", "104539.462500", "104537.872500", "104539.662500", "104538.070000", "104539.860000", "104537.275000", "104542.665000", "104540.080000", "104541.870000", "104540.277500", "104542.067500", "104540.477500", "104542.267500", "104540.675000", "104542.465000", "104541.075000", "104542.865000", "104541.272500", "104543.062500", "104541.472500", "104543.262500", "104541.670000", "104543.460000", "104540.875000", "104542.665000", "104540.080000", "104541.870000", "104540.277500", "104542.067500", "104540.477500", "104542.267500", "104540.675000", "104542.465000", "104541.075000", "104542.865000", "104541.272500", "104543.062500", "104541.472500", "104543.262500", "104541.670000", "104543.460000", "104540.875000", "104542.665000", "104540.080000", "104541.870000", "104540.277500", "104542.067500", "104540.477500", "104542.267500", "104540.675000", "104542.465000", "104541.075000", "104542.865000", "104541.272500", "104543.062500", "104541.472500", "104543.262500", "104541.670000", "104543.460000", "104540.875000", "104542.665000", "104540.080000", "104541.870000", "104540.277500", "104542.067500", "104540.477500", "104542.267500", "104540.675000", "104542.465000", "104541.075000", "104542.865000", "104541.272500", "104543.062500", "104541.472500", "104543.262500", "104541.670000", "104543.460000", "104540.875000", "104546.265000", "104543.680000", "104545.470000", "104543.877500", "104545.667500", "104544.077500", "104545.867500", "104544.275000", "104546.065000", "104544.675000", "104546.465000", "104544.872500", "104546.662500", "104545.072500", "104546.862500", "104545.270000", "104547.060000", "104544.475000", "104546.265000", "104543.680000", "104545.470000", "104543.877500", "104545.667500", "104544.077500", "104545.867500", "104544.275000", "104546.065000", "104544.675000", "104546.465000", "104544.872500", "104546.662500", "104545.072500", "104546.862500", "104545.270000", "104547.060000", "104544.475000", "104546.265000", "104543.680000", "104545.470000", "104543.877500", "104545.667500", "104544.077500", "104545.867500", "104544.275000", "104546.065000", "104544.675000", "104546.465000", "104544.872500", "104546.662500", "104545.072500", "104546.862500", "104545.270000", "104547.060000", "104544.475000", "104546.265000", "104543.680000", "104545.470000", "104543.877500", "104545.667500", "104544.077500", "104545.867500", "104544.275000", "104546.065000", "104544.675000", "104546.465000", "104544.872500", "104546.662500", "104545.072500", "104546.862500", "104545.270000", "104547.060000", "104544.475000", "104549.865000", "104547.280000", "104549.070000", "104547.477500", "104549.267500", "104547.677500", "104549.467500", "104547.875000", "104549.665000", "104548.275000", "104550.065000", "104548.472500", "104550.262500", "104548.672500", "104550.462500", "104548.870000", "104550.660000", "104548.075000", "104549.865000", "104547.280000", "104549.070000", "104547.477500", "104549.267500", "104547.677500", "104549.467500", "104547.875000", "104549.665000", "104548.275000", "104550.065000", "104548.472500", "104550.262500", "104548.672500", "104550.462500", "104548.870000", "104550.660000", "104548.075000", "104549.865000", "104547.280000", "104549.070000", "104547.477500", "104549.267500", "104547.677500", "104549.467500", "104547.875000", "104549.665000", "104548.275000", "104550.065000", "104548.472500", "104550.262500", "104548.672500", "104550.462500", "104548.870000", "104550.660000", "104548.075000", "104549.865000", "104547.280000", "104549.070000", "104547.477500", "104549.267500", "104547.677500", "104549.467500", "104547.875000", "104549.665000", "104548.275000", "104550.065000", "104548.472500", "10