{
  "AcquisitionMatrixPE": 80,
  "AcquisitionNumber": 1,
  "AcquisitionTime": "09:23:48.475000",
  "BandwidthPerPixelPhaseEncode": 25,
  "BaseResolution": 80,
  "BodyPartExamined": "BRAIN",
  "CoilCombinationMethod": "Sum of Squares",
  "ConsistencyInfo": "N4_VE11E_LATEST_20181129",
  "ConversionSoftware": "dcm2niix",
  "ConversionSoftwareVersion": "v1.0.20220720",
  "DerivedVendorReportedEchoSpacing": 0.0005,
  "DeviceSerialNumber": "66112",
  "DwellTime": 2.7e-06,
  "EchoTime": 0.03,
  "EchoTrainLength": 80,
  "EffectiveEchoSpacing": 0.0005,
  "FlipAngle": 10,
  "HeudiconvVersion": "0.13.1",
  "ImageOrientationPatientDICOM": [0.983804, 0.172422, 0.0489823, -0.179142, 0.936571, 0.301235],
  "ImageOrientationText": "Tra>Cor(17.8)>Sag(-0.3)",
  "ImageType": [
    "ORIGINAL",
    "PRIMARY",
    "M",
    "ND",
    "NORM",
    "MOSAIC"
],
  "ImagingFrequency": 123.259,
  "InPlanePhaseEncodingDirectionDICOM": "COL",
  "InstitutionAddress": "Maynard 3,Hanover,NH,US,03755",
  "InstitutionName": "Dartmouth College - PBS",
  "InstitutionalDepartmentName": "Department",
  "MRAcquisitionType": "2D",
  "MagneticFieldStrength": 3,
  "Manufacturer": "Siemens",
  "ManufacturersModelName": "Prisma",
  "MatrixCoilMode": "SENSE",
  "Modality": "MR",
  "NonlinearGradientCorrection": false,
  "PartialFourier": 1,
  "PatientPosition": "HFS",
  "PercentPhaseFOV": 100,
  "PercentSampling": 100,
  "PhaseEncodingDirection": "j-",
  "PhaseEncodingSteps": 80,
  "PhaseResolution": 1,
  "PixelBandwidth": 2315,
  "ProcedureStepDescription": "dbic^QA",
  "ProtocolName": "func-bold_fa-10",
  "PulseSequenceDetails": "%SiemensSeq%\\ep2d_bold",
  "ReceiveCoilActiveElements": "HEA;HEP",
  "ReceiveCoilName": "Head_32",
  "ReconMatrixPE": 80,
  "RepetitionTime": 2,
  "SAR": 0.00989762,
  "ScanOptions": "FS",
  "ScanningSequence": "EP",
  "SequenceName": "*epfid2d1_80",
  "SequenceVariant": "SK",
  "SeriesDescription": "func-bold_fa-10",
  "SeriesNumber": 8,
  "ShimSetting": [4216, -7747, -7510, -57, -146, -39, 36, 72],
  "SliceThickness": 3.5,
  "SliceTiming": [0.99, 0, 1.055, 0.065, 1.1225, 0.1325, 1.1875, 0.1975, 1.2525, 0.2625, 1.32, 0.33, 1.385, 0.395, 1.4525, 0.4625, 1.5175, 0.5275, 1.5825, 0.5925, 1.65, 0.66, 1.715, 0.725, 1.7825, 0.7925, 1.8475, 0.8575, 1.9125, 0.9225],
  "SoftwareVersions": "syngo MR E11",
  "SpacingBetweenSlices": 3.99,
  "StationName": "AWP66112",
  "TotalReadoutTime": 0.0395,
  "TxRefAmp": 226.095,
  "dcmmeta_affine": [
    [-2.95141339302063, -0.5374270081520081, -0.02419632486999035, 141.13211059570312],
    [-0.5172672271728516, 2.80971360206604, 1.2174729108810425, -105.02520751953125],
    [0.14694689214229584, -0.9037047624588013, 3.7996413707733154, -18.281553268432617],
    [0.0, 0.0, 0.0, 1.0]
],
  "dcmmeta_reorient_transform": [
    [0.0, -1.0, 0.0, 79.0],
    [1.0, 0.0, 0.0, 0.0],
    [0.0, 0.0, 1.0, 0.0],
    [0.0, 0.0, 0.0, 1.0]
],
  "dcmmeta_shape": [80, 80, 30, 200],
  "dcmmeta_slice_dim": 2,
  "dcmmeta_version": 0.6,
  "global": {
    "const": {
      "AccessionNumber": "qa",
      "AcquisitionMatrix": [80, 0, 0, 80],
      "AngioFlag": "N",
      "BitsAllocated": 16,
      "BitsStored": 12,
      "BodyPartExamined": "BRAIN",
      "Columns": 480,
      "EchoNumbers": 1,
      "EchoTime": 30.0,
      "EchoTrainLength": 80,
      "FlipAngle": 10.0,
      "HighBit": 11,
      "ImageOrientationPatient": [0.98380447677155, 0.17242240591153, 0.04898229704641, -0.1791423357436, 0.93657116614963, 0.30123491544219],
      "ImagePositionPatient": [-581.4726630375, -782.33830218189, -299.80455583359],
      "ImageType": [
        "ORIGINAL",
        "PRIMARY",
        "M",
        "ND",
        "NORM",
        "MOSAIC"
],
      "ImagedNucleus": "1H",
      "ImagingFrequency": 123.259149,
      "InPlanePhaseEncodingDirection": "COL",
      "MRAcquisitionType": "2D",
      "MagneticFieldStrength": 3.0,
      "Manufacturer": "SIEMENS",
      "ManufacturerModelName": "Prisma",
      "Modality": "MR",
      "NumberOfAverages": 1.0,
      "NumberOfPhaseEncodingSteps": 80,
      "PercentPhaseFieldOfView": 100.0,
      "PercentSampling": 100.0,
      "PerformedProcedureStepStartTime": "090116.891000",
      "PhotometricInterpretation": "MONOCHROME2",
      "PixelBandwidth": 2315.0,
      "PixelRepresentation": 0,
      "PixelSpacing": [3.0, 3.0],
      "ProtocolName": "func-bold_fa-10",
      "RepetitionTime": 2000.0,
      "Rows": 480,
      "SAR": 0.00989762255508,
      "SamplesPerPixel": 1,
      "ScanOptions": "FS",
      "ScanningSequence": "EP",
      "SequenceName": "*epfid2d1_80",
      "SequenceVariant": "SK",
      "SeriesDescription": "func-bold_fa-10",
      "SeriesNumber": 8,
      "SeriesTime": "092447.592000",
      "SliceLocation": -50.311672099987,
      "SliceThickness": 3.5,
      "SmallestImagePixelValue": 0,
      "SoftwareVersions": "syngo MR E11",
      "SpacingBetweenSlices": 3.989999988929,
      "SpecificCharacterSet": "ISO_IR 100",
      "StudyID": "1",
      "StudyTime": "090116.816000",
      "TransmitCoilName": "Body",
      "VariableFlipAngleFlag": "N",
      "WindowCenterWidthExplanation": "Algo1"
    },
    "slices": {}
  },
  "time": {
    "samples": {
      "AcquisitionNumber": [1, 2, 3, 4, 5, 6, 7, 8, 9, 10, 11, 12, 13, 14, 15, 16, 17, 18, 19, 20, 21, 22, 23, 24, 25, 26, 27, 28, 29, 30, 31, 32, 33, 34, 35, 36, 37, 38, 39, 40, 41, 42, 43, 44, 45, 46, 47, 48, 49, 50, 51, 52, 53, 54, 55, 56, 57, 58, 59, 60, 61, 62, 63, 64, 65, 66, 67, 68, 69, 70, 71, 72, 73, 74, 75, 76, 77, 78, 79, 80, 81, 82, 83, 84, 85, 86, 87, 88, 89, 90, 91, 92, 93, 94, 95, 96, 97, 98, 99, 100, 101, 102, 103, 104, 105, 106, 107, 108, 109, 110, 111, 112, 113, 114, 115, 116, 117, 118, 119, 120, 121, 122, 123, 124, 125, 126, 127, 128, 129, 130, 131, 132, 133, 134, 135, 136, 137, 138, 139, 140, 141, 142, 143, 144, 145, 146, 147, 148, 149, 150, 151, 152, 153, 154, 155, 156, 157, 158, 159, 160, 161, 162, 163, 164, 165, 166, 167, 168, 169, 170, 171, 172, 173, 174, 175, 176, 177, 178, 179, 180, 181, 182, 183, 184, 185, 186, 187, 188, 189, 190, 191, 192, 193, 194, 195, 196, 197, 198, 199, 200],
      "AcquisitionTime": ["092348.475000", "092350.475000", "092352.475000", "092354.475000", "092356.475000", "092358.475000", "092400.475000", "092402.475000", "092404.475000", "092406.475000", "092408.475000", "092410.475000", "092412.475000", "092414.475000", "092416.475000", "092418.475000", "092420.475000", "092422.475000", "092424.475000", "092426.475000", "092428.475000", "092430.475000", "092432.475000", "092434.475000", "092436.475000", "092438.475000", "092440.475000", "092442.475000", "092444.475000", "092446.475000", "092448.475000", "092450.475000", "092452.475000", "092454.475000", "092456.475000", "092458.475000", "092500.475000", "092502.475000", "092504.475000", "092506.475000", "092508.475000", "092510.475000", "092512.475000", "092514.475000", "092516.475000", "092518.475000", "092520.475000", "092522.475000", "092524.475000", "092526.475000", "092528.475000", "092530.475000", "092532.475000", "092534.475000", "092536.475000", "092538.475000", "092540.475000", "092542.475000", "092544.475000", "092546.475000", "092548.475000", "092550.475000", "092552.475000", "092554.475000", "092556.475000", "092558.475000", "092600.475000", "092602.475000", "092604.475000", "092606.475000", "092608.475000", "092610.475000", "092612.475000", "092614.475000", "092616.475000", "092618.475000", "092620.475000", "092622.475000", "092624.475000", "092626.475000", "092628.475000", "092630.475000", "092632.475000", "092634.475000", "092636.475000", "092638.475000", "092640.475000", "092642.475000", "092644.475000", "092646.475000", "092648.475000", "092650.475000", "092652.475000", "092654.475000", "092656.475000", "092658.475000", "092700.475000", "092702.475000", "092704.475000", "092706.475000", "092708.475000", "092710.475000", "092712.475000", "092714.475000", "092716.475000", "092718.475000", "092720.475000", "092722.475000", "092724.475000", "092726.475000", "092728.475000", "092730.475000", "092732.475000", "092734.475000", "092736.475000", "092738.475000", "092740.475000", "092742.475000", "092744.475000", "092746.475000", "092748.475000", "092750.475000", "092752.475000", "092754.475000", "092756.475000", "092758.475000", "092800.475000", "092802.475000", "092804.475000", "092806.475000", "092808.475000", "092810.475000", "092812.475000", "092814.475000", "092816.475000", "092818.475000", "092820.475000", "092822.475000", "092824.475000", "092826.475000", "092828.475000", "092830.475000", "092832.475000", "092834.475000", "092836.475000", "092838.475000", "092840.475000", "092842.475000", "092844.475000", "092846.475000", "092848.475000", "092850.475000", "092852.475000", "092854.475000", "092856.475000", "092858.475000", "092900.475000", "092902.475000", "092904.475000", "092906.475000", "092908.475000", "092910.475000", "092912.475000", "092914.475000", "092916.475000", "092918.475000", "092920.475000", "092922.475000", "092924.475000", "092926.475000", "092928.475000", "092930.475000", "092932.475000", "092934.475000", "092936.475000", "092938.475000", "092940.475000", "092942.475000", "092944.475000", "092946.475000", "092948.475000", "092950.475000", "092952.475000", "092954.475000", "092956.475000", "092958.475000", "093000.475000", "093002.475000", "093004.475000", "093006.475000", "093008.475000", "093010.475000", "093012.475000", "093014.475000", "093016.475000", "093018.475000", "093020.475000", "093022.475000", "093024.475000", "093026.475000"],
      "ContentTime": ["092447.595000", "092447.598000", "092447.601000", "092447.603000", "092447.605000", "092447.608000", "092447.610000", "092447.612000", "092447.614000", "092447.617000", "092447.619000", "092447.621000", "092447.623000", "092447.626000", "092447.628000", "092447.630000", "092447.633000", "092447.640000", "092447.642000", "092447.644000", "092447.647000", "092447.649000", "092447.651000", "092447.659000", "092447.661000", "092447.663000", "092447.666000", "092447.668000", "092447.670000", "092527.590000", "092527.593000", "092527.595000", "092527.597000", "092527.600000", "092527.602000", "092527.604000", "092527.606000", "092527.609000", "092527.611000", "092527.613000", "092527.615000", "092527.618000", "092527.620000", "092527.622000", "092527.625000", "092527.627000", "092527.629000", "092527.637000", "092527.639000", "092607.590000", "092607.593000", "092607.595000", "092607.597000", "092607.600000", "092607.602000", "092607.604000", "092607.606000", "092607.609000", "092607.611000", "092607.613000", "092607.616000", "092607.618000", "092607.620000", "092607.622000", "092607.625000", "092607.627000", "092607.629000", "092607.632000", "092607.634000", "092647.589000", "092647.592000", "092647.594000", "092647.596000", "092647.599000", "092647.608000", "092647.610000", "092647.612000", "092647.614000", "092647.617000", "092647.619000", "092647.621000", "092647.624000", "092647.626000", "092647.628000", "092647.631000", "092647.633000", "092647.635000", "092647.638000", "092647.640000", "092727.590000", "092727.593000", "092727.595000", "092727.597000", "092727.600000", "092727.602000", "092727.604000", "092727.606000", "092727.609000", "092727.611000", "092727.613000", "092727.616000", "092727.618000", "092727.620000", "092727.623000", "092727.625000", "092727.627000", "092727.630000", "092727.632000", "092727.634000", "092807.590000", "092807.593000", "092807.595000", "092807.597000", "092807.600000", "092807.602000", "092807.604000", "092807.607000", "092807.609000", "092807.611000", "092807.614000", "092807.616000", "092807.618000", "092807.621000", "092807.623000", "092807.625000", "092807.627000", "092807.630000", "092807.632000", "092807.634000", "092847.590000", "092847.593000", "092847.595000", "092847.597000", "092847.600000", "092847.602000", "092847.604000", "092847.607000", "092847.616000", "092847.618000", "092847.621000", "092847.623000", "092847.625000", "092847.627000", "092847.630000", "092847.632000", "092847.634000", "092847.637000", "092847.639000", "092847.641000", "092927.590000", "092927.593000", "092927.595000", "092927.597000", "092927.600000", "092927.602000", "092927.604000", "092927.607000", "092927.609000", "092927.611000", "092927.614000", "092927.616000", "092927.618000", "092927.621000", "092927.623000", "092927.625000", "092927.628000", "092927.630000", "092927.632000", "092927.634000", "093007.590000", "093007.593000", "093007.595000", "093007.597000", "093007.600000", "093007.602000", "093007.604000", "093007.607000", "093007.609000", "093007.611000", "093007.613000", "093007.616000", "093007.618000", "093007.620000", "093007.622000", "093007.625000", "093007.627000", "093007.629000", "093007.632000", "093007.634000", "093027.750000", "093027.753000", "093027.755000", "093027.758000", "093027.760000", "093027.762000", "093027.764000", "093027.767000", "093027.769000", "093027.771000", "093027.774000"],
      "InstanceCreationTime": ["092447.595000", "092447.598000", "092447.601000", "092447.603000", "092447.605000", "092447.608000", "092447.610000", "092447.612000", "092447.614000", "092447.617000", "092447.619000", "092447.621000", "092447.623000", "092447.626000", "092447.628000", "092447.630000", "092447.633000", "092447.640000", "092447.642000", "092447.644000", "092447.647000", "092447.649000", "092447.651000", "092447.659000", "092447.661000", "092447.663000", "092447.666000", "092447.668000", "092447.670000", "092527.590000", "092527.593000", "092527.595000", "092527.597000", "092527.600000", "092527.602000", "092527.604000", "092527.606000", "092527.609000", "092527.611000", "092527.613000", "092527.615000", "092527.618000", "092527.620000", "092527.622000", "092527.625000", "092527.627000", "092527.629000", "092527.637000", "092527.639000", "092607.590000", "092607.593000", "092607.595000", "092607.597000", "092607.600000", "092607.602000", "092607.604000", "092607.606000", "092607.609000", "092607.611000", "092607.613000", "092607.616000", "092607.618000", "092607.620000", "092607.622000", "092607.625000", "092607.627000", "092607.629000", "092607.632000", "092607.634000", "092647.589000", "092647.592000", "092647.594000", "092647.596000", "092647.599000", "092647.608000", "092647.610000", "092647.612000", "092647.614000", "092647.617000", "092647.619000", "092647.621000", "092647.624000", "092647.626000", "092647.628000", "092647.631000", "092647.633000", "092647.635000", "092647.638000", "092647.640000", "092727.590000", "092727.593000", "092727.595000", "092727.597000", "092727.600000", "092727.602000", "092727.604000", "092727.606000", "092727.609000", "092727.611000", "092727.613000", "092727.616000", "092727.618000", "092727.620000", "092727.623000", "092727.625000", "092727.627000", "092727.630000", "092727.632000", "092727.634000", "092807.590000", "092807.593000", "092807.595000", "092807.597000", "092807.600000", "092807.602000", "092807.604000", "092807.607000", "092807.609000", "092807.611000", "092807.614000", "092807.616000", "092807.618000", "092807.621000", "092807.623000", "092807.625000", "092807.627000", "092807.630000", "092807.632000", "092807.634000", "092847.590000", "092847.593000", "092847.595000", "092847.597000", "092847.600000", "092847.602000", "092847.604000", "092847.607000", "092847.616000", "092847.618000", "092847.621000", "092847.623000", "092847.625000", "092847.627000", "092847.630000", "092847.632000", "092847.634000", "092847.637000", "092847.639000", "092847.641000", "092927.590000", "092927.593000", "092927.595000", "092927.597000", "092927.600000", "092927.602000", "092927.604000", "092927.607000", "092927.609000", "092927.611000", "092927.614000", "092927.616000", "092927.618000", "092927.621000", "092927.623000", "092927.625000", "092927.628000", "092927.630000", "092927.632000", "092927.634000", "093007.590000", "093007.593000", "093007.595000", "093007.597000", "093007.600000", "093007.602000", "093007.604000", "093007.607000", "093007.609000", "093007.611000", "093007.613000", "093007.616000", "093007.618000", "093007.620000", "093007.622000", "093007.625000", "093007.627000", "093007.629000", "093007.632000", "093007.634000", "093027.750000", "093027.753000", "093027.755000", "093027.758000", "093027.760000", "093027.762000", "093027.764000", "093027.767000", "093027.769000", "093027.771000", "093027.774000"],
      "InstanceNumber": [1, 2, 3, 4, 5, 6, 7, 8, 9, 10, 11, 12, 13, 14, 15, 16, 17, 18, 19, 20, 21, 22, 23, 24, 25, 26, 27, 28, 29, 30, 31, 32, 33, 34, 35, 36, 37, 38, 39, 40, 41, 42, 43, 44, 45, 46, 47, 48, 49, 50, 51, 52, 53, 54, 55, 56, 57, 58, 59, 60, 61, 62, 63, 64, 65, 66, 67, 68, 69, 70, 71, 72, 73, 74, 75, 76, 77, 78, 79, 80, 81, 82, 83, 84, 85, 86, 87, 88, 89, 90, 91, 92, 93, 94, 95, 96, 97, 98, 99, 100, 101, 102, 103, 104, 105, 106, 107, 108, 109, 110, 111, 112, 113, 114, 115, 116, 117, 118, 119, 120, 121, 122, 123, 124, 125, 126, 127, 128, 129, 130, 131, 132, 133, 134, 135, 136, 137, 138, 139, 140, 141, 142, 143, 144, 145, 146, 147, 148, 149, 150, 151, 152, 153, 154, 155, 156, 157, 158, 159, 160, 161, 162, 163, 164, 165, 166, 167, 168, 169, 170, 171, 172, 173, 174, 175, 176, 177, 178, 179, 180, 181, 182, 183, 184, 185, 186, 187, 188, 189, 190, 191, 192, 193, 194, 195, 196, 197, 198, 199, 200],
      "LargestImagePixelValue": [433, 433, 431, 433, 433, 432, 434, 434, 434, 434, 433, 432, 433, 433, 434, 432, 434, 432, 431, 432, 433, 433, 431, 431, 432, 432, 431, 433, 435, 433, 432, 431, 433, 433, 432, 434, 434, 432, 432, 431, 433, 433, 435, 433, 432, 432, 433, 433, 432, 432, 434, 433, 433, 431, 431, 431, 432, 431, 432, 432, 430, 431, 432, 433, 433, 432, 431, 432, 432, 434, 433, 432, 434, 431, 435, 432, 432, 432, 432, 432, 431, 432, 431, 432, 432, 432, 432, 433, 431, 432, 434, 432, 432, 432, 432, 432, 432, 432, 431, 432, 432, 432, 432, 433, 433, 433, 432, 431, 431, 432, 430, 433, 433, 433, 431, 431, 434, 433, 432, 431, 431, 432, 432, 433, 434, 431, 432, 433, 433, 430, 432, 434, 431, 431, 433, 431, 433, 432, 431, 432, 432, 430, 432, 433, 432, 433, 432, 431, 432, 432, 432, 430, 431, 432, 432, 432, 432, 431, 434, 433, 431, 432, 431, 433, 432, 431, 430, 429, 431, 432, 433, 431, 433, 431, 430, 432, 431, 431, 432, 432, 430, 431, 430, 433, 431, 430, 432, 431, 433, 430, 431, 431, 432, 431, 431, 431, 431, 432, 432, 433],
      "WindowCenter": [334.0, 334.0, 335.0, 334.0, 334.0, 334.0, 334.0, 334.0, 334.0, 334.0, 334.0, 334.0, 334.0, 334.0, 334.0, 334.0, 334.0, 334.0, 334.0, 334.0, 334.0, 333.0, 334.0, 333.0, 333.0, 334.0, 333.0, 334.0, 334.0, 334.0, 334.0, 334.0, 334.0, 334.0, 333.0, 334.0, 334.0, 334.0, 334.0, 333.0, 333.0, 333.0, 333.0, 334.0, 334.0, 335.0, 333.0, 334.0, 333.0, 334.0, 334.0, 334.0, 334.0, 333.0, 334.0, 333.0, 334.0, 334.0, 333.0, 333.0, 333.0, 333.0, 333.0, 333.0, 333.0, 334.0, 334.0, 333.0, 333.0, 333.0, 333.0, 334.0, 333.0, 333.0, 334.0, 333.0, 333.0, 334.0, 333.0, 333.0, 334.0, 334.0, 334.0, 334.0, 333.0, 334.0, 334.0, 333.0, 334.0, 333.0, 334.0, 334.0, 333.0, 333.0, 333.0, 334.0, 333.0, 333.0, 334.0, 333.0, 333.0, 333.0, 333.0, 334.0, 334.0, 333.0, 334.0, 334.0, 333.0, 334.0, 333.0, 334.0, 333.0, 333.0, 333.0, 333.0, 333.0, 333.0, 334.0, 334.0, 334.0, 333.0, 333.0, 333.0, 334.0, 334.0, 334.0, 334.0, 334.0, 333.0, 334.0, 334.0, 334.0, 334.0, 333.0, 333.0, 334.0, 333.0, 333.0, 333.0, 334.0, 334.0, 334.0, 333.0, 333.0, 334.0, 333.0, 333.0, 333.0, 334.0, 333.0, 334.0, 333.0, 334.0, 333.0, 333.0, 333.0, 334.0, 334.0, 333.0, 334.0, 333.0, 333.0, 333.0, 333.0, 333.0, 333.0, 333.0, 333.0, 333.0, 333.0, 333.0, 333.0, 333.0, 334.0, 333.0, 333.0, 334.0, 333.0, 333.0, 333.0, 333.0, 332.0, 333.0, 333.0, 333.0, 333.0, 333.0, 333.0, 332.0, 333.0, 333.0, 334.0, 333.0, 333.0, 332.0, 332.0, 332.0, 334.0, 334.0],
      "WindowWidth": [715.0, 714.0, 715.0, 715.0, 714.0, 713.0, 714.0, 713.0, 714.0, 714.0, 714.0, 714.0, 713.0, 714.0, 713.0, 714.0, 714.0, 714.0, 714.0, 714.0, 713.0, 713.0, 714.0, 713.0, 713.0, 714.0, 713.0, 714.0, 714.0, 714.0, 714.0, 715.0, 714.0, 713.0, 712.0, 713.0, 714.0, 714.0, 714.0, 713.0, 713.0, 713.0, 712.0, 713.0, 713.0, 715.0, 713.0, 713.0, 713.0, 714.0, 713.0, 714.0, 714.0, 713.0, 713.0, 713.0, 714.0, 714.0, 713.0, 713.0, 713.0, 713.0, 713.0, 713.0, 713.0, 713.0, 713.0, 712.0, 713.0, 713.0, 713.0, 714.0, 713.0, 713.0, 713.0, 713.0, 712.0, 713.0, 713.0, 712.0, 713.0, 713.0, 713.0, 713.0, 713.0, 713.0, 713.0, 712.0, 713.0, 712.0, 713.0, 714.0, 713.0, 712.0, 712.0, 713.0, 712.0, 712.0, 713.0, 713.0, 713.0, 713.0, 713.0, 713.0, 713.0, 712.0, 713.0, 713.0, 712.0, 713.0, 713.0, 713.0, 713.0, 713.0, 713.0, 713.0, 713.0, 712.0, 713.0, 713.0, 713.0, 713.0, 712.0, 712.0, 713.0, 713.0, 713.0, 713.0, 713.0, 712.0, 713.0, 713.0, 713.0, 713.0, 712.0, 712.0, 713.0, 713.0, 713.0, 712.0, 713.0, 713.0, 713.0, 713.0, 713.0, 713.0, 712.0, 713.0, 712.0, 713.0, 712.0, 713.0, 713.0, 713.0, 712.0, 712.0, 713.0, 713.0, 713.0, 713.0, 713.0, 712.0, 712.0, 712.0, 713.0, 712.0, 713.0, 712.0, 712.0, 712.0, 712.0, 712.0, 712.0, 712.0, 713.0, 713.0, 713.0, 713.0, 713.0, 712.0, 712.0, 712.0, 711.0, 712.0, 712.0, 712.0, 712.0, 712.0, 712.0, 711.0, 712.0, 712.0, 713.0, 712.0, 712.0, 711.0, 711.0, 711.0, 713.0, 713.0]
    },
    "slices": {}
  }
}