{
  "AcquisitionMatrixPE": 80,
  "AcquisitionNumber": 1,
  "AcquisitionTime": "09:17:1.435000",
  "BandwidthPerPixelPhaseEncode": 25,
  "BaseResolution": 80,
  "BodyPartExamined": "BRAIN",
  "CoilCombinationMethod": "Sum of Squares",
  "ConsistencyInfo": "N4_VE11E_LATEST_20181129",
  "ConversionSoftware": "dcm2niix",
  "ConversionSoftwareVersion": "v1.0.20220720",
  "DerivedVendorReportedEchoSpacing": 0.0005,
  "DeviceSerialNumber": "66112",
  "DwellTime": 2.7e-06,
  "EchoTime": 0.03,
  "EchoTrainLength": 80,
  "EffectiveEchoSpacing": 0.0005,
  "FlipAngle": 77,
  "HeudiconvVersion": "0.13.1",
  "ImageOrientationPatientDICOM": [0.983804, 0.172422, 0.0489823, -0.179142, 0.936571, 0.301235],
  "ImageOrientationText": "Tra>Cor(17.8)>Sag(-0.3)",
  "ImageType": [
    "ORIGINAL",
    "PRIMARY",
    "M",
    "ND",
    "NORM",
    "MOSAIC"
],
  "ImagingFrequency": 123.259,
  "InPlanePhaseEncodingDirectionDICOM": "COL",
  "InstitutionAddress": "Maynard 3,Hanover,NH,US,03755",
  "InstitutionName": "Dartmouth College - PBS",
  "InstitutionalDepartmentName": "Department",
  "MRAcquisitionType": "2D",
  "MagneticFieldStrength": 3,
  "Manufacturer": "Siemens",
  "ManufacturersModelName": "Prisma",
  "MatrixCoilMode": "SENSE",
  "Modality": "MR",
  "NonlinearGradientCorrection": false,
  "PartialFourier": 1,
  "PatientPosition": "HFS",
  "PercentPhaseFOV": 100,
  "PercentSampling": 100,
  "PhaseEncodingDirection": "j-",
  "PhaseEncodingSteps": 80,
  "PhaseResolution": 1,
  "PixelBandwidth": 2315,
  "ProcedureStepDescription": "dbic^QA",
  "ProtocolName": "func-bold_fa-77",
  "PulseSequenceDetails": "%SiemensSeq%\\ep2d_bold",
  "ReceiveCoilActiveElements": "HEA;HEP",
  "ReceiveCoilName": "Head_32",
  "ReconMatrixPE": 80,
  "RepetitionTime": 2,
  "SAR": 0.0368971,
  "ScanOptions": "FS",
  "ScanningSequence": "EP",
  "SequenceName": "*epfid2d1_80",
  "SequenceVariant": "SK",
  "SeriesDescription": "func-bold_fa-77",
  "SeriesNumber": 7,
  "ShimSetting": [4216, -7747, -7510, -57, -146, -39, 36, 72],
  "SliceThickness": 3.5,
  "SliceTiming": [0.99, 0, 1.0575, 0.0675, 1.1225, 0.1325, 1.19, 0.2, 1.255, 0.265, 1.32, 0.33, 1.3875, 0.3975, 1.4525, 0.4625, 1.52, 0.53, 1.585, 0.595, 1.65, 0.66, 1.7175, 0.7275, 1.7825, 0.7925, 1.85, 0.86, 1.915, 0.925],
  "SoftwareVersions": "syngo MR E11",
  "SpacingBetweenSlices": 3.99,
  "StationName": "AWP66112",
  "TotalReadoutTime": 0.0395,
  "TxRefAmp": 226.095,
  "dcmmeta_affine": [
    [-2.95141339302063, -0.5374270081520081, -0.02419632486999035, 141.13211059570312],
    [-0.5172672271728516, 2.80971360206604, 1.2174729108810425, -105.02520751953125],
    [0.14694689214229584, -0.9037047624588013, 3.7996413707733154, -18.281553268432617],
    [0.0, 0.0, 0.0, 1.0]
],
  "dcmmeta_reorient_transform": [
    [0.0, -1.0, 0.0, 79.0],
    [1.0, 0.0, 0.0, 0.0],
    [0.0, 0.0, 1.0, 0.0],
    [0.0, 0.0, 0.0, 1.0]
],
  "dcmmeta_shape": [80, 80, 30, 200],
  "dcmmeta_slice_dim": 2,
  "dcmmeta_version": 0.6,
  "global": {
    "const": {
      "AccessionNumber": "qa",
      "AcquisitionMatrix": [80, 0, 0, 80],
      "AngioFlag": "N",
      "BitsAllocated": 16,
      "BitsStored": 12,
      "BodyPartExamined": "BRAIN",
      "Columns": 480,
      "EchoNumbers": 1,
      "EchoTime": 30.0,
      "EchoTrainLength": 80,
      "FlipAngle": 77.0,
      "HighBit": 11,
      "ImageOrientationPatient": [0.98380447677155, 0.17242240591153, 0.04898229704641, -0.1791423357436, 0.93657116614963, 0.30123491544219],
      "ImagePositionPatient": [-581.4726630375, -782.33830218189, -299.80455583359],
      "ImageType": [
        "ORIGINAL",
        "PRIMARY",
        "M",
        "ND",
        "NORM",
        "MOSAIC"
],
      "ImagedNucleus": "1H",
      "ImagingFrequency": 123.259148,
      "InPlanePhaseEncodingDirection": "COL",
      "MRAcquisitionType": "2D",
      "MagneticFieldStrength": 3.0,
      "Manufacturer": "SIEMENS",
      "ManufacturerModelName": "Prisma",
      "Modality": "MR",
      "NumberOfAverages": 1.0,
      "NumberOfPhaseEncodingSteps": 80,
      "PercentPhaseFieldOfView": 100.0,
      "PercentSampling": 100.0,
      "PerformedProcedureStepStartTime": "090116.891000",
      "PhotometricInterpretation": "MONOCHROME2",
      "PixelBandwidth": 2315.0,
      "PixelRepresentation": 0,
      "PixelSpacing": [3.0, 3.0],
      "ProtocolName": "func-bold_fa-77",
      "RepetitionTime": 2000.0,
      "Rows": 480,
      "SAR": 0.03689712947856,
      "SamplesPerPixel": 1,
      "ScanOptions": "FS",
      "ScanningSequence": "EP",
      "SequenceName": "*epfid2d1_80",
      "SequenceVariant": "SK",
      "SeriesDescription": "func-bold_fa-77",
      "SeriesNumber": 7,
      "SeriesTime": "091747.507000",
      "SliceLocation": -50.311672099987,
      "SliceThickness": 3.5,
      "SmallestImagePixelValue": 0,
      "SoftwareVersions": "syngo MR E11",
      "SpacingBetweenSlices": 3.989999988929,
      "SpecificCharacterSet": "ISO_IR 100",
      "StudyID": "1",
      "StudyTime": "090116.816000",
      "TransmitCoilName": "Body",
      "VariableFlipAngleFlag": "N",
      "WindowCenterWidthExplanation": "Algo1"
    },
    "slices": {}
  },
  "time": {
    "samples": {
      "AcquisitionNumber": [1, 2, 3, 4, 5, 6, 7, 8, 9, 10, 11, 12, 13, 14, 15, 16, 17, 18, 19, 20, 21, 22, 23, 24, 25, 26, 27, 28, 29, 30, 31, 32, 33, 34, 35, 36, 37, 38, 39, 40, 41, 42, 43, 44, 45, 46, 47, 48, 49, 50, 51, 52, 53, 54, 55, 56, 57, 58, 59, 60, 61, 62, 63, 64, 65, 66, 67, 68, 69, 70, 71, 72, 73, 74, 75, 76, 77, 78, 79, 80, 81, 82, 83, 84, 85, 86, 87, 88, 89, 90, 91, 92, 93, 94, 95, 96, 97, 98, 99, 100, 101, 102, 103, 104, 105, 106, 107, 108, 109, 110, 111, 112, 113, 114, 115, 116, 117, 118, 119, 120, 121, 122, 123, 124, 125, 126, 127, 128, 129, 130, 131, 132, 133, 134, 135, 136, 137, 138, 139, 140, 141, 142, 143, 144, 145, 146, 147, 148, 149, 150, 151, 152, 153, 154, 155, 156, 157, 158, 159, 160, 161, 162, 163, 164, 165, 166, 167, 168, 169, 170, 171, 172, 173, 174, 175, 176, 177, 178, 179, 180, 181, 182, 183, 184, 185, 186, 187, 188, 189, 190, 191, 192, 193, 194, 195, 196, 197, 198, 199, 200],
      "AcquisitionTime": ["091701.435000", "091703.435000", "091705.435000", "091707.435000", "091709.435000", "091711.435000", "091713.435000", "091715.435000", "091717.435000", "091719.435000", "091721.435000", "091723.435000", "091725.435000", "091727.435000", "091729.435000", "091731.435000", "091733.435000", "091735.435000", "091737.435000", "091739.435000", "091741.435000", "091743.435000", "091745.435000", "091747.435000", "091749.435000", "091751.435000", "091753.435000", "091755.435000", "091757.435000", "091759.435000", "091801.435000", "091803.435000", "091805.435000", "091807.435000", "091809.435000", "091811.435000", "091813.435000", "091815.435000", "091817.435000", "091819.435000", "091821.435000", "091823.435000", "091825.435000", "091827.435000", "091829.435000", "091831.435000", "091833.435000", "091835.435000", "091837.435000", "091839.435000", "091841.435000", "091843.435000", "091845.435000", "091847.435000", "091849.435000", "091851.435000", "091853.435000", "091855.435000", "091857.435000", "091859.435000", "091901.435000", "091903.435000", "091905.435000", "091907.435000", "091909.435000", "091911.435000", "091913.435000", "091915.435000", "091917.435000", "091919.435000", "091921.435000", "091923.435000", "091925.435000", "091927.435000", "091929.435000", "091931.435000", "091933.435000", "091935.435000", "091937.435000", "091939.435000", "091941.435000", "091943.435000", "091945.435000", "091947.435000", "091949.435000", "091951.435000", "091953.435000", "091955.435000", "091957.435000", "091959.435000", "092001.435000", "092003.435000", "092005.435000", "092007.435000", "092009.435000", "092011.435000", "092013.435000", "092015.435000", "092017.435000", "092019.435000", "092021.435000", "092023.435000", "092025.435000", "092027.435000", "092029.435000", "092031.435000", "092033.435000", "092035.435000", "092037.435000", "092039.435000", "092041.435000", "092043.435000", "092045.435000", "092047.435000", "092049.435000", "092051.435000", "092053.435000", "092055.435000", "092057.435000", "092059.435000", "092101.435000", "092103.435000", "092105.435000", "092107.435000", "092109.435000", "092111.435000", "092113.435000", "092115.435000", "092117.435000", "092119.435000", "092121.435000", "092123.435000", "092125.435000", "092127.435000", "092129.435000", "092131.435000", "092133.435000", "092135.435000", "092137.435000", "092139.435000", "092141.435000", "092143.435000", "092145.435000", "092147.435000", "092149.435000", "092151.435000", "092153.435000", "092155.435000", "092157.435000", "092159.435000", "092201.435000", "092203.435000", "092205.435000", "092207.435000", "092209.435000", "092211.435000", "092213.435000", "092215.435000", "092217.435000", "092219.435000", "092221.435000", "092223.435000", "092225.435000", "092227.435000", "092229.435000", "092231.435000", "092233.435000", "092235.435000", "092237.435000", "092239.435000", "092241.435000", "092243.435000", "092245.435000", "092247.435000", "092249.435000", "092251.435000", "092253.435000", "092255.435000", "092257.435000", "092259.435000", "092301.435000", "092303.435000", "092305.435000", "092307.435000", "092309.435000", "092311.435000", "092313.435000", "092315.435000", "092317.435000", "092319.435000", "092321.435000", "092323.435000", "092325.435000", "092327.435000", "092329.435000", "092331.435000", "092333.435000", "092335.435000", "092337.435000", "092339.435000"],
      "ContentTime": ["091747.510000", "091747.513000", "091747.515000", "091747.524000", "091747.526000", "091747.528000", "091747.530000", "091747.533000", "091747.535000", "091747.537000", "091747.540000", "091747.542000", "091747.544000", "091747.546000", "091747.549000", "091747.555000", "091747.558000", "091747.560000", "091747.562000", "091747.565000", "091747.567000", "091747.569000", "091747.572000", "091807.505000", "091807.508000", "091807.510000", "091807.512000", "091807.515000", "091807.517000", "091807.519000", "091807.521000", "091807.524000", "091807.526000", "091847.505000", "091847.508000", "091847.510000", "091847.512000", "091847.515000", "091847.517000", "091847.519000", "091847.522000", "091847.524000", "091847.526000", "091847.529000", "091847.531000", "091847.533000", "091847.536000", "091847.538000", "091847.540000", "091847.542000", "091847.545000", "091847.547000", "091847.549000", "091927.505000", "091927.507000", "091927.510000", "091927.512000", "091927.514000", "091927.517000", "091927.519000", "091927.521000", "091927.524000", "091927.526000", "091927.528000", "091927.530000", "091927.533000", "091927.535000", "091927.537000", "091927.540000", "091927.542000", "091927.544000", "091927.546000", "091927.549000", "092007.505000", "092007.508000", "092007.510000", "092007.512000", "092007.515000", "092007.517000", "092007.519000", "092007.522000", "092007.524000", "092007.526000", "092007.529000", "092007.531000", "092007.533000", "092007.536000", "092007.538000", "092007.540000", "092007.548000", "092007.551000", "092007.553000", "092007.555000", "092047.505000", "092047.508000", "092047.510000", "092047.512000", "092047.515000", "092047.517000", "092047.519000", "092047.521000", "092047.524000", "092047.526000", "092047.528000", "092047.530000", "092047.533000", "092047.535000", "092047.538000", "092047.540000", "092047.542000", "092047.544000", "092047.559000", "092047.561000", "092127.505000", "092127.508000", "092127.510000", "092127.513000", "092127.515000", "092127.517000", "092127.519000", "092127.522000", "092127.524000", "092127.526000", "092127.529000", "092127.531000", "092127.533000", "092127.535000", "092127.538000", "092127.540000", "092127.542000", "092127.545000", "092127.547000", "092127.549000", "092207.504000", "092207.507000", "092207.509000", "092207.511000", "092207.514000", "092207.516000", "092207.518000", "092207.521000", "092207.523000", "092207.525000", "092207.528000", "092207.530000", "092207.532000", "092207.535000", "092207.537000", "092207.540000", "092207.542000", "092207.544000", "092207.547000", "092207.549000", "092247.505000", "092247.508000", "092247.510000", "092247.512000", "092247.515000", "092247.517000", "092247.519000", "092247.526000", "092247.528000", "092247.531000", "092247.533000", "092247.535000", "092247.538000", "092247.540000", "092247.542000", "092247.544000", "092247.547000", "092247.549000", "092247.551000", "092247.554000", "092327.506000", "092327.508000", "092327.510000", "092327.513000", "092327.515000", "092327.517000", "092327.520000", "092327.522000", "092327.524000", "092327.527000", "092327.529000", "092327.531000", "092327.534000", "092327.536000", "092327.538000", "092327.540000", "092327.543000", "092327.545000", "092327.559000", "092327.562000", "092341.319000", "092341.321000", "092341.324000", "092341.326000", "092341.329000", "092341.331000", "092341.333000"],
      "InstanceCreationTime": ["091747.510000", "091747.513000", "091747.515000", "091747.524000", "091747.526000", "091747.528000", "091747.530000", "091747.533000", "091747.535000", "091747.537000", "091747.540000", "091747.542000", "091747.544000", "091747.546000", "091747.549000", "091747.555000", "091747.558000", "091747.560000", "091747.562000", "091747.565000", "091747.567000", "091747.569000", "091747.572000", "091807.505000", "091807.508000", "091807.510000", "091807.512000", "091807.515000", "091807.517000", "091807.519000", "091807.521000", "091807.524000", "091807.526000", "091847.505000", "091847.508000", "091847.510000", "091847.512000", "091847.515000", "091847.517000", "091847.519000", "091847.522000", "091847.524000", "091847.526000", "091847.529000", "091847.531000", "091847.533000", "091847.536000", "091847.538000", "091847.540000", "091847.542000", "091847.545000", "091847.547000", "091847.549000", "091927.505000", "091927.507000", "091927.510000", "091927.512000", "091927.514000", "091927.517000", "091927.519000", "091927.521000", "091927.524000", "091927.526000", "091927.528000", "091927.530000", "091927.533000", "091927.535000", "091927.537000", "091927.540000", "091927.542000", "091927.544000", "091927.546000", "091927.549000", "092007.505000", "092007.508000", "092007.510000", "092007.512000", "092007.515000", "092007.517000", "092007.519000", "092007.522000", "092007.524000", "092007.526000", "092007.529000", "092007.531000", "092007.533000", "092007.536000", "092007.538000", "092007.540000", "092007.548000", "092007.551000", "092007.553000", "092007.555000", "092047.505000", "092047.508000", "092047.510000", "092047.512000", "092047.515000", "092047.517000", "092047.519000", "092047.521000", "092047.524000", "092047.526000", "092047.528000", "092047.530000", "092047.533000", "092047.535000", "092047.538000", "092047.540000", "092047.542000", "092047.544000", "092047.559000", "092047.561000", "092127.505000", "092127.508000", "092127.510000", "092127.513000", "092127.515000", "092127.517000", "092127.519000", "092127.522000", "092127.524000", "092127.526000", "092127.529000", "092127.531000", "092127.533000", "092127.535000", "092127.538000", "092127.540000", "092127.542000", "092127.545000", "092127.547000", "092127.549000", "092207.504000", "092207.507000", "092207.509000", "092207.511000", "092207.514000", "092207.516000", "092207.518000", "092207.521000", "092207.523000", "092207.525000", "092207.528000", "092207.530000", "092207.532000", "092207.535000", "092207.537000", "092207.540000", "092207.542000", "092207.544000", "092207.547000", "092207.549000", "092247.505000", "092247.508000", "092247.510000", "092247.512000", "092247.515000", "092247.517000", "092247.519000", "092247.526000", "092247.528000", "092247.531000", "092247.533000", "092247.535000", "092247.538000", "092247.540000", "092247.542000", "092247.544000", "092247.547000", "092247.549000", "092247.551000", "092247.554000", "092327.506000", "092327.508000", "092327.510000", "092327.513000", "092327.515000", "092327.517000", "092327.520000", "092327.522000", "092327.524000", "092327.527000", "092327.529000", "092327.531000", "092327.534000", "092327.536000", "092327.538000", "092327.540000", "092327.543000", "092327.545000", "092327.559000", "092327.562000", "092341.319000", "092341.321000", "092341.324000", "092341.326000", "092341.329000", "092341.331000", "092341.333000"],
      "InstanceNumber": [1, 2, 3, 4, 5, 6, 7, 8, 9, 10, 11, 12, 13, 14, 15, 16, 17, 18, 19, 20, 21, 22, 23, 24, 25, 26, 27, 28, 29, 30, 31, 32, 33, 34, 35, 36, 37, 38, 39, 40, 41, 42, 43, 44, 45, 46, 47, 48, 49, 50, 51, 52, 53, 54, 55, 56, 57, 58, 59, 60, 61, 62, 63, 64, 65, 66, 67, 68, 69, 70, 71, 72, 73, 74, 75, 76, 77, 78, 79, 80, 81, 82, 83, 84, 85, 86, 87, 88, 89, 90, 91, 92, 93, 94, 95, 96, 97, 98, 99, 100, 101, 102, 103, 104, 105, 106, 107, 108, 109, 110, 111, 112, 113, 114, 115, 116, 117, 118, 119, 120, 121, 122, 123, 124, 125, 126, 127, 128, 129, 130, 131, 132, 133, 134, 135, 136, 137, 138, 139, 140, 141, 142, 143, 144, 145, 146, 147, 148, 149, 150, 151, 152, 153, 154, 155, 156, 157, 158, 159, 160, 161, 162, 163, 164, 165, 166, 167, 168, 169, 170, 171, 172, 173, 174, 175, 176, 177, 178, 179, 180, 181, 182, 183, 184, 185, 186, 187, 188, 189, 190, 191, 192, 193, 194, 195, 196, 197, 198, 199, 200],
      "LargestImagePixelValue": [2572, 2570, 2568, 2571, 2569, 2569, 2571, 2570, 2569, 2566, 2569, 2566, 2568, 2572, 2571, 2570, 2565, 2565, 2569, 2568, 2567, 2566, 2566, 2564, 2566, 2566, 2565, 2567, 2568, 2565, 2564, 2565, 2568, 2568, 2568, 2568, 2565, 2563, 2566, 2565, 2564, 2561, 2563, 2565, 2562, 2565, 2563, 2564, 2563, 2564, 2560, 2560, 2563, 2562, 2561, 2561, 2563, 2559, 2563, 2562, 2560, 2563, 2562, 2562, 2562, 2562, 2563, 2563, 2560, 2561, 2560, 2559, 2560, 2560, 2560, 2561, 2559, 2560, 2560, 2561, 2558, 2556, 2560, 2559, 2557, 2561, 2558, 2558, 2559, 2559, 2558, 2558, 2558, 2559, 2556, 2559, 2558, 2559, 2556, 2560, 2557, 2559, 2558, 2556, 2559, 2558, 2557, 2560, 2559, 2557, 2557, 2558, 2559, 2556, 2559, 2557, 2556, 2559, 2557, 2556, 2558, 2558, 2557, 2556, 2559, 2556, 2555, 2556, 2553, 2555, 2555, 2558, 2556, 2556, 2554, 2558, 2555, 2555, 2557, 2557, 2557, 2554, 2555, 2557, 2552, 2556, 2559, 2554, 2556, 2556, 2556, 2552, 2554, 2555, 2554, 2558, 2553, 2558, 2556, 2555, 2555, 2554, 2555, 2558, 2555, 2554, 2555, 2554, 2553, 2554, 2553, 2553, 2559, 2554, 2554, 2558, 2556, 2553, 2552, 2550, 2554, 2551, 2553, 2553, 2552, 2554, 2552, 2556, 2553, 2553, 2552, 2553, 2553, 2555, 2554, 2554, 2551, 2549, 2549, 2549],
      "WindowCenter": [1079.0, 1079.0, 1079.0, 1079.0, 1079.0, 1079.0, 1079.0, 1079.0, 1079.0, 1079.0, 1079.0, 1079.0, 1079.0, 1079.0, 1079.0, 1079.0, 1079.0, 1079.0, 1079.0, 1079.0, 1079.0, 1079.0, 1079.0, 1079.0, 1079.0, 1079.0, 1079.0, 1079.0, 1079.0, 1079.0, 1079.0, 1079.0, 1079.0, 1079.0, 1079.0, 1079.0, 1079.0, 1079.0, 1079.0, 1079.0, 1079.0, 1079.0, 1079.0, 1079.0, 1079.0, 1079.0, 1079.0, 1079.0, 1079.0, 1079.0, 1079.0, 1079.0, 1079.0, 1079.0, 1078.0, 1078.0, 1079.0, 1079.0, 1078.0, 1078.0, 1078.0, 1078.0, 1078.0, 1079.0, 1079.0, 1078.0, 1078.0, 1079.0, 1078.0, 1078.0, 1078.0, 1078.0, 1078.0, 1078.0, 1078.0, 1078.0, 1078.0, 1078.0, 1078.0, 1078.0, 1078.0, 1078.0, 1078.0, 1078.0, 1078.0, 1078.0, 1078.0, 1078.0, 1078.0, 1078.0, 1078.0, 1078.0, 1078.0, 1078.0, 1078.0, 1078.0, 1078.0, 1078.0, 1078.0, 1078.0, 1078.0, 1078.0, 1078.0, 1078.0, 1078.0, 1078.0, 1078.0, 1078.0, 1078.0, 1078.0, 1078.0, 1078.0, 1078.0, 1078.0, 1078.0, 1078.0, 1078.0, 1078.0, 1078.0, 1078.0, 1078.0, 1078.0, 1078.0, 1078.0, 1078.0, 1078.0, 1079.0, 1078.0, 1078.0, 1078.0, 1078.0, 1078.0, 1078.0, 1078.0, 1078.0, 1078.0, 1078.0, 1078.0, 1078.0, 1078.0, 1078.0, 1078.0, 1078.0, 1078.0, 1078.0, 1078.0, 1078.0, 1078.0, 1077.0, 1077.0, 1077.0, 1077.0, 1077.0, 1077.0, 1077.0, 1077.0, 1077.0, 1077.0, 1078.0, 1077.0, 1077.0, 1077.0, 1077.0, 1077.0, 1078.0, 1077.0, 1077.0, 1077.0, 1077.0, 1077.0, 1077.0, 1077.0, 1077.0, 1077.0, 1077.0, 1077.0, 1077.0, 1077.0, 1077.0, 1077.0, 1077.0, 1077.0, 1077.0, 1077.0, 1077.0, 1077.0, 1077.0, 1077.0, 1077.0, 1077.0, 1077.0, 1077.0, 1077.0, 1077.0, 1077.0, 1077.0, 1077.0, 1077.0, 1077.0, 1077.0],
      "WindowWidth": [2477.0, 2477.0, 2477.0, 2477.0, 2477.0, 2477.0, 2477.0, 2477.0, 2477.0, 2477.0, 2477.0, 2477.0, 2476.0, 2477.0, 2476.0, 2477.0, 2477.0, 2476.0, 2476.0, 2476.0, 2476.0, 2476.0, 2476.0, 2477.0, 2477.0, 2477.0, 2476.0, 2476.0, 2476.0, 2476.0, 2476.0, 2476.0, 2476.0, 2476.0, 2476.0, 2476.0, 2476.0, 2476.0, 2476.0, 2476.0, 2476.0, 2476.0, 2476.0, 2476.0, 2476.0, 2476.0, 2476.0, 2476.0, 2476.0, 2476.0, 2476.0, 2476.0, 2476.0, 2476.0, 2476.0, 2476.0, 2476.0, 2475.0, 2476.0, 2476.0, 2476.0, 2476.0, 2476.0, 2475.0, 2475.0, 2476.0, 2476.0, 2475.0, 2475.0, 2475.0, 2475.0, 2475.0, 2475.0, 2475.0, 2475.0, 2475.0, 2475.0, 2475.0, 2475.0, 2475.0, 2475.0, 2475.0, 2475.0, 2475.0, 2475.0, 2475.0, 2475.0, 2475.0, 2475.0, 2475.0, 2475.0, 2475.0, 2475.0, 2475.0, 2474.0, 2475.0, 2474.0, 2475.0, 2474.0, 2474.0, 2474.0, 2474.0, 2474.0, 2474.0, 2474.0, 2474.0, 2474.0, 2474.0, 2474.0, 2474.0, 2474.0, 2474.0, 2474.0, 2474.0, 2474.0, 2474.0, 2474.0, 2474.0, 2474.0, 2474.0, 2474.0, 2474.0, 2474.0, 2474.0, 2474.0, 2474.0, 2475.0, 2474.0, 2474.0, 2474.0, 2474.0, 2474.0, 2474.0, 2474.0, 2474.0, 2474.0, 2474.0, 2474.0, 2474.0, 2474.0, 2474.0, 2474.0, 2474.0, 2474.0, 2474.0, 2473.0, 2474.0, 2473.0, 2473.0, 2473.0, 2473.0, 2473.0, 2473.0, 2473.0, 2473.0, 2473.0, 2473.0, 2473.0, 2473.0, 2473.0, 2473.0, 2473.0, 2473.0, 2473.0, 2474.0, 2473.0, 2473.0, 2473.0, 2473.0, 2473.0, 2473.0, 2473.0, 2473.0, 2473.0, 2473.0, 2473.0, 2473.0, 2473.0, 2473.0, 2473.0, 2473.0, 2473.0, 2473.0, 2473.0, 2473.0, 2473.0, 2473.0, 2473.0, 2473.0, 2472.0, 2472.0, 2472.0, 2472.0, 2472.0, 2472.0, 2472.0, 2472.0, 2472.0, 2472.0, 2472.0]
    },
    "slices": {}
  }
}