{
  "AcquisitionMatrixPE": 122,
  "AcquisitionNumber": 1,
  "AcquisitionTime": "10:56:19.467500",
  "BandwidthPerPixelPhaseEncode": 27.785,
  "BaseResolution": 122,
  "BodyPartExamined": "BRAIN",
  "CoilCombinationMethod": "Adaptive Combine",
  "ConsistencyInfo": "N4_VE11C_LATEST_20160120",
  "ConversionSoftware": "dcm2niix",
  "ConversionSoftwareVersion": "v1.0.20220720",
  "DerivedVendorReportedEchoSpacing": 0.000590011,
  "DeviceSerialNumber": "66112",
  "DiffusionScheme": "Monopolar",
  "DwellTime": 2e-06,
  "EchoTime": 0.068,
  "EchoTrainLength": 61,
  "EffectiveEchoSpacing": 0.000295005,
  "FlipAngle": 90,
  "HeudiconvVersion": "0.13.1",
  "ImageOrientationPatientDICOM": [0.986715, 0.162192, 0.00938636, -0.15734, 0.939604, 0.303955],
  "ImageOrientationText": "Tra>Cor(17.6)>Sag(-2.3)",
  "ImageType": [
    "ORIGINAL",
    "PRIMARY",
    "DIFFUSION",
    "NONE",
    "ND",
    "NORM"
],
  "ImagingFrequency": 123.252,
  "InPlanePhaseEncodingDirectionDICOM": "COL",
  "InstitutionAddress": "Maynard 3,Hanover,NH,US,03755",
  "InstitutionName": "Dartmouth College - PBS",
  "InstitutionalDepartmentName": "Department",
  "MRAcquisitionType": "2D",
  "MagneticFieldStrength": 3,
  "Manufacturer": "Siemens",
  "ManufacturersModelName": "Prisma",
  "Modality": "MR",
  "MultibandAccelerationFactor": 4,
  "NonlinearGradientCorrection": false,
  "ParallelReductionFactorInPlane": 2,
  "PartialFourier": 1,
  "PatientPosition": "HFS",
  "PercentPhaseFOV": 100,
  "PercentSampling": 100,
  "PhaseEncodingDirection": "j-",
  "PhaseEncodingSteps": 122,
  "PhaseResolution": 1,
  "PixelBandwidth": 2050,
  "ProcedureStepDescription": "dbic^QA",
  "ProtocolName": "dwi_acq-DTI-30-p2-s4",
  "PulseSequenceDetails": "%SiemensSeq%\\ep2d_diff",
  "ReceiveCoilActiveElements": "HEA;HEP",
  "ReceiveCoilName": "Head_32",
  "ReconMatrixPE": 122,
  "RefLinesPE": 38,
  "RepetitionTime": 3.6,
  "SAR": 0.137574,
  "ScanOptions": "FS",
  "ScanningSequence": "EP",
  "SequenceName": "*ep_b0",
  "SequenceVariant": "SK\\SP",
  "SeriesDescription": "dwi_acq-DTI-30-p2-s4",
  "SeriesNumber": 13,
  "ShimSetting": [4143, -7704, -7518, 271, -84, -69, -26, 53],
  "SliceThickness": 2,
  "SliceTiming": [2.58594, 0, 1.78906, 0.19531, 1.98438, 0.39844, 2.1875, 0.59375, 2.38281, 0.99219, 2.78125, 1.19531, 2.98438, 1.39062, 3.17969, 1.58594, 3.38281, 0.79688, 2.58594, 0, 1.78906, 0.19531, 1.98438, 0.39844, 2.1875, 0.59375, 2.38281, 0.99219, 2.78125, 1.19531, 2.98438, 1.39062, 3.17969, 1.58594, 3.38281, 0.79688, 2.58594, 0, 1.78906, 0.19531, 1.98438, 0.39844, 2.1875, 0.59375, 2.38281, 0.99219, 2.78125, 1.19531, 2.98438, 1.39062, 3.17969, 1.58594, 3.38281, 0.79688, 2.58594, 0, 1.78906, 0.19531, 1.98438, 0.39844, 2.1875, 0.59375, 2.38281, 0.99219, 2.78125, 1.19531, 2.98438, 1.39062, 3.17969, 1.58594, 3.38281, 0.79688],
  "SoftwareVersions": "syngo MR E11",
  "SpacingBetweenSlices": 2,
  "SpoilingState": true,
  "StationName": "AWP66112",
  "TotalReadoutTime": 0.0356956,
  "TxRefAmp": 221.38,
  "dcmmeta_affine": [
    [-1.9410778284072876, -0.3095206320285797, -0.08095917105674744, 142.57174682617188],
    [-0.3190663158893585, 1.848401427268982, 0.6027870178222656, -104.61814880371094],
    [0.018464969471096992, -0.597943902015686, 1.9052810668945312, -34.2132453918457],
    [0.0, 0.0, 0.0, 1.0]
],
  "dcmmeta_reorient_transform": [
    [0.0, -1.0, 0.0, 121.0],
    [1.0, 0.0, 0.0, 0.0],
    [0.0, 0.0, -1.0, 71.0],
    [0.0, 0.0, 0.0, 1.0]
],
  "dcmmeta_shape": [122, 122, 72, 31],
  "dcmmeta_slice_dim": 2,
  "dcmmeta_version": 0.6,
  "global": {
    "const": {
      "AccessionNumber": "qa",
      "AcquisitionMatrix": [122, 0, 0, 122],
      "AngioFlag": "N",
      "BitsAllocated": 16,
      "BitsStored": 12,
      "BodyPartExamined": "BRAIN",
      "Columns": 122,
      "EchoNumbers": 1,
      "EchoTime": 68.0,
      "EchoTrainLength": 61,
      "FlipAngle": 90.0,
      "HighBit": 11,
      "ImageOrientationPatient": [0.98671456791412, 0.16219203966192, 0.00938635905727, -0.1573396465845, 0.9396040201142, 0.30395480091273],
      "ImageType": [
        "ORIGINAL",
        "PRIMARY",
        "DIFFUSION",
        "NONE",
        "ND",
        "NORM"
],
      "ImagedNucleus": "1H",
      "ImagingFrequency": 123.252382,
      "InPlanePhaseEncodingDirection": "COL",
      "MRAcquisitionType": "2D",
      "MagneticFieldStrength": 3.0,
      "Manufacturer": "SIEMENS",
      "ManufacturerModelName": "Prisma",
      "Modality": "MR",
      "NumberOfAverages": 1.0,
      "NumberOfPhaseEncodingSteps": 122,
      "PercentPhaseFieldOfView": 100.0,
      "PercentSampling": 100.0,
      "PerformedProcedureStepStartTime": "101737.225000",
      "PhotometricInterpretation": "MONOCHROME2",
      "PixelBandwidth": 2050.0,
      "PixelRepresentation": 0,
      "PixelSpacing": [1.9672131538391, 1.9672131538391],
      "ProtocolName": "dwi_acq-DTI-30-p2-s4",
      "RepetitionTime": 3600.0,
      "Rows": 122,
      "SAR": 0.13757427731366,
      "SamplesPerPixel": 1,
      "ScanOptions": "FS",
      "ScanningSequence": "EP",
      "SequenceVariant": [
        "SK",
        "SP"
],
      "SeriesDescription": "dwi_acq-DTI-30-p2-s4",
      "SeriesNumber": 13,
      "SeriesTime": "105628.184000",
      "SliceThickness": 2.0,
      "SmallestImagePixelValue": 0,
      "SoftwareVersions": "syngo MR E11",
      "SpacingBetweenSlices": 2.0,
      "SpecificCharacterSet": "ISO_IR 100",
      "StudyID": "18",
      "StudyTime": "101737.176000",
      "TransmitCoilName": "Body",
      "VariableFlipAngleFlag": "N",
      "WindowCenterWidthExplanation": "Algo1",
      "dBdt": 0.0},
    "slices": {
      "AcquisitionTime": ["105619.467500", "105616.880000", "105618.670000", "105617.080000", "105618.870000", "105617.277500", "105619.067500", "105617.477500", "105619.267500", "105617.875000", "105619.665000", "105618.075000", "105619.865000", "105618.272500", "105620.062500", "105618.472500", "105620.262500", "105617.677500", "105619.467500", "105616.880000", "105618.670000", "105617.080000", "105618.870000", "105617.277500", "105619.067500", "105617.477500", "105619.267500", "105617.875000", "105619.665000", "105618.075000", "105619.865000", "105618.272500", "105620.062500", "105618.472500", "105620.262500", "105617.677500", "105619.467500", "105616.880000", "105618.670000", "105617.080000", "105618.870000", "105617.277500", "105619.067500", "105617.477500", "105619.267500", "105617.875000", "105619.665000", "105618.075000", "105619.865000", "105618.272500", "105620.062500", "105618.472500", "105620.262500", "105617.677500", "105619.467500", "105616.880000", "105618.670000", "105617.080000", "105618.870000", "105617.277500", "105619.067500", "105617.477500", "105619.267500", "105617.875000", "105619.665000", "105618.075000", "105619.865000", "105618.272500", "105620.062500", "105618.472500", "105620.262500", "105617.677500", "105623.067500", "105620.480000", "105622.270000", "105620.680000", "105622.470000", "105620.877500", "105622.667500", "105621.077500", "105622.867500", "105621.475000", "105623.265000", "105621.675000", "105623.465000", "105621.872500", "105623.662500", "105622.072500", "105623.862500", "105621.277500", "105623.067500", "105620.480000", "105622.270000", "105620.680000", "105622.470000", "105620.877500", "105622.667500", "105621.077500", "105622.867500", "105621.475000", "105623.265000", "105621.675000", "105623.465000", "105621.872500", "105623.662500", "105622.072500", "105623.862500", "105621.277500", "105623.067500", "105620.480000", "105622.270000", "105620.680000", "105622.470000", "105620.877500", "105622.667500", "105621.077500", "105622.867500", "105621.475000", "105623.265000", "105621.675000", "105623.465000", "105621.872500", "105623.662500", "105622.072500", "105623.862500", "105621.277500", "105623.067500", "105620.480000", "105622.270000", "105620.680000", "105622.470000", "105620.877500", "105622.667500", "105621.077500", "105622.867500", "105621.475000", "105623.265000", "105621.675000", "105623.465000", "105621.872500", "105623.662500", "105622.072500", "105623.862500", "105621.277500", "105626.667500", "105624.080000", "105625.870000", "105624.280000", "105626.070000", "105624.477500", "105626.267500", "105624.677500", "105626.467500", "105625.075000", "105626.865000", "105625.275000", "105627.065000", "105625.472500", "105627.262500", "105625.672500", "105627.462500", "105624.877500", "105626.667500", "105624.080000", "105625.870000", "105624.280000", "105626.070000", "105624.477500", "105626.267500", "105624.677500", "105626.467500", "105625.075000", "105626.865000", "105625.275000", "105627.065000", "105625.472500", "105627.262500", "105625.672500", "105627.462500", "105624.877500", "105626.667500", "105624.080000", "105625.870000", "105624.280000", "105626.070000", "105624.477500", "105626.267500", "105624.677500", "105626.467500", "105625.075000", "105626.865000", "105625.275000", "105627.065000", "105625.472500", "105627.262500", "105625.672500", "105627.462500", "105624.877500", "105626.667500", "105624.080000", "105625.870000", "105624.280000", "105626.070000", "105624.477500", "105626.267500", "105624.677500", "105626.467500", "105625.075000", "105626.865000", "105625.275000", "105627.065000", "105625.472500", "105627.262500", "105625.672500", "105627.462500", "105624.877500", "105630.267500", "105627.680000", "105629.470000", "105627.880000", "105629.670000", "105628.077500", "105629.867500", "105628.277500", "105630.067500", "105628.675000", "105630.465000", "105628.875000", "105630.665000", "105629.072500", "105630.862500", "105629.272500", "105631.062500", "105628.477500", "105630.267500", "105627.680000", "105629.470000", "105627.880000", "105629.670000", "105628.077500", "105629.867500", "105628.277500", "105630.067500", "105628.675000", "105630.465000", "105628.875000", "105630.665000", "105629.072500", "105630.862500", "105629.272500", "105631.062500", "105628.477500", "105630.267500", "105627.680000", "105629.470000", "105627.880000", "105629.670000", "105628.077500", "105629.867500", "105628.277500", "105630.067500", "105628.675000", "105630.465000", "105628.875000", "105630.665000", "105629.072500", "105630.862500", "105629.272500", "105631.062500", "105628.477500", "105630.267500", "105627.680000", "105629.470000", "105627.880000", "105629.670000", "105628.077500", "105629.867500", "105628.277500", "105630.067500", "105628.675000", "105630.465000", "105628.875000", "105630.665000", "105629.072500", "105630.862500", "105629.272500", "105631.062500", "105628.477500", "105633.867500", "105631.280000", "105633.070000", "105631.480000", "105633.270000", "105631.677500", "105633.467500", "105631.877500", "105633.667500", "105632.275000", "105634.065000", "105632.475000", "105634.265000", "105632.672500", "105634.462500", "105632.872500", "105634.662500", "105632.077500", "105633.867500", "105631.280000", "105633.070000", "105631.480000", "105633.270000", "105631.677500", "105633.467500", "105631.877500", "105633.667500", "105632.275000", "105634.065000", "105632.475000", "105634.265000", "105632.672500", "105634.462500", "105632.872500", "105634.662500", "105632.077500", "105633.867500", "105631.280000", "105633.070000", "105631.480000", "105633.270000", "105631.677500", "105633.467500", "105631.877500", "105633.667500", "105632.275000", "105634.065000", "105632.475000", "105634.265000", "105632.672500", "105634.462500", "105632.872500", "105634.662500", "105632.077500", "105633.867500", "105631.280000", "105633.070000", "105631.480000", "105633.270000", "105631.677500", "105633.467500", "105631.877500", "105633.667500", "105632.275000", "105634.065000", "105632.475000", "105634.265000", "105632.672500", "105634.462500", "105632.872500", "105634.662500", "105632.077500", "105637.467500", "105634.880000", "105636.670000", "105635.080000", "105636.870000", "105635.277500", "105637.067500", "105635.477500", "105637.267500", "105635.875000", "105637.665000", "105636.075000", "105637.865000", "105636.272500", "105638.062500", "105636.472500", "105638.262500", "105635.677500", "105637.467500", "105634.880000", "105636.670000", "105635.080000", "105636.870000", "105635.277500", "105637.067500", "105635.477500", "105637.267500", "105635.875000", "105637.665000", "105636.075000", "105637.865000", "105636.272500", "105638.062500", "105636.472500", "105638.262500", "105635.677500", "105637.467500", "105634.880000", "105636.670000", "105635.080000", "105636.870000", "105635.277500", "105637.067500", "105635.477500", "105637.267500", "105635.875000", "105637.665000", "105636.075000", "105637.865000", "105636.272500", "105638.062500", "105636.472500", "105638.262500", "105635.677500", "105637.467500", "105634.880000", "105636.670000", "105635.080000", "105636.870000", "105635.277500", "105637.067500", "105635.477500", "105637.267500", "105635.875000", "105637.665000", "105636.075000", "105637.865000", "105636.272500", "105638.062500", "105636.472500", "105638.262500", "105635.677500", "105641.067500", "105638.480000", "105640.270000", "105638.680000", "105640.470000", "105638.877500", "105640.667500", "105639.077500", "105640.867500", "105639.475000", "105641.265000", "105639.675000", "105641.465000", "105639.872500", "105641.662500", "105640.072500", "105641.862500", "105639.277500", "105641.067500", "105638.480000", "105640.270000", "105638.680000", "105640.470000", "105638.877500", "105640.667500", "105639.077500", "105640.867500", "105639.475000", "105641.265000", "105639.675000", "105641.465000", "105639.872500", "105641.662500", "105640.072500", "105641.862500", "105639.277500", "105641.067500", "105638.480000", "105640.270000", "105638.680000", "105640.470000", "105638.877500", "105640.667500", "105639.077500", "105640.867500", "105639.475000", "105641.265000", "105639.675000", "105641.465000", "105639.872500", "105641.662500", "105640.072500", "105641.862500", "105639.277500", "105641.067500", "105638.480000", "105640.270000", "105638.680000", "105640.470000", "105638.877500", "105640.667500", "105639.077500", "105640.867500", "105639.475000", "105641.265000", "105639.675000", "105641.465000", "105639.872500", "105641.662500", "105640.072500", "105641.862500", "105639.277500", "105644.667500", "105642.080000", "105643.870000", "105642.280000", "105644.070000", "105642.477500", "105644.267500", "105642.677500", "105644.467500", "105643.075000", "105644.865000", "105643.275000", "105645.065000", "105643.472500", "105645.262500", "105643.672500", "105645.462500", "105642.877500", "105644.667500", "105642.080000", "105643.870000", "105642.280000", "105644.070000", "105642.477500", "105644.267500", "105642.677500", "105644.467500", "105643.075000", "105644.865000", "105643.275000", "105645.065000", "105643.472500", "105645.262500", "105643.672500", "105645.462500", "105642.877500", "105644.667500", "105642.080000", "105643.870000", "105642.280000", "105644.070000", "105642.477500", "105644.267500", "105642.677500", "105644.467500", "105643.075000", "105644.865000", "105643.275000", "105645.065000", "105643.472500", "105645.262500", "105643.672500", "105645.462500", "105642.877500", "105644.667500", "105642.080000", "105643.870000", "105642.280000", "105644.070000", "105642.477500", "105644.267500", "105642.677500", "105644.467500", "105643.075000", "105644.865000", "105643.275000", "105645.065000", "105643.472500", "105645.262500", "105643.672500", "105645.462500", "105642.877500", "105648.267500", "105645.680000", "105647.470000", "105645.880000", "105647.670000", "105646.077500", "105647.867500", "105646.277500", "105648.067500", "105646.675000", "105648.465000", "105646.875000", "105648.665000", "105647.072500", "105648.862500", "105647.272500", "105649.062500", "105646.477500", "105648.267500", "105645.680000", "105647.470000", "105645.880000", "105647.670000", "105646.077500", "105647.867500", "105646.277500", "105648.067500", "105646.675000", "105648.465000", "105646.875000", "105648.665000", "105647.072500", "105648.862500", "105647.272500", "105649.062500", "105646.477500", "105648.267500", "105645.680000", "105647.470000", "105645.880000", "105647.670000", "105646.077500", "105647.867500", "105646.277500", "105648.067500", "105646.675000", "105648.465000", "105646.875000", "105648.665000", "105647.072500", "105648.862500", "105647.272500", "105649.062500", "105646.477500", "105648.267500", "105645.680000", "105647.470000", "105645.880000", "105647.670000", "105646.077500", "105647.867500", "105646.277500", "105648.067500", "105646.675000", "105648.465000", "105646.875000", "105648.665000", "105647.072500", "105648.862500", "105647.272500", "105649.062500", "105646.477500", "105651.867500", "105649.280000", "105651.070000", "105649.480000", "105651.270000", "105649.677500", "105651.467500", "105649.877500", "105651.667500", "105650.275000", "105652.065000", "105650.475000", "105652.265000", "105650.672500", "105652.462500", "105650.872500", "105652.662500", "105650.077500", "105651.867500", "105649.280000", "105651.070000", "105649.480000", "105651.270000", "105649.677500", "105651.467500", "105649.877500", "105651.667500", "105650.275000", "105652.065000", "105650.475000", "105652.265000", "105650.672500", "105652.462500", "105650.872500", "105652.662500", "105650.077500", "105651.867500", "105649.280000", "105651.070000", "105649.480000", "105651.270000", "105649.677500", "105651.467500", "105649.877500", "105651.667500", "105650.275000", "105652.065000", "105650.475000", "105652.265000", "105650.672500", "105652.462500", "105650.872500", "105652.662500", "105650.077500", "105651.867500", "105649.280000", "105651.070000", "105649.480000", "105651.270000", "105649.677500", "105651.467500", "105649.877500", "105651.667500", "105650.275000", "105652.065000", "105650.475000", "105652.265000", "105650.672500", "105652.462500", "105650.872500", "105652.662500", "105650.077500", "105655.467500", "105652.880000", "105654.670000", "105653.080000", "105654.870000", "105653.277500", "105655.067500", "105653.477500", "105655.267500", "105653.875000", "105655.665000", "105654.075000", "105655.865000", "105654.272500", "105656.062500", "105654.472500", "105656.262500", "105653.677500", "105655.467500", "105652.880000", "105654.670000", "105653.080000", "105654.870000", "105653.277500", "105655.067500", "105653.477500", "105655.267500", "105653.875000", "105655.665000", "105654.075000", "105655.865000", "105654.272500", "105656.062500", "105654.472500", "105656.262500", "105653.677500", "105655.467500", "105652.880000", "105654.670000", "105653.080000", "105654.870000", "105653.277500", "105655.067500", "105653.477500", "105655.267500", "105653.875000", "105655.665000", "105654.075000", "105655.865000", "105654.272500", "105656.062500", "105654.472500", "105656.262500", "105653.677500", "105655.467500", "105652.880000", "105654.670000", "105653.080000", "105654.870000", "105653.277500", "105655.067500", "105653.477500", "105655.267500", "105653.875000", "105655.665000", "105654.075000", "105655.865000", "105654.272500", "105656.062500", "105654.472500", "105656.262500", "105653.677500", "105659.067500", "105656.480000", "105658.270000", "105656.680000", "105658.470000", "105656.877500", "105658.667500", "105657.077500", "105658.867500", "105657.475000", "105659.265000", "105657.675000", "105659.465000", "105657.872500", "105659.662500", "105658.072500", "105659.862500", "105657.277500", "105659.067500", "105656.480000", "105658.270000", "105656.680000", "105658.470000", "105656.877500", "105658.667500", "105657.077500", "105658.867500", "105657.475000", "105659.265000", "105657.675000", "105659.465000", "105657.872500", "105659.662500", "105658.072500", "105659.862500", "105657.277500", "105659.067500", "105656.480000", "105658.270000", "105656.680000", "105658.470000", "105656.877500", "105658.667500", "105657.077500", "105658.867500", "105657.475000", "105659.265000", "105657.675000", "105659.465000", "105657.872500", "105659.662500", "105658.072500", "105659.862500", "105657.277500", "105659.067500", "105656.480000", "105658.270000", "105656.680000", "105658.470000", "105656.877500", "105658.667500", "105657.077500", "105658.867500", "105657.475000", "105659.265000", "105657.675000", "105659.465000", "105657.872500", "105659.662500", "105658.072500", "105659.862500", "105657.277500", "105702.667500", "105700.080000", "105701.870000", "105700.280000", "105702.070000", "105700.477500", "105702.267500", "105700.677500", "105702.467500", "105701.075000", "105702.865000", "105701.275000", "105703.065000", "105701.472500", "105703.262500", "105701.672500", "105703.462500", "105700.877500", "105702.667500", "105700.080000", "105701.870000", "105700.280000", "105702.070000", "105700.477500", "105702.267500", "105700.677500", "105702.467500", "105701.075000", "105702.865000", "105701.275000", "105703.065000", "105701.472500", "105703.262500", "105701.672500", "105703.462500", "105700.877500", "105702.667500", "105700.080000", "105701.870000", "105700.280000", "105702.070000", "105700.477500", "105702.267500", "105700.677500", "105702.467500", "105701.075000", "105702.865000", "105701.275000", "105703.065000", "105701.472500", "105703.262500", "105701.672500", "105703.462500", "105700.877500", "105702.667500", "105700.080000", "105701.870000", "105700.280000", "105702.070000", "105700.477500", "105702.267500", "105700.677500", "105702.467500", "105701.075000", "105702.865000", "105701.275000", "105703.065000", "105701.472500", "105703.262500", "105701.672500", "105703.462500", "105700.877500", "105706.267500", "105703.680000", "105705.470000", "105703.880000", "105705.670000", "105704.077500", "105705.867500", "105704.277500", "105706.067500", "105704.675000", "105706.465000", "105704.875000", "105706.665000", "105705.072500", "105706.862500", "105705.272500", "105707.062500", "105704.477500", "105706.267500", "105703.680000", "105705.470000", "105703.880000", "105705.670000", "105704.077500", "105705.867500", "105704.277500", "105706.067500", "105704.675000", "105706.465000", "105704.875000", "105706.665000", "105705.072500", "105706.862500", "105705.272500", "105707.062500", "105704.477500", "105706.267500", "105703.680000", "105705.470000", "105703.880000", "105705.670000", "105704.077500", "105705.867500", "105704.277500", "105706.067500", "105704.675000", "105706.465000", "105704.875000", "105706.665000", "105705.072500", "105706.862500", "105705.272500", "105707.062500", "105704.477500", "105706.267500", "105703.680000", "105705.470000", "105703.880000", "105705.670000", "105704.077500", "105705.867500", "105704.277500", "105706.067500", "105704.675000", "105706.465000", "105704.875000", "105706.665000", "105705.072500", "105706.862500", "105705.272500", "105707.062500", "105704.477500", "105709.867500", "105707.280000", "105709.070000", "105707.480000", "105709.270000", "105707.677500", "105709.467500", "105707.877500", "105709.667500", "105708.275000", "105710.065000", "105708.475000", "105710.265000", "105708.672500", "105710.462500", "105708.872500", "105710.662500", "105708.077500", "105709.867500", "105707.280000", "105709.070000", "105707.480000", "105709.270000", "105707.677500", "105709.467500", "105707.877500", "105709.667500", "105708.275000", "105710.065000", "105708.475000", "105710.265000", "105708.672500", "105710.462500", "105708.872500", "105710.662500", "105708.077500", "105709.867500", "105707.280000", "105709.070000", "105707.480000", "105709.270000", "105707.677500", "105709.467500", "105707.877500", "105709.667500", "105708.275000", "105710.065000", "105708.475000", "105710.265000", "105708.672500", "105710.462500", "105708.872500", "105710.662500", "105708.077500", "105709.867500", "105707.280000", "105709.070000", "105707.480000", "105709.270000", "105707.677500", "105709.467500", "105707.877500", "105709.667500", "105708.275000", "105710.065000", "105708.475000", "105710.265000", "105708.672500", "105710.462500", "105708.872500", "105710.662500", "105708.077500", "105713.467500", "105710.880000", "105712.670000", "105711.080000", "105712.870000", "105711.277500", "105713.067500", "105711.477500", "105713.267500", "105711.875000", "105713.665000", "105712.075000", "105713.865000", "105712.272500", "105714.062500", "105712.472500", "105714.262500", "105711.677500", "105713.467500", "105710.880000", "105712.670000", "105711.080000", "105712.870000", "105711.277500", "105713.067500", "105711.477500", "105713.267500", "105711.875000", "105713.665000", "105712.075000", "105713.865000", "105712.272500", "105714.062500", "105712.472500", "105714.262500", "105711.677500", "105713.467500", "105710.880000", "105712.670000", "105711.080000", "105712.870000", "105711.277500", "105713.067500", "105711.477500", "105713.267500", "105711.875000", "105713.665000", "105712.075000", "105713.865000", "105712.272500", "105714.062500", "105712.472500", "105714.262500", "105711.677500", "105713.467500", "105710.880000", "105712.670000", "105711.080000", "105712.870000", "105711.277500", "105713.067500", "105711.477500", "105713.267500", "105711.875000", "105713.665000", "105712.075000", "105713.865000", "105712.272500", "105714.062500", "105712.472500", "105714.262500", "105711.677500", "105717.067500", "105714.480000", "105716.270000", "105714.680000", "105716.470000", "105714.877500", "105716.667500", "105715.077500", "105716.867500", "105715.475000", "105717.265000", "105715.675000", "105717.465000", "105715.872500", "105717.662500", "105716.072500", "105717.862500", "105715.277500", "105717.067500", "105714.480000", "105716.270000", "105714.680000", "105716.470000", "105714.877500", "105716.667500", "105715.077500", "105716.867500", "105715.475000", "105717.265000", "105715.675000", "105717.465000", "105715.872500", "105717.662500", "105716.072500", "105717.862500", "105715.277500", "105717.067500", "105714.480000", "105716.270000", "105714.680000", "105716.470000", "105714.877500", "105716.667500", "105715.077500", "105716.867500", "105715.475000", "105717.265000", "105715.675000", "105717.465000", "105715.872500", "105717.662500", "105716.072500", "105717.862500", "105715.277500", "105717.067500", "105714.480000", "105716.270000", "105714.680000", "105716.470000", "105714.877500", "105716.667500", "105715.077500", "105716.867500", "105715.475000", "105717.265000", "105715.675000", "105717.465000", "105715.872500", "105717.662500", "105716.072500", "105717.862500", "105715.277500", "105720.667500", "105718.080000", "105719.870000", "105718.280000", "105720.070000", "105718.477500", "105720.267500", "105718.677500", "105720.467500", "105719.075000", "105720.865000", "105719.275000", "105721.065000", "105719.472500", "105721.262500", "105719.672500", "105721.462500", "105718.877500", "105720.667500", "105718.080000", "105719.870000", "105718.280000", "105720.070000", "105718.477500", "105720.267500", "105718.677500", "105720.467500", "105719.075000", "105720.865000", "105719.275000", "105721.065000", "105719.472500", "105721.262500", "105719.672500", "105721.462500", "105718.877500", "105720.667500", "105718.080000", "105719.870000", "105718.280000", "105720.070000", "105718.477500", "105720.267500", "105718.677500", "105720.467500", "105719.075000", "105720.865000", "105719.275000", "105721.065000", "105719.472500", "105721.262500", "105719.672500", "105721.462500", "105718.877500", "105720.667500", "105718.080000", "105719.870000", "105718.280000", "105720.070000", "105718.477500", "105720.267500", "105718.677500", "105720.467500", "105719.075000", "105720.865000", "105719.275000", "105721.065000", "105719.472500", "105721.262500", "105719.672500", "105721.462500", "105718.877500", "105724.267500", "105721.680000", "105723.470000", "105721.880000", "105723.670000", "105722.077500", "105723.867500", "105722.277500", "105724.067500", "105722.675000", "105724.465000", "105722.875000", "105724.665000", "105723.072500", "105724.862500", "105723.272500", "105725.062500", "105722.477500", "105724.267500", "105721.680000", "105723.470000", "105721.880000", "105723.670000", "105722.077500", "105723.867500", "105722.277500", "105724.067500", "105722.675000", "105724.465000", "105722.875000", "105724.665000", "105723.072500", "105724.862500", "105723.272500", "105725.062500", "105722.477500", "105724.267500", "105721.680000", "105723.470000", "105721.880000", "105723.670000", "105722.077500", "105723.867500", "105722.277500", "105724.067500", "105722.675000", "105724.465000", "105722.875000", "105724.665000", "105723.072500", "105724.862500", "105723.272500", "105725.062500", "105722.477500", "105724.267500", "105721.680000", "105723.470000", "105721.880000", "105723.670000", "105722.077500", "105723.867500", "105722.277500", "105724.067500", "105722.675000", "105724.465000", "105722.875000", "105724.665000", "105723.072500", "105724.862500", "105723.272500", "105725.062500", "105722.477500", "105727.867500", "105725.280000", "105727.070000", "105725.480000", "105727.270000", "105725.677500", "105727.467500", "105725.877500", "105727.667500", "105726.275000", "105728.065000", "105726.475000", "105728.265000", "105726.672500", "105728.462500", "105726.872500", "105728.662500", "105726.077500", "105727.867500", "105725.280000", "105727.070000", "105725.480000", "105727.270000", "105725.677500", "105727.467500", "105725.877500", "105727.667500", "105726.275000", "105728.065000", "105726.475000", "105728.265000", "105726.672500", "105728.462500", "105726.872500", "105728.662500", "105726.077500", "105727.867500", "105725.280000", "105727.070000", "105725.480000", "105727.270000", "105725.677500", "105727.467500", "105725.877500", "105727.667500", "105726.275000", "105728.065000", "105726.475000", "105728.265000", "105726.672500", "105728.462500", "105726.872500", "105728.662500", "105726.077500", "105727.867500", "105725.280000", "105727.070000", "105725.480000", "105727.270000", "105725.677500", "105727.467500", "105725.877500", "105727.667500", "105726.275000", "105728.065000", "1057