{
  "AcquisitionMatrixPE": 122,
  "AcquisitionNumber": 1,
  "AcquisitionTime": "10:52:0.035000",
  "BandwidthPerPixelPhaseEncode": 28.76,
  "BaseResolution": 122,
  "BodyPartExamined": "BRAIN",
  "CoilCombinationMethod": "Adaptive Combine",
  "ConsistencyInfo": "N4_VE11C_LATEST_20160120",
  "ConversionSoftware": "dcm2niix",
  "ConversionSoftwareVersion": "v1.0.20220720",
  "DerivedVendorReportedEchoSpacing": 0.000570008,
  "DeviceSerialNumber": "66112",
  "DiffusionScheme": "Monopolar",
  "DwellTime": 2e-06,
  "EchoTime": 0.075,
  "EchoTrainLength": 61,
  "EffectiveEchoSpacing": 0.000285004,
  "FlipAngle": 90,
  "HeudiconvVersion": "0.13.1",
  "ImageOrientationPatientDICOM": [0.986715, 0.162192, 0.00938636, -0.15734, 0.939604, 0.303955],
  "ImageOrientationText": "Tra>Cor(17.6)>Sag(-2.3)",
  "ImageType": [
    "ORIGINAL",
    "PRIMARY",
    "DIFFUSION",
    "NONE",
    "ND",
    "NORM"
],
  "ImagingFrequency": 123.252,
  "InPlanePhaseEncodingDirectionDICOM": "COL",
  "InstitutionAddress": "Maynard 3,Hanover,NH,US,03755",
  "InstitutionName": "Dartmouth College - PBS",
  "InstitutionalDepartmentName": "Department",
  "MRAcquisitionType": "2D",
  "MagneticFieldStrength": 3,
  "Manufacturer": "Siemens",
  "ManufacturersModelName": "Prisma",
  "MatrixCoilMode": "GRAPPA",
  "Modality": "MR",
  "NonlinearGradientCorrection": false,
  "ParallelReductionFactorInPlane": 2,
  "PartialFourier": 1,
  "PatientPosition": "HFS",
  "PercentPhaseFOV": 100,
  "PercentSampling": 100,
  "PhaseEncodingDirection": "j-",
  "PhaseEncodingSteps": 122,
  "PhaseResolution": 1,
  "PixelBandwidth": 2050,
  "ProcedureStepDescription": "dbic^QA",
  "ProtocolName": "dwi_acq-DTI-30-p2",
  "PulseSequenceDetails": "%SiemensSeq%\\ep2d_diff",
  "ReceiveCoilActiveElements": "HEA;HEP",
  "ReceiveCoilName": "Head_32",
  "ReconMatrixPE": 122,
  "RefLinesPE": 38,
  "RepetitionTime": 7.7,
  "SAR": 0.0872086,
  "ScanOptions": "FS",
  "ScanningSequence": "EP",
  "SequenceName": "*ep_b0",
  "SequenceVariant": "SK\\SP",
  "SeriesDescription": "dwi_acq-DTI-30-p2",
  "SeriesNumber": 12,
  "ShimSetting": [4143, -7703, -7518, 270, -85, -68, -26, 53],
  "SliceThickness": 2,
  "SliceTiming": [3.83594, 0, 3.95312, 0.10938, 4.0625, 0.21875, 4.17188, 0.32812, 4.28125, 0.4375, 4.39062, 0.54688, 4.5, 0.65625, 4.60938, 0.77344, 4.71875, 0.88281, 4.82812, 0.98438, 4.9375, 1.09375, 5.04688, 1.21094, 5.15625, 1.32031, 5.26562, 1.42969, 5.375, 1.53906, 5.48438, 1.64844, 5.59375, 1.75781, 5.70312, 1.86719, 5.8125, 1.97656, 5.92188, 2.08594, 6.03125, 2.19531, 6.14844, 2.30469, 6.25781, 2.41406, 6.36719, 2.52344, 6.47656, 2.63281, 6.58594, 2.74219, 6.69531, 2.85156, 6.80469, 2.96094, 6.91406, 3.07031, 7.02344, 3.17969, 7.13281, 3.28906, 7.24219, 3.39844, 7.35156, 3.51562, 7.46094, 3.625, 7.57031, 3.73438],
  "SoftwareVersions": "syngo MR E11",
  "SpacingBetweenSlices": 2,
  "SpoilingState": true,
  "StationName": "AWP66112",
  "TotalReadoutTime": 0.0344855,
  "TxRefAmp": 221.38,
  "dcmmeta_affine": [
    [-1.9410778284072876, -0.3095206320285797, -0.08095917105674744, 142.49078369140625],
    [-0.3190663158893585, 1.848401427268982, 0.6027870178222656, -104.0153579711914],
    [0.018464969471096992, -0.597943902015686, 1.9052848815917969, -32.3082275390625],
    [0.0, 0.0, 0.0, 1.0]
],
  "dcmmeta_reorient_transform": [
    [0.0, -1.0, 0.0, 121.0],
    [1.0, 0.0, 0.0, 0.0],
    [0.0, 0.0, -1.0, 69.0],
    [0.0, 0.0, 0.0, 1.0]
],
  "dcmmeta_shape": [122, 122, 70, 31],
  "dcmmeta_slice_dim": 2,
  "dcmmeta_version": 0.6,
  "global": {
    "const": {
      "AccessionNumber": "qa",
      "AcquisitionMatrix": [122, 0, 0, 122],
      "AngioFlag": "N",
      "BitsAllocated": 16,
      "BitsStored": 12,
      "BodyPartExamined": "BRAIN",
      "Columns": 122,
      "EchoNumbers": 1,
      "EchoTime": 75.0,
      "EchoTrainLength": 61,
      "FlipAngle": 90.0,
      "HighBit": 11,
      "ImageOrientationPatient": [0.98671456791412, 0.16219203966192, 0.00938635905727, -0.1573396465845, 0.9396040201142, 0.30395480091273],
      "ImageType": [
        "ORIGINAL",
        "PRIMARY",
        "DIFFUSION",
        "NONE",
        "ND",
        "NORM"
],
      "ImagedNucleus": "1H",
      "ImagingFrequency": 123.252379,
      "InPlanePhaseEncodingDirection": "COL",
      "MRAcquisitionType": "2D",
      "MagneticFieldStrength": 3.0,
      "Manufacturer": "SIEMENS",
      "ManufacturerModelName": "Prisma",
      "Modality": "MR",
      "NumberOfAverages": 1.0,
      "NumberOfPhaseEncodingSteps": 122,
      "PercentPhaseFieldOfView": 100.0,
      "PercentSampling": 100.0,
      "PerformedProcedureStepStartTime": "101737.225000",
      "PhotometricInterpretation": "MONOCHROME2",
      "PixelBandwidth": 2050.0,
      "PixelRepresentation": 0,
      "PixelSpacing": [1.9672131538391, 1.9672131538391],
      "ProtocolName": "dwi_acq-DTI-30-p2",
      "RepetitionTime": 7700.0,
      "Rows": 122,
      "SAR": 0.08720857659124,
      "SamplesPerPixel": 1,
      "ScanOptions": "FS",
      "ScanningSequence": "EP",
      "SequenceVariant": [
        "SK",
        "SP"
],
      "SeriesDescription": "dwi_acq-DTI-30-p2",
      "SeriesNumber": 12,
      "SeriesTime": "105201.728000",
      "SliceThickness": 2.0,
      "SmallestImagePixelValue": 0,
      "SoftwareVersions": "syngo MR E11",
      "SpacingBetweenSlices": 2.0,
      "SpecificCharacterSet": "ISO_IR 100",
      "StudyID": "18",
      "StudyTime": "101737.176000",
      "TransmitCoilName": "Body",
      "VariableFlipAngleFlag": "N",
      "WindowCenterWidthExplanation": "Algo1",
      "dBdt": 0.0},
    "slices": {
      "AcquisitionTime": ["105200.035000", "105156.197500", "105200.145000", "105156.305000", "105200.255000", "105156.415000", "105200.365000", "105156.525000", "105200.475000", "105156.635000", "105200.585000", "105156.745000", "105200.695000", "105156.855000", "105200.805000", "105156.965000", "105200.915000", "105157.075000", "105201.022500", "105157.182500", "105201.132500", "105157.292500", "105201.242500", "105157.402500", "105201.352500", "105157.512500", "105201.462500", "105157.622500", "105201.572500", "105157.732500", "105201.682500", "105157.842500", "105201.792500", "105157.952500", "105201.900000", "105158.062500", "105202.010000", "105158.170000", "105202.120000", "105158.280000", "105202.230000", "105158.390000", "105202.340000", "105158.500000", "105202.450000", "105158.610000", "105202.560000", "105158.720000", "105202.670000", "105158.830000", "105202.780000", "105158.940000", "105202.887500", "105159.047500", "105202.997500", "105159.157500", "105203.107500", "105159.267500", "105203.217500", "105159.377500", "105203.327500", "105159.487500", "105203.437500", "105159.597500", "105203.547500", "105159.707500", "105203.657500", "105159.817500", "105203.767500", "105159.927500", "105207.735000", "105203.897500", "105207.845000", "105204.005000", "105207.955000", "105204.115000", "105208.065000", "105204.225000", "105208.175000", "105204.335000", "105208.285000", "105204.445000", "105208.395000", "105204.555000", "105208.505000", "105204.665000", "105208.615000", "105204.775000", "105208.722500", "105204.882500", "105208.832500", "105204.992500", "105208.942500", "105205.102500", "105209.052500", "105205.212500", "105209.162500", "105205.322500", "105209.272500", "105205.432500", "105209.382500", "105205.542500", "105209.492500", "105205.652500", "105209.600000", "105205.762500", "105209.710000", "105205.870000", "105209.820000", "105205.980000", "105209.930000", "105206.090000", "105210.040000", "105206.200000", "105210.150000", "105206.310000", "105210.260000", "105206.420000", "105210.370000", "105206.530000", "105210.480000", "105206.640000", "105210.587500", "105206.747500", "105210.697500", "105206.857500", "105210.807500", "105206.967500", "105210.917500", "105207.077500", "105211.027500", "105207.187500", "105211.137500", "105207.297500", "105211.247500", "105207.407500", "105211.357500", "105207.517500", "105211.467500", "105207.627500", "105215.435000", "105211.597500", "105215.545000", "105211.705000", "105215.655000", "105211.815000", "105215.765000", "105211.925000", "105215.875000", "105212.035000", "105215.985000", "105212.145000", "105216.095000", "105212.255000", "105216.205000", "105212.365000", "105216.315000", "105212.475000", "105216.422500", "105212.582500", "105216.532500", "105212.692500", "105216.642500", "105212.802500", "105216.752500", "105212.912500", "105216.862500", "105213.022500", "105216.972500", "105213.132500", "105217.082500", "105213.242500", "105217.192500", "105213.352500", "105217.300000", "105213.462500", "105217.410000", "105213.570000", "105217.520000", "105213.680000", "105217.630000", "105213.790000", "105217.740000", "105213.900000", "105217.850000", "105214.010000", "105217.960000", "105214.120000", "105218.070000", "105214.230000", "105218.180000", "105214.340000", "105218.287500", "105214.447500", "105218.397500", "105214.557500", "105218.507500", "105214.667500", "105218.617500", "105214.777500", "105218.727500", "105214.887500", "105218.837500", "105214.997500", "105218.947500", "105215.107500", "105219.057500", "105215.217500", "105219.167500", "105215.327500", "105223.135000", "105219.297500", "105223.245000", "105219.405000", "105223.355000", "105219.515000", "105223.465000", "105219.625000", "105223.575000", "105219.735000", "105223.685000", "105219.845000", "105223.795000", "105219.955000", "105223.905000", "105220.065000", "105224.015000", "105220.175000", "105224.122500", "105220.282500", "105224.232500", "105220.392500", "105224.342500", "105220.502500", "105224.452500", "105220.612500", "105224.562500", "105220.722500", "105224.672500", "105220.832500", "105224.782500", "105220.942500", "105224.892500", "105221.052500", "105225.000000", "105221.162500", "105225.110000", "105221.270000", "105225.220000", "105221.380000", "105225.330000", "105221.490000", "105225.440000", "105221.600000", "105225.550000", "105221.710000", "105225.660000", "105221.820000", "105225.770000", "105221.930000", "105225.880000", "105222.040000", "105225.987500", "105222.147500", "105226.097500", "105222.257500", "105226.207500", "105222.367500", "105226.317500", "105222.477500", "105226.427500", "105222.587500", "105226.537500", "105222.697500", "105226.647500", "105222.807500", "105226.757500", "105222.917500", "105226.867500", "105223.027500", "105230.835000", "105226.997500", "105230.945000", "105227.105000", "105231.055000", "105227.215000", "105231.165000", "105227.325000", "105231.275000", "105227.435000", "105231.385000", "105227.545000", "105231.495000", "105227.655000", "105231.605000", "105227.765000", "105231.715000", "105227.875000", "105231.822500", "105227.982500", "105231.932500", "105228.092500", "105232.042500", "105228.202500", "105232.152500", "105228.312500", "105232.262500", "105228.422500", "105232.372500", "105228.532500", "105232.482500", "105228.642500", "105232.592500", "105228.752500", "105232.700000", "105228.862500", "105232.810000", "105228.970000", "105232.920000", "105229.080000", "105233.030000", "105229.190000", "105233.140000", "105229.300000", "105233.250000", "105229.410000", "105233.360000", "105229.520000", "105233.470000", "105229.630000", "105233.580000", "105229.740000", "105233.687500", "105229.847500", "105233.797500", "105229.957500", "105233.907500", "105230.067500", "105234.017500", "105230.177500", "105234.127500", "105230.287500", "105234.237500", "105230.397500", "105234.347500", "105230.507500", "105234.457500", "105230.617500", "105234.567500", "105230.727500", "105238.535000", "105234.697500", "105238.645000", "105234.805000", "105238.755000", "105234.915000", "105238.865000", "105235.025000", "105238.975000", "105235.135000", "105239.085000", "105235.245000", "105239.195000", "105235.355000", "105239.305000", "105235.465000", "105239.415000", "105235.575000", "105239.522500", "105235.682500", "105239.632500", "105235.792500", "105239.742500", "105235.902500", "105239.852500", "105236.012500", "105239.962500", "105236.122500", "105240.072500", "105236.232500", "105240.182500", "105236.342500", "105240.292500", "105236.452500", "105240.400000", "105236.562500", "105240.510000", "105236.670000", "105240.620000", "105236.780000", "105240.730000", "105236.890000", "105240.840000", "105237.000000", "105240.950000", "105237.110000", "105241.060000", "105237.220000", "105241.170000", "105237.330000", "105241.280000", "105237.440000", "105241.387500", "105237.547500", "105241.497500", "105237.657500", "105241.607500", "105237.767500", "105241.717500", "105237.877500", "105241.827500", "105237.987500", "105241.937500", "105238.097500", "105242.047500", "105238.207500", "105242.157500", "105238.317500", "105242.267500", "105238.427500", "105246.235000", "105242.397500", "105246.345000", "105242.505000", "105246.455000", "105242.615000", "105246.565000", "105242.725000", "105246.675000", "105242.835000", "105246.785000", "105242.945000", "105246.895000", "105243.055000", "105247.005000", "105243.165000", "105247.115000", "105243.275000", "105247.222500", "105243.382500", "105247.332500", "105243.492500", "105247.442500", "105243.602500", "105247.552500", "105243.712500", "105247.662500", "105243.822500", "105247.772500", "105243.932500", "105247.882500", "105244.042500", "105247.992500", "105244.152500", "105248.100000", "105244.262500", "105248.210000", "105244.370000", "105248.320000", "105244.480000", "105248.430000", "105244.590000", "105248.540000", "105244.700000", "105248.650000", "105244.810000", "105248.760000", "105244.920000", "105248.870000", "105245.030000", "105248.980000", "105245.140000", "105249.087500", "105245.247500", "105249.197500", "105245.357500", "105249.307500", "105245.467500", "105249.417500", "105245.577500", "105249.527500", "105245.687500", "105249.637500", "105245.797500", "105249.747500", "105245.907500", "105249.857500", "105246.017500", "105249.967500", "105246.127500", "105253.935000", "105250.097500", "105254.045000", "105250.205000", "105254.155000", "105250.315000", "105254.265000", "105250.425000", "105254.375000", "105250.535000", "105254.485000", "105250.645000", "105254.595000", "105250.755000", "105254.705000", "105250.865000", "105254.815000", "105250.975000", "105254.922500", "105251.082500", "105255.032500", "105251.192500", "105255.142500", "105251.302500", "105255.252500", "105251.412500", "105255.362500", "105251.522500", "105255.472500", "105251.632500", "105255.582500", "105251.742500", "105255.692500", "105251.852500", "105255.800000", "105251.962500", "105255.910000", "105252.070000", "105256.020000", "105252.180000", "105256.130000", "105252.290000", "105256.240000", "105252.400000", "105256.350000", "105252.510000", "105256.460000", "105252.620000", "105256.570000", "105252.730000", "105256.680000", "105252.840000", "105256.787500", "105252.947500", "105256.897500", "105253.057500", "105257.007500", "105253.167500", "105257.117500", "105253.277500", "105257.227500", "105253.387500", "105257.337500", "105253.497500", "105257.447500", "105253.607500", "105257.557500", "105253.717500", "105257.667500", "105253.827500", "105301.635000", "105257.797500", "105301.745000", "105257.905000", "105301.855000", "105258.015000", "105301.965000", "105258.125000", "105302.075000", "105258.235000", "105302.185000", "105258.345000", "105302.295000", "105258.455000", "105302.405000", "105258.565000", "105302.515000", "105258.675000", "105302.622500", "105258.782500", "105302.732500", "105258.892500", "105302.842500", "105259.002500", "105302.952500", "105259.112500", "105303.062500", "105259.222500", "105303.172500", "105259.332500", "105303.282500", "105259.442500", "105303.392500", "105259.552500", "105303.500000", "105259.662500", "105303.610000", "105259.770000", "105303.720000", "105259.880000", "105303.830000", "105259.990000", "105303.940000", "105300.100000", "105304.050000", "105300.210000", "105304.160000", "105300.320000", "105304.270000", "105300.430000", "105304.380000", "105300.540000", "105304.487500", "105300.647500", "105304.597500", "105300.757500", "105304.707500", "105300.867500", "105304.817500", "105300.977500", "105304.927500", "105301.087500", "105305.037500", "105301.197500", "105305.147500", "105301.307500", "105305.257500", "105301.417500", "105305.367500", "105301.527500", "105309.335000", "105305.497500", "105309.445000", "105305.605000", "105309.555000", "105305.715000", "105309.665000", "105305.825000", "105309.775000", "105305.935000", "105309.885000", "105306.045000", "105309.995000", "105306.155000", "105310.105000", "105306.265000", "105310.215000", "105306.375000", "105310.322500", "105306.482500", "105310.432500", "105306.592500", "105310.542500", "105306.702500", "105310.652500", "105306.812500", "105310.762500", "105306.922500", "105310.872500", "105307.032500", "105310.982500", "105307.142500", "105311.092500", "105307.252500", "105311.200000", "105307.362500", "105311.310000", "105307.470000", "105311.420000", "105307.580000", "105311.530000", "105307.690000", "105311.640000", "105307.800000", "105311.750000", "105307.910000", "105311.860000", "105308.020000", "105311.970000", "105308.130000", "105312.080000", "105308.240000", "105312.187500", "105308.347500", "105312.297500", "105308.457500", "105312.407500", "105308.567500", "105312.517500", "105308.677500", "105312.627500", "105308.787500", "105312.737500", "105308.897500", "105312.847500", "105309.007500", "105312.957500", "105309.117500", "105313.067500", "105309.227500", "105317.035000", "105313.197500", "105317.145000", "105313.305000", "105317.255000", "105313.415000", "105317.365000", "105313.525000", "105317.475000", "105313.635000", "105317.585000", "105313.745000", "105317.695000", "105313.855000", "105317.805000", "105313.965000", "105317.915000", "105314.075000", "105318.022500", "105314.182500", "105318.132500", "105314.292500", "105318.242500", "105314.402500", "105318.352500", "105314.512500", "105318.462500", "105314.622500", "105318.572500", "105314.732500", "105318.682500", "105314.842500", "105318.792500", "105314.952500", "105318.900000", "105315.062500", "105319.010000", "105315.170000", "105319.120000", "105315.280000", "105319.230000", "105315.390000", "105319.340000", "105315.500000", "105319.450000", "105315.610000", "105319.560000", "105315.720000", "105319.670000", "105315.830000", "105319.780000", "105315.940000", "105319.887500", "105316.047500", "105319.997500", "105316.157500", "105320.107500", "105316.267500", "105320.217500", "105316.377500", "105320.327500", "105316.487500", "105320.437500", "105316.597500", "105320.547500", "105316.707500", "105320.657500", "105316.817500", "105320.767500", "105316.927500", "105324.735000", "105320.897500", "105324.845000", "105321.005000", "105324.955000", "105321.115000", "105325.065000", "105321.225000", "105325.175000", "105321.335000", "105325.285000", "105321.445000", "105325.395000", "105321.555000", "105325.505000", "105321.665000", "105325.615000", "105321.775000", "105325.722500", "105321.882500", "105325.832500", "105321.992500", "105325.942500", "105322.102500", "105326.052500", "105322.212500", "105326.162500", "105322.322500", "105326.272500", "105322.432500", "105326.382500", "105322.542500", "105326.492500", "105322.652500", "105326.600000", "105322.762500", "105326.710000", "105322.870000", "105326.820000", "105322.980000", "105326.930000", "105323.090000", "105327.040000", "105323.200000", "105327.150000", "105323.310000", "105327.260000", "105323.420000", "105327.370000", "105323.530000", "105327.480000", "105323.640000", "105327.587500", "105323.747500", "105327.697500", "105323.857500", "105327.807500", "105323.967500", "105327.917500", "105324.077500", "105328.027500", "105324.187500", "105328.137500", "105324.297500", "105328.247500", "105324.407500", "105328.357500", "105324.517500", "105328.467500", "105324.627500", "105332.435000", "105328.597500", "105332.545000", "105328.705000", "105332.655000", "105328.815000", "105332.765000", "105328.925000", "105332.875000", "105329.035000", "105332.985000", "105329.145000", "105333.095000", "105329.255000", "105333.205000", "105329.365000", "105333.315000", "105329.475000", "105333.422500", "105329.582500", "105333.532500", "105329.692500", "105333.642500", "105329.802500", "105333.752500", "105329.912500", "105333.862500", "105330.022500", "105333.972500", "105330.132500", "105334.082500", "105330.242500", "105334.192500", "105330.352500", "105334.300000", "105330.462500", "105334.410000", "105330.570000", "105334.520000", "105330.680000", "105334.630000", "105330.790000", "105334.740000", "105330.900000", "105334.850000", "105331.010000", "105334.960000", "105331.120000", "105335.070000", "105331.230000", "105335.180000", "105331.340000", "105335.287500", "105331.447500", "105335.397500", "105331.557500", "105335.507500", "105331.667500", "105335.617500", "105331.777500", "105335.727500", "105331.887500", "105335.837500", "105331.997500", "105335.947500", "105332.107500", "105336.057500", "105332.217500", "105336.167500", "105332.327500", "105340.135000", "105336.297500", "105340.245000", "105336.405000", "105340.355000", "105336.515000", "105340.465000", "105336.625000", "105340.575000", "105336.735000", "105340.685000", "105336.845000", "105340.795000", "105336.955000", "105340.905000", "105337.065000", "105341.015000", "105337.175000", "105341.122500", "105337.282500", "105341.232500", "105337.392500", "105341.342500", "105337.502500", "105341.452500", "105337.612500", "105341.562500", "105337.722500", "105341.672500", "105337.832500", "105341.782500", "105337.942500", "105341.892500", "105338.052500", "105342.000000", "105338.162500", "105342.110000", "105338.270000", "105342.220000", "105338.380000", "105342.330000", "105338.490000", "105342.440000", "105338.600000", "105342.550000", "105338.710000", "105342.660000", "105338.820000", "105342.770000", "105338.930000", "105342.880000", "105339.040000", "105342.987500", "105339.147500", "105343.097500", "105339.257500", "105343.207500", "105339.367500", "105343.317500", "105339.477500", "105343.427500", "105339.587500", "105343.537500", "105339.697500", "105343.647500", "105339.807500", "105343.757500", "105339.917500", "105343.867500", "105340.027500", "105347.835000", "105343.997500", "105347.945000", "105344.105000", "105348.055000", "105344.215000", "105348.165000", "105344.325000", "105348.275000", "105344.435000", "105348.385000", "105344.545000", "105348.495000", "105344.655000", "105348.605000", "105344.765000", "105348.715000", "105344.875000", "105348.822500", "105344.982500", "105348.932500", "105345.092500", "105349.042500", "105345.202500", "105349.152500", "105345.312500", "105349.262500", "105345.422500", "105349.372500", "105345.532500", "105349.482500", "105345.642500", "105349.592500", "105345.752500", "105349.700000", "105345.862500", "105349.810000", "105345.970000", "105349.920000", "105346.080000", "105350.030000", "105346.190000", "105350.140000", "105346.300000", "105350.250000", "105346.410000", "105350.360000", "105346.520000", "105350.470000", "105346.630000", "105350.580000", "105346.740000", "105350.687500", "105346.847500", "105350.797500", "105346.957500", "105350.907500", "105347.067500", "105351.017500", "105347.177500", "105351.127500", "105347.287500", "105351.237500", "105347.397500", "105351.347500", "105347.507500", "105351.457500", "105347.617500", "105351.567500", "105347.727500", "105355.535000", "105351.697500", "105355.645000", "105351.805000", "105355.755000", "105351.915000", "105355.865000", "105352.025000", "105355.975000", "105352.135000", "105356.085000", "105352.245000", "105356.195000", "105352.355000", "105356.305000", "105352.465000", "105356.415000", "105352.575000", "105356.522500", "105352.682500", "105356.632500", "105352.792500", "105356.742500", "105352.902500", "105356.852500", "105353.012500", "105356.962500", "105353.122500", "105357.072500", "105353.232500", "105357.182500", "105353.342500", "105357.292500", "105353.452500", "105357.400000", "105353.562500", "105357.510000", "105353.670000", "105357.620000", "105353.780000", "105357.730000", "105353.890000", "105357.840000", "105354.000000", "105357.950000", "105354.110000", "105358.060000", "105354.220000", "105358.170000", "105354.330000", "105358.280000", "105354.440000", "105358.387500", "105354.547500", "105358.497500", "105354.657500", "105358.607500", "105354.767500", "105358.717500", "105354.877500", "105358.827500", "105354.987500", "105358.937500", "105355.097500", "105359.047500", "105355.207500", "105359.157500", "105355.317500", "105359.267500", "105355.427500", "105403.235000", "105359.397500", "105403.345000", "105359.505000", "105403.455000", "105359.615000", "105403.565000", "105359.725000", "105403.675000", "105359.835000", "105403.785000", "105359.945000", "105403.895000", "105400.055000", "105404.005000", "105400.165000", "105404.115000", "105400.275000", "105404.222500", "105400.382500", "105404.332500", "105400.492500", "105404.442500", "105400.602500", "105404.552500", "105400.712500", "105404.662500", "105400.822500", "105404.772500", "105400.932500", "105404.882500", "105401.042500", "105404.992500", "105401.152500", "105405.100000", "105401.262500", "105405.210000", "105401.370000", "105405.320000", "105401.480000", "105405.430000", "105401.590000", "105405.540000", "105401.700000", "105405.650000", "105401.810000", "105405.760000", "105401.920000", "105405.870000", "105402.030000", "105405.980000", "105402.140000", "105406.087500", "105402.247500", "105406.197500", "105402.357500", "105406.307500", "105402.467500", "105406.417500", "105402.577500", "105406.527500", "105402.687500", "105406.637500", "105402.797500", "105406.747500", "105402.907500", "105406.857500", "105403.017500", "105406.967500", "105403.127500", "105410.935000", "105407.097500", "105411.045000", "105407.205000", "105411.155000", "105407.315000", "105411.265000", "105407.425000", "105411.375000", "105407.535000", "105411.485000", "105407.645000", "105411.595000", "105407.755000", "105411.705000", "105407.865000", "105411.815000", "105407.975000", "105411.922500", "105408.082500", "105412.032500", "105408.192500", "105412.142500", "105408.302500", "105412.252500", "105408.412500", "105412.362500", "105408.522500", "105412.472500", "105408.632500", "105412.582500", "105408.742500", "105412.692500", "105408.852500", "105412.800000", "105408.962500", "105412.910000", "105409.070000", "105413.020000", "105409.180000", "105413.130000", "105409.290000", "105413.240000", "105409.400000", "105413.350000", "105409.510000", "105413.460000", "105409.620000", "105413.570000", "105409.730000", "105413.680000", "105409.840000", "105413.787500", "105409.947500", "105413.897500", "105410.057500", "105414.007500", "105410.167500", "105414.117500", "105410.277500", "105414.227500", "105410.387500", "105414.337500", "105410.497500", "105414.447500", "105410.607500", "105414.557500", "105410.717500", "105414.667500", "105410.827500", "105418.635000", "105414.797500", "105418.745000", "105414.905000", "105418.855000", "105415.015000", "105418.965000", "105415.125000", "105419.075000", "105415.235000", "105419.185000", "105415.345000", "105419.295000", "105415.455000", "105419.405000", "105415.565000", "105419.515000", "105415.675000", "105419.622500", "105415.782500", "105419.732500", "105415.892500", "105419.842500", "105416.002500", "105419.952500", "105416.112500", "105420.062500", "105416.222500", "105420.172500", "105416.332500", "105420.282500", "105416.442500", "105420.392500", "105416.552500", "105420.500000", "105416.662500", "105420.610000", "105416.770000", "105420.720000", "105416.880000", "105420.830000", "105416.990000", "105420.940000", "105417.100000", "105421.050000", "105417.210000", "105421.160000", "105417.320000", "105421.270000", "105417.430000", "105421.380000", "105417.540000", "105421.487500", "105417.647500", "105421.597500", "105417.757500", "105421.707500", "105417.867500", "105421.817500", "105417.977500", "105421.927500", "105418.087500", "105422.037500", "105418.197500", "105422.147500", "105418.307500", "105422.257500", "105418.417500", "105422.367500", "105418.527500", "105426.335000", "105422.497500", "105426.445000", "105422.605000", "105426.555000", "105422.715000", "105426.665000", "105422.825000", "105426.775000", "105422.935000", "105426.885000", "105423.045000", "105426.995000", "105423.155000", "105427.105000", "105423.265000", "105427.215000", "105423.375000", "105427.322500", "105423.482500", "105427.432500", "105423.592500", "105427.542500", "105423.702500", "105427.652500", "105423.812500", "105427.762500", "105423.922500", "105427.872500", "105424.032500", "105427.982500", "105424.142500", "105428.092500", "105424.252500", "105428.200000", "105424.362500", "105428.310000", "105424.470000", "105428.420000", "105424.580000", "105428.530000", "105424.690000", "105428.640000", "105424.800000", "105428.750000", "105424.910000", "105428.860000", "105425.020000", "105428.970000", "105425.130000", "105429.080000", "105425.240000", "105429.187500", "105425.347500", "105429.297500", "105425.457500", "105429.407500", "105425.567500", "105429.517500", "105425.677500", "105429.627500", "105425.787500", "105429.737500", "105425.897500", "105429.847500", "105426.007500", "105429.957500", "105426.117500", "105430.067500", "105426.227500", "105434.035000", "105430.197500", "105434.145000", "105430.305000", "105434.255000", "105430.415000", "105434.365000", "105430.525000", "105434.475000", "105430.635000", "105434.585000", "105430.745000", "105434.695000", "105430.855000", "105434.805000", "105430.965000", "105434.915000", "105431.075000", "105435.022500", "105431.182500", "105435.132500", "105431.292500", "105435.242500", "105431.402500", "105435.352500", "105431.512500", "105435.462500", "105431.622500", "105435.572500", "105431.732500", "105435.682500", "105431.842500", "105435.792500", "105431.952500", "105435.900000",