{
  "AcquisitionMatrixPE": 80,
  "AcquisitionNumber": 1,
  "AcquisitionTime": "09:29:1.217500",
  "BandwidthPerPixelPhaseEncode": 48.077,
  "BaseResolution": 80,
  "BodyPartExamined": "BRAIN",
  "CoilCombinationMethod": "Sum of Squares",
  "ConsistencyInfo": "N4_VE11C_LATEST_20160120",
  "ConversionSoftware": "dcm2niix",
  "ConversionSoftwareVersion": "v1.0.20220720",
  "DerivedVendorReportedEchoSpacing": 0.000519999,
  "DeviceSerialNumber": "66112",
  "DwellTime": 2.7e-06,
  "EchoTime": 0.035,
  "EchoTrainLength": 39,
  "EffectiveEchoSpacing": 0.00026,
  "FlipAngle": 90,
  "HeudiconvVersion": "0.13.1",
  "ImageOrientationPatientDICOM": [0.979135, 0.202505, 0.0169349, -0.19814, 0.932874, 0.300811],
  "ImageOrientationText": "Tra>Cor(17.3)>Sag(-2.6)",
  "ImageType": [
    "ORIGINAL",
    "PRIMARY",
    "M",
    "ND",
    "NORM",
    "MOSAIC"
],
  "ImagingFrequency": 123.253,
  "InPlanePhaseEncodingDirectionDICOM": "COL",
  "InstitutionAddress": "Maynard 3,Hanover,NH,US,03755",
  "InstitutionName": "Dartmouth College - PBS",
  "InstitutionalDepartmentName": "Department",
  "MRAcquisitionType": "2D",
  "MagneticFieldStrength": 3,
  "Manufacturer": "Siemens",
  "ManufacturersModelName": "Prisma",
  "MatrixCoilMode": "GRAPPA",
  "Modality": "MR",
  "NonlinearGradientCorrection": false,
  "ParallelReductionFactorInPlane": 2,
  "PartialFourier": 1,
  "PatientPosition": "HFS",
  "PercentPhaseFOV": 100,
  "PercentSampling": 100,
  "PhaseEncodingDirection": "j-",
  "PhaseEncodingSteps": 79,
  "PhaseResolution": 1,
  "PixelBandwidth": 2315,
  "ProcedureStepDescription": "dbic^QA",
  "ProtocolName": "func-bold_task-rest_acq-p2",
  "PulseSequenceDetails": "%SiemensSeq%\\ep2d_bold",
  "ReceiveCoilActiveElements": "HEA;HEP",
  "ReceiveCoilName": "Head_32",
  "ReconMatrixPE": 80,
  "RefLinesPE": 24,
  "RepetitionTime": 2,
  "SAR": 0.0556338,
  "ScanOptions": "FS",
  "ScanningSequence": "EP",
  "SequenceName": "*epfid2d1_80",
  "SequenceVariant": "SK",
  "SeriesDescription": "func-bold_task-rest_acq-p2",
  "SeriesNumber": 5,
  "ShimSetting": [4146, -7688, -7516, 225, -39, -155, -24, 35],
  "SliceThickness": 3.5,
  "SliceTiming": [0.99, 0, 1.0575, 0.0675, 1.1225, 0.1325, 1.1875, 0.2, 1.255, 0.265, 1.32, 0.33, 1.3875, 0.3975, 1.4525, 0.4625, 1.5175, 0.53, 1.585, 0.595, 1.65, 0.66, 1.7175, 0.7275, 1.7825, 0.7925, 1.8475, 0.86, 1.915, 0.925],
  "SoftwareVersions": "syngo MR E11",
  "SpacingBetweenSlices": 3.99,
  "StationName": "AWP66112",
  "TaskName": "rest",
  "TotalReadoutTime": 0.02054,
  "TxRefAmp": 230.228,
  "dcmmeta_affine": [
    [-2.9374046325683594, -0.5944188833236694, -0.180018812417984, 147.51002502441406],
    [-0.6075137853622437, 2.798621416091919, 1.1885805130004883, -95.4475326538086],
    [0.050804559141397476, -0.9024325609207153, 3.804598331451416, -18.639799118041992],
    [0.0, 0.0, 0.0, 1.0]
],
  "dcmmeta_reorient_transform": [
    [0.0, -1.0, 0.0, 79.0],
    [1.0, 0.0, 0.0, 0.0],
    [0.0, 0.0, 1.0, 0.0],
    [0.0, 0.0, 0.0, 1.0]
],
  "dcmmeta_shape": [80, 80, 30, 200],
  "dcmmeta_slice_dim": 2,
  "dcmmeta_version": 0.6,
  "global": {
    "const": {
      "AccessionNumber": "qa",
      "AcquisitionMatrix": [80, 0, 0, 80],
      "AngioFlag": "N",
      "BitsAllocated": 16,
      "BitsStored": 12,
      "BodyPartExamined": "BRAIN",
      "Columns": 480,
      "EchoNumbers": 1,
      "EchoTime": 35.0,
      "EchoTrainLength": 39,
      "FlipAngle": 90.0,
      "HighBit": 11,
      "ImageOrientationPatient": [0.97913487342591, 0.20250459348114, 0.01693485341714, -0.1981396252991, 0.93287379865529, 0.30081084533107],
      "ImagePositionPatient": [-569.1480872878, -806.87059468961, -280.57938951839],
      "ImageType": [
        "ORIGINAL",
        "PRIMARY",
        "M",
        "ND",
        "NORM",
        "MOSAIC"
],
      "ImagedNucleus": "1H",
      "ImagingFrequency": 123.252534,
      "InPlanePhaseEncodingDirection": "COL",
      "MRAcquisitionType": "2D",
      "MagneticFieldStrength": 3.0,
      "Manufacturer": "SIEMENS",
      "ManufacturerModelName": "Prisma",
      "Modality": "MR",
      "NumberOfAverages": 1.0,
      "NumberOfPhaseEncodingSteps": 79,
      "PercentPhaseFieldOfView": 100.0,
      "PercentSampling": 100.0,
      "PerformedProcedureStepStartTime": "092701.162000",
      "PhotometricInterpretation": "MONOCHROME2",
      "PixelBandwidth": 2315.0,
      "PixelRepresentation": 0,
      "PixelSpacing": [3.0, 3.0],
      "ProtocolName": "func-bold_task-rest_acq-p2",
      "RepetitionTime": 2000.0,
      "Rows": 480,
      "SAR": 0.05563378847571,
      "SamplesPerPixel": 1,
      "ScanOptions": "FS",
      "ScanningSequence": "EP",
      "SequenceName": "*epfid2d1_80",
      "SequenceVariant": "SK",
      "SeriesDescription": "func-bold_task-rest_acq-p2",
      "SeriesNumber": 5,
      "SeriesTime": "092947.669000",
      "SliceLocation": -52.861807175,
      "SliceThickness": 3.5,
      "SmallestImagePixelValue": 0,
      "SoftwareVersions": "syngo MR E11",
      "SpacingBetweenSlices": 3.9899999708108,
      "SpecificCharacterSet": "ISO_IR 100",
      "StudyID": "55",
      "StudyTime": "092701.078000",
      "TransmitCoilName": "Body",
      "VariableFlipAngleFlag": "N",
      "WindowCenterWidthExplanation": "Algo1",
      "dBdt": 0.0},
    "slices": {}
  },
  "time": {
    "samples": {
      "AcquisitionNumber": [1, 2, 3, 4, 5, 6, 7, 8, 9, 10, 11, 12, 13, 14, 15, 16, 17, 18, 19, 20, 21, 22, 23, 24, 25, 26, 27, 28, 29, 30, 31, 32, 33, 34, 35, 36, 37, 38, 39, 40, 41, 42, 43, 44, 45, 46, 47, 48, 49, 50, 51, 52, 53, 54, 55, 56, 57, 58, 59, 60, 61, 62, 63, 64, 65, 66, 67, 68, 69, 70, 71, 72, 73, 74, 75, 76, 77, 78, 79, 80, 81, 82, 83, 84, 85, 86, 87, 88, 89, 90, 91, 92, 93, 94, 95, 96, 97, 98, 99, 100, 101, 102, 103, 104, 105, 106, 107, 108, 109, 110, 111, 112, 113, 114, 115, 116, 117, 118, 119, 120, 121, 122, 123, 124, 125, 126, 127, 128, 129, 130, 131, 132, 133, 134, 135, 136, 137, 138, 139, 140, 141, 142, 143, 144, 145, 146, 147, 148, 149, 150, 151, 152, 153, 154, 155, 156, 157, 158, 159, 160, 161, 162, 163, 164, 165, 166, 167, 168, 169, 170, 171, 172, 173, 174, 175, 176, 177, 178, 179, 180, 181, 182, 183, 184, 185, 186, 187, 188, 189, 190, 191, 192, 193, 194, 195, 196, 197, 198, 199, 200],
      "AcquisitionTime": ["092901.217500", "092903.217500", "092905.217500", "092907.217500", "092909.217500", "092911.217500", "092913.217500", "092915.217500", "092917.217500", "092919.217500", "092921.217500", "092923.217500", "092925.217500", "092927.217500", "092929.217500", "092931.217500", "092933.217500", "092935.217500", "092937.217500", "092939.217500", "092941.217500", "092943.217500", "092945.217500", "092947.217500", "092949.217500", "092951.217500", "092953.217500", "092955.217500", "092957.217500", "092959.217500", "093001.217500", "093003.217500", "093005.217500", "093007.217500", "093009.217500", "093011.217500", "093013.217500", "093015.217500", "093017.217500", "093019.217500", "093021.217500", "093023.217500", "093025.217500", "093027.217500", "093029.217500", "093031.217500", "093033.217500", "093035.217500", "093037.217500", "093039.217500", "093041.217500", "093043.217500", "093045.217500", "093047.217500", "093049.217500", "093051.217500", "093053.217500", "093055.217500", "093057.217500", "093059.217500", "093101.217500", "093103.217500", "093105.217500", "093107.217500", "093109.217500", "093111.217500", "093113.217500", "093115.217500", "093117.217500", "093119.217500", "093121.217500", "093123.217500", "093125.217500", "093127.217500", "093129.217500", "093131.217500", "093133.217500", "093135.217500", "093137.217500", "093139.217500", "093141.217500", "093143.217500", "093145.217500", "093147.217500", "093149.217500", "093151.217500", "093153.217500", "093155.217500", "093157.217500", "093159.217500", "093201.217500", "093203.217500", "093205.217500", "093207.217500", "093209.217500", "093211.217500", "093213.217500", "093215.217500", "093217.217500", "093219.217500", "093221.217500", "093223.217500", "093225.217500", "093227.217500", "093229.217500", "093231.217500", "093233.217500", "093235.217500", "093237.217500", "093239.217500", "093241.217500", "093243.217500", "093245.217500", "093247.217500", "093249.217500", "093251.217500", "093253.217500", "093255.217500", "093257.217500", "093259.217500", "093301.217500", "093303.217500", "093305.217500", "093307.217500", "093309.217500", "093311.217500", "093313.217500", "093315.217500", "093317.217500", "093319.217500", "093321.217500", "093323.217500", "093325.217500", "093327.217500", "093329.217500", "093331.217500", "093333.217500", "093335.217500", "093337.217500", "093339.217500", "093341.217500", "093343.217500", "093345.217500", "093347.217500", "093349.217500", "093351.217500", "093353.217500", "093355.217500", "093357.217500", "093359.217500", "093401.217500", "093403.217500", "093405.217500", "093407.217500", "093409.217500", "093411.217500", "093413.217500", "093415.217500", "093417.217500", "093419.217500", "093421.217500", "093423.217500", "093425.217500", "093427.217500", "093429.217500", "093431.217500", "093433.217500", "093435.217500", "093437.217500", "093439.217500", "093441.217500", "093443.217500", "093445.217500", "093447.217500", "093449.217500", "093451.217500", "093453.217500", "093455.217500", "093457.217500", "093459.217500", "093501.217500", "093503.217500", "093505.217500", "093507.217500", "093509.217500", "093511.217500", "093513.217500", "093515.217500", "093517.217500", "093519.217500", "093521.217500", "093523.217500", "093525.217500", "093527.217500", "093529.217500", "093531.217500", "093533.217500", "093535.217500", "093537.217500", "093539.217500"],
      "ContentTime": ["092947.672000", "092947.676000", "092947.678000", "092947.681000", "092947.684000", "092947.686000", "092947.689000", "092947.691000", "092947.694000", "092947.697000", "092947.699000", "092947.710000", "092947.713000", "092947.716000", "092947.718000", "092947.724000", "092947.727000", "092947.729000", "092947.732000", "092947.735000", "092947.737000", "092947.740000", "092947.743000", "093027.667000", "093027.670000", "093027.673000", "093027.676000", "093027.678000", "093027.681000", "093027.684000", "093027.686000", "093027.689000", "093027.692000", "093027.694000", "093027.697000", "093027.700000", "093027.702000", "093027.705000", "093027.708000", "093027.710000", "093027.714000", "093027.717000", "093027.719000", "093107.668000", "093107.671000", "093107.674000", "093107.676000", "093107.679000", "093107.682000", "093107.684000", "093107.687000", "093107.700000", "093107.702000", "093107.705000", "093107.707000", "093107.710000", "093107.713000", "093107.715000", "093107.718000", "093107.721000", "093107.723000", "093107.726000", "093107.728000", "093147.667000", "093147.670000", "093147.673000", "093147.675000", "093147.678000", "093147.682000", "093147.684000", "093147.687000", "093147.689000", "093147.692000", "093147.694000", "093147.697000", "093147.700000", "093147.702000", "093147.705000", "093147.707000", "093147.710000", "093147.713000", "093147.716000", "093147.718000", "093207.668000", "093207.670000", "093207.673000", "093207.676000", "093207.678000", "093207.681000", "093207.684000", "093207.686000", "093207.689000", "093207.691000", "093247.668000", "093247.670000", "093247.673000", "093247.676000", "093247.678000", "093247.681000", "093247.684000", "093247.686000", "093247.689000", "093247.692000", "093247.694000", "093247.697000", "093247.700000", "093247.709000", "093247.712000", "093247.715000", "093247.717000", "093247.720000", "093247.722000", "093247.725000", "093327.668000", "093327.671000", "093327.674000", "093327.676000", "093327.679000", "093327.682000", "093327.684000", "093327.687000", "093327.690000", "093327.692000", "093327.695000", "093327.697000", "093327.700000", "093327.703000", "093327.705000", "093327.708000", "093327.711000", "093327.714000", "093327.716000", "093327.719000", "093407.667000", "093407.670000", "093407.673000", "093407.675000", "093407.678000", "093407.680000", "093407.683000", "093407.686000", "093407.688000", "093407.691000", "093407.693000", "093407.696000", "093407.699000", "093407.701000", "093407.711000", "093407.713000", "093407.716000", "093407.719000", "093407.721000", "093407.724000", "093447.667000", "093447.670000", "093447.673000", "093447.675000", "093447.678000", "093447.681000", "093447.683000", "093447.686000", "093447.688000", "093447.691000", "093447.693000", "093447.696000", "093447.698000", "093447.701000", "093447.704000", "093447.706000", "093447.709000", "093447.712000", "093447.715000", "093447.717000", "093527.668000", "093527.670000", "093527.673000", "093527.675000", "093527.678000", "093527.680000", "093527.683000", "093527.686000", "093527.688000", "093527.691000", "093527.693000", "093527.696000", "093527.699000", "093527.701000", "093527.704000", "093527.707000", "093527.710000", "093527.713000", "093527.715000", "093527.718000", "093540.694000", "093540.697000", "093540.700000", "093540.703000", "093540.706000", "093540.708000", "093540.711000"],
      "InstanceCreationTime": ["092947.672000", "092947.676000", "092947.678000", "092947.681000", "092947.684000", "092947.686000", "092947.689000", "092947.691000", "092947.694000", "092947.697000", "092947.699000", "092947.710000", "092947.713000", "092947.716000", "092947.718000", "092947.724000", "092947.727000", "092947.729000", "092947.732000", "092947.735000", "092947.737000", "092947.740000", "092947.743000", "093027.667000", "093027.670000", "093027.673000", "093027.676000", "093027.678000", "093027.681000", "093027.684000", "093027.686000", "093027.689000", "093027.692000", "093027.694000", "093027.697000", "093027.700000", "093027.702000", "093027.705000", "093027.708000", "093027.710000", "093027.714000", "093027.717000", "093027.719000", "093107.668000", "093107.671000", "093107.674000", "093107.676000", "093107.679000", "093107.682000", "093107.684000", "093107.687000", "093107.700000", "093107.702000", "093107.705000", "093107.707000", "093107.710000", "093107.713000", "093107.715000", "093107.718000", "093107.721000", "093107.723000", "093107.726000", "093107.728000", "093147.667000", "093147.670000", "093147.673000", "093147.675000", "093147.678000", "093147.682000", "093147.684000", "093147.687000", "093147.689000", "093147.692000", "093147.694000", "093147.697000", "093147.700000", "093147.702000", "093147.705000", "093147.707000", "093147.710000", "093147.713000", "093147.716000", "093147.718000", "093207.668000", "093207.670000", "093207.673000", "093207.676000", "093207.678000", "093207.681000", "093207.684000", "093207.686000", "093207.689000", "093207.691000", "093247.668000", "093247.670000", "093247.673000", "093247.676000", "093247.678000", "093247.681000", "093247.684000", "093247.686000", "093247.689000", "093247.692000", "093247.694000", "093247.697000", "093247.700000", "093247.709000", "093247.712000", "093247.715000", "093247.717000", "093247.720000", "093247.722000", "093247.725000", "093327.668000", "093327.671000", "093327.674000", "093327.676000", "093327.679000", "093327.682000", "093327.684000", "093327.687000", "093327.690000", "093327.692000", "093327.695000", "093327.697000", "093327.700000", "093327.703000", "093327.705000", "093327.708000", "093327.711000", "093327.714000", "093327.716000", "093327.719000", "093407.667000", "093407.670000", "093407.673000", "093407.675000", "093407.678000", "093407.680000", "093407.683000", "093407.686000", "093407.688000", "093407.691000", "093407.693000", "093407.696000", "093407.699000", "093407.701000", "093407.711000", "093407.713000", "093407.716000", "093407.719000", "093407.721000", "093407.724000", "093447.667000", "093447.670000", "093447.673000", "093447.675000", "093447.678000", "093447.681000", "093447.683000", "093447.686000", "093447.688000", "093447.691000", "093447.693000", "093447.696000", "093447.698000", "093447.701000", "093447.704000", "093447.706000", "093447.709000", "093447.712000", "093447.715000", "093447.717000", "093527.668000", "093527.670000", "093527.673000", "093527.675000", "093527.678000", "093527.680000", "093527.683000", "093527.686000", "093527.688000", "093527.691000", "093527.693000", "093527.696000", "093527.699000", "093527.701000", "093527.704000", "093527.707000", "093527.710000", "093527.713000", "093527.715000", "093527.718000", "093540.694000", "093540.697000", "093540.700000", "093540.703000", "093540.706000", "093540.708000", "093540.711000"],
      "InstanceNumber": [1, 2, 3, 4, 5, 6, 7, 8, 9, 10, 11, 12, 13, 14, 15, 16, 17, 18, 19, 20, 21, 22, 23, 24, 25, 26, 27, 28, 29, 30, 31, 32, 33, 34, 35, 36, 37, 38, 39, 40, 41, 42, 43, 44, 45, 46, 47, 48, 49, 50, 51, 52, 53, 54, 55, 56, 57, 58, 59, 60, 61, 62, 63, 64, 65, 66, 67, 68, 69, 70, 71, 72, 73, 74, 75, 76, 77, 78, 79, 80, 81, 82, 83, 84, 85, 86, 87, 88, 89, 90, 91, 92, 93, 94, 95, 96, 97, 98, 99, 100, 101, 102, 103, 104, 105, 106, 107, 108, 109, 110, 111, 112, 113, 114, 115, 116, 117, 118, 119, 120, 121, 122, 123, 124, 125, 126, 127, 128, 129, 130, 131, 132, 133, 134, 135, 136, 137, 138, 139, 140, 141, 142, 143, 144, 145, 146, 147, 148, 149, 150, 151, 152, 153, 154, 155, 156, 157, 158, 159, 160, 161, 162, 163, 164, 165, 166, 167, 168, 169, 170, 171, 172, 173, 174, 175, 176, 177, 178, 179, 180, 181, 182, 183, 184, 185, 186, 187, 188, 189, 190, 191, 192, 193, 194, 195, 196, 197, 198, 199, 200],
      "LargestImagePixelValue": [2137, 2142, 2139, 2140, 2139, 2140, 2144, 2137, 2145, 2142, 2148, 2134, 2140, 2140, 2138, 2139, 2142, 2137, 2141, 2138, 2142, 2146, 2142, 2137, 2142, 2141, 2139, 2143, 2134, 2143, 2142, 2137, 2139, 2133, 2135, 2141, 2140, 2138, 2136, 2135, 2136, 2138, 2135, 2143, 2142, 2138, 2144, 2148, 2138, 2135, 2141, 2137, 2141, 2138, 2135, 2137, 2143, 2137, 2142, 2135, 2144, 2145, 2140, 2133, 2142, 2138, 2141, 2142, 2135, 2139, 2136, 2141, 2135, 2140, 2141, 2139, 2137, 2137, 2137, 2138, 2141, 2139, 2142, 2135, 2141, 2139, 2137, 2139, 2138, 2142, 2138, 2140, 2136, 2137, 2136, 2144, 2138, 2139, 2139, 2137, 2134, 2136, 2138, 2140, 2140, 2136, 2135, 2138, 2138, 2139, 2141, 2140, 2141, 2134, 2139, 2135, 2139, 2135, 2140, 2139, 2135, 2143, 2139, 2138, 2135, 2134, 2139, 2133, 2140, 2137, 2135, 2136, 2139, 2142, 2144, 2142, 2137, 2135, 2133, 2136, 2139, 2140, 2143, 2142, 2144, 2138, 2136, 2138, 2137, 2136, 2137, 2138, 2141, 2144, 2142, 2136, 2133, 2136, 2138, 2127, 2141, 2139, 2136, 2141, 2139, 2138, 2146, 2142, 2136, 2142, 2141, 2141, 2140, 2142, 2130, 2138, 2133, 2135, 2136, 2142, 2134, 2138, 2134, 2144, 2143, 2142, 2134, 2136, 2143, 2143, 2136, 2139, 2132, 2142, 2138, 2137, 2140, 2134, 2139, 2137],
      "WindowCenter": [997.0, 997.0, 996.0, 996.0, 996.0, 996.0, 996.0, 997.0, 997.0, 997.0, 996.0, 996.0, 996.0, 996.0, 996.0, 996.0, 996.0, 996.0, 996.0, 996.0, 996.0, 996.0, 996.0, 996.0, 996.0, 997.0, 996.0, 996.0, 996.0, 996.0, 996.0, 996.0, 996.0, 996.0, 996.0, 996.0, 996.0, 996.0, 996.0, 996.0, 996.0, 997.0, 996.0, 996.0, 996.0, 996.0, 996.0, 996.0, 996.0, 996.0, 996.0, 996.0, 997.0, 996.0, 996.0, 996.0, 996.0, 996.0, 996.0, 997.0, 996.0, 996.0, 996.0, 996.0, 996.0, 996.0, 996.0, 996.0, 997.0, 996.0, 996.0, 996.0, 996.0, 996.0, 996.0, 997.0, 996.0, 997.0, 996.0, 996.0, 996.0, 997.0, 996.0, 996.0, 996.0, 996.0, 996.0, 996.0, 996.0, 997.0, 996.0, 996.0, 996.0, 996.0, 996.0, 996.0, 996.0, 996.0, 996.0, 996.0, 996.0, 996.0, 996.0, 997.0, 996.0, 996.0, 996.0, 996.0, 996.0, 996.0, 997.0, 996.0, 996.0, 996.0, 996.0, 996.0, 996.0, 996.0, 997.0, 996.0, 996.0, 996.0, 996.0, 996.0, 996.0, 996.0, 996.0, 996.0, 996.0, 996.0, 996.0, 996.0, 996.0, 996.0, 996.0, 996.0, 996.0, 996.0, 996.0, 997.0, 996.0, 996.0, 996.0, 996.0, 996.0, 996.0, 996.0, 996.0, 996.0, 996.0, 996.0, 996.0, 996.0, 996.0, 996.0, 996.0, 996.0, 996.0, 996.0, 996.0, 996.0, 996.0, 996.0, 996.0, 996.0, 996.0, 996.0, 996.0, 996.0, 996.0, 997.0, 996.0, 996.0, 996.0, 996.0, 996.0, 996.0, 996.0, 996.0, 997.0, 996.0, 996.0, 996.0, 997.0, 996.0, 996.0, 997.0, 996.0, 996.0, 996.0, 996.0, 996.0, 996.0, 996.0, 996.0, 996.0, 996.0, 997.0, 996.0, 996.0],
      "WindowWidth": [2186.0, 2185.0, 2186.0, 2186.0, 2186.0, 2186.0, 2185.0, 2185.0, 2186.0, 2186.0, 2185.0, 2185.0, 2185.0, 2185.0, 2185.0, 2185.0, 2185.0, 2185.0, 2185.0, 2185.0, 2185.0, 2185.0, 2185.0, 2185.0, 2185.0, 2186.0, 2185.0, 2185.0, 2185.0, 2185.0, 2185.0, 2185.0, 2185.0, 2185.0, 2185.0, 2185.0, 2185.0, 2185.0, 2185.0, 2185.0, 2185.0, 2185.0, 2185.0, 2185.0, 2184.0, 2185.0, 2185.0, 2185.0, 2184.0, 2184.0, 2185.0, 2185.0, 2185.0, 2184.0, 2184.0, 2184.0, 2184.0, 2184.0, 2185.0, 2185.0, 2185.0, 2184.0, 2184.0, 2184.0, 2184.0, 2184.0, 2185.0, 2185.0, 2185.0, 2184.0, 2184.0, 2184.0, 2185.0, 2184.0, 2185.0, 2185.0, 2184.0, 2185.0, 2185.0, 2184.0, 2184.0, 2185.0, 2185.0, 2184.0, 2185.0, 2185.0, 2185.0, 2185.0, 2184.0, 2185.0, 2185.0, 2184.0, 2184.0, 2184.0, 2184.0, 2184.0, 2184.0, 2184.0, 2184.0, 2184.0, 2184.0, 2184.0, 2184.0, 2185.0, 2184.0, 2184.0, 2185.0, 2184.0, 2184.0, 2184.0, 2185.0, 2184.0, 2184.0, 2184.0, 2184.0, 2184.0, 2184.0, 2184.0, 2185.0, 2184.0, 2184.0, 2184.0, 2184.0, 2184.0, 2184.0, 2184.0, 2184.0, 2184.0, 2184.0, 2184.0, 2184.0, 2184.0, 2184.0, 2184.0, 2184.0, 2184.0, 2184.0, 2184.0, 2184.0, 2185.0, 2184.0, 2184.0, 2184.0, 2184.0, 2184.0, 2184.0, 2184.0, 2184.0, 2184.0, 2184.0, 2184.0, 2184.0, 2184.0, 2184.0, 2184.0, 2184.0, 2184.0, 2184.0, 2184.0, 2184.0, 2184.0, 2184.0, 2184.0, 2184.0, 2184.0, 2184.0, 2184.0, 2184.0, 2184.0, 2184.0, 2185.0, 2184.0, 2184.0, 2184.0, 2184.0, 2184.0, 2184.0, 2184.0, 2184.0, 2185.0, 2184.0, 2184.0, 2184.0, 2185.0, 2184.0, 2184.0, 2185.0, 2184.0, 2184.0, 2184.0, 2184.0, 2184.0, 2184.0, 2184.0, 2184.0, 2184.0, 2184.0, 2185.0, 2184.0, 2184.0]
    },
    "slices": {}
  }
}