{
  "AcquisitionMatrixPE": 80,
  "AcquisitionNumber": 1,
  "AcquisitionTime": "08:19:31.565000",
  "BandwidthPerPixelPhaseEncode": 25,
  "BaseResolution": 80,
  "BodyPartExamined": "BRAIN",
  "CoilCombinationMethod": "Sum of Squares",
  "ConsistencyInfo": "N4_VE11C_LATEST_20160120",
  "ConversionSoftware": "dcm2niix",
  "ConversionSoftwareVersion": "v1.0.20220720",
  "DerivedVendorReportedEchoSpacing": 0.0005,
  "DeviceSerialNumber": "66112",
  "DwellTime": 2.7e-06,
  "EchoTime": 0.03,
  "EchoTrainLength": 80,
  "EffectiveEchoSpacing": 0.0005,
  "FlipAngle": 77,
  "HeudiconvVersion": "0.13.1",
  "ImageOrientationPatientDICOM": [0.995899, -0.0904402, 0.00236204, 0.0850284, 0.944587, 0.317057],
  "ImageOrientationText": "Tra>Cor(18.4)>Sag(1.8)",
  "ImageType": [
    "ORIGINAL",
    "PRIMARY",
    "M",
    "ND",
    "NORM",
    "MOSAIC"
],
  "ImagingFrequency": 123.252,
  "InPlanePhaseEncodingDirectionDICOM": "COL",
  "InstitutionAddress": "Maynard 3,Hanover,NH,US,03755",
  "InstitutionName": "Dartmouth College - PBS",
  "InstitutionalDepartmentName": "Department",
  "MRAcquisitionType": "2D",
  "MagneticFieldStrength": 3,
  "Manufacturer": "Siemens",
  "ManufacturersModelName": "Prisma",
  "MatrixCoilMode": "SENSE",
  "Modality": "MR",
  "NonlinearGradientCorrection": false,
  "PartialFourier": 1,
  "PatientPosition": "HFS",
  "PercentPhaseFOV": 100,
  "PercentSampling": 100,
  "PhaseEncodingDirection": "j-",
  "PhaseEncodingSteps": 80,
  "PhaseResolution": 1,
  "PixelBandwidth": 2315,
  "ProcedureStepDescription": "dbic^QA",
  "ProtocolName": "func-bold_fa-77",
  "PulseSequenceDetails": "%SiemensSeq%\\ep2d_bold",
  "ReceiveCoilActiveElements": "HC1-7;NC1,2",
  "ReceiveCoilName": "HeadNeck_64",
  "ReconMatrixPE": 80,
  "RepetitionTime": 2,
  "SAR": 0.0281306,
  "ScanOptions": "FS",
  "ScanningSequence": "EP",
  "SequenceName": "*epfid2d1_80",
  "SequenceVariant": "SK",
  "SeriesDescription": "func-bold_fa-77",
  "SeriesNumber": 7,
  "ShimSetting": [4141, -7711, -7510, 249, -117, -262, -83, 98],
  "SliceThickness": 3.5,
  "SliceTiming": [0.99, 0, 1.055, 0.065, 1.1225, 0.1325, 1.1875, 0.1975, 1.255, 0.265, 1.32, 0.33, 1.385, 0.395, 1.4525, 0.4625, 1.5175, 0.5275, 1.5825, 0.595, 1.65, 0.66, 1.715, 0.725, 1.7825, 0.7925, 1.8475, 0.8575, 1.9125, 0.925],
  "SoftwareVersions": "syngo MR E11",
  "SpacingBetweenSlices": 3.99,
  "StationName": "AWP66112",
  "TotalReadoutTime": 0.0395,
  "TxRefAmp": 206.483,
  "dcmmeta_affine": [
    [-2.9876973628997803, 0.2550853192806244, 0.1233142837882042, 106.84186553955078],
    [0.2713205814361572, 2.833761692047119, 1.2590677738189697, -141.9248504638672],
    [0.00708610936999321, -0.9511706829071045, 3.784130334854126, -18.500215530395508],
    [0.0, 0.0, 0.0, 1.0]
],
  "dcmmeta_reorient_transform": [
    [0.0, -1.0, 0.0, 79.0],
    [1.0, 0.0, 0.0, 0.0],
    [0.0, 0.0, 1.0, 0.0],
    [0.0, 0.0, 0.0, 1.0]
],
  "dcmmeta_shape": [80, 80, 30, 200],
  "dcmmeta_slice_dim": 2,
  "dcmmeta_version": 0.6,
  "global": {
    "const": {
      "AccessionNumber": "qa64",
      "AcquisitionMatrix": [80, 0, 0, 80],
      "AngioFlag": "N",
      "BitsAllocated": 16,
      "BitsStored": 12,
      "BodyPartExamined": "BRAIN",
      "Columns": 480,
      "EchoNumbers": 1,
      "EchoTime": 30.0,
      "EchoTrainLength": 80,
      "FlipAngle": 77.0,
      "HighBit": 11,
      "ImageOrientationPatient": [0.99589908776786, -0.0904401888915, 0.00236203649736, 0.08502844455794, 0.94458726100517, 0.31705688758141],
      "ImagePositionPatient": [-775.55012660786, -594.43057308947, -285.29405285747],
      "ImageType": [
        "ORIGINAL",
        "PRIMARY",
        "M",
        "ND",
        "NORM",
        "MOSAIC"
],
      "ImagedNucleus": "1H",
      "ImagingFrequency": 123.252349,
      "InPlanePhaseEncodingDirection": "COL",
      "LargestImagePixelValue": 4095,
      "MRAcquisitionType": "2D",
      "MagneticFieldStrength": 3.0,
      "Manufacturer": "SIEMENS",
      "ManufacturerModelName": "Prisma",
      "Modality": "MR",
      "NumberOfAverages": 1.0,
      "NumberOfPhaseEncodingSteps": 80,
      "PercentPhaseFieldOfView": 100.0,
      "PercentSampling": 100.0,
      "PerformedProcedureStepStartTime": "075813.425000",
      "PhotometricInterpretation": "MONOCHROME2",
      "PixelBandwidth": 2315.0,
      "PixelRepresentation": 0,
      "PixelSpacing": [3.0, 3.0],
      "ProtocolName": "func-bold_fa-77",
      "RepetitionTime": 2000.0,
      "Rows": 480,
      "SAR": 0.02813055261799,
      "SamplesPerPixel": 1,
      "ScanOptions": "FS",
      "ScanningSequence": "EP",
      "SequenceName": "*epfid2d1_80",
      "SequenceVariant": "SK",
      "SeriesDescription": "func-bold_fa-77",
      "SeriesNumber": 7,
      "SeriesTime": "082014.324000",
      "SliceLocation": -59.028847558633,
      "SliceThickness": 3.5,
      "SmallestImagePixelValue": 0,
      "SoftwareVersions": "syngo MR E11",
      "SpacingBetweenSlices": 3.9900000801999,
      "SpecificCharacterSet": "ISO_IR 100",
      "StudyID": "38",
      "StudyTime": "075813.343000",
      "TransmitCoilName": "Body",
      "VariableFlipAngleFlag": "N",
      "WindowCenterWidthExplanation": "Algo1",
      "dBdt": 0.0},
    "slices": {}
  },
  "time": {
    "samples": {
      "AcquisitionNumber": [1, 2, 3, 4, 5, 6, 7, 8, 9, 10, 11, 12, 13, 14, 15, 16, 17, 18, 19, 20, 21, 22, 23, 24, 25, 26, 27, 28, 29, 30, 31, 32, 33, 34, 35, 36, 37, 38, 39, 40, 41, 42, 43, 44, 45, 46, 47, 48, 49, 50, 51, 52, 53, 54, 55, 56, 57, 58, 59, 60, 61, 62, 63, 64, 65, 66, 67, 68, 69, 70, 71, 72, 73, 74, 75, 76, 77, 78, 79, 80, 81, 82, 83, 84, 85, 86, 87, 88, 89, 90, 91, 92, 93, 94, 95, 96, 97, 98, 99, 100, 101, 102, 103, 104, 105, 106, 107, 108, 109, 110, 111, 112, 113, 114, 115, 116, 117, 118, 119, 120, 121, 122, 123, 124, 125, 126, 127, 128, 129, 130, 131, 132, 133, 134, 135, 136, 137, 138, 139, 140, 141, 142, 143, 144, 145, 146, 147, 148, 149, 150, 151, 152, 153, 154, 155, 156, 157, 158, 159, 160, 161, 162, 163, 164, 165, 166, 167, 168, 169, 170, 171, 172, 173, 174, 175, 176, 177, 178, 179, 180, 181, 182, 183, 184, 185, 186, 187, 188, 189, 190, 191, 192, 193, 194, 195, 196, 197, 198, 199, 200],
      "AcquisitionTime": ["081931.565000", "081933.565000", "081935.565000", "081937.565000", "081939.565000", "081941.565000", "081943.565000", "081945.565000", "081947.565000", "081949.565000", "081951.565000", "081953.565000", "081955.565000", "081957.565000", "081959.565000", "082001.565000", "082003.565000", "082005.565000", "082007.565000", "082009.565000", "082011.565000", "082013.565000", "082015.565000", "082017.565000", "082019.565000", "082021.565000", "082023.565000", "082025.565000", "082027.565000", "082029.565000", "082031.565000", "082033.565000", "082035.565000", "082037.565000", "082039.565000", "082041.565000", "082043.565000", "082045.565000", "082047.565000", "082049.565000", "082051.565000", "082053.565000", "082055.565000", "082057.565000", "082059.565000", "082101.565000", "082103.565000", "082105.565000", "082107.565000", "082109.565000", "082111.565000", "082113.565000", "082115.565000", "082117.565000", "082119.565000", "082121.565000", "082123.565000", "082125.565000", "082127.565000", "082129.565000", "082131.565000", "082133.565000", "082135.565000", "082137.565000", "082139.565000", "082141.565000", "082143.565000", "082145.565000", "082147.565000", "082149.565000", "082151.565000", "082153.565000", "082155.565000", "082157.565000", "082159.565000", "082201.565000", "082203.565000", "082205.565000", "082207.565000", "082209.565000", "082211.565000", "082213.565000", "082215.565000", "082217.565000", "082219.565000", "082221.565000", "082223.565000", "082225.565000", "082227.565000", "082229.565000", "082231.565000", "082233.565000", "082235.565000", "082237.565000", "082239.565000", "082241.565000", "082243.565000", "082245.565000", "082247.565000", "082249.565000", "082251.565000", "082253.565000", "082255.565000", "082257.565000", "082259.565000", "082301.565000", "082303.565000", "082305.565000", "082307.565000", "082309.565000", "082311.565000", "082313.565000", "082315.565000", "082317.565000", "082319.565000", "082321.565000", "082323.565000", "082325.565000", "082327.565000", "082329.565000", "082331.565000", "082333.565000", "082335.565000", "082337.565000", "082339.565000", "082341.565000", "082343.565000", "082345.565000", "082347.565000", "082349.565000", "082351.565000", "082353.565000", "082355.565000", "082357.565000", "082359.565000", "082401.565000", "082403.565000", "082405.565000", "082407.565000", "082409.565000", "082411.565000", "082413.565000", "082415.565000", "082417.565000", "082419.565000", "082421.565000", "082423.565000", "082425.565000", "082427.565000", "082429.565000", "082431.565000", "082433.565000", "082435.565000", "082437.565000", "082439.565000", "082441.565000", "082443.565000", "082445.565000", "082447.565000", "082449.565000", "082451.565000", "082453.565000", "082455.565000", "082457.565000", "082459.565000", "082501.565000", "082503.565000", "082505.565000", "082507.565000", "082509.565000", "082511.565000", "082513.565000", "082515.565000", "082517.565000", "082519.565000", "082521.565000", "082523.565000", "082525.565000", "082527.565000", "082529.565000", "082531.565000", "082533.565000", "082535.565000", "082537.565000", "082539.565000", "082541.565000", "082543.565000", "082545.565000", "082547.565000", "082549.565000", "082551.565000", "082553.565000", "082555.565000", "082557.565000", "082559.565000", "082601.565000", "082603.565000", "082605.565000", "082607.565000", "082609.565000"],
      "ContentTime": ["082014.327000", "082014.331000", "082014.334000", "082014.336000", "082014.339000", "082014.341000", "082014.344000", "082014.347000", "082014.349000", "082014.352000", "082014.354000", "082014.357000", "082014.360000", "082014.362000", "082014.365000", "082014.367000", "082014.370000", "082014.373000", "082014.380000", "082014.382000", "082014.385000", "082054.324000", "082054.327000", "082054.329000", "082054.332000", "082054.334000", "082054.337000", "082054.339000", "082054.342000", "082054.345000", "082054.347000", "082054.350000", "082054.352000", "082054.355000", "082054.357000", "082054.360000", "082054.362000", "082054.365000", "082054.368000", "082054.370000", "082054.373000", "082134.323000", "082134.325000", "082134.328000", "082134.331000", "082134.333000", "082134.336000", "082134.338000", "082134.341000", "082134.343000", "082134.346000", "082134.348000", "082134.351000", "082134.354000", "082134.356000", "082134.359000", "082134.361000", "082134.364000", "082134.366000", "082134.369000", "082134.372000", "082214.322000", "082214.325000", "082214.328000", "082214.330000", "082214.333000", "082214.336000", "082214.338000", "082214.341000", "082214.343000", "082214.346000", "082214.348000", "082214.351000", "082214.353000", "082214.356000", "082214.359000", "082214.361000", "082214.364000", "082214.366000", "082214.369000", "082214.371000", "082254.322000", "082254.325000", "082254.328000", "082254.330000", "082254.333000", "082254.336000", "082254.338000", "082254.341000", "082254.343000", "082254.346000", "082254.348000", "082254.351000", "082254.353000", "082254.356000", "082254.359000", "082254.361000", "082254.364000", "082254.366000", "082254.369000", "082254.371000", "082334.322000", "082334.325000", "082334.328000", "082334.330000", "082334.333000", "082334.336000", "082334.338000", "082334.341000", "082334.343000", "082334.346000", "082334.348000", "082334.351000", "082334.353000", "082334.356000", "082334.359000", "082334.361000", "082334.364000", "082334.366000", "082334.369000", "082334.372000", "082414.322000", "082414.325000", "082414.328000", "082414.330000", "082414.333000", "082414.336000", "082414.338000", "082414.341000", "082414.343000", "082414.346000", "082414.348000", "082414.351000", "082414.354000", "082414.356000", "082414.359000", "082414.361000", "082414.364000", "082414.366000", "082414.369000", "082414.372000", "082454.322000", "082454.325000", "082454.328000", "082454.330000", "082454.333000", "082454.335000", "082454.338000", "082454.340000", "082454.343000", "082454.346000", "082454.348000", "082454.351000", "082454.353000", "082454.356000", "082454.359000", "082454.361000", "082454.364000", "082454.366000", "082454.369000", "082454.371000", "082534.324000", "082534.326000", "082534.329000", "082534.332000", "082534.334000", "082534.337000", "082534.339000", "082534.342000", "082534.344000", "082534.347000", "082534.350000", "082534.352000", "082534.355000", "082534.357000", "082534.360000", "082534.363000", "082534.365000", "082534.368000", "082534.370000", "082534.373000", "082610.771000", "082610.774000", "082610.776000", "082610.779000", "082610.782000", "082610.784000", "082610.787000", "082610.789000", "082610.792000", "082610.795000", "082610.797000", "082610.800000", "082610.804000", "082610.808000", "082610.811000", "082610.814000", "082610.816000", "082610.819000", "082610.822000"],
      "InstanceCreationTime": ["082014.327000", "082014.331000", "082014.334000", "082014.336000", "082014.339000", "082014.341000", "082014.344000", "082014.347000", "082014.349000", "082014.352000", "082014.354000", "082014.357000", "082014.360000", "082014.362000", "082014.365000", "082014.367000", "082014.370000", "082014.373000", "082014.380000", "082014.382000", "082014.385000", "082054.324000", "082054.327000", "082054.329000", "082054.332000", "082054.334000", "082054.337000", "082054.339000", "082054.342000", "082054.345000", "082054.347000", "082054.350000", "082054.352000", "082054.355000", "082054.357000", "082054.360000", "082054.362000", "082054.365000", "082054.368000", "082054.370000", "082054.373000", "082134.323000", "082134.325000", "082134.328000", "082134.331000", "082134.333000", "082134.336000", "082134.338000", "082134.341000", "082134.343000", "082134.346000", "082134.348000", "082134.351000", "082134.354000", "082134.356000", "082134.359000", "082134.361000", "082134.364000", "082134.366000", "082134.369000", "082134.372000", "082214.322000", "082214.325000", "082214.328000", "082214.330000", "082214.333000", "082214.336000", "082214.338000", "082214.341000", "082214.343000", "082214.346000", "082214.348000", "082214.351000", "082214.353000", "082214.356000", "082214.359000", "082214.361000", "082214.364000", "082214.366000", "082214.369000", "082214.371000", "082254.322000", "082254.325000", "082254.328000", "082254.330000", "082254.333000", "082254.336000", "082254.338000", "082254.341000", "082254.343000", "082254.346000", "082254.348000", "082254.351000", "082254.353000", "082254.356000", "082254.359000", "082254.361000", "082254.364000", "082254.366000", "082254.369000", "082254.371000", "082334.322000", "082334.325000", "082334.328000", "082334.330000", "082334.333000", "082334.336000", "082334.338000", "082334.341000", "082334.343000", "082334.346000", "082334.348000", "082334.351000", "082334.353000", "082334.356000", "082334.359000", "082334.361000", "082334.364000", "082334.366000", "082334.369000", "082334.372000", "082414.322000", "082414.325000", "082414.328000", "082414.330000", "082414.333000", "082414.336000", "082414.338000", "082414.341000", "082414.343000", "082414.346000", "082414.348000", "082414.351000", "082414.354000", "082414.356000", "082414.359000", "082414.361000", "082414.364000", "082414.366000", "082414.369000", "082414.372000", "082454.322000", "082454.325000", "082454.328000", "082454.330000", "082454.333000", "082454.335000", "082454.338000", "082454.340000", "082454.343000", "082454.346000", "082454.348000", "082454.351000", "082454.353000", "082454.356000", "082454.359000", "082454.361000", "082454.364000", "082454.366000", "082454.369000", "082454.371000", "082534.324000", "082534.326000", "082534.329000", "082534.332000", "082534.334000", "082534.337000", "082534.339000", "082534.342000", "082534.344000", "082534.347000", "082534.350000", "082534.352000", "082534.355000", "082534.357000", "082534.360000", "082534.363000", "082534.365000", "082534.368000", "082534.370000", "082534.373000", "082610.771000", "082610.774000", "082610.776000", "082610.779000", "082610.782000", "082610.784000", "082610.787000", "082610.789000", "082610.792000", "082610.795000", "082610.797000", "082610.800000", "082610.804000", "082610.808000", "082610.811000", "082610.814000", "082610.816000", "082610.819000", "082610.822000"],
      "InstanceNumber": [1, 2, 3, 4, 5, 6, 7, 8, 9, 10, 11, 12, 13, 14, 15, 16, 17, 18, 19, 20, 21, 22, 23, 24, 25, 26, 27, 28, 29, 30, 31, 32, 33, 34, 35, 36, 37, 38, 39, 40, 41, 42, 43, 44, 45, 46, 47, 48, 49, 50, 51, 52, 53, 54, 55, 56, 57, 58, 59, 60, 61, 62, 63, 64, 65, 66, 67, 68, 69, 70, 71, 72, 73, 74, 75, 76, 77, 78, 79, 80, 81, 82, 83, 84, 85, 86, 87, 88, 89, 90, 91, 92, 93, 94, 95, 96, 97, 98, 99, 100, 101, 102, 103, 104, 105, 106, 107, 108, 109, 110, 111, 112, 113, 114, 115, 116, 117, 118, 119, 120, 121, 122, 123, 124, 125, 126, 127, 128, 129, 130, 131, 132, 133, 134, 135, 136, 137, 138, 139, 140, 141, 142, 143, 144, 145, 146, 147, 148, 149, 150, 151, 152, 153, 154, 155, 156, 157, 158, 159, 160, 161, 162, 163, 164, 165, 166, 167, 168, 169, 170, 171, 172, 173, 174, 175, 176, 177, 178, 179, 180, 181, 182, 183, 184, 185, 186, 187, 188, 189, 190, 191, 192, 193, 194, 195, 196, 197, 198, 199, 200],
      "WindowCenter": [1506.0, 1505.0, 1505.0, 1505.0, 1505.0, 1505.0, 1505.0, 1504.0, 1504.0, 1504.0, 1504.0, 1504.0, 1504.0, 1504.0, 1504.0, 1504.0, 1504.0, 1504.0, 1504.0, 1504.0, 1503.0, 1503.0, 1503.0, 1503.0, 1503.0, 1503.0, 1503.0, 1504.0, 1503.0, 1502.0, 1503.0, 1502.0, 1502.0, 1502.0, 1502.0, 1503.0, 1503.0, 1503.0, 1502.0, 1503.0, 1503.0, 1502.0, 1502.0, 1503.0, 1503.0, 1504.0, 1503.0, 1503.0, 1503.0, 1503.0, 1502.0, 1503.0, 1502.0, 1501.0, 1501.0, 1502.0, 1501.0, 1502.0, 1501.0, 1501.0, 1501.0, 1501.0, 1501.0, 1501.0, 1500.0, 1500.0, 1500.0, 1501.0, 1501.0, 1500.0, 1501.0, 1501.0, 1500.0, 1500.0, 1500.0, 1500.0, 1499.0, 1499.0, 1500.0, 1500.0, 1500.0, 1501.0, 1500.0, 1499.0, 1500.0, 1499.0, 1499.0, 1500.0, 1499.0, 1499.0, 1500.0, 1499.0, 1500.0, 1500.0, 1499.0, 1499.0, 1499.0, 1499.0, 1499.0, 1499.0, 1499.0, 1499.0, 1499.0, 1499.0, 1499.0, 1499.0, 1499.0, 1500.0, 1499.0, 1500.0, 1500.0, 1500.0, 1500.0, 1501.0, 1500.0, 1501.0, 1501.0, 1500.0, 1500.0, 1500.0, 1500.0, 1501.0, 1500.0, 1500.0, 1499.0, 1499.0, 1499.0, 1500.0, 1499.0, 1500.0, 1499.0, 1499.0, 1499.0, 1500.0, 1499.0, 1499.0, 1499.0, 1500.0, 1499.0, 1499.0, 1499.0, 1499.0, 1499.0, 1499.0, 1499.0, 1499.0, 1499.0, 1499.0, 1499.0, 1497.0, 1499.0, 1498.0, 1499.0, 1498.0, 1498.0, 1498.0, 1499.0, 1499.0, 1498.0, 1498.0, 1498.0, 1498.0, 1499.0, 1498.0, 1498.0, 1499.0, 1498.0, 1499.0, 1498.0, 1498.0, 1498.0, 1498.0, 1498.0, 1498.0, 1497.0, 1498.0, 1498.0, 1497.0, 1498.0, 1498.0, 1498.0, 1498.0, 1499.0, 1498.0, 1498.0, 1498.0, 1498.0, 1498.0, 1498.0, 1498.0, 1497.0, 1498.0, 1498.0, 1498.0, 1498.0, 1498.0, 1497.0, 1498.0, 1497.0, 1497.0],
      "WindowWidth": [3500.0, 3501.0, 3500.0, 3500.0, 3500.0, 3500.0, 3500.0, 3500.0, 3499.0, 3500.0, 3499.0, 3499.0, 3500.0, 3499.0, 3499.0, 3498.0, 3498.0, 3499.0, 3499.0, 3500.0, 3500.0, 3500.0, 3500.0, 3499.0, 3499.0, 3499.0, 3499.0, 3499.0, 3499.0, 3499.0, 3498.0, 3498.0, 3498.0, 3498.0, 3498.0, 3498.0, 3498.0, 3498.0, 3498.0, 3498.0, 3498.0, 3498.0, 3498.0, 3498.0, 3498.0, 3498.0, 3498.0, 3498.0, 3498.0, 3498.0, 3498.0, 3498.0, 3498.0, 3497.0, 3496.0, 3496.0, 3496.0, 3496.0, 3497.0, 3496.0, 3496.0, 3496.0, 3495.0, 3495.0, 3495.0, 3495.0, 3495.0, 3495.0, 3495.0, 3495.0, 3495.0, 3495.0, 3495.0, 3495.0, 3495.0, 3495.0, 3495.0, 3495.0, 3495.0, 3495.0, 3495.0, 3495.0, 3495.0, 3495.0, 3494.0, 3495.0, 3494.0, 3494.0, 3494.0, 3494.0, 3495.0, 3495.0, 3494.0, 3494.0, 3494.0, 3494.0, 3494.0, 3494.0, 3495.0, 3494.0, 3494.0, 3494.0, 3494.0, 3494.0, 3494.0, 3494.0, 3494.0, 3494.0, 3494.0, 3496.0, 3496.0, 3496.0, 3496.0, 3496.0, 3496.0, 3497.0, 3497.0, 3496.0, 3496.0, 3496.0, 3496.0, 3495.0, 3496.0, 3496.0, 3496.0, 3495.0, 3495.0, 3495.0, 3495.0, 3495.0, 3495.0, 3495.0, 3495.0, 3495.0, 3495.0, 3495.0, 3495.0, 3495.0, 3495.0, 3495.0, 3495.0, 3495.0, 3495.0, 3495.0, 3495.0, 3495.0, 3495.0, 3495.0, 3495.0, 3495.0, 3495.0, 3495.0, 3495.0, 3495.0, 3495.0, 3495.0, 3495.0, 3495.0, 3495.0, 3495.0, 3495.0, 3495.0, 3494.0, 3495.0, 3495.0, 3494.0, 3495.0, 3494.0, 3495.0, 3495.0, 3494.0, 3494.0, 3495.0, 3494.0, 3495.0, 3494.0, 3494.0, 3494.0, 3495.0, 3494.0, 3495.0, 3495.0, 3495.0, 3495.0, 3495.0, 3495.0, 3495.0, 3494.0, 3495.0, 3495.0, 3495.0, 3494.0, 3494.0, 3494.0, 3494.0, 3494.0, 3494.0, 3494.0, 3494.0, 3494.0]
    },
    "slices": {}
  }
}