{
  "AcquisitionMatrixPE": 80,
  "AcquisitionNumber": 1,
  "AcquisitionTime": "08:26:17.530000",
  "BandwidthPerPixelPhaseEncode": 25,
  "BaseResolution": 80,
  "BodyPartExamined": "BRAIN",
  "CoilCombinationMethod": "Sum of Squares",
  "ConsistencyInfo": "N4_VE11C_LATEST_20160120",
  "ConversionSoftware": "dcm2niix",
  "ConversionSoftwareVersion": "v1.0.20220720",
  "DerivedVendorReportedEchoSpacing": 0.0005,
  "DeviceSerialNumber": "66112",
  "DwellTime": 2.7e-06,
  "EchoTime": 0.03,
  "EchoTrainLength": 80,
  "EffectiveEchoSpacing": 0.0005,
  "FlipAngle": 10,
  "HeudiconvVersion": "0.13.1",
  "ImageOrientationPatientDICOM": [0.995899, -0.0904402, 0.00236204, 0.0850284, 0.944587, 0.317057],
  "ImageOrientationText": "Tra>Cor(18.4)>Sag(1.8)",
  "ImageType": [
    "ORIGINAL",
    "PRIMARY",
    "M",
    "ND",
    "NORM",
    "MOSAIC"
],
  "ImagingFrequency": 123.252,
  "InPlanePhaseEncodingDirectionDICOM": "COL",
  "InstitutionAddress": "Maynard 3,Hanover,NH,US,03755",
  "InstitutionName": "Dartmouth College - PBS",
  "InstitutionalDepartmentName": "Department",
  "MRAcquisitionType": "2D",
  "MagneticFieldStrength": 3,
  "Manufacturer": "Siemens",
  "ManufacturersModelName": "Prisma",
  "MatrixCoilMode": "SENSE",
  "Modality": "MR",
  "NonlinearGradientCorrection": false,
  "PartialFourier": 1,
  "PatientPosition": "HFS",
  "PercentPhaseFOV": 100,
  "PercentSampling": 100,
  "PhaseEncodingDirection": "j-",
  "PhaseEncodingSteps": 80,
  "PhaseResolution": 1,
  "PixelBandwidth": 2315,
  "ProcedureStepDescription": "dbic^QA",
  "ProtocolName": "func-bold_fa-10",
  "PulseSequenceDetails": "%SiemensSeq%\\ep2d_bold",
  "ReceiveCoilActiveElements": "HC1-7;NC1,2",
  "ReceiveCoilName": "HeadNeck_64",
  "ReconMatrixPE": 80,
  "RepetitionTime": 2,
  "SAR": 0.007546,
  "ScanOptions": "FS",
  "ScanningSequence": "EP",
  "SequenceName": "*epfid2d1_80",
  "SequenceVariant": "SK",
  "SeriesDescription": "func-bold_fa-10",
  "SeriesNumber": 9,
  "ShimSetting": [4141, -7711, -7510, 249, -117, -262, -83, 98],
  "SliceThickness": 3.5,
  "SliceTiming": [0.99, 0, 1.055, 0.065, 1.1225, 0.1325, 1.1875, 0.1975, 1.255, 0.265, 1.32, 0.33, 1.385, 0.395, 1.4525, 0.4625, 1.5175, 0.5275, 1.5825, 0.595, 1.65, 0.66, 1.715, 0.725, 1.7825, 0.7925, 1.8475, 0.8575, 1.9125, 0.925],
  "SoftwareVersions": "syngo MR E11",
  "SpacingBetweenSlices": 3.99,
  "StationName": "AWP66112",
  "TotalReadoutTime": 0.0395,
  "TxRefAmp": 206.483,
  "dcmmeta_affine": [
    [-2.9876973628997803, 0.2550853192806244, 0.1233142837882042, 106.84186553955078],
    [0.2713205814361572, 2.833761692047119, 1.2590677738189697, -141.9248504638672],
    [0.00708610936999321, -0.9511706829071045, 3.784130334854126, -18.500215530395508],
    [0.0, 0.0, 0.0, 1.0]
],
  "dcmmeta_reorient_transform": [
    [0.0, -1.0, 0.0, 79.0],
    [1.0, 0.0, 0.0, 0.0],
    [0.0, 0.0, 1.0, 0.0],
    [0.0, 0.0, 0.0, 1.0]
],
  "dcmmeta_shape": [80, 80, 30, 200],
  "dcmmeta_slice_dim": 2,
  "dcmmeta_version": 0.6,
  "global": {
    "const": {
      "AccessionNumber": "qa64",
      "AcquisitionMatrix": [80, 0, 0, 80],
      "AngioFlag": "N",
      "BitsAllocated": 16,
      "BitsStored": 12,
      "BodyPartExamined": "BRAIN",
      "Columns": 480,
      "EchoNumbers": 1,
      "EchoTime": 30.0,
      "EchoTrainLength": 80,
      "FlipAngle": 10.0,
      "HighBit": 11,
      "ImageOrientationPatient": [0.99589908776786, -0.0904401888915, 0.00236203649736, 0.08502844455794, 0.94458726100517, 0.31705688758141],
      "ImagePositionPatient": [-775.55012660786, -594.43057308947, -285.29405285747],
      "ImageType": [
        "ORIGINAL",
        "PRIMARY",
        "M",
        "ND",
        "NORM",
        "MOSAIC"
],
      "ImagedNucleus": "1H",
      "ImagingFrequency": 123.252352,
      "InPlanePhaseEncodingDirection": "COL",
      "MRAcquisitionType": "2D",
      "MagneticFieldStrength": 3.0,
      "Manufacturer": "SIEMENS",
      "ManufacturerModelName": "Prisma",
      "Modality": "MR",
      "NumberOfAverages": 1.0,
      "NumberOfPhaseEncodingSteps": 80,
      "PercentPhaseFieldOfView": 100.0,
      "PercentSampling": 100.0,
      "PerformedProcedureStepStartTime": "075813.425000",
      "PhotometricInterpretation": "MONOCHROME2",
      "PixelBandwidth": 2315.0,
      "PixelRepresentation": 0,
      "PixelSpacing": [3.0, 3.0],
      "ProtocolName": "func-bold_fa-10",
      "RepetitionTime": 2000.0,
      "Rows": 480,
      "SAR": 0.00754599531873,
      "SamplesPerPixel": 1,
      "ScanOptions": "FS",
      "ScanningSequence": "EP",
      "SequenceName": "*epfid2d1_80",
      "SequenceVariant": "SK",
      "SeriesDescription": "func-bold_fa-10",
      "SeriesNumber": 9,
      "SeriesTime": "082714.395000",
      "SliceLocation": -59.028847558633,
      "SliceThickness": 3.5,
      "SmallestImagePixelValue": 0,
      "SoftwareVersions": "syngo MR E11",
      "SpacingBetweenSlices": 3.9900000801999,
      "SpecificCharacterSet": "ISO_IR 100",
      "StudyID": "38",
      "StudyTime": "075813.343000",
      "TransmitCoilName": "Body",
      "VariableFlipAngleFlag": "N",
      "WindowCenterWidthExplanation": "Algo1",
      "dBdt": 0.0},
    "slices": {}
  },
  "time": {
    "samples": {
      "AcquisitionNumber": [1, 2, 3, 4, 5, 6, 7, 8, 9, 10, 11, 12, 13, 14, 15, 16, 17, 18, 19, 20, 21, 22, 23, 24, 25, 26, 27, 28, 29, 30, 31, 32, 33, 34, 35, 36, 37, 38, 39, 40, 41, 42, 43, 44, 45, 46, 47, 48, 49, 50, 51, 52, 53, 54, 55, 56, 57, 58, 59, 60, 61, 62, 63, 64, 65, 66, 67, 68, 69, 70, 71, 72, 73, 74, 75, 76, 77, 78, 79, 80, 81, 82, 83, 84, 85, 86, 87, 88, 89, 90, 91, 92, 93, 94, 95, 96, 97, 98, 99, 100, 101, 102, 103, 104, 105, 106, 107, 108, 109, 110, 111, 112, 113, 114, 115, 116, 117, 118, 119, 120, 121, 122, 123, 124, 125, 126, 127, 128, 129, 130, 131, 132, 133, 134, 135, 136, 137, 138, 139, 140, 141, 142, 143, 144, 145, 146, 147, 148, 149, 150, 151, 152, 153, 154, 155, 156, 157, 158, 159, 160, 161, 162, 163, 164, 165, 166, 167, 168, 169, 170, 171, 172, 173, 174, 175, 176, 177, 178, 179, 180, 181, 182, 183, 184, 185, 186, 187, 188, 189, 190, 191, 192, 193, 194, 195, 196, 197, 198, 199, 200],
      "AcquisitionTime": ["082617.530000", "082619.530000", "082621.530000", "082623.530000", "082625.530000", "082627.530000", "082629.530000", "082631.530000", "082633.530000", "082635.530000", "082637.530000", "082639.530000", "082641.530000", "082643.530000", "082645.530000", "082647.530000", "082649.530000", "082651.530000", "082653.530000", "082655.530000", "082657.530000", "082659.530000", "082701.530000", "082703.530000", "082705.530000", "082707.530000", "082709.530000", "082711.530000", "082713.530000", "082715.530000", "082717.530000", "082719.530000", "082721.530000", "082723.530000", "082725.530000", "082727.530000", "082729.530000", "082731.530000", "082733.530000", "082735.530000", "082737.530000", "082739.530000", "082741.530000", "082743.530000", "082745.530000", "082747.530000", "082749.530000", "082751.530000", "082753.530000", "082755.530000", "082757.530000", "082759.530000", "082801.530000", "082803.530000", "082805.530000", "082807.530000", "082809.530000", "082811.530000", "082813.530000", "082815.530000", "082817.530000", "082819.530000", "082821.530000", "082823.530000", "082825.530000", "082827.530000", "082829.530000", "082831.530000", "082833.530000", "082835.530000", "082837.530000", "082839.530000", "082841.530000", "082843.530000", "082845.530000", "082847.530000", "082849.530000", "082851.530000", "082853.530000", "082855.530000", "082857.530000", "082859.530000", "082901.530000", "082903.530000", "082905.530000", "082907.530000", "082909.530000", "082911.530000", "082913.530000", "082915.530000", "082917.530000", "082919.530000", "082921.530000", "082923.530000", "082925.530000", "082927.530000", "082929.530000", "082931.530000", "082933.530000", "082935.530000", "082937.530000", "082939.530000", "082941.530000", "082943.530000", "082945.530000", "082947.530000", "082949.530000", "082951.530000", "082953.530000", "082955.530000", "082957.530000", "082959.530000", "083001.530000", "083003.530000", "083005.530000", "083007.530000", "083009.530000", "083011.530000", "083013.530000", "083015.530000", "083017.530000", "083019.530000", "083021.530000", "083023.530000", "083025.530000", "083027.530000", "083029.530000", "083031.530000", "083033.530000", "083035.530000", "083037.530000", "083039.530000", "083041.530000", "083043.530000", "083045.530000", "083047.530000", "083049.530000", "083051.530000", "083053.530000", "083055.530000", "083057.530000", "083059.530000", "083101.530000", "083103.530000", "083105.530000", "083107.530000", "083109.530000", "083111.530000", "083113.530000", "083115.530000", "083117.530000", "083119.530000", "083121.530000", "083123.530000", "083125.530000", "083127.530000", "083129.530000", "083131.530000", "083133.530000", "083135.530000", "083137.530000", "083139.530000", "083141.530000", "083143.530000", "083145.530000", "083147.530000", "083149.530000", "083151.530000", "083153.530000", "083155.530000", "083157.530000", "083159.530000", "083201.530000", "083203.530000", "083205.530000", "083207.530000", "083209.530000", "083211.530000", "083213.530000", "083215.530000", "083217.530000", "083219.530000", "083221.530000", "083223.530000", "083225.530000", "083227.530000", "083229.530000", "083231.530000", "083233.530000", "083235.530000", "083237.530000", "083239.530000", "083241.530000", "083243.530000", "083245.530000", "083247.530000", "083249.530000", "083251.530000", "083253.530000", "083255.530000"],
      "ContentTime": ["082714.398000", "082714.401000", "082714.404000", "082714.407000", "082714.409000", "082714.412000", "082714.414000", "082714.417000", "082714.419000", "082714.422000", "082714.425000", "082714.427000", "082714.430000", "082714.432000", "082714.435000", "082714.437000", "082714.440000", "082714.442000", "082714.445000", "082714.447000", "082714.461000", "082714.464000", "082714.466000", "082714.469000", "082714.471000", "082714.474000", "082714.476000", "082714.479000", "082754.394000", "082754.397000", "082754.400000", "082754.402000", "082754.419000", "082754.421000", "082754.424000", "082754.427000", "082754.429000", "082754.432000", "082754.434000", "082754.437000", "082754.439000", "082754.442000", "082754.445000", "082754.447000", "082754.450000", "082754.452000", "082754.455000", "082754.457000", "082834.393000", "082834.396000", "082834.399000", "082834.401000", "082834.404000", "082834.406000", "082834.409000", "082834.412000", "082834.414000", "082834.417000", "082834.419000", "082834.422000", "082834.424000", "082834.427000", "082834.429000", "082834.432000", "082834.434000", "082834.437000", "082834.440000", "082834.442000", "082914.393000", "082914.396000", "082914.399000", "082914.401000", "082914.404000", "082914.406000", "082914.409000", "082914.411000", "082914.414000", "082914.417000", "082914.419000", "082914.422000", "082914.424000", "082914.427000", "082914.429000", "082914.432000", "082914.434000", "082914.437000", "082914.439000", "082914.442000", "082954.393000", "082954.396000", "082954.399000", "082954.401000", "082954.404000", "082954.407000", "082954.409000", "082954.412000", "082954.414000", "082954.417000", "082954.419000", "082954.422000", "082954.424000", "082954.427000", "082954.430000", "082954.432000", "082954.435000", "082954.437000", "082954.440000", "082954.442000", "083034.393000", "083034.396000", "083034.399000", "083034.402000", "083034.404000", "083034.407000", "083034.409000", "083034.412000", "083034.414000", "083034.417000", "083034.420000", "083034.422000", "083034.425000", "083034.427000", "083034.430000", "083034.432000", "083034.435000", "083034.437000", "083034.440000", "083034.442000", "083114.394000", "083114.396000", "083114.399000", "083114.401000", "083114.404000", "083114.406000", "083114.409000", "083114.411000", "083114.414000", "083114.417000", "083114.419000", "083114.422000", "083114.424000", "083114.427000", "083114.429000", "083114.432000", "083114.434000", "083114.437000", "083114.440000", "083114.442000", "083154.394000", "083154.396000", "083154.399000", "083154.401000", "083154.404000", "083154.406000", "083154.409000", "083154.412000", "083154.414000", "083154.417000", "083154.419000", "083154.422000", "083154.425000", "083154.427000", "083154.435000", "083154.437000", "083154.440000", "083154.443000", "083154.445000", "083154.448000", "083234.395000", "083234.397000", "083234.400000", "083234.403000", "083234.405000", "083234.408000", "083234.410000", "083234.413000", "083234.415000", "083234.418000", "083234.421000", "083234.423000", "083234.426000", "083234.428000", "083234.431000", "083234.433000", "083234.436000", "083234.438000", "083234.441000", "083234.443000", "083257.340000", "083257.343000", "083257.346000", "083257.348000", "083257.351000", "083257.353000", "083257.356000", "083257.359000", "083257.361000", "083257.364000", "083257.366000", "083257.369000"],
      "InstanceCreationTime": ["082714.398000", "082714.401000", "082714.404000", "082714.407000", "082714.409000", "082714.412000", "082714.414000", "082714.417000", "082714.419000", "082714.422000", "082714.425000", "082714.427000", "082714.430000", "082714.432000", "082714.435000", "082714.437000", "082714.440000", "082714.442000", "082714.445000", "082714.447000", "082714.461000", "082714.464000", "082714.466000", "082714.469000", "082714.471000", "082714.474000", "082714.476000", "082714.479000", "082754.394000", "082754.397000", "082754.400000", "082754.402000", "082754.419000", "082754.421000", "082754.424000", "082754.427000", "082754.429000", "082754.432000", "082754.434000", "082754.437000", "082754.439000", "082754.442000", "082754.445000", "082754.447000", "082754.450000", "082754.452000", "082754.455000", "082754.457000", "082834.393000", "082834.396000", "082834.399000", "082834.401000", "082834.404000", "082834.406000", "082834.409000", "082834.412000", "082834.414000", "082834.417000", "082834.419000", "082834.422000", "082834.424000", "082834.427000", "082834.429000", "082834.432000", "082834.434000", "082834.437000", "082834.440000", "082834.442000", "082914.393000", "082914.396000", "082914.399000", "082914.401000", "082914.404000", "082914.406000", "082914.409000", "082914.411000", "082914.414000", "082914.417000", "082914.419000", "082914.422000", "082914.424000", "082914.427000", "082914.429000", "082914.432000", "082914.434000", "082914.437000", "082914.439000", "082914.442000", "082954.393000", "082954.396000", "082954.399000", "082954.401000", "082954.404000", "082954.407000", "082954.409000", "082954.412000", "082954.414000", "082954.417000", "082954.419000", "082954.422000", "082954.424000", "082954.427000", "082954.430000", "082954.432000", "082954.435000", "082954.437000", "082954.440000", "082954.442000", "083034.393000", "083034.396000", "083034.399000", "083034.402000", "083034.404000", "083034.407000", "083034.409000", "083034.412000", "083034.414000", "083034.417000", "083034.420000", "083034.422000", "083034.425000", "083034.427000", "083034.430000", "083034.432000", "083034.435000", "083034.437000", "083034.440000", "083034.442000", "083114.394000", "083114.396000", "083114.399000", "083114.401000", "083114.404000", "083114.406000", "083114.409000", "083114.411000", "083114.414000", "083114.417000", "083114.419000", "083114.422000", "083114.424000", "083114.427000", "083114.429000", "083114.432000", "083114.434000", "083114.437000", "083114.440000", "083114.442000", "083154.394000", "083154.396000", "083154.399000", "083154.401000", "083154.404000", "083154.406000", "083154.409000", "083154.412000", "083154.414000", "083154.417000", "083154.419000", "083154.422000", "083154.425000", "083154.427000", "083154.435000", "083154.437000", "083154.440000", "083154.443000", "083154.445000", "083154.448000", "083234.395000", "083234.397000", "083234.400000", "083234.403000", "083234.405000", "083234.408000", "083234.410000", "083234.413000", "083234.415000", "083234.418000", "083234.421000", "083234.423000", "083234.426000", "083234.428000", "083234.431000", "083234.433000", "083234.436000", "083234.438000", "083234.441000", "083234.443000", "083257.340000", "083257.343000", "083257.346000", "083257.348000", "083257.351000", "083257.353000", "083257.356000", "083257.359000", "083257.361000", "083257.364000", "083257.366000", "083257.369000"],
      "InstanceNumber": [1, 2, 3, 4, 5, 6, 7, 8, 9, 10, 11, 12, 13, 14, 15, 16, 17, 18, 19, 20, 21, 22, 23, 24, 25, 26, 27, 28, 29, 30, 31, 32, 33, 34, 35, 36, 37, 38, 39, 40, 41, 42, 43, 44, 45, 46, 47, 48, 49, 50, 51, 52, 53, 54, 55, 56, 57, 58, 59, 60, 61, 62, 63, 64, 65, 66, 67, 68, 69, 70, 71, 72, 73, 74, 75, 76, 77, 78, 79, 80, 81, 82, 83, 84, 85, 86, 87, 88, 89, 90, 91, 92, 93, 94, 95, 96, 97, 98, 99, 100, 101, 102, 103, 104, 105, 106, 107, 108, 109, 110, 111, 112, 113, 114, 115, 116, 117, 118, 119, 120, 121, 122, 123, 124, 125, 126, 127, 128, 129, 130, 131, 132, 133, 134, 135, 136, 137, 138, 139, 140, 141, 142, 143, 144, 145, 146, 147, 148, 149, 150, 151, 152, 153, 154, 155, 156, 157, 158, 159, 160, 161, 162, 163, 164, 165, 166, 167, 168, 169, 170, 171, 172, 173, 174, 175, 176, 177, 178, 179, 180, 181, 182, 183, 184, 185, 186, 187, 188, 189, 190, 191, 192, 193, 194, 195, 196, 197, 198, 199, 200],
      "LargestImagePixelValue": [821, 820, 822, 818, 819, 821, 822, 819, 817, 822, 820, 819, 821, 820, 821, 821, 818, 821, 818, 819, 819, 824, 819, 818, 817, 820, 820, 821, 817, 821, 819, 817, 818, 818, 822, 818, 821, 822, 819, 820, 821, 819, 821, 820, 818, 816, 818, 817, 819, 818, 817, 820, 819, 818, 819, 816, 819, 818, 818, 818, 817, 819, 817, 819, 820, 819, 818, 821, 816, 818, 821, 820, 817, 821, 821, 818, 819, 819, 821, 816, 823, 819, 818, 818, 817, 820, 816, 819, 821, 819, 822, 819, 820, 819, 818, 817, 817, 818, 821, 820, 819, 820, 821, 819, 818, 820, 818, 818, 817, 819, 819, 818, 820, 816, 820, 818, 820, 818, 826, 818, 819, 820, 819, 820, 822, 817, 820, 818, 821, 818, 819, 817, 820, 818, 819, 819, 819, 817, 822, 816, 818, 820, 817, 819, 819, 817, 818, 815, 818, 817, 817, 820, 818, 823, 826, 824, 819, 826, 817, 819, 818, 820, 819, 817, 817, 818, 817, 818, 818, 817, 815, 821, 826, 825, 825, 822, 825, 823, 825, 822, 823, 822, 825, 823, 828, 826, 825, 826, 827, 825, 826, 825, 823, 826, 825, 822, 825, 824, 825, 822],
      "WindowCenter": [485.0, 485.0, 485.0, 485.0, 485.0, 485.0, 485.0, 485.0, 485.0, 485.0, 485.0, 485.0, 485.0, 485.0, 485.0, 485.0, 485.0, 485.0, 485.0, 485.0, 485.0, 485.0, 485.0, 485.0, 485.0, 485.0, 485.0, 485.0, 485.0, 485.0, 485.0, 485.0, 485.0, 485.0, 485.0, 485.0, 485.0, 485.0, 485.0, 485.0, 485.0, 485.0, 485.0, 485.0, 484.0, 485.0, 485.0, 484.0, 485.0, 485.0, 485.0, 485.0, 485.0, 485.0, 485.0, 485.0, 485.0, 485.0, 485.0, 485.0, 485.0, 485.0, 485.0, 484.0, 484.0, 484.0, 485.0, 485.0, 485.0, 485.0, 485.0, 485.0, 485.0, 485.0, 485.0, 485.0, 485.0, 484.0, 485.0, 485.0, 485.0, 484.0, 485.0, 485.0, 484.0, 485.0, 484.0, 484.0, 485.0, 484.0, 485.0, 485.0, 485.0, 484.0, 484.0, 485.0, 484.0, 484.0, 484.0, 485.0, 484.0, 484.0, 484.0, 484.0, 485.0, 484.0, 484.0, 484.0, 484.0, 484.0, 484.0, 484.0, 484.0, 484.0, 484.0, 484.0, 484.0, 484.0, 487.0, 484.0, 484.0, 484.0, 484.0, 484.0, 484.0, 484.0, 484.0, 484.0, 484.0, 484.0, 484.0, 484.0, 484.0, 484.0, 484.0, 484.0, 484.0, 484.0, 484.0, 484.0, 484.0, 484.0, 484.0, 484.0, 484.0, 484.0, 484.0, 484.0, 484.0, 484.0, 484.0, 484.0, 484.0, 487.0, 487.0, 487.0, 485.0, 487.0, 485.0, 484.0, 484.0, 484.0, 484.0, 484.0, 484.0, 484.0, 484.0, 484.0, 484.0, 484.0, 484.0, 486.0, 487.0, 487.0, 487.0, 487.0, 487.0, 487.0, 487.0, 487.0, 487.0, 487.0, 487.0, 487.0, 487.0, 488.0, 488.0, 487.0, 487.0, 487.0, 487.0, 487.0, 487.0, 487.0, 487.0, 487.0, 487.0, 487.0, 487.0, 487.0],
      "WindowWidth": [1003.0, 1003.0, 1004.0, 1004.0, 1003.0, 1003.0, 1004.0, 1003.0, 1003.0, 1003.0, 1003.0, 1003.0, 1003.0, 1003.0, 1003.0, 1003.0, 1003.0, 1003.0, 1003.0, 1003.0, 1003.0, 1004.0, 1002.0, 1002.0, 1002.0, 1002.0, 1002.0, 1002.0, 1002.0, 1002.0, 1002.0, 1002.0, 1002.0, 1002.0, 1002.0, 1002.0, 1002.0, 1002.0, 1002.0, 1002.0, 1002.0, 1002.0, 1002.0, 1002.0, 1002.0, 1002.0, 1002.0, 1002.0, 1002.0, 1002.0, 1002.0, 1002.0, 1002.0, 1002.0, 1002.0, 1002.0, 1002.0, 1002.0, 1002.0, 1002.0, 1002.0, 1002.0, 1002.0, 1002.0, 1001.0, 1001.0, 1002.0, 1002.0, 1002.0, 1002.0, 1002.0, 1002.0, 1002.0, 1002.0, 1002.0, 1002.0, 1002.0, 1002.0, 1002.0, 1002.0, 1003.0, 1001.0, 1002.0, 1002.0, 1001.0, 1002.0, 1001.0, 1001.0, 1002.0, 1001.0, 1002.0, 1002.0, 1002.0, 1001.0, 1001.0, 1002.0, 1002.0, 1002.0, 1001.0, 1002.0, 1001.0, 1002.0, 1001.0, 1002.0, 1004.0, 1001.0, 1002.0, 1001.0, 1002.0, 1001.0, 1001.0, 1002.0, 1001.0, 1001.0, 1001.0, 1001.0, 1001.0, 1001.0, 1006.0, 1001.0, 1001.0, 1001.0, 1001.0, 1001.0, 1001.0, 1001.0, 1001.0, 1001.0, 1001.0, 1001.0, 1001.0, 1001.0, 1001.0, 1001.0, 1001.0, 1001.0, 1001.0, 1001.0, 1001.0, 1001.0, 1001.0, 1001.0, 1001.0, 1001.0, 1001.0, 1001.0, 1001.0, 1001.0, 1001.0, 1001.0, 1001.0, 1001.0, 1001.0, 1007.0, 1007.0, 1007.0, 1002.0, 1007.0, 1002.0, 1001.0, 1001.0, 1001.0, 1001.0, 1001.0, 1001.0, 1001.0, 1001.0, 1001.0, 1001.0, 1001.0, 1001.0, 1005.0, 1007.0, 1007.0, 1007.0, 1007.0, 1007.0, 1007.0, 1007.0, 1007.0, 1007.0, 1007.0, 1007.0, 1007.0, 1007.0, 1008.0, 1008.0, 1007.0, 1007.0, 1007.0, 1007.0, 1007.0, 1007.0, 1007.0, 1007.0, 1007.0, 1007.0, 1007.0, 1007.0, 1007.0]
    },
    "slices": {}
  }
}