{
  "AcquisitionMatrixPE": 122,
  "AcquisitionNumber": 1,
  "AcquisitionTime": "09:39:6.465000",
  "BandwidthPerPixelPhaseEncode": 27.785,
  "BaseResolution": 122,
  "BodyPartExamined": "BRAIN",
  "CoilCombinationMethod": "Adaptive Combine",
  "ConsistencyInfo": "N4_VE11C_LATEST_20160120",
  "ConversionSoftware": "dcm2niix",
  "ConversionSoftwareVersion": "v1.0.20220720",
  "DerivedVendorReportedEchoSpacing": 0.000590011,
  "DeviceSerialNumber": "66112",
  "DiffusionScheme": "Monopolar",
  "DwellTime": 2e-06,
  "EchoTime": 0.068,
  "EchoTrainLength": 61,
  "EffectiveEchoSpacing": 0.000295005,
  "FlipAngle": 90,
  "HeudiconvVersion": "0.13.1",
  "ImageOrientationPatientDICOM": [0.990911, -0.133564, -0.0159871, 0.133096, 0.956266, 0.260462],
  "ImageOrientationText": "Tra>Cor(15.1)>Sag(1.1)",
  "ImageType": [
    "ORIGINAL",
    "PRIMARY",
    "DIFFUSION",
    "NONE",
    "ND",
    "NORM"
],
  "ImagingFrequency": 123.252,
  "InPlanePhaseEncodingDirectionDICOM": "COL",
  "InstitutionAddress": "Maynard 3,Hanover,NH,US,03755",
  "InstitutionName": "Dartmouth College - PBS",
  "InstitutionalDepartmentName": "Department",
  "MRAcquisitionType": "2D",
  "MagneticFieldStrength": 3,
  "Manufacturer": "Siemens",
  "ManufacturersModelName": "Prisma",
  "Modality": "MR",
  "MultibandAccelerationFactor": 4,
  "NonlinearGradientCorrection": false,
  "ParallelReductionFactorInPlane": 2,
  "PartialFourier": 1,
  "PatientPosition": "HFS",
  "PercentPhaseFOV": 100,
  "PercentSampling": 100,
  "PhaseEncodingDirection": "j-",
  "PhaseEncodingSteps": 122,
  "PhaseResolution": 1,
  "PixelBandwidth": 2050,
  "ProcedureStepDescription": "dbic^QA",
  "ProtocolName": "dwi_acq-DTI-30-p2-s4",
  "PulseSequenceDetails": "%SiemensSeq%\\ep2d_diff",
  "ReceiveCoilActiveElements": "HEA;HEP",
  "ReceiveCoilName": "Head_32",
  "ReconMatrixPE": 122,
  "RefLinesPE": 38,
  "RepetitionTime": 3.6,
  "SAR": 0.139509,
  "ScanOptions": "FS",
  "ScanningSequence": "EP",
  "SequenceName": "*ep_b0",
  "SequenceVariant": "SK\\SP",
  "SeriesDescription": "dwi_acq-DTI-30-p2-s4",
  "SeriesNumber": 13,
  "ShimSetting": [4154, -7707, -7533, 282, -49, -90, 7, 98],
  "SliceThickness": 2,
  "SliceTiming": [2.58594, 0, 1.78906, 0.19531, 1.98438, 0.39844, 2.1875, 0.59375, 2.38281, 0.99219, 2.78125, 1.1875, 2.97656, 1.39062, 3.17969, 1.58594, 3.375, 0.78906, 2.58594, 0, 1.78906, 0.19531, 1.98438, 0.39844, 2.1875, 0.59375, 2.38281, 0.99219, 2.78125, 1.1875, 2.97656, 1.39062, 3.17969, 1.58594, 3.375, 0.78906, 2.58594, 0, 1.78906, 0.19531, 1.98438, 0.39844, 2.1875, 0.59375, 2.38281, 0.99219, 2.78125, 1.1875, 2.97656, 1.39062, 3.17969, 1.58594, 3.375, 0.78906, 2.58594, 0, 1.78906, 0.19531, 1.98438, 0.39844, 2.1875, 0.59375, 2.38281, 0.99219, 2.78125, 1.1875, 2.97656, 1.39062, 3.17969, 1.58594, 3.375, 0.78906],
  "SoftwareVersions": "syngo MR E11",
  "SpacingBetweenSlices": 2,
  "SpoilingState": true,
  "StationName": "AWP66112",
  "TotalReadoutTime": 0.0356956,
  "TxRefAmp": 222.748,
  "dcmmeta_affine": [
    [-1.9493337869644165, 0.2618281841278076, 0.039000511169433594, 102.77583312988281],
    [0.2627479135990143, 1.8811794519424438, 0.5204448699951172, -141.256103515625],
    [-0.03145007789134979, -0.5123841166496277, 1.9307060241699219, -46.40243911743164],
    [0.0, 0.0, 0.0, 1.0]
],
  "dcmmeta_reorient_transform": [
    [0.0, -1.0, 0.0, 121.0],
    [1.0, 0.0, 0.0, 0.0],
    [0.0, 0.0, -1.0, 71.0],
    [0.0, 0.0, 0.0, 1.0]
],
  "dcmmeta_shape": [122, 122, 72, 31],
  "dcmmeta_slice_dim": 2,
  "dcmmeta_version": 0.6,
  "global": {
    "const": {
      "AccessionNumber": "qa",
      "AcquisitionMatrix": [122, 0, 0, 122],
      "AngioFlag": "N",
      "BitsAllocated": 16,
      "BitsStored": 12,
      "BodyPartExamined": "BRAIN",
      "Columns": 122,
      "EchoNumbers": 1,
      "EchoTime": 68.0,
      "EchoTrainLength": 61,
      "FlipAngle": 90.0,
      "HighBit": 11,
      "ImageOrientationPatient": [0.99091129581607, -0.1335635269012, -0.0159871231257, 0.13309599295144, 0.95626619655195, 0.26046193194465],
      "ImageType": [
        "ORIGINAL",
        "PRIMARY",
        "DIFFUSION",
        "NONE",
        "ND",
        "NORM"
],
      "ImagedNucleus": "1H",
      "ImagingFrequency": 123.252329,
      "InPlanePhaseEncodingDirection": "COL",
      "MRAcquisitionType": "2D",
      "MagneticFieldStrength": 3.0,
      "Manufacturer": "SIEMENS",
      "ManufacturerModelName": "Prisma",
      "Modality": "MR",
      "NumberOfAverages": 1.0,
      "NumberOfPhaseEncodingSteps": 122,
      "PercentPhaseFieldOfView": 100.0,
      "PercentSampling": 100.0,
      "PerformedProcedureStepStartTime": "090407.969000",
      "PhotometricInterpretation": "MONOCHROME2",
      "PixelBandwidth": 2050.0,
      "PixelRepresentation": 0,
      "PixelSpacing": [1.9672131538391, 1.9672131538391],
      "ProtocolName": "dwi_acq-DTI-30-p2-s4",
      "RepetitionTime": 3600.0,
      "Rows": 122,
      "SAR": 0.13950940554755,
      "SamplesPerPixel": 1,
      "ScanOptions": "FS",
      "ScanningSequence": "EP",
      "SequenceVariant": [
        "SK",
        "SP"
],
      "SeriesDescription": "dwi_acq-DTI-30-p2-s4",
      "SeriesNumber": 13,
      "SeriesTime": "093916.070000",
      "SliceThickness": 2.0,
      "SmallestImagePixelValue": 0,
      "SoftwareVersions": "syngo MR E11",
      "SpacingBetweenSlices": 2.0,
      "SpecificCharacterSet": "ISO_IR 100",
      "StudyID": "68",
      "StudyTime": "090407.917000",
      "TransmitCoilName": "Body",
      "VariableFlipAngleFlag": "N",
      "WindowCenterWidthExplanation": "Algo1",
      "dBdt": 0.0},
    "slices": {
      "AcquisitionTime": ["093906.465000", "093903.880000", "093905.670000", "093904.080000", "093905.867500", "093904.277500", "093906.067500", "093904.477500", "093906.267500", "093904.875000", "093906.665000", "093905.072500", "093906.862500", "093905.272500", "093907.062500", "093905.470000", "093907.260000", "093904.675000", "093906.465000", "093903.880000", "093905.670000", "093904.080000", "093905.867500", "093904.277500", "093906.067500", "093904.477500", "093906.267500", "093904.875000", "093906.665000", "093905.072500", "093906.862500", "093905.272500", "093907.062500", "093905.470000", "093907.260000", "093904.675000", "093906.465000", "093903.880000", "093905.670000", "093904.080000", "093905.867500", "093904.277500", "093906.067500", "093904.477500", "093906.267500", "093904.875000", "093906.665000", "093905.072500", "093906.862500", "093905.272500", "093907.062500", "093905.470000", "093907.260000", "093904.675000", "093906.465000", "093903.880000", "093905.670000", "093904.080000", "093905.867500", "093904.277500", "093906.067500", "093904.477500", "093906.267500", "093904.875000", "093906.665000", "093905.072500", "093906.862500", "093905.272500", "093907.062500", "093905.470000", "093907.260000", "093904.675000", "093910.065000", "093907.480000", "093909.270000", "093907.680000", "093909.467500", "093907.877500", "093909.667500", "093908.077500", "093909.867500", "093908.475000", "093910.265000", "093908.672500", "093910.462500", "093908.872500", "093910.662500", "093909.070000", "093910.860000", "093908.275000", "093910.065000", "093907.480000", "093909.270000", "093907.680000", "093909.467500", "093907.877500", "093909.667500", "093908.077500", "093909.867500", "093908.475000", "093910.265000", "093908.672500", "093910.462500", "093908.872500", "093910.662500", "093909.070000", "093910.860000", "093908.275000", "093910.065000", "093907.480000", "093909.270000", "093907.680000", "093909.467500", "093907.877500", "093909.667500", "093908.077500", "093909.867500", "093908.475000", "093910.265000", "093908.672500", "093910.462500", "093908.872500", "093910.662500", "093909.070000", "093910.860000", "093908.275000", "093910.065000", "093907.480000", "093909.270000", "093907.680000", "093909.467500", "093907.877500", "093909.667500", "093908.077500", "093909.867500", "093908.475000", "093910.265000", "093908.672500", "093910.462500", "093908.872500", "093910.662500", "093909.070000", "093910.860000", "093908.275000", "093913.665000", "093911.080000", "093912.870000", "093911.280000", "093913.067500", "093911.477500", "093913.267500", "093911.677500", "093913.467500", "093912.075000", "093913.865000", "093912.272500", "093914.062500", "093912.472500", "093914.262500", "093912.670000", "093914.460000", "093911.875000", "093913.665000", "093911.080000", "093912.870000", "093911.280000", "093913.067500", "093911.477500", "093913.267500", "093911.677500", "093913.467500", "093912.075000", "093913.865000", "093912.272500", "093914.062500", "093912.472500", "093914.262500", "093912.670000", "093914.460000", "093911.875000", "093913.665000", "093911.080000", "093912.870000", "093911.280000", "093913.067500", "093911.477500", "093913.267500", "093911.677500", "093913.467500", "093912.075000", "093913.865000", "093912.272500", "093914.062500", "093912.472500", "093914.262500", "093912.670000", "093914.460000", "093911.875000", "093913.665000", "093911.080000", "093912.870000", "093911.280000", "093913.067500", "093911.477500", "093913.267500", "093911.677500", "093913.467500", "093912.075000", "093913.865000", "093912.272500", "093914.062500", "093912.472500", "093914.262500", "093912.670000", "093914.460000", "093911.875000", "093917.265000", "093914.680000", "093916.470000", "093914.880000", "093916.667500", "093915.077500", "093916.867500", "093915.277500", "093917.067500", "093915.675000", "093917.465000", "093915.872500", "093917.662500", "093916.072500", "093917.862500", "093916.270000", "093918.060000", "093915.475000", "093917.265000", "093914.680000", "093916.470000", "093914.880000", "093916.667500", "093915.077500", "093916.867500", "093915.277500", "093917.067500", "093915.675000", "093917.465000", "093915.872500", "093917.662500", "093916.072500", "093917.862500", "093916.270000", "093918.060000", "093915.475000", "093917.265000", "093914.680000", "093916.470000", "093914.880000", "093916.667500", "093915.077500", "093916.867500", "093915.277500", "093917.067500", "093915.675000", "093917.465000", "093915.872500", "093917.662500", "093916.072500", "093917.862500", "093916.270000", "093918.060000", "093915.475000", "093917.265000", "093914.680000", "093916.470000", "093914.880000", "093916.667500", "093915.077500", "093916.867500", "093915.277500", "093917.067500", "093915.675000", "093917.465000", "093915.872500", "093917.662500", "093916.072500", "093917.862500", "093916.270000", "093918.060000", "093915.475000", "093920.865000", "093918.280000", "093920.070000", "093918.480000", "093920.267500", "093918.677500", "093920.467500", "093918.877500", "093920.667500", "093919.275000", "093921.065000", "093919.472500", "093921.262500", "093919.672500", "093921.462500", "093919.870000", "093921.660000", "093919.075000", "093920.865000", "093918.280000", "093920.070000", "093918.480000", "093920.267500", "093918.677500", "093920.467500", "093918.877500", "093920.667500", "093919.275000", "093921.065000", "093919.472500", "093921.262500", "093919.672500", "093921.462500", "093919.870000", "093921.660000", "093919.075000", "093920.865000", "093918.280000", "093920.070000", "093918.480000", "093920.267500", "093918.677500", "093920.467500", "093918.877500", "093920.667500", "093919.275000", "093921.065000", "093919.472500", "093921.262500", "093919.672500", "093921.462500", "093919.870000", "093921.660000", "093919.075000", "093920.865000", "093918.280000", "093920.070000", "093918.480000", "093920.267500", "093918.677500", "093920.467500", "093918.877500", "093920.667500", "093919.275000", "093921.065000", "093919.472500", "093921.262500", "093919.672500", "093921.462500", "093919.870000", "093921.660000", "093919.075000", "093924.465000", "093921.880000", "093923.670000", "093922.080000", "093923.867500", "093922.277500", "093924.067500", "093922.477500", "093924.267500", "093922.875000", "093924.665000", "093923.072500", "093924.862500", "093923.272500", "093925.062500", "093923.470000", "093925.260000", "093922.675000", "093924.465000", "093921.880000", "093923.670000", "093922.080000", "093923.867500", "093922.277500", "093924.067500", "093922.477500", "093924.267500", "093922.875000", "093924.665000", "093923.072500", "093924.862500", "093923.272500", "093925.062500", "093923.470000", "093925.260000", "093922.675000", "093924.465000", "093921.880000", "093923.670000", "093922.080000", "093923.867500", "093922.277500", "093924.067500", "093922.477500", "093924.267500", "093922.875000", "093924.665000", "093923.072500", "093924.862500", "093923.272500", "093925.062500", "093923.470000", "093925.260000", "093922.675000", "093924.465000", "093921.880000", "093923.670000", "093922.080000", "093923.867500", "093922.277500", "093924.067500", "093922.477500", "093924.267500", "093922.875000", "093924.665000", "093923.072500", "093924.862500", "093923.272500", "093925.062500", "093923.470000", "093925.260000", "093922.675000", "093928.065000", "093925.480000", "093927.270000", "093925.680000", "093927.467500", "093925.877500", "093927.667500", "093926.077500", "093927.867500", "093926.475000", "093928.265000", "093926.672500", "093928.462500", "093926.872500", "093928.662500", "093927.070000", "093928.860000", "093926.275000", "093928.065000", "093925.480000", "093927.270000", "093925.680000", "093927.467500", "093925.877500", "093927.667500", "093926.077500", "093927.867500", "093926.475000", "093928.265000", "093926.672500", "093928.462500", "093926.872500", "093928.662500", "093927.070000", "093928.860000", "093926.275000", "093928.065000", "093925.480000", "093927.270000", "093925.680000", "093927.467500", "093925.877500", "093927.667500", "093926.077500", "093927.867500", "093926.475000", "093928.265000", "093926.672500", "093928.462500", "093926.872500", "093928.662500", "093927.070000", "093928.860000", "093926.275000", "093928.065000", "093925.480000", "093927.270000", "093925.680000", "093927.467500", "093925.877500", "093927.667500", "093926.077500", "093927.867500", "093926.475000", "093928.265000", "093926.672500", "093928.462500", "093926.872500", "093928.662500", "093927.070000", "093928.860000", "093926.275000", "093931.665000", "093929.080000", "093930.870000", "093929.280000", "093931.067500", "093929.477500", "093931.267500", "093929.677500", "093931.467500", "093930.075000", "093931.865000", "093930.272500", "093932.062500", "093930.472500", "093932.262500", "093930.670000", "093932.460000", "093929.875000", "093931.665000", "093929.080000", "093930.870000", "093929.280000", "093931.067500", "093929.477500", "093931.267500", "093929.677500", "093931.467500", "093930.075000", "093931.865000", "093930.272500", "093932.062500", "093930.472500", "093932.262500", "093930.670000", "093932.460000", "093929.875000", "093931.665000", "093929.080000", "093930.870000", "093929.280000", "093931.067500", "093929.477500", "093931.267500", "093929.677500", "093931.467500", "093930.075000", "093931.865000", "093930.272500", "093932.062500", "093930.472500", "093932.262500", "093930.670000", "093932.460000", "093929.875000", "093931.665000", "093929.080000", "093930.870000", "093929.280000", "093931.067500", "093929.477500", "093931.267500", "093929.677500", "093931.467500", "093930.075000", "093931.865000", "093930.272500", "093932.062500", "093930.472500", "093932.262500", "093930.670000", "093932.460000", "093929.875000", "093935.265000", "093932.680000", "093934.470000", "093932.880000", "093934.667500", "093933.077500", "093934.867500", "093933.277500", "093935.067500", "093933.675000", "093935.465000", "093933.872500", "093935.662500", "093934.072500", "093935.862500", "093934.270000", "093936.060000", "093933.475000", "093935.265000", "093932.680000", "093934.470000", "093932.880000", "093934.667500", "093933.077500", "093934.867500", "093933.277500", "093935.067500", "093933.675000", "093935.465000", "093933.872500", "093935.662500", "093934.072500", "093935.862500", "093934.270000", "093936.060000", "093933.475000", "093935.265000", "093932.680000", "093934.470000", "093932.880000", "093934.667500", "093933.077500", "093934.867500", "093933.277500", "093935.067500", "093933.675000", "093935.465000", "093933.872500", "093935.662500", "093934.072500", "093935.862500", "093934.270000", "093936.060000", "093933.475000", "093935.265000", "093932.680000", "093934.470000", "093932.880000", "093934.667500", "093933.077500", "093934.867500", "093933.277500", "093935.067500", "093933.675000", "093935.465000", "093933.872500", "093935.662500", "093934.072500", "093935.862500", "093934.270000", "093936.060000", "093933.475000", "093938.865000", "093936.280000", "093938.070000", "093936.480000", "093938.267500", "093936.677500", "093938.467500", "093936.877500", "093938.667500", "093937.275000", "093939.065000", "093937.472500", "093939.262500", "093937.672500", "093939.462500", "093937.870000", "093939.660000", "093937.075000", "093938.865000", "093936.280000", "093938.070000", "093936.480000", "093938.267500", "093936.677500", "093938.467500", "093936.877500", "093938.667500", "093937.275000", "093939.065000", "093937.472500", "093939.262500", "093937.672500", "093939.462500", "093937.870000", "093939.660000", "093937.075000", "093938.865000", "093936.280000", "093938.070000", "093936.480000", "093938.267500", "093936.677500", "093938.467500", "093936.877500", "093938.667500", "093937.275000", "093939.065000", "093937.472500", "093939.262500", "093937.672500", "093939.462500", "093937.870000", "093939.660000", "093937.075000", "093938.865000", "093936.280000", "093938.070000", "093936.480000", "093938.267500", "093936.677500", "093938.467500", "093936.877500", "093938.667500", "093937.275000", "093939.065000", "093937.472500", "093939.262500", "093937.672500", "093939.462500", "093937.870000", "093939.660000", "093937.075000", "093942.465000", "093939.880000", "093941.670000", "093940.080000", "093941.867500", "093940.277500", "093942.067500", "093940.477500", "093942.267500", "093940.875000", "093942.665000", "093941.072500", "093942.862500", "093941.272500", "093943.062500", "093941.470000", "093943.260000", "093940.675000", "093942.465000", "093939.880000", "093941.670000", "093940.080000", "093941.867500", "093940.277500", "093942.067500", "093940.477500", "093942.267500", "093940.875000", "093942.665000", "093941.072500", "093942.862500", "093941.272500", "093943.062500", "093941.470000", "093943.260000", "093940.675000", "093942.465000", "093939.880000", "093941.670000", "093940.080000", "093941.867500", "093940.277500", "093942.067500", "093940.477500", "093942.267500", "093940.875000", "093942.665000", "093941.072500", "093942.862500", "093941.272500", "093943.062500", "093941.470000", "093943.260000", "093940.675000", "093942.465000", "093939.880000", "093941.670000", "093940.080000", "093941.867500", "093940.277500", "093942.067500", "093940.477500", "093942.267500", "093940.875000", "093942.665000", "093941.072500", "093942.862500", "093941.272500", "093943.062500", "093941.470000", "093943.260000", "093940.675000", "093946.065000", "093943.480000", "093945.270000", "093943.680000", "093945.467500", "093943.877500", "093945.667500", "093944.077500", "093945.867500", "093944.475000", "093946.265000", "093944.672500", "093946.462500", "093944.872500", "093946.662500", "093945.070000", "093946.860000", "093944.275000", "093946.065000", "093943.480000", "093945.270000", "093943.680000", "093945.467500", "093943.877500", "093945.667500", "093944.077500", "093945.867500", "093944.475000", "093946.265000", "093944.672500", "093946.462500", "093944.872500", "093946.662500", "093945.070000", "093946.860000", "093944.275000", "093946.065000", "093943.480000", "093945.270000", "093943.680000", "093945.467500", "093943.877500", "093945.667500", "093944.077500", "093945.867500", "093944.475000", "093946.265000", "093944.672500", "093946.462500", "093944.872500", "093946.662500", "093945.070000", "093946.860000", "093944.275000", "093946.065000", "093943.480000", "093945.270000", "093943.680000", "093945.467500", "093943.877500", "093945.667500", "093944.077500", "093945.867500", "093944.475000", "093946.265000", "093944.672500", "093946.462500", "093944.872500", "093946.662500", "093945.070000", "093946.860000", "093944.275000", "093949.665000", "093947.080000", "093948.870000", "093947.280000", "093949.067500", "093947.477500", "093949.267500", "093947.677500", "093949.467500", "093948.075000", "093949.865000", "093948.272500", "093950.062500", "093948.472500", "093950.262500", "093948.670000", "093950.460000", "093947.875000", "093949.665000", "093947.080000", "093948.870000", "093947.280000", "093949.067500", "093947.477500", "093949.267500", "093947.677500", "093949.467500", "093948.075000", "093949.865000", "093948.272500", "093950.062500", "093948.472500", "093950.262500", "093948.670000", "093950.460000", "093947.875000", "093949.665000", "093947.080000", "093948.870000", "093947.280000", "093949.067500", "093947.477500", "093949.267500", "093947.677500", "093949.467500", "093948.075000", "093949.865000", "093948.272500", "093950.062500", "093948.472500", "093950.262500", "093948.670000", "093950.460000", "093947.875000", "093949.665000", "093947.080000", "093948.870000", "093947.280000", "093949.067500", "093947.477500", "093949.267500", "093947.677500", "093949.467500", "093948.075000", "093949.865000", "093948.272500", "093950.062500", "093948.472500", "093950.262500", "093948.670000", "093950.460000", "093947.875000", "093953.265000", "093950.680000", "093952.470000", "093950.880000", "093952.667500", "093951.077500", "093952.867500", "093951.277500", "093953.067500", "093951.675000", "093953.465000", "093951.872500", "093953.662500", "093952.072500", "093953.862500", "093952.270000", "093954.060000", "093951.475000", "093953.265000", "093950.680000", "093952.470000", "093950.880000", "093952.667500", "093951.077500", "093952.867500", "093951.277500", "093953.067500", "093951.675000", "093953.465000", "093951.872500", "093953.662500", "093952.072500", "093953.862500", "093952.270000", "093954.060000", "093951.475000", "093953.265000", "093950.680000", "093952.470000", "093950.880000", "093952.667500", "093951.077500", "093952.867500", "093951.277500", "093953.067500", "093951.675000", "093953.465000", "093951.872500", "093953.662500", "093952.072500", "093953.862500", "093952.270000", "093954.060000", "093951.475000", "093953.265000", "093950.680000", "093952.470000", "093950.880000", "093952.667500", "093951.077500", "093952.867500", "093951.277500", "093953.067500", "093951.675000", "093953.465000", "093951.872500", "093953.662500", "093952.072500", "093953.862500", "093952.270000", "093954.060000", "093951.475000", "093956.865000", "093954.280000", "093956.070000", "093954.480000", "093956.267500", "093954.677500", "093956.467500", "093954.877500", "093956.667500", "093955.275000", "093957.065000", "093955.472500", "093957.262500", "093955.672500", "093957.462500", "093955.870000", "093957.660000", "093955.075000", "093956.865000", "093954.280000", "093956.070000", "093954.480000", "093956.267500", "093954.677500", "093956.467500", "093954.877500", "093956.667500", "093955.275000", "093957.065000", "093955.472500", "093957.262500", "093955.672500", "093957.462500", "093955.870000", "093957.660000", "093955.075000", "093956.865000", "093954.280000", "093956.070000", "093954.480000", "093956.267500", "093954.677500", "093956.467500", "093954.877500", "093956.667500", "093955.275000", "093957.065000", "093955.472500", "093957.262500", "093955.672500", "093957.462500", "093955.870000", "093957.660000", "093955.075000", "093956.865000", "093954.280000", "093956.070000", "093954.480000", "093956.267500", "093954.677500", "093956.467500", "093954.877500", "093956.667500", "093955.275000", "093957.065000", "093955.472500", "093957.262500", "093955.672500", "093957.462500", "093955.870000", "093957.660000", "093955.075000", "094000.465000", "093957.880000", "093959.670000", "093958.080000", "093959.867500", "093958.277500", "094000.067500", "093958.477500", "094000.267500", "093958.875000", "094000.665000", "093959.072500", "094000.862500", "093959.272500", "094001.062500", "093959.470000", "094001.260000", "093958.675000", "094000.465000", "093957.880000", "093959.670000", "093958.080000", "093959.867500", "093958.277500", "094000.067500", "093958.477500", "094000.267500", "093958.875000", "094000.665000", "093959.072500", "094000.862500", "093959.272500", "094001.062500", "093959.470000", "094001.260000", "093958.675000", "094000.465000", "093957.880000", "093959.670000", "093958.080000", "093959.867500", "093958.277500", "094000.067500", "093958.477500", "094000.267500", "093958.875000", "094000.665000", "093959.072500", "094000.862500", "093959.272500", "094001.062500", "093959.470000", "094001.260000", "093958.675000", "094000.465000", "093957.880000", "093959.670000", "093958.080000", "093959.867500", "093958.277500", "094000.067500", "093958.477500", "094000.267500", "093958.875000", "094000.665000", "093959.072500", "094000.862500", "093959.272500", "094001.062500", "093959.470000", "094001.260000", "093958.675000", "094004.065000", "094001.480000", "094003.270000", "094001.680000", "094003.467500", "094001.877500", "094003.667500", "094002.077500", "094003.867500", "094002.475000", "094004.265000", "094002.672500", "094004.462500", "094002.872500", "094004.662500", "094003.070000", "094004.860000", "094002.275000", "094004.065000", "094001.480000", "094003.270000", "094001.680000", "094003.467500", "094001.877500", "094003.667500", "094002.077500", "094003.867500", "094002.475000", "094004.265000", "094002.672500", "094004.462500", "094002.872500", "094004.662500", "094003.070000", "094004.860000", "094002.275000", "094004.065000", "094001.480000", "094003.270000", "094001.680000", "094003.467500", "094001.877500", "094003.667500", "094002.077500", "094003.867500", "094002.475000", "094004.265000", "094002.672500", "094004.462500", "094002.872500", "094004.662500", "094003.070000", "094004.860000", "094002.275000", "094004.065000", "094001.480000", "094003.270000", "094001.680000", "094003.467500", "094001.877500", "094003.667500", "094002.077500", "094003.867500", "094002.475000", "094004.265000", "094002.672500", "094004.462500", "094002.872500", "094004.662500", "094003.070000", "094004.860000", "094002.275000", "094007.665000", "094005.080000", "094006.870000", "094005.280000", "094007.067500", "094005.477500", "094007.267500", "094005.677500", "094007.467500", "094006.075000", "094007.865000", "094006.272500", "094008.062500", "094006.472500", "094008.262500", "094006.670000", "094008.460000", "094005.875000", "094007.665000", "094005.080000", "094006.870000", "094005.280000", "094007.067500", "094005.477500", "094007.267500", "094005.677500", "094007.467500", "094006.075000", "094007.865000", "094006.272500", "094008.062500", "094006.472500", "094008.262500", "094006.670000", "094008.460000", "094005.875000", "094007.665000", "094005.080000", "094006.870000", "094005.280000", "094007.067500", "094005.477500", "094007.267500", "094005.677500", "094007.467500", "094006.075000", "094007.865000", "094006.272500", "094008.062500", "094006.472500", "094008.262500", "094006.670000", "094008.460000", "094005.875000", "094007.665000", "094005.080000", "094006.870000", "094005.280000", "094007.067500", "094005.477500", "094007.267500", "094005.677500", "094007.467500", "094006.075000", "094007.865000", "094006.272500", "094008.062500", "094006.472500", "094008.262500", "094006.670000", "094008.460000", "094005.875000", "094011.265000", "094008.680000", "094010.470000", "094008.880000", "094010.667500", "094009.077500", "094010.867500", "094009.277500", "094011.067500", "094009.675000", "094011.465000", "094009.872500", "094011.662500", "094010.072500", "094011.862500", "094010.270000", "094012.060000", "094009.475000", "094011.265000", "094008.680000", "094010.470000", "094008.880000", "094010.667500", "094009.077500", "094010.867500", "094009.277500", "094011.067500", "094009.675000", "094011.465000", "094009.872500", "094011.662500", "094010.072500", "094011.862500", "094010.270000", "094012.060000", "094009.475000", "094011.265000", "094008.680000", "094010.470000", "094008.880000", "094010.667500", "094009.077500", "094010.867500", "094009.277500", "094011.067500", "094009.675000", "094011.465000", "094009.872500", "094011.662500", "094010.072500", "094011.862500", "094010.270000", "094012.060000", "094009.475000", "094011.265000", "094008.680000", "094010.470000", "094008.880000", "094010.667500", "094009.077500", "094010.867500", "094009.277500", "094011.067500", "094009.675000", "094011.465000", "094009.872500", "094011.662500", "094010.072500", "094011.862500", "094010.270000", "094012.060000", "094009.475000", "094014.865000", "094012.280000", "094014.070000", "094012.480000", "094014.267500", "094012.677500", "094014.467500", "094012.877500", "094014.667500", "094013.275000", "094015.065000", "094013.472500", "094015.262500", "094013.672500", "094015.462500", "094013.870000", "094015.660000", "094013.075000", "094014.865000", "094012.280000", "094014.070000", "094012.480000", "094014.267500", "094012.677500", "094014.467500", "094012.877500", "094014.667500", "094013.275000", "094015.065000", "094013.472500", "094015.262500", "094013.672500", "094015.462500", "094013.870000", "094015.660000", "094013.075000", "094014.865000", "094012.280000", "094014.070000", "094012.480000", "094014.267500", "094012.677500", "094014.467500", "094012.877500", "094014.667500", "094013.275000", "094015.065000", "094013.472500", "094015.262500", "094013.672500", "094015.462500", "094013.870000", "094015.660000", "094013.075000", "094014.865000", "094012.280000", "094014.070000", "094012.480000", "094014.267500", "094012.677500", "094014.467500", "094012.877500", "094014.667500", "094013.275000", "094015.065000", "094013.472500", "0