{
  "AcquisitionMatrixPE": 122,
  "AcquisitionNumber": 1,
  "AcquisitionTime": "09:34:45.182500",
  "BandwidthPerPixelPhaseEncode": 28.76,
  "BaseResolution": 122,
  "BodyPartExamined": "BRAIN",
  "CoilCombinationMethod": "Adaptive Combine",
  "ConsistencyInfo": "N4_VE11C_LATEST_20160120",
  "ConversionSoftware": "dcm2niix",
  "ConversionSoftwareVersion": "v1.0.20220720",
  "DerivedVendorReportedEchoSpacing": 0.000570008,
  "DeviceSerialNumber": "66112",
  "DiffusionScheme": "Monopolar",
  "DwellTime": 2e-06,
  "EchoTime": 0.075,
  "EchoTrainLength": 61,
  "EffectiveEchoSpacing": 0.000285004,
  "FlipAngle": 90,
  "HeudiconvVersion": "0.13.1",
  "ImageOrientationPatientDICOM": [0.990911, -0.133564, -0.0159871, 0.133096, 0.956266, 0.260462],
  "ImageOrientationText": "Tra>Cor(15.1)>Sag(1.1)",
  "ImageType": [
    "ORIGINAL",
    "PRIMARY",
    "DIFFUSION",
    "NONE",
    "ND",
    "NORM"
],
  "ImagingFrequency": 123.252,
  "InPlanePhaseEncodingDirectionDICOM": "COL",
  "InstitutionAddress": "Maynard 3,Hanover,NH,US,03755",
  "InstitutionName": "Dartmouth College - PBS",
  "InstitutionalDepartmentName": "Department",
  "MRAcquisitionType": "2D",
  "MagneticFieldStrength": 3,
  "Manufacturer": "Siemens",
  "ManufacturersModelName": "Prisma",
  "MatrixCoilMode": "GRAPPA",
  "Modality": "MR",
  "NonlinearGradientCorrection": false,
  "ParallelReductionFactorInPlane": 2,
  "PartialFourier": 1,
  "PatientPosition": "HFS",
  "PercentPhaseFOV": 100,
  "PercentSampling": 100,
  "PhaseEncodingDirection": "j-",
  "PhaseEncodingSteps": 122,
  "PhaseResolution": 1,
  "PixelBandwidth": 2050,
  "ProcedureStepDescription": "dbic^QA",
  "ProtocolName": "dwi_acq-DTI-30-p2",
  "PulseSequenceDetails": "%SiemensSeq%\\ep2d_diff",
  "ReceiveCoilActiveElements": "HEA;HEP",
  "ReceiveCoilName": "Head_32",
  "ReconMatrixPE": 122,
  "RefLinesPE": 38,
  "RepetitionTime": 7.7,
  "SAR": 0.0871942,
  "ScanOptions": "FS",
  "ScanningSequence": "EP",
  "SequenceName": "*ep_b0",
  "SequenceVariant": "SK\\SP",
  "SeriesDescription": "dwi_acq-DTI-30-p2",
  "SeriesNumber": 12,
  "ShimSetting": [4154, -7706, -7533, 281, -49, -92, 7, 99],
  "SliceThickness": 2,
  "SliceTiming": [3.83594, 0, 3.94531, 0.10938, 4.0625, 0.21875, 4.17188, 0.32812, 4.27344, 0.4375, 4.38281, 0.54688, 4.5, 0.65625, 4.60938, 0.76562, 4.71875, 0.875, 4.82812, 0.98438, 4.9375, 1.09375, 5.04688, 1.20312, 5.15625, 1.3125, 5.26562, 1.42188, 5.375, 1.53125, 5.48438, 1.64062, 5.59375, 1.75, 5.70312, 1.86719, 5.8125, 1.97656, 5.92188, 2.08594, 6.03125, 2.19531, 6.14062, 2.30469, 6.25, 2.41406, 6.35938, 2.52344, 6.46875, 2.63281, 6.57812, 2.74219, 6.6875, 2.85156, 6.80469, 2.96094, 6.91406, 3.07031, 7.02344, 3.17969, 7.125, 3.28906, 7.24219, 3.39844, 7.35156, 3.50781, 7.46094, 3.61719, 7.57031, 3.72656],
  "SoftwareVersions": "syngo MR E11",
  "SpacingBetweenSlices": 2,
  "SpoilingState": true,
  "StationName": "AWP66112",
  "TotalReadoutTime": 0.0344855,
  "TxRefAmp": 222.748,
  "dcmmeta_affine": [
    [-1.9493337869644165, 0.2618281841278076, 0.039000749588012695, 102.81481170654297],
    [0.2627479135990143, 1.8811794519424438, 0.5204448699951172, -140.73565673828125],
    [-0.03145007789134979, -0.5123841166496277, 1.9307022094726562, -44.47146987915039],
    [0.0, 0.0, 0.0, 1.0]
],
  "dcmmeta_reorient_transform": [
    [0.0, -1.0, 0.0, 121.0],
    [1.0, 0.0, 0.0, 0.0],
    [0.0, 0.0, -1.0, 69.0],
    [0.0, 0.0, 0.0, 1.0]
],
  "dcmmeta_shape": [122, 122, 70, 31],
  "dcmmeta_slice_dim": 2,
  "dcmmeta_version": 0.6,
  "global": {
    "const": {
      "AccessionNumber": "qa",
      "AcquisitionMatrix": [122, 0, 0, 122],
      "AngioFlag": "N",
      "BitsAllocated": 16,
      "BitsStored": 12,
      "BodyPartExamined": "BRAIN",
      "Columns": 122,
      "EchoNumbers": 1,
      "EchoTime": 75.0,
      "EchoTrainLength": 61,
      "FlipAngle": 90.0,
      "HighBit": 11,
      "ImageOrientationPatient": [0.99091129581607, -0.1335635269012, -0.0159871231257, 0.13309599295144, 0.95626619655195, 0.26046193194465],
      "ImageType": [
        "ORIGINAL",
        "PRIMARY",
        "DIFFUSION",
        "NONE",
        "ND",
        "NORM"
],
      "ImagedNucleus": "1H",
      "ImagingFrequency": 123.252327,
      "InPlanePhaseEncodingDirection": "COL",
      "MRAcquisitionType": "2D",
      "MagneticFieldStrength": 3.0,
      "Manufacturer": "SIEMENS",
      "ManufacturerModelName": "Prisma",
      "Modality": "MR",
      "NumberOfAverages": 1.0,
      "NumberOfPhaseEncodingSteps": 122,
      "PercentPhaseFieldOfView": 100.0,
      "PercentSampling": 100.0,
      "PerformedProcedureStepStartTime": "090407.969000",
      "PhotometricInterpretation": "MONOCHROME2",
      "PixelBandwidth": 2050.0,
      "PixelRepresentation": 0,
      "PixelSpacing": [1.9672131538391, 1.9672131538391],
      "ProtocolName": "dwi_acq-DTI-30-p2",
      "RepetitionTime": 7700.0,
      "Rows": 122,
      "SAR": 0.08719424458558,
      "SamplesPerPixel": 1,
      "ScanOptions": "FS",
      "ScanningSequence": "EP",
      "SequenceVariant": [
        "SK",
        "SP"
],
      "SeriesDescription": "dwi_acq-DTI-30-p2",
      "SeriesNumber": 12,
      "SeriesTime": "093446.066000",
      "SliceThickness": 2.0,
      "SmallestImagePixelValue": 0,
      "SoftwareVersions": "syngo MR E11",
      "SpacingBetweenSlices": 2.0,
      "SpecificCharacterSet": "ISO_IR 100",
      "StudyID": "68",
      "StudyTime": "090407.917000",
      "TransmitCoilName": "Body",
      "VariableFlipAngleFlag": "N",
      "WindowCenterWidthExplanation": "Algo1",
      "dBdt": 0.0},
    "slices": {
      "AcquisitionTime": ["093445.182500", "093441.342500", "093445.292500", "093441.452500", "093445.402500", "093441.562500", "093445.512500", "093441.672500", "093445.620000", "093441.780000", "093445.730000", "093441.890000", "093445.840000", "093442.000000", "093445.950000", "093442.110000", "093446.060000", "093442.220000", "093446.170000", "093442.330000", "093446.280000", "093442.440000", "093446.390000", "093442.550000", "093446.497500", "093442.660000", "093446.607500", "093442.767500", "093446.717500", "093442.877500", "093446.827500", "093442.987500", "093446.937500", "093443.097500", "093447.047500", "093443.207500", "093447.157500", "093443.317500", "093447.267500", "093443.427500", "093447.377500", "093443.537500", "093447.485000", "093443.647500", "093447.595000", "093443.755000", "093447.705000", "093443.865000", "093447.815000", "093443.975000", "093447.925000", "093444.085000", "093448.035000", "093444.195000", "093448.145000", "093444.305000", "093448.255000", "093444.415000", "093448.365000", "093444.525000", "093448.472500", "093444.632500", "093448.582500", "093444.742500", "093448.692500", "093444.852500", "093448.802500", "093444.962500", "093448.912500", "093445.072500", "093452.882500", "093449.042500", "093452.992500", "093449.152500", "093453.102500", "093449.262500", "093453.212500", "093449.372500", "093453.320000", "093449.480000", "093453.430000", "093449.590000", "093453.540000", "093449.700000", "093453.650000", "093449.810000", "093453.760000", "093449.920000", "093453.870000", "093450.030000", "093453.980000", "093450.140000", "093454.090000", "093450.250000", "093454.197500", "093450.360000", "093454.307500", "093450.467500", "093454.417500", "093450.577500", "093454.527500", "093450.687500", "093454.637500", "093450.797500", "093454.747500", "093450.907500", "093454.857500", "093451.017500", "093454.967500", "093451.127500", "093455.077500", "093451.237500", "093455.185000", "093451.347500", "093455.295000", "093451.455000", "093455.405000", "093451.565000", "093455.515000", "093451.675000", "093455.625000", "093451.785000", "093455.735000", "093451.895000", "093455.845000", "093452.005000", "093455.955000", "093452.115000", "093456.065000", "093452.225000", "093456.172500", "093452.332500", "093456.282500", "093452.442500", "093456.392500", "093452.552500", "093456.502500", "093452.662500", "093456.612500", "093452.772500", "093500.582500", "093456.742500", "093500.692500", "093456.852500", "093500.802500", "093456.962500", "093500.912500", "093457.072500", "093501.020000", "093457.180000", "093501.130000", "093457.290000", "093501.240000", "093457.400000", "093501.350000", "093457.510000", "093501.460000", "093457.620000", "093501.570000", "093457.730000", "093501.680000", "093457.840000", "093501.790000", "093457.950000", "093501.897500", "093458.060000", "093502.007500", "093458.167500", "093502.117500", "093458.277500", "093502.227500", "093458.387500", "093502.337500", "093458.497500", "093502.447500", "093458.607500", "093502.557500", "093458.717500", "093502.667500", "093458.827500", "093502.777500", "093458.937500", "093502.885000", "093459.047500", "093502.995000", "093459.155000", "093503.105000", "093459.265000", "093503.215000", "093459.375000", "093503.325000", "093459.485000", "093503.435000", "093459.595000", "093503.545000", "093459.705000", "093503.655000", "093459.815000", "093503.765000", "093459.925000", "093503.872500", "093500.032500", "093503.982500", "093500.142500", "093504.092500", "093500.252500", "093504.202500", "093500.362500", "093504.312500", "093500.472500", "093508.282500", "093504.442500", "093508.392500", "093504.552500", "093508.502500", "093504.662500", "093508.612500", "093504.772500", "093508.720000", "093504.880000", "093508.830000", "093504.990000", "093508.940000", "093505.100000", "093509.050000", "093505.210000", "093509.160000", "093505.320000", "093509.270000", "093505.430000", "093509.380000", "093505.540000", "093509.490000", "093505.650000", "093509.597500", "093505.760000", "093509.707500", "093505.867500", "093509.817500", "093505.977500", "093509.927500", "093506.087500", "093510.037500", "093506.197500", "093510.147500", "093506.307500", "093510.257500", "093506.417500", "093510.367500", "093506.527500", "093510.477500", "093506.637500", "093510.585000", "093506.747500", "093510.695000", "093506.855000", "093510.805000", "093506.965000", "093510.915000", "093507.075000", "093511.025000", "093507.185000", "093511.135000", "093507.295000", "093511.245000", "093507.405000", "093511.355000", "093507.515000", "093511.465000", "093507.625000", "093511.572500", "093507.732500", "093511.682500", "093507.842500", "093511.792500", "093507.952500", "093511.902500", "093508.062500", "093512.012500", "093508.172500", "093515.982500", "093512.142500", "093516.092500", "093512.252500", "093516.202500", "093512.362500", "093516.312500", "093512.472500", "093516.420000", "093512.580000", "093516.530000", "093512.690000", "093516.640000", "093512.800000", "093516.750000", "093512.910000", "093516.860000", "093513.020000", "093516.970000", "093513.130000", "093517.080000", "093513.240000", "093517.190000", "093513.350000", "093517.297500", "093513.460000", "093517.407500", "093513.567500", "093517.517500", "093513.677500", "093517.627500", "093513.787500", "093517.737500", "093513.897500", "093517.847500", "093514.007500", "093517.957500", "093514.117500", "093518.067500", "093514.227500", "093518.177500", "093514.337500", "093518.285000", "093514.447500", "093518.395000", "093514.555000", "093518.505000", "093514.665000", "093518.615000", "093514.775000", "093518.725000", "093514.885000", "093518.835000", "093514.995000", "093518.945000", "093515.105000", "093519.055000", "093515.215000", "093519.165000", "093515.325000", "093519.272500", "093515.432500", "093519.382500", "093515.542500", "093519.492500", "093515.652500", "093519.602500", "093515.762500", "093519.712500", "093515.872500", "093523.682500", "093519.842500", "093523.792500", "093519.952500", "093523.902500", "093520.062500", "093524.012500", "093520.172500", "093524.120000", "093520.280000", "093524.230000", "093520.390000", "093524.340000", "093520.500000", "093524.450000", "093520.610000", "093524.560000", "093520.720000", "093524.670000", "093520.830000", "093524.780000", "093520.940000", "093524.890000", "093521.050000", "093524.997500", "093521.160000", "093525.107500", "093521.267500", "093525.217500", "093521.377500", "093525.327500", "093521.487500", "093525.437500", "093521.597500", "093525.547500", "093521.707500", "093525.657500", "093521.817500", "093525.767500", "093521.927500", "093525.877500", "093522.037500", "093525.985000", "093522.147500", "093526.095000", "093522.255000", "093526.205000", "093522.365000", "093526.315000", "093522.475000", "093526.425000", "093522.585000", "093526.535000", "093522.695000", "093526.645000", "093522.805000", "093526.755000", "093522.915000", "093526.865000", "093523.025000", "093526.972500", "093523.132500", "093527.082500", "093523.242500", "093527.192500", "093523.352500", "093527.302500", "093523.462500", "093527.412500", "093523.572500", "093531.382500", "093527.542500", "093531.492500", "093527.652500", "093531.602500", "093527.762500", "093531.712500", "093527.872500", "093531.820000", "093527.980000", "093531.930000", "093528.090000", "093532.040000", "093528.200000", "093532.150000", "093528.310000", "093532.260000", "093528.420000", "093532.370000", "093528.530000", "093532.480000", "093528.640000", "093532.590000", "093528.750000", "093532.697500", "093528.860000", "093532.807500", "093528.967500", "093532.917500", "093529.077500", "093533.027500", "093529.187500", "093533.137500", "093529.297500", "093533.247500", "093529.407500", "093533.357500", "093529.517500", "093533.467500", "093529.627500", "093533.577500", "093529.737500", "093533.685000", "093529.847500", "093533.795000", "093529.955000", "093533.905000", "093530.065000", "093534.015000", "093530.175000", "093534.125000", "093530.285000", "093534.235000", "093530.395000", "093534.345000", "093530.505000", "093534.455000", "093530.615000", "093534.565000", "093530.725000", "093534.672500", "093530.832500", "093534.782500", "093530.942500", "093534.892500", "093531.052500", "093535.002500", "093531.162500", "093535.112500", "093531.272500", "093539.082500", "093535.242500", "093539.192500", "093535.352500", "093539.302500", "093535.462500", "093539.412500", "093535.572500", "093539.520000", "093535.680000", "093539.630000", "093535.790000", "093539.740000", "093535.900000", "093539.850000", "093536.010000", "093539.960000", "093536.120000", "093540.070000", "093536.230000", "093540.180000", "093536.340000", "093540.290000", "093536.450000", "093540.397500", "093536.560000", "093540.507500", "093536.667500", "093540.617500", "093536.777500", "093540.727500", "093536.887500", "093540.837500", "093536.997500", "093540.947500", "093537.107500", "093541.057500", "093537.217500", "093541.167500", "093537.327500", "093541.277500", "093537.437500", "093541.385000", "093537.547500", "093541.495000", "093537.655000", "093541.605000", "093537.765000", "093541.715000", "093537.875000", "093541.825000", "093537.985000", "093541.935000", "093538.095000", "093542.045000", "093538.205000", "093542.155000", "093538.315000", "093542.265000", "093538.425000", "093542.372500", "093538.532500", "093542.482500", "093538.642500", "093542.592500", "093538.752500", "093542.702500", "093538.862500", "093542.812500", "093538.972500", "093546.782500", "093542.942500", "093546.892500", "093543.052500", "093547.002500", "093543.162500", "093547.112500", "093543.272500", "093547.220000", "093543.380000", "093547.330000", "093543.490000", "093547.440000", "093543.600000", "093547.550000", "093543.710000", "093547.660000", "093543.820000", "093547.770000", "093543.930000", "093547.880000", "093544.040000", "093547.990000", "093544.150000", "093548.097500", "093544.260000", "093548.207500", "093544.367500", "093548.317500", "093544.477500", "093548.427500", "093544.587500", "093548.537500", "093544.697500", "093548.647500", "093544.807500", "093548.757500", "093544.917500", "093548.867500", "093545.027500", "093548.977500", "093545.137500", "093549.085000", "093545.247500", "093549.195000", "093545.355000", "093549.305000", "093545.465000", "093549.415000", "093545.575000", "093549.525000", "093545.685000", "093549.635000", "093545.795000", "093549.745000", "093545.905000", "093549.855000", "093546.015000", "093549.965000", "093546.125000", "093550.072500", "093546.232500", "093550.182500", "093546.342500", "093550.292500", "093546.452500", "093550.402500", "093546.562500", "093550.512500", "093546.672500", "093554.482500", "093550.642500", "093554.592500", "093550.752500", "093554.702500", "093550.862500", "093554.812500", "093550.972500", "093554.920000", "093551.080000", "093555.030000", "093551.190000", "093555.140000", "093551.300000", "093555.250000", "093551.410000", "093555.360000", "093551.520000", "093555.470000", "093551.630000", "093555.580000", "093551.740000", "093555.690000", "093551.850000", "093555.797500", "093551.960000", "093555.907500", "093552.067500", "093556.017500", "093552.177500", "093556.127500", "093552.287500", "093556.237500", "093552.397500", "093556.347500", "093552.507500", "093556.457500", "093552.617500", "093556.567500", "093552.727500", "093556.677500", "093552.837500", "093556.785000", "093552.947500", "093556.895000", "093553.055000", "093557.005000", "093553.165000", "093557.115000", "093553.275000", "093557.225000", "093553.385000", "093557.335000", "093553.495000", "093557.445000", "093553.605000", "093557.555000", "093553.715000", "093557.665000", "093553.825000", "093557.772500", "093553.932500", "093557.882500", "093554.042500", "093557.992500", "093554.152500", "093558.102500", "093554.262500", "093558.212500", "093554.372500", "093602.182500", "093558.342500", "093602.292500", "093558.452500", "093602.402500", "093558.562500", "093602.512500", "093558.672500", "093602.620000", "093558.780000", "093602.730000", "093558.890000", "093602.840000", "093559.000000", "093602.950000", "093559.110000", "093603.060000", "093559.220000", "093603.170000", "093559.330000", "093603.280000", "093559.440000", "093603.390000", "093559.550000", "093603.497500", "093559.660000", "093603.607500", "093559.767500", "093603.717500", "093559.877500", "093603.827500", "093559.987500", "093603.937500", "093600.097500", "093604.047500", "093600.207500", "093604.157500", "093600.317500", "093604.267500", "093600.427500", "093604.377500", "093600.537500", "093604.485000", "093600.647500", "093604.595000", "093600.755000", "093604.705000", "093600.865000", "093604.815000", "093600.975000", "093604.925000", "093601.085000", "093605.035000", "093601.195000", "093605.145000", "093601.305000", "093605.255000", "093601.415000", "093605.365000", "093601.525000", "093605.472500", "093601.632500", "093605.582500", "093601.742500", "093605.692500", "093601.852500", "093605.802500", "093601.962500", "093605.912500", "093602.072500", "093609.882500", "093606.042500", "093609.992500", "093606.152500", "093610.102500", "093606.262500", "093610.212500", "093606.372500", "093610.320000", "093606.480000", "093610.430000", "093606.590000", "093610.540000", "093606.700000", "093610.650000", "093606.810000", "093610.760000", "093606.920000", "093610.870000", "093607.030000", "093610.980000", "093607.140000", "093611.090000", "093607.250000", "093611.197500", "093607.360000", "093611.307500", "093607.467500", "093611.417500", "093607.577500", "093611.527500", "093607.687500", "093611.637500", "093607.797500", "093611.747500", "093607.907500", "093611.857500", "093608.017500", "093611.967500", "093608.127500", "093612.077500", "093608.237500", "093612.185000", "093608.347500", "093612.295000", "093608.455000", "093612.405000", "093608.565000", "093612.515000", "093608.675000", "093612.625000", "093608.785000", "093612.735000", "093608.895000", "093612.845000", "093609.005000", "093612.955000", "093609.115000", "093613.065000", "093609.225000", "093613.172500", "093609.332500", "093613.282500", "093609.442500", "093613.392500", "093609.552500", "093613.502500", "093609.662500", "093613.612500", "093609.772500", "093617.582500", "093613.742500", "093617.692500", "093613.852500", "093617.802500", "093613.962500", "093617.912500", "093614.072500", "093618.020000", "093614.180000", "093618.130000", "093614.290000", "093618.240000", "093614.400000", "093618.350000", "093614.510000", "093618.460000", "093614.620000", "093618.570000", "093614.730000", "093618.680000", "093614.840000", "093618.790000", "093614.950000", "093618.897500", "093615.060000", "093619.007500", "093615.167500", "093619.117500", "093615.277500", "093619.227500", "093615.387500", "093619.337500", "093615.497500", "093619.447500", "093615.607500", "093619.557500", "093615.717500", "093619.667500", "093615.827500", "093619.777500", "093615.937500", "093619.885000", "093616.047500", "093619.995000", "093616.155000", "093620.105000", "093616.265000", "093620.215000", "093616.375000", "093620.325000", "093616.485000", "093620.435000", "093616.595000", "093620.545000", "093616.705000", "093620.655000", "093616.815000", "093620.765000", "093616.925000", "093620.872500", "093617.032500", "093620.982500", "093617.142500", "093621.092500", "093617.252500", "093621.202500", "093617.362500", "093621.312500", "093617.472500", "093625.282500", "093621.442500", "093625.392500", "093621.552500", "093625.502500", "093621.662500", "093625.612500", "093621.772500", "093625.720000", "093621.880000", "093625.830000", "093621.990000", "093625.940000", "093622.100000", "093626.050000", "093622.210000", "093626.160000", "093622.320000", "093626.270000", "093622.430000", "093626.380000", "093622.540000", "093626.490000", "093622.650000", "093626.597500", "093622.760000", "093626.707500", "093622.867500", "093626.817500", "093622.977500", "093626.927500", "093623.087500", "093627.037500", "093623.197500", "093627.147500", "093623.307500", "093627.257500", "093623.417500", "093627.367500", "093623.527500", "093627.477500", "093623.637500", "093627.585000", "093623.747500", "093627.695000", "093623.855000", "093627.805000", "093623.965000", "093627.915000", "093624.075000", "093628.025000", "093624.185000", "093628.135000", "093624.295000", "093628.245000", "093624.405000", "093628.355000", "093624.515000", "093628.465000", "093624.625000", "093628.572500", "093624.732500", "093628.682500", "093624.842500", "093628.792500", "093624.952500", "093628.902500", "093625.062500", "093629.012500", "093625.172500", "093632.982500", "093629.142500", "093633.092500", "093629.252500", "093633.202500", "093629.362500", "093633.312500", "093629.472500", "093633.420000", "093629.580000", "093633.530000", "093629.690000", "093633.640000", "093629.800000", "093633.750000", "093629.910000", "093633.860000", "093630.020000", "093633.970000", "093630.130000", "093634.080000", "093630.240000", "093634.190000", "093630.350000", "093634.297500", "093630.460000", "093634.407500", "093630.567500", "093634.517500", "093630.677500", "093634.627500", "093630.787500", "093634.737500", "093630.897500", "093634.847500", "093631.007500", "093634.957500", "093631.117500", "093635.067500", "093631.227500", "093635.177500", "093631.337500", "093635.285000", "093631.447500", "093635.395000", "093631.555000", "093635.505000", "093631.665000", "093635.615000", "093631.775000", "093635.725000", "093631.885000", "093635.835000", "093631.995000", "093635.945000", "093632.105000", "093636.055000", "093632.215000", "093636.165000", "093632.325000", "093636.272500", "093632.432500", "093636.382500", "093632.542500", "093636.492500", "093632.652500", "093636.602500", "093632.762500", "093636.712500", "093632.872500", "093640.682500", "093636.842500", "093640.792500", "093636.952500", "093640.902500", "093637.062500", "093641.012500", "093637.172500", "093641.120000", "093637.280000", "093641.230000", "093637.390000", "093641.340000", "093637.500000", "093641.450000", "093637.610000", "093641.560000", "093637.720000", "093641.670000", "093637.830000", "093641.780000", "093637.940000", "093641.890000", "093638.050000", "093641.997500", "093638.160000", "093642.107500", "093638.267500", "093642.217500", "093638.377500", "093642.327500", "093638.487500", "093642.437500", "093638.597500", "093642.547500", "093638.707500", "093642.657500", "093638.817500", "093642.767500", "093638.927500", "093642.877500", "093639.037500", "093642.985000", "093639.147500", "093643.095000", "093639.255000", "093643.205000", "093639.365000", "093643.315000", "093639.475000", "093643.425000", "093639.585000", "093643.535000", "093639.695000", "093643.645000", "093639.805000", "093643.755000", "093639.915000", "093643.865000", "093640.025000", "093643.972500", "093640.132500", "093644.082500", "093640.242500", "093644.192500", "093640.352500", "093644.302500", "093640.462500", "093644.412500", "093640.572500", "093648.382500", "093644.542500", "093648.492500", "093644.652500", "093648.602500", "093644.762500", "093648.712500", "093644.872500", "093648.820000", "093644.980000", "093648.930000", "093645.090000", "093649.040000", "093645.200000", "093649.150000", "093645.310000", "093649.260000", "093645.420000", "093649.370000", "093645.530000", "093649.480000", "093645.640000", "093649.590000", "093645.750000", "093649.697500", "093645.860000", "093649.807500", "093645.967500", "093649.917500", "093646.077500", "093650.027500", "093646.187500", "093650.137500", "093646.297500", "093650.247500", "093646.407500", "093650.357500", "093646.517500", "093650.467500", "093646.627500", "093650.577500", "093646.737500", "093650.685000", "093646.847500", "093650.795000", "093646.955000", "093650.905000", "093647.065000", "093651.015000", "093647.175000", "093651.125000", "093647.285000", "093651.235000", "093647.395000", "093651.345000", "093647.505000", "093651.455000", "093647.615000", "093651.565000", "093647.725000", "093651.672500", "093647.832500", "093651.782500", "093647.942500", "093651.892500", "093648.052500", "093652.002500", "093648.162500", "093652.112500", "093648.272500", "093656.082500", "093652.242500", "093656.192500", "093652.352500", "093656.302500", "093652.462500", "093656.412500", "093652.572500", "093656.520000", "093652.680000", "093656.630000", "093652.790000", "093656.740000", "093652.900000", "093656.850000", "093653.010000", "093656.960000", "093653.120000", "093657.070000", "093653.230000", "093657.180000", "093653.340000", "093657.290000", "093653.450000", "093657.397500", "093653.560000", "093657.507500", "093653.667500", "093657.617500", "093653.777500", "093657.727500", "093653.887500", "093657.837500", "093653.997500", "093657.947500", "093654.107500", "093658.057500", "093654.217500", "093658.167500", "093654.327500", "093658.277500", "093654.437500", "093658.385000", "093654.547500", "093658.495000", "093654.655000", "093658.605000", "093654.765000", "093658.715000", "093654.875000", "093658.825000", "093654.985000", "093658.935000", "093655.095000", "093659.045000", "093655.205000", "093659.155000", "093655.315000", "093659.265000", "093655.425000", "093659.372500", "093655.532500", "093659.482500", "093655.642500", "093659.592500", "093655.752500", "093659.702500", "093655.862500", "093659.812500", "093655.972500", "093703.782500", "093659.942500", "093703.892500", "093700.052500", "093704.002500", "093700.162500", "093704.112500", "093700.272500", "093704.220000", "093700.380000", "093704.330000", "093700.490000", "093704.440000", "093700.600000", "093704.550000", "093700.710000", "093704.660000", "093700.820000", "093704.770000", "093700.930000", "093704.880000", "093701.040000", "093704.990000", "093701.150000", "093705.097500", "093701.260000", "093705.207500", "093701.367500", "093705.317500", "093701.477500", "093705.427500", "093701.587500", "093705.537500", "093701.697500", "093705.647500", "093701.807500", "093705.757500", "093701.917500", "093705.867500", "093702.027500", "093705.977500", "093702.137500", "093706.085000", "093702.247500", "093706.195000", "093702.355000", "093706.305000", "093702.465000", "093706.415000", "093702.575000", "093706.525000", "093702.685000", "093706.635000", "093702.795000", "093706.745000", "093702.905000", "093706.855000", "093703.015000", "093706.965000", "093703.125000", "093707.072500", "093703.232500", "093707.182500", "093703.342500", "093707.292500", "093703.452500", "093707.402500", "093703.562500", "093707.512500", "093703.672500", "093711.482500", "093707.642500", "093711.592500", "093707.752500", "093711.702500", "093707.862500", "093711.812500", "093707.972500", "093711.920000", "093708.080000", "093712.030000", "093708.190000", "093712.140000", "093708.300000", "093712.250000", "093708.410000", "093712.360000", "093708.520000", "093712.470000", "093708.630000", "093712.580000", "093708.740000", "093712.690000", "093708.850000", "093712.797500", "093708.960000", "093712.907500", "093709.067500", "093713.017500", "093709.177500", "093713.127500", "093709.287500", "093713.237500", "093709.397500", "093713.347500", "093709.507500", "093713.457500", "093709.617500", "093713.567500", "093709.727500", "093713.677500", "093709.837500", "093713.785000", "093709.947500", "093713.895000", "093710.055000", "093714.005000", "093710.165000", "093714.115000", "093710.275000", "093714.225000", "093710.385000", "093714.335000", "093710.495000", "093714.445000", "093710.605000", "093714.555000", "093710.715000", "093714.665000", "093710.825000", "093714.772500", "093710.932500", "093714.882500", "093711.042500", "093714.992500", "093711.152500", "093715.102500", "093711.262500", "093715.212500", "093711.372500", "093719.182500", "093715.342500", "093719.292500", "093715.452500", "093719.402500", "093715.562500", "093719.512500", "093715.672500", "093719.620000", "093715.780000", "093719.730000", "093715.890000", "093719.840000", "093716.000000", "093719.950000", "093716.110000", "093720.060000", "093716.220000", "093720.170000", "093716.330000", "093720.280000", "093716.440000", "093720.390000", "093716.550000", "093720.497500", "093716.660000", "093720.607500", "093716.767500", "093720.717500", "093716.877500", "093720.827500", "093716.987500", "093720.937500", "093717.097500", "093721.047500", "09371