{
  "AcquisitionMatrixPE": 122,
  "AcquisitionNumber": 1,
  "AcquisitionTime": "09:04:18.055000",
  "BandwidthPerPixelPhaseEncode": 28.76,
  "BaseResolution": 122,
  "BodyPartExamined": "BRAIN",
  "CoilCombinationMethod": "Adaptive Combine",
  "ConsistencyInfo": "N4_VE11C_LATEST_20160120",
  "ConversionSoftware": "dcm2niix",
  "ConversionSoftwareVersion": "v1.0.20220720",
  "DerivedVendorReportedEchoSpacing": 0.000570008,
  "DeviceSerialNumber": "66112",
  "DiffusionScheme": "Monopolar",
  "DwellTime": 2e-06,
  "EchoTime": 0.075,
  "EchoTrainLength": 61,
  "EffectiveEchoSpacing": 0.000285004,
  "FlipAngle": 90,
  "HeudiconvVersion": "0.13.1",
  "ImageOrientationPatientDICOM": [0.988165, 0.152834, -0.013112, -0.139757, 0.932246, 0.333745],
  "ImageOrientationText": "Tra>Cor(19.2)>Sag(-3.6)",
  "ImageType": [
    "ORIGINAL",
    "PRIMARY",
    "DIFFUSION",
    "NONE",
    "ND",
    "NORM"
],
  "ImagingFrequency": 123.252,
  "InPlanePhaseEncodingDirectionDICOM": "COL",
  "InstitutionAddress": "Maynard 3,Hanover,NH,US,03755",
  "InstitutionName": "Dartmouth College - PBS",
  "InstitutionalDepartmentName": "Department",
  "MRAcquisitionType": "2D",
  "MagneticFieldStrength": 3,
  "Manufacturer": "Siemens",
  "ManufacturersModelName": "Prisma",
  "MatrixCoilMode": "GRAPPA",
  "Modality": "MR",
  "NonlinearGradientCorrection": false,
  "ParallelReductionFactorInPlane": 2,
  "PartialFourier": 1,
  "PatientPosition": "HFS",
  "PercentPhaseFOV": 100,
  "PercentSampling": 100,
  "PhaseEncodingDirection": "j-",
  "PhaseEncodingSteps": 122,
  "PhaseResolution": 1,
  "PixelBandwidth": 2050,
  "ProcedureStepDescription": "dbic^QA",
  "ProtocolName": "dwi_acq-DTI-30-p2",
  "PulseSequenceDetails": "%SiemensSeq%\\ep2d_diff",
  "ReceiveCoilActiveElements": "HEA;HEP",
  "ReceiveCoilName": "Head_32",
  "ReconMatrixPE": 122,
  "RefLinesPE": 38,
  "RepetitionTime": 7.7,
  "SAR": 0.101906,
  "ScanOptions": "FS",
  "ScanningSequence": "EP",
  "SequenceName": "*ep_b0",
  "SequenceVariant": "SK\\SP",
  "SeriesDescription": "dwi_acq-DTI-30-p2",
  "SeriesNumber": 12,
  "ShimSetting": [4143, -7695, -7515, 267, -43, -65, 0, 54],
  "SliceThickness": 2,
  "SliceTiming": [3.83594, 0, 3.94531, 0.10938, 4.05469, 0.21875, 4.16406, 0.32812, 4.27344, 0.4375, 4.38281, 0.54688, 4.5, 0.65625, 4.60938, 0.76562, 4.71094, 0.875, 4.82031, 0.98438, 4.9375, 1.09375, 5.04688, 1.20312, 5.15625, 1.3125, 5.26562, 1.42188, 5.375, 1.53125, 5.48438, 1.64062, 5.59375, 1.75, 5.70312, 1.85938, 5.8125, 1.96875, 5.92188, 2.07812, 6.03125, 2.1875, 6.14062, 2.30469, 6.25, 2.41406, 6.35938, 2.52344, 6.46875, 2.63281, 6.57812, 2.74219, 6.6875, 2.85156, 6.79688, 2.96094, 6.90625, 3.07031, 7.01562, 3.17969, 7.125, 3.28906, 7.24219, 3.39844, 7.35156, 3.50781, 7.46094, 3.61719, 7.5625, 3.72656],
  "SoftwareVersions": "syngo MR E11",
  "SpacingBetweenSlices": 2,
  "SpoilingState": true,
  "StationName": "AWP66112",
  "TotalReadoutTime": 0.0344855,
  "TxRefAmp": 235.909,
  "dcmmeta_affine": [
    [-1.9439308643341064, -0.27493172883987427, -0.12646269798278809, 142.54501342773438],
    [-0.3006574213504791, 1.8339259624481201, 0.6559257507324219, -111.94644927978516],
    [-0.025794174522161484, -0.6565483212471008, 1.8851394653320312, -9.805841445922852],
    [0.0, 0.0, 0.0, 1.0]
],
  "dcmmeta_reorient_transform": [
    [0.0, -1.0, 0.0, 121.0],
    [1.0, 0.0, 0.0, 0.0],
    [0.0, 0.0, -1.0, 69.0],
    [0.0, 0.0, 0.0, 1.0]
],
  "dcmmeta_shape": [122, 122, 70, 31],
  "dcmmeta_slice_dim": 2,
  "dcmmeta_version": 0.6,
  "global": {
    "const": {
      "AccessionNumber": "qa",
      "AcquisitionMatrix": [122, 0, 0, 122],
      "AngioFlag": "N",
      "BitsAllocated": 16,
      "BitsStored": 12,
      "BodyPartExamined": "BRAIN",
      "Columns": 122,
      "EchoNumbers": 1,
      "EchoTime": 75.0,
      "EchoTrainLength": 61,
      "FlipAngle": 90.0,
      "HighBit": 11,
      "ImageOrientationPatient": [0.9881648583355, 0.15283418204173, -0.0131120383774, -0.1397569661253, 0.93224567458841, 0.33374540091312],
      "ImageType": [
        "ORIGINAL",
        "PRIMARY",
        "DIFFUSION",
        "NONE",
        "ND",
        "NORM"
],
      "ImagedNucleus": "1H",
      "ImagingFrequency": 123.252446,
      "InPlanePhaseEncodingDirection": "COL",
      "MRAcquisitionType": "2D",
      "MagneticFieldStrength": 3.0,
      "Manufacturer": "SIEMENS",
      "ManufacturerModelName": "Prisma",
      "Modality": "MR",
      "NumberOfAverages": 1.0,
      "NumberOfPhaseEncodingSteps": 122,
      "PercentPhaseFieldOfView": 100.0,
      "PercentSampling": 100.0,
      "PerformedProcedureStepStartTime": "082944.868000",
      "PhotometricInterpretation": "MONOCHROME2",
      "PixelBandwidth": 2050.0,
      "PixelRepresentation": 0,
      "PixelSpacing": [1.9672131538391, 1.9672131538391],
      "ProtocolName": "dwi_acq-DTI-30-p2",
      "RepetitionTime": 7700.0,
      "Rows": 122,
      "SAR": 0.10190624527552,
      "SamplesPerPixel": 1,
      "ScanOptions": "FS",
      "ScanningSequence": "EP",
      "SequenceVariant": [
        "SK",
        "SP"
],
      "SeriesDescription": "dwi_acq-DTI-30-p2",
      "SeriesNumber": 12,
      "SeriesTime": "090425.261000",
      "SliceThickness": 2.0,
      "SmallestImagePixelValue": 0,
      "SoftwareVersions": "syngo MR E11",
      "SpacingBetweenSlices": 2.0,
      "SpecificCharacterSet": "ISO_IR 100",
      "StudyID": "1",
      "StudyTime": "082944.782000",
      "TransmitCoilName": "Body",
      "VariableFlipAngleFlag": "N",
      "WindowCenterWidthExplanation": "Algo1",
      "dBdt": 0.0},
    "slices": {
      "AcquisitionTime": ["090418.055000", "090414.215000", "090418.165000", "090414.325000", "090418.275000", "090414.435000", "090418.385000", "090414.545000", "090418.495000", "090414.655000", "090418.605000", "090414.765000", "090418.715000", "090414.875000", "090418.825000", "090414.985000", "090418.932500", "090415.095000", "090419.042500", "090415.202500", "090419.152500", "090415.312500", "090419.262500", "090415.422500", "090419.372500", "090415.532500", "090419.482500", "090415.642500", "090419.592500", "090415.752500", "090419.702500", "090415.862500", "090419.812500", "090415.972500", "090419.920000", "090416.080000", "090420.030000", "090416.190000", "090420.140000", "090416.300000", "090420.250000", "090416.410000", "090420.360000", "090416.520000", "090420.470000", "090416.630000", "090420.580000", "090416.740000", "090420.690000", "090416.850000", "090420.800000", "090416.960000", "090420.907500", "090417.067500", "090421.017500", "090417.177500", "090421.127500", "090417.287500", "090421.237500", "090417.397500", "090421.347500", "090417.507500", "090421.457500", "090417.617500", "090421.567500", "090417.727500", "090421.677500", "090417.837500", "090421.785000", "090417.947500", "090425.755000", "090421.915000", "090425.865000", "090422.025000", "090425.975000", "090422.135000", "090426.085000", "090422.245000", "090426.195000", "090422.355000", "090426.305000", "090422.465000", "090426.415000", "090422.575000", "090426.525000", "090422.685000", "090426.632500", "090422.795000", "090426.742500", "090422.902500", "090426.852500", "090423.012500", "090426.962500", "090423.122500", "090427.072500", "090423.232500", "090427.182500", "090423.342500", "090427.292500", "090423.452500", "090427.402500", "090423.562500", "090427.512500", "090423.672500", "090427.620000", "090423.780000", "090427.730000", "090423.890000", "090427.840000", "090424.000000", "090427.950000", "090424.110000", "090428.060000", "090424.220000", "090428.170000", "090424.330000", "090428.280000", "090424.440000", "090428.390000", "090424.550000", "090428.500000", "090424.660000", "090428.607500", "090424.767500", "090428.717500", "090424.877500", "090428.827500", "090424.987500", "090428.937500", "090425.097500", "090429.047500", "090425.207500", "090429.157500", "090425.317500", "090429.267500", "090425.427500", "090429.377500", "090425.537500", "090429.485000", "090425.647500", "090433.455000", "090429.615000", "090433.565000", "090429.725000", "090433.675000", "090429.835000", "090433.785000", "090429.945000", "090433.895000", "090430.055000", "090434.005000", "090430.165000", "090434.115000", "090430.275000", "090434.225000", "090430.385000", "090434.332500", "090430.495000", "090434.442500", "090430.602500", "090434.552500", "090430.712500", "090434.662500", "090430.822500", "090434.772500", "090430.932500", "090434.882500", "090431.042500", "090434.992500", "090431.152500", "090435.102500", "090431.262500", "090435.212500", "090431.372500", "090435.320000", "090431.480000", "090435.430000", "090431.590000", "090435.540000", "090431.700000", "090435.650000", "090431.810000", "090435.760000", "090431.920000", "090435.870000", "090432.030000", "090435.980000", "090432.140000", "090436.090000", "090432.250000", "090436.200000", "090432.360000", "090436.307500", "090432.467500", "090436.417500", "090432.577500", "090436.527500", "090432.687500", "090436.637500", "090432.797500", "090436.747500", "090432.907500", "090436.857500", "090433.017500", "090436.967500", "090433.127500", "090437.077500", "090433.237500", "090437.185000", "090433.347500", "090441.155000", "090437.315000", "090441.265000", "090437.425000", "090441.375000", "090437.535000", "090441.485000", "090437.645000", "090441.595000", "090437.755000", "090441.705000", "090437.865000", "090441.815000", "090437.975000", "090441.925000", "090438.085000", "090442.032500", "090438.195000", "090442.142500", "090438.302500", "090442.252500", "090438.412500", "090442.362500", "090438.522500", "090442.472500", "090438.632500", "090442.582500", "090438.742500", "090442.692500", "090438.852500", "090442.802500", "090438.962500", "090442.912500", "090439.072500", "090443.020000", "090439.180000", "090443.130000", "090439.290000", "090443.240000", "090439.400000", "090443.350000", "090439.510000", "090443.460000", "090439.620000", "090443.570000", "090439.730000", "090443.680000", "090439.840000", "090443.790000", "090439.950000", "090443.900000", "090440.060000", "090444.007500", "090440.167500", "090444.117500", "090440.277500", "090444.227500", "090440.387500", "090444.337500", "090440.497500", "090444.447500", "090440.607500", "090444.557500", "090440.717500", "090444.667500", "090440.827500", "090444.777500", "090440.937500", "090444.885000", "090441.047500", "090448.855000", "090445.015000", "090448.965000", "090445.125000", "090449.075000", "090445.235000", "090449.185000", "090445.345000", "090449.295000", "090445.455000", "090449.405000", "090445.565000", "090449.515000", "090445.675000", "090449.625000", "090445.785000", "090449.732500", "090445.895000", "090449.842500", "090446.002500", "090449.952500", "090446.112500", "090450.062500", "090446.222500", "090450.172500", "090446.332500", "090450.282500", "090446.442500", "090450.392500", "090446.552500", "090450.502500", "090446.662500", "090450.612500", "090446.772500", "090450.720000", "090446.880000", "090450.830000", "090446.990000", "090450.940000", "090447.100000", "090451.050000", "090447.210000", "090451.160000", "090447.320000", "090451.270000", "090447.430000", "090451.380000", "090447.540000", "090451.490000", "090447.650000", "090451.600000", "090447.760000", "090451.707500", "090447.867500", "090451.817500", "090447.977500", "090451.927500", "090448.087500", "090452.037500", "090448.197500", "090452.147500", "090448.307500", "090452.257500", "090448.417500", "090452.367500", "090448.527500", "090452.477500", "090448.637500", "090452.585000", "090448.747500", "090456.555000", "090452.715000", "090456.665000", "090452.825000", "090456.775000", "090452.935000", "090456.885000", "090453.045000", "090456.995000", "090453.155000", "090457.105000", "090453.265000", "090457.215000", "090453.375000", "090457.325000", "090453.485000", "090457.432500", "090453.595000", "090457.542500", "090453.702500", "090457.652500", "090453.812500", "090457.762500", "090453.922500", "090457.872500", "090454.032500", "090457.982500", "090454.142500", "090458.092500", "090454.252500", "090458.202500", "090454.362500", "090458.312500", "090454.472500", "090458.420000", "090454.580000", "090458.530000", "090454.690000", "090458.640000", "090454.800000", "090458.750000", "090454.910000", "090458.860000", "090455.020000", "090458.970000", "090455.130000", "090459.080000", "090455.240000", "090459.190000", "090455.350000", "090459.300000", "090455.460000", "090459.407500", "090455.567500", "090459.517500", "090455.677500", "090459.627500", "090455.787500", "090459.737500", "090455.897500", "090459.847500", "090456.007500", "090459.957500", "090456.117500", "090500.067500", "090456.227500", "090500.177500", "090456.337500", "090500.285000", "090456.447500", "090504.255000", "090500.415000", "090504.365000", "090500.525000", "090504.475000", "090500.635000", "090504.585000", "090500.745000", "090504.695000", "090500.855000", "090504.805000", "090500.965000", "090504.915000", "090501.075000", "090505.025000", "090501.185000", "090505.132500", "090501.295000", "090505.242500", "090501.402500", "090505.352500", "090501.512500", "090505.462500", "090501.622500", "090505.572500", "090501.732500", "090505.682500", "090501.842500", "090505.792500", "090501.952500", "090505.902500", "090502.062500", "090506.012500", "090502.172500", "090506.120000", "090502.280000", "090506.230000", "090502.390000", "090506.340000", "090502.500000", "090506.450000", "090502.610000", "090506.560000", "090502.720000", "090506.670000", "090502.830000", "090506.780000", "090502.940000", "090506.890000", "090503.050000", "090507.000000", "090503.160000", "090507.107500", "090503.267500", "090507.217500", "090503.377500", "090507.327500", "090503.487500", "090507.437500", "090503.597500", "090507.547500", "090503.707500", "090507.657500", "090503.817500", "090507.767500", "090503.927500", "090507.877500", "090504.037500", "090507.985000", "090504.147500", "090511.955000", "090508.115000", "090512.065000", "090508.225000", "090512.175000", "090508.335000", "090512.285000", "090508.445000", "090512.395000", "090508.555000", "090512.505000", "090508.665000", "090512.615000", "090508.775000", "090512.725000", "090508.885000", "090512.832500", "090508.995000", "090512.942500", "090509.102500", "090513.052500", "090509.212500", "090513.162500", "090509.322500", "090513.272500", "090509.432500", "090513.382500", "090509.542500", "090513.492500", "090509.652500", "090513.602500", "090509.762500", "090513.712500", "090509.872500", "090513.820000", "090509.980000", "090513.930000", "090510.090000", "090514.040000", "090510.200000", "090514.150000", "090510.310000", "090514.260000", "090510.420000", "090514.370000", "090510.530000", "090514.480000", "090510.640000", "090514.590000", "090510.750000", "090514.700000", "090510.860000", "090514.807500", "090510.967500", "090514.917500", "090511.077500", "090515.027500", "090511.187500", "090515.137500", "090511.297500", "090515.247500", "090511.407500", "090515.357500", "090511.517500", "090515.467500", "090511.627500", "090515.577500", "090511.737500", "090515.685000", "090511.847500", "090519.655000", "090515.815000", "090519.765000", "090515.925000", "090519.875000", "090516.035000", "090519.985000", "090516.145000", "090520.095000", "090516.255000", "090520.205000", "090516.365000", "090520.315000", "090516.475000", "090520.425000", "090516.585000", "090520.532500", "090516.695000", "090520.642500", "090516.802500", "090520.752500", "090516.912500", "090520.862500", "090517.022500", "090520.972500", "090517.132500", "090521.082500", "090517.242500", "090521.192500", "090517.352500", "090521.302500", "090517.462500", "090521.412500", "090517.572500", "090521.520000", "090517.680000", "090521.630000", "090517.790000", "090521.740000", "090517.900000", "090521.850000", "090518.010000", "090521.960000", "090518.120000", "090522.070000", "090518.230000", "090522.180000", "090518.340000", "090522.290000", "090518.450000", "090522.400000", "090518.560000", "090522.507500", "090518.667500", "090522.617500", "090518.777500", "090522.727500", "090518.887500", "090522.837500", "090518.997500", "090522.947500", "090519.107500", "090523.057500", "090519.217500", "090523.167500", "090519.327500", "090523.277500", "090519.437500", "090523.385000", "090519.547500", "090527.355000", "090523.515000", "090527.465000", "090523.625000", "090527.575000", "090523.735000", "090527.685000", "090523.845000", "090527.795000", "090523.955000", "090527.905000", "090524.065000", "090528.015000", "090524.175000", "090528.125000", "090524.285000", "090528.232500", "090524.395000", "090528.342500", "090524.502500", "090528.452500", "090524.612500", "090528.562500", "090524.722500", "090528.672500", "090524.832500", "090528.782500", "090524.942500", "090528.892500", "090525.052500", "090529.002500", "090525.162500", "090529.112500", "090525.272500", "090529.220000", "090525.380000", "090529.330000", "090525.490000", "090529.440000", "090525.600000", "090529.550000", "090525.710000", "090529.660000", "090525.820000", "090529.770000", "090525.930000", "090529.880000", "090526.040000", "090529.990000", "090526.150000", "090530.100000", "090526.260000", "090530.207500", "090526.367500", "090530.317500", "090526.477500", "090530.427500", "090526.587500", "090530.537500", "090526.697500", "090530.647500", "090526.807500", "090530.757500", "090526.917500", "090530.867500", "090527.027500", "090530.977500", "090527.137500", "090531.085000", "090527.247500", "090535.055000", "090531.215000", "090535.165000", "090531.325000", "090535.275000", "090531.435000", "090535.385000", "090531.545000", "090535.495000", "090531.655000", "090535.605000", "090531.765000", "090535.715000", "090531.875000", "090535.825000", "090531.985000", "090535.932500", "090532.095000", "090536.042500", "090532.202500", "090536.152500", "090532.312500", "090536.262500", "090532.422500", "090536.372500", "090532.532500", "090536.482500", "090532.642500", "090536.592500", "090532.752500", "090536.702500", "090532.862500", "090536.812500", "090532.972500", "090536.920000", "090533.080000", "090537.030000", "090533.190000", "090537.140000", "090533.300000", "090537.250000", "090533.410000", "090537.360000", "090533.520000", "090537.470000", "090533.630000", "090537.580000", "090533.740000", "090537.690000", "090533.850000", "090537.800000", "090533.960000", "090537.907500", "090534.067500", "090538.017500", "090534.177500", "090538.127500", "090534.287500", "090538.237500", "090534.397500", "090538.347500", "090534.507500", "090538.457500", "090534.617500", "090538.567500", "090534.727500", "090538.677500", "090534.837500", "090538.785000", "090534.947500", "090542.755000", "090538.915000", "090542.865000", "090539.025000", "090542.975000", "090539.135000", "090543.085000", "090539.245000", "090543.195000", "090539.355000", "090543.305000", "090539.465000", "090543.415000", "090539.575000", "090543.525000", "090539.685000", "090543.632500", "090539.795000", "090543.742500", "090539.902500", "090543.852500", "090540.012500", "090543.962500", "090540.122500", "090544.072500", "090540.232500", "090544.182500", "090540.342500", "090544.292500", "090540.452500", "090544.402500", "090540.562500", "090544.512500", "090540.672500", "090544.620000", "090540.780000", "090544.730000", "090540.890000", "090544.840000", "090541.000000", "090544.950000", "090541.110000", "090545.060000", "090541.220000", "090545.170000", "090541.330000", "090545.280000", "090541.440000", "090545.390000", "090541.550000", "090545.500000", "090541.660000", "090545.607500", "090541.767500", "090545.717500", "090541.877500", "090545.827500", "090541.987500", "090545.937500", "090542.097500", "090546.047500", "090542.207500", "090546.157500", "090542.317500", "090546.267500", "090542.427500", "090546.377500", "090542.537500", "090546.485000", "090542.647500", "090550.455000", "090546.615000", "090550.565000", "090546.725000", "090550.675000", "090546.835000", "090550.785000", "090546.945000", "090550.895000", "090547.055000", "090551.005000", "090547.165000", "090551.115000", "090547.275000", "090551.225000", "090547.385000", "090551.332500", "090547.495000", "090551.442500", "090547.602500", "090551.552500", "090547.712500", "090551.662500", "090547.822500", "090551.772500", "090547.932500", "090551.882500", "090548.042500", "090551.992500", "090548.152500", "090552.102500", "090548.262500", "090552.212500", "090548.372500", "090552.320000", "090548.480000", "090552.430000", "090548.590000", "090552.540000", "090548.700000", "090552.650000", "090548.810000", "090552.760000", "090548.920000", "090552.870000", "090549.030000", "090552.980000", "090549.140000", "090553.090000", "090549.250000", "090553.200000", "090549.360000", "090553.307500", "090549.467500", "090553.417500", "090549.577500", "090553.527500", "090549.687500", "090553.637500", "090549.797500", "090553.747500", "090549.907500", "090553.857500", "090550.017500", "090553.967500", "090550.127500", "090554.077500", "090550.237500", "090554.185000", "090550.347500", "090558.155000", "090554.315000", "090558.265000", "090554.425000", "090558.375000", "090554.535000", "090558.485000", "090554.645000", "090558.595000", "090554.755000", "090558.705000", "090554.865000", "090558.815000", "090554.975000", "090558.925000", "090555.085000", "090559.032500", "090555.195000", "090559.142500", "090555.302500", "090559.252500", "090555.412500", "090559.362500", "090555.522500", "090559.472500", "090555.632500", "090559.582500", "090555.742500", "090559.692500", "090555.852500", "090559.802500", "090555.962500", "090559.912500", "090556.072500", "090600.020000", "090556.180000", "090600.130000", "090556.290000", "090600.240000", "090556.400000", "090600.350000", "090556.510000", "090600.460000", "090556.620000", "090600.570000", "090556.730000", "090600.680000", "090556.840000", "090600.790000", "090556.950000", "090600.900000", "090557.060000", "090601.007500", "090557.167500", "090601.117500", "090557.277500", "090601.227500", "090557.387500", "090601.337500", "090557.497500", "090601.447500", "090557.607500", "090601.557500", "090557.717500", "090601.667500", "090557.827500", "090601.777500", "090557.937500", "090601.885000", "090558.047500", "090605.855000", "090602.015000", "090605.965000", "090602.125000", "090606.075000", "090602.235000", "090606.185000", "090602.345000", "090606.295000", "090602.455000", "090606.405000", "090602.565000", "090606.515000", "090602.675000", "090606.625000", "090602.785000", "090606.732500", "090602.895000", "090606.842500", "090603.002500", "090606.952500", "090603.112500", "090607.062500", "090603.222500", "090607.172500", "090603.332500", "090607.282500", "090603.442500", "090607.392500", "090603.552500", "090607.502500", "090603.662500", "090607.612500", "090603.772500", "090607.720000", "090603.880000", "090607.830000", "090603.990000", "090607.940000", "090604.100000", "090608.050000", "090604.210000", "090608.160000", "090604.320000", "090608.270000", "090604.430000", "090608.380000", "090604.540000", "090608.490000", "090604.650000", "090608.600000", "090604.760000", "090608.707500", "090604.867500", "090608.817500", "090604.977500", "090608.927500", "090605.087500", "090609.037500", "090605.197500", "090609.147500", "090605.307500", "090609.257500", "090605.417500", "090609.367500", "090605.527500", "090609.477500", "090605.637500", "090609.585000", "090605.747500", "090613.555000", "090609.715000", "090613.665000", "090609.825000", "090613.775000", "090609.935000", "090613.885000", "090610.045000", "090613.995000", "090610.155000", "090614.105000", "090610.265000", "090614.215000", "090610.375000", "090614.325000", "090610.485000", "090614.432500", "090610.595000", "090614.542500", "090610.702500", "090614.652500", "090610.812500", "090614.762500", "090610.922500", "090614.872500", "090611.032500", "090614.982500", "090611.142500", "090615.092500", "090611.252500", "090615.202500", "090611.362500", "090615.312500", "090611.472500", "090615.420000", "090611.580000", "090615.530000", "090611.690000", "090615.640000", "090611.800000", "090615.750000", "090611.910000", "090615.860000", "090612.020000", "090615.970000", "090612.130000", "090616.080000", "090612.240000", "090616.190000", "090612.350000", "090616.300000", "090612.460000", "090616.407500", "090612.567500", "090616.517500", "090612.677500", "090616.627500", "090612.787500", "090616.737500", "090612.897500", "090616.847500", "090613.007500", "090616.957500", "090613.117500", "090617.067500", "090613.227500", "090617.177500", "090613.337500", "090617.285000", "090613.447500", "090621.255000", "090617.415000", "090621.365000", "090617.525000", "090621.475000", "090617.635000", "090621.585000", "090617.745000", "090621.695000", "090617.855000", "090621.805000", "090617.965000", "090621.915000", "090618.075000", "090622.025000", "090618.185000", "090622.132500", "090618.295000", "090622.242500", "090618.402500", "090622.352500", "090618.512500", "090622.462500", "090618.622500", "090622.572500", "090618.732500", "090622.682500", "090618.842500", "090622.792500", "090618.952500", "090622.902500", "090619.062500", "090623.012500", "090619.172500", "090623.120000", "090619.280000", "090623.230000", "090619.390000", "090623.340000", "090619.500000", "090623.450000", "090619.610000", "090623.560000", "090619.720000", "090623.670000", "090619.830000", "090623.780000", "090619.940000", "090623.890000", "090620.050000", "090624.000000", "090620.160000", "090624.107500", "090620.267500", "090624.217500", "090620.377500", "090624.327500", "090620.487500", "090624.437500", "090620.597500", "090624.547500", "090620.707500", "090624.657500", "090620.817500", "090624.767500", "090620.927500", "090624.877500", "090621.037500", "090624.985000", "090621.147500", "090628.955000", "090625.115000", "090629.065000", "090625.225000", "090629.175000", "090625.335000", "090629.285000", "090625.445000", "090629.395000", "090625.555000", "090629.505000", "090625.665000", "090629.615000", "090625.775000", "090629.725000", "090625.885000", "090629.832500", "090625.995000", "090629.942500", "090626.102500", "090630.052500", "090626.212500", "090630.162500", "090626.322500", "090630.272500", "090626.432500", "090630.382500", "090626.542500", "090630.492500", "090626.652500", "090630.602500", "090626.762500", "090630.712500", "090626.872500", "090630.820000", "090626.980000", "090630.930000", "090627.090000", "090631.040000", "090627.200000", "090631.150000", "090627.310000", "090631.260000", "090627.420000", "090631.370000", "090627.530000", "090631.480000", "090627.640000", "090631.590000", "090627.750000", "090631.700000", "090627.860000", "090631.807500", "090627.967500", "090631.917500", "090628.077500", "090632.027500", "090628.187500", "090632.137500", "090628.297500", "090632.247500", "090628.407500", "090632.357500", "090628.517500", "090632.467500", "090628.627500", "090632.577500", "090628.737500", "090632.685000", "090628.847500", "090636.655000", "090632.815000", "090636.765000", "090632.925000", "090636.875000", "090633.035000", "090636.985000", "090633.145000", "090637.095000", "090633.255000", "090637.205000", "090633.365000", "090637.315000", "090633.475000", "090637.425000", "090633.585000", "090637.532500", "090633.695000", "090637.642500", "090633.802500", "090637.752500", "090633.912500", "090637.862500", "090634.022500", "090637.972500", "090634.132500", "090638.082500", "090634.242500", "090638.192500", "090634.352500", "090638.302500", "090634.462500", "090638.412500", "090634.572500", "090638.520000", "090634.680000", "090638.630000", "090634.790000", "090638.740000", "090634.900000", "090638.850000", "090635.010000", "090638.960000", "090635.120000", "090639.070000", "090635.230000", "090639.180000", "090635.340000", "090639.290000", "090635.450000", "090639.400000", "090635.560000", "090639.507500", "090635.667500", "090639.617500", "090635.777500", "090639.727500", "090635.887500", "090639.837500", "090635.997500", "090639.947500", "090636.107500", "090640.057500", "090636.217500", "090640.167500", "090636.327500", "090640.277500", "090636.437500", "090640.385000", "090636.547500", "090644.355000", "090640.515000", "090644.465000", "090640.625000", "090644.575000", "090640.735000", "090644.685000", "090640.845000", "090644.795000", "090640.955000", "090644.905000", "090641.065000", "090645.015000", "090641.175000", "090645.125000", "090641.285000", "090645.232500", "090641.395000", "090645.342500", "090641.502500", "090645.452500", "090641.612500", "090645.562500", "090641.722500", "090645.672500", "090641.832500", "090645.782500", "090641.942500", "090645.892500", "090642.052500", "090646.002500", "090642.162500", "090646.112500", "090642.272500", "090646.220000", "090642.380000", "090646.330000", "090642.490000", "090646.440000", "090642.600000", "090646.550000", "090642.710000", "090646.660000", "090642.820000", "090646.770000", "090642.930000", "090646.880000", "090643.040000", "090646.990000", "090643.150000", "090647.100000", "090643.260000", "090647.207500", "090643.367500", "090647.317500", "090643.477500", "090647.427500", "090643.587500", "090647.537500", "090643.697500", "090647.647500", "090643.807500", "090647.757500", "090643.917500", "090647.867500", "090644.027500", "090647.977500", "090644.137500", "090648.085000", "090644.247500", "090652.055000", "090648.215000", "090652.165000", "090648.325000", "090652.275000", "090648.435000", "090652.385000", "090648.545000", "090652.495000", "090648.655000", "090652.605000", "090648.765000", "090652.715000", "090648.875000", "090652.825000", "090648.985000", "090652.932500", "090649.095000", "090653.042500", "090649.202500", "090653.152500", "090649.312500", "090653.262500", "090649.422500", "090653.372500", "090649.532500", "090653.482500", "090649.642500", "090653.592500", "090649.752500", "090653.702500", "090649.862500", "090653.812500", "090649.972500", "090653.920000", "09065