{
  "AcquisitionMatrixPE": 80,
  "AcquisitionNumber": 1,
  "AcquisitionTime": "10:19:27.832500",
  "BandwidthPerPixelPhaseEncode": 48.077,
  "BaseResolution": 80,
  "BodyPartExamined": "BRAIN",
  "CoilCombinationMethod": "Sum of Squares",
  "ConsistencyInfo": "N4_VE11C_LATEST_20160120",
  "ConversionSoftware": "dcm2niix",
  "ConversionSoftwareVersion": "v1.0.20220720",
  "DerivedVendorReportedEchoSpacing": 0.000519999,
  "DeviceSerialNumber": "66112",
  "DwellTime": 2.7e-06,
  "EchoTime": 0.035,
  "EchoTrainLength": 39,
  "EffectiveEchoSpacing": 0.00026,
  "FlipAngle": 90,
  "HeudiconvVersion": "0.13.1",
  "ImageOrientationPatientDICOM": [0.999934, 0.01144, 0.00100729, -0.0111699, 0.948426, 0.316801],
  "ImageOrientationText": "Tra>Cor(18.5)>Sag(-0.2)",
  "ImageType": [
    "ORIGINAL",
    "PRIMARY",
    "M",
    "ND",
    "NORM",
    "MOSAIC"
],
  "ImagingFrequency": 123.252,
  "InPlanePhaseEncodingDirectionDICOM": "COL",
  "InstitutionAddress": "Maynard 3,Hanover,NH,US,03755",
  "InstitutionName": "Dartmouth College - PBS",
  "InstitutionalDepartmentName": "Department",
  "MRAcquisitionType": "2D",
  "MagneticFieldStrength": 3,
  "Manufacturer": "Siemens",
  "ManufacturersModelName": "Prisma",
  "MatrixCoilMode": "GRAPPA",
  "Modality": "MR",
  "NonlinearGradientCorrection": false,
  "ParallelReductionFactorInPlane": 2,
  "PartialFourier": 1,
  "PatientPosition": "HFS",
  "PercentPhaseFOV": 100,
  "PercentSampling": 100,
  "PhaseEncodingDirection": "j-",
  "PhaseEncodingSteps": 79,
  "PhaseResolution": 1,
  "PixelBandwidth": 2315,
  "ProcedureStepDescription": "dbic^QA",
  "ProtocolName": "func-bold_task-rest_acq-p2",
  "PulseSequenceDetails": "%SiemensSeq%\\ep2d_bold",
  "ReceiveCoilActiveElements": "HC1-7;NC1,2",
  "ReceiveCoilName": "HeadNeck_64",
  "ReconMatrixPE": 80,
  "RefLinesPE": 24,
  "RepetitionTime": 2,
  "SAR": 0.0407517,
  "ScanOptions": "FS",
  "ScanningSequence": "EP",
  "SequenceName": "*epfid2d1_80",
  "SequenceVariant": "SK",
  "SeriesDescription": "func-bold_task-rest_acq-p2",
  "SeriesNumber": 5,
  "ShimSetting": [4143, -7691, -7502, 183, -75, -343, -121, 73],
  "SliceThickness": 3.5,
  "SliceTiming": [0.9875, 0, 1.055, 0.065, 1.12, 0.13, 1.1875, 0.1975, 1.2525, 0.2625, 1.3175, 0.3275, 1.385, 0.395, 1.45, 0.46, 1.5175, 0.5275, 1.5825, 0.5925, 1.6475, 0.6575, 1.715, 0.725, 1.78, 0.79, 1.8475, 0.8575, 1.9125, 0.9225],
  "SoftwareVersions": "syngo MR E11",
  "SpacingBetweenSlices": 3.99,
  "StationName": "AWP66112",
  "TaskName": "rest",
  "TotalReadoutTime": 0.02054,
  "TxRefAmp": 209.515,
  "dcmmeta_affine": [
    [-2.9998021125793457, -0.03350956365466118, -0.01064879260957241, 123.6732406616211],
    [-0.03432003781199455, 2.845278739929199, 1.263998031616211, -128.34637451171875],
    [0.0030218639876693487, -0.9504033327102661, 3.7844808101654053, -25.44398307800293],
    [0.0, 0.0, 0.0, 1.0]
],
  "dcmmeta_reorient_transform": [
    [0.0, -1.0, 0.0, 79.0],
    [1.0, 0.0, 0.0, 0.0],
    [0.0, 0.0, 1.0, 0.0],
    [0.0, 0.0, 0.0, 1.0]
],
  "dcmmeta_shape": [80, 80, 30, 200],
  "dcmmeta_slice_dim": 2,
  "dcmmeta_version": 0.6,
  "global": {
    "const": {
      "AccessionNumber": "qa64",
      "AcquisitionMatrix": [80, 0, 0, 80],
      "AngioFlag": "N",
      "BitsAllocated": 16,
      "BitsStored": 12,
      "BodyPartExamined": "BRAIN",
      "Columns": 480,
      "EchoNumbers": 1,
      "EchoTime": 35.0,
      "EchoTrainLength": 39,
      "FlipAngle": 90.0,
      "HighBit": 11,
      "ImageOrientationPatient": [0.99993405357145, 0.01144001219759, 0.00100728799139, -0.01116985405, 0.94842621582508, 0.31680111662718],
      "ImagePositionPatient": [-714.28450673079, -672.35037111175, -291.21089104705],
      "ImageType": [
        "ORIGINAL",
        "PRIMARY",
        "M",
        "ND",
        "NORM",
        "MOSAIC"
],
      "ImagedNucleus": "1H",
      "ImagingFrequency": 123.252341,
      "InPlanePhaseEncodingDirection": "COL",
      "LargestImagePixelValue": 4095,
      "MRAcquisitionType": "2D",
      "MagneticFieldStrength": 3.0,
      "Manufacturer": "SIEMENS",
      "ManufacturerModelName": "Prisma",
      "Modality": "MR",
      "NumberOfAverages": 1.0,
      "NumberOfPhaseEncodingSteps": 79,
      "PercentPhaseFieldOfView": 100.0,
      "PercentSampling": 100.0,
      "PerformedProcedureStepStartTime": "101733.114000",
      "PhotometricInterpretation": "MONOCHROME2",
      "PixelBandwidth": 2315.0,
      "PixelRepresentation": 0,
      "PixelSpacing": [3.0, 3.0],
      "ProtocolName": "func-bold_task-rest_acq-p2",
      "RepetitionTime": 2000.0,
      "Rows": 480,
      "SAR": 0.0407517217486,
      "SamplesPerPixel": 1,
      "ScanOptions": "FS",
      "ScanningSequence": "EP",
      "SequenceName": "*epfid2d1_80",
      "SequenceVariant": "SK",
      "SeriesDescription": "func-bold_task-rest_acq-p2",
      "SeriesNumber": 5,
      "SeriesTime": "102010.700000",
      "SliceLocation": -65.122507665555,
      "SliceThickness": 3.5,
      "SmallestImagePixelValue": 0,
      "SoftwareVersions": "syngo MR E11",
      "SpacingBetweenSlices": 3.9900000290083,
      "SpecificCharacterSet": "ISO_IR 100",
      "StudyID": "21",
      "StudyTime": "101733.048000",
      "TransmitCoilName": "Body",
      "VariableFlipAngleFlag": "N",
      "WindowCenterWidthExplanation": "Algo1",
      "dBdt": 0.0},
    "slices": {}
  },
  "time": {
    "samples": {
      "AcquisitionNumber": [1, 2, 3, 4, 5, 6, 7, 8, 9, 10, 11, 12, 13, 14, 15, 16, 17, 18, 19, 20, 21, 22, 23, 24, 25, 26, 27, 28, 29, 30, 31, 32, 33, 34, 35, 36, 37, 38, 39, 40, 41, 42, 43, 44, 45, 46, 47, 48, 49, 50, 51, 52, 53, 54, 55, 56, 57, 58, 59, 60, 61, 62, 63, 64, 65, 66, 67, 68, 69, 70, 71, 72, 73, 74, 75, 76, 77, 78, 79, 80, 81, 82, 83, 84, 85, 86, 87, 88, 89, 90, 91, 92, 93, 94, 95, 96, 97, 98, 99, 100, 101, 102, 103, 104, 105, 106, 107, 108, 109, 110, 111, 112, 113, 114, 115, 116, 117, 118, 119, 120, 121, 122, 123, 124, 125, 126, 127, 128, 129, 130, 131, 132, 133, 134, 135, 136, 137, 138, 139, 140, 141, 142, 143, 144, 145, 146, 147, 148, 149, 150, 151, 152, 153, 154, 155, 156, 157, 158, 159, 160, 161, 162, 163, 164, 165, 166, 167, 168, 169, 170, 171, 172, 173, 174, 175, 176, 177, 178, 179, 180, 181, 182, 183, 184, 185, 186, 187, 188, 189, 190, 191, 192, 193, 194, 195, 196, 197, 198, 199, 200],
      "AcquisitionTime": ["101927.832500", "101929.832500", "101931.832500", "101933.832500", "101935.832500", "101937.832500", "101939.832500", "101941.832500", "101943.832500", "101945.832500", "101947.832500", "101949.832500", "101951.832500", "101953.832500", "101955.832500", "101957.832500", "101959.832500", "102001.832500", "102003.832500", "102005.832500", "102007.832500", "102009.832500", "102011.832500", "102013.832500", "102015.832500", "102017.832500", "102019.832500", "102021.832500", "102023.832500", "102025.832500", "102027.832500", "102029.832500", "102031.832500", "102033.832500", "102035.832500", "102037.832500", "102039.832500", "102041.832500", "102043.832500", "102045.832500", "102047.832500", "102049.832500", "102051.832500", "102053.832500", "102055.832500", "102057.832500", "102059.832500", "102101.832500", "102103.832500", "102105.832500", "102107.832500", "102109.832500", "102111.832500", "102113.832500", "102115.832500", "102117.832500", "102119.832500", "102121.832500", "102123.832500", "102125.832500", "102127.832500", "102129.832500", "102131.832500", "102133.832500", "102135.832500", "102137.832500", "102139.832500", "102141.832500", "102143.832500", "102145.832500", "102147.832500", "102149.832500", "102151.832500", "102153.832500", "102155.832500", "102157.832500", "102159.832500", "102201.832500", "102203.832500", "102205.832500", "102207.832500", "102209.832500", "102211.832500", "102213.832500", "102215.832500", "102217.832500", "102219.832500", "102221.832500", "102223.832500", "102225.832500", "102227.832500", "102229.832500", "102231.832500", "102233.832500", "102235.832500", "102237.832500", "102239.832500", "102241.832500", "102243.832500", "102245.832500", "102247.832500", "102249.832500", "102251.832500", "102253.832500", "102255.832500", "102257.832500", "102259.832500", "102301.832500", "102303.832500", "102305.832500", "102307.832500", "102309.832500", "102311.832500", "102313.832500", "102315.832500", "102317.832500", "102319.832500", "102321.832500", "102323.832500", "102325.832500", "102327.832500", "102329.832500", "102331.832500", "102333.832500", "102335.832500", "102337.832500", "102339.832500", "102341.832500", "102343.832500", "102345.832500", "102347.832500", "102349.832500", "102351.832500", "102353.832500", "102355.832500", "102357.832500", "102359.832500", "102401.832500", "102403.832500", "102405.832500", "102407.832500", "102409.832500", "102411.832500", "102413.832500", "102415.832500", "102417.832500", "102419.832500", "102421.832500", "102423.832500", "102425.832500", "102427.832500", "102429.832500", "102431.832500", "102433.832500", "102435.832500", "102437.832500", "102439.832500", "102441.832500", "102443.832500", "102445.832500", "102447.832500", "102449.832500", "102451.832500", "102453.832500", "102455.832500", "102457.832500", "102459.832500", "102501.832500", "102503.832500", "102505.832500", "102507.832500", "102509.832500", "102511.832500", "102513.832500", "102515.832500", "102517.832500", "102519.832500", "102521.832500", "102523.832500", "102525.832500", "102527.832500", "102529.832500", "102531.832500", "102533.832500", "102535.832500", "102537.832500", "102539.832500", "102541.832500", "102543.832500", "102545.832500", "102547.832500", "102549.832500", "102551.832500", "102553.832500", "102555.832500", "102557.832500", "102559.832500", "102601.832500", "102603.832500", "102605.832500"],
      "ContentTime": ["102010.704000", "102010.707000", "102010.710000", "102010.712000", "102010.715000", "102010.718000", "102010.720000", "102010.723000", "102010.725000", "102010.728000", "102010.730000", "102010.733000", "102010.735000", "102010.738000", "102010.740000", "102010.743000", "102010.745000", "102010.752000", "102010.755000", "102010.758000", "102010.760000", "102050.699000", "102050.701000", "102050.704000", "102050.707000", "102050.709000", "102050.712000", "102050.714000", "102050.717000", "102050.728000", "102050.730000", "102050.733000", "102050.735000", "102050.738000", "102050.741000", "102050.743000", "102050.746000", "102050.748000", "102050.751000", "102050.753000", "102050.756000", "102130.698000", "102130.700000", "102130.703000", "102130.705000", "102130.708000", "102130.711000", "102130.713000", "102130.716000", "102130.718000", "102130.721000", "102130.723000", "102130.726000", "102130.728000", "102130.731000", "102130.733000", "102130.736000", "102130.738000", "102130.741000", "102130.743000", "102130.746000", "102210.697000", "102210.700000", "102210.703000", "102210.705000", "102210.708000", "102210.711000", "102210.713000", "102210.716000", "102210.718000", "102210.721000", "102210.723000", "102210.726000", "102210.728000", "102210.731000", "102210.733000", "102210.736000", "102210.739000", "102210.741000", "102210.744000", "102210.746000", "102250.698000", "102250.701000", "102250.704000", "102250.706000", "102250.709000", "102250.711000", "102250.714000", "102250.717000", "102250.719000", "102250.722000", "102250.724000", "102250.727000", "102250.729000", "102250.732000", "102250.734000", "102250.737000", "102250.740000", "102250.742000", "102250.745000", "102250.747000", "102330.698000", "102330.700000", "102330.703000", "102330.705000", "102330.708000", "102330.711000", "102330.713000", "102330.716000", "102330.718000", "102330.721000", "102330.723000", "102330.726000", "102330.729000", "102330.731000", "102330.734000", "102330.736000", "102330.739000", "102330.741000", "102330.744000", "102330.746000", "102410.697000", "102410.700000", "102410.703000", "102410.705000", "102410.708000", "102410.711000", "102410.713000", "102410.716000", "102410.718000", "102410.721000", "102410.723000", "102410.726000", "102410.728000", "102410.731000", "102410.733000", "102410.736000", "102410.739000", "102410.741000", "102410.744000", "102410.746000", "102450.698000", "102450.701000", "102450.704000", "102450.706000", "102450.709000", "102450.711000", "102450.714000", "102450.716000", "102450.719000", "102450.722000", "102450.724000", "102450.727000", "102450.729000", "102450.732000", "102450.734000", "102450.737000", "102450.739000", "102450.742000", "102450.744000", "102450.747000", "102530.698000", "102530.700000", "102530.703000", "102530.706000", "102530.708000", "102530.711000", "102530.713000", "102530.716000", "102530.718000", "102530.721000", "102530.723000", "102530.726000", "102530.728000", "102530.731000", "102530.733000", "102530.736000", "102530.739000", "102530.741000", "102530.744000", "102530.746000", "102607.532000", "102607.535000", "102607.538000", "102607.540000", "102607.543000", "102607.545000", "102607.548000", "102607.551000", "102607.553000", "102607.556000", "102607.559000", "102607.565000", "102607.568000", "102607.572000", "102607.575000", "102607.578000", "102607.582000", "102607.585000", "102607.587000"],
      "InstanceCreationTime": ["102010.704000", "102010.707000", "102010.710000", "102010.712000", "102010.715000", "102010.718000", "102010.720000", "102010.723000", "102010.725000", "102010.728000", "102010.730000", "102010.733000", "102010.735000", "102010.738000", "102010.740000", "102010.743000", "102010.745000", "102010.752000", "102010.755000", "102010.758000", "102010.760000", "102050.699000", "102050.701000", "102050.704000", "102050.707000", "102050.709000", "102050.712000", "102050.714000", "102050.717000", "102050.728000", "102050.730000", "102050.733000", "102050.735000", "102050.738000", "102050.741000", "102050.743000", "102050.746000", "102050.748000", "102050.751000", "102050.753000", "102050.756000", "102130.698000", "102130.700000", "102130.703000", "102130.705000", "102130.708000", "102130.711000", "102130.713000", "102130.716000", "102130.718000", "102130.721000", "102130.723000", "102130.726000", "102130.728000", "102130.731000", "102130.733000", "102130.736000", "102130.738000", "102130.741000", "102130.743000", "102130.746000", "102210.697000", "102210.700000", "102210.703000", "102210.705000", "102210.708000", "102210.711000", "102210.713000", "102210.716000", "102210.718000", "102210.721000", "102210.723000", "102210.726000", "102210.728000", "102210.731000", "102210.733000", "102210.736000", "102210.739000", "102210.741000", "102210.744000", "102210.746000", "102250.698000", "102250.701000", "102250.704000", "102250.706000", "102250.709000", "102250.711000", "102250.714000", "102250.717000", "102250.719000", "102250.722000", "102250.724000", "102250.727000", "102250.729000", "102250.732000", "102250.734000", "102250.737000", "102250.740000", "102250.742000", "102250.745000", "102250.747000", "102330.698000", "102330.700000", "102330.703000", "102330.705000", "102330.708000", "102330.711000", "102330.713000", "102330.716000", "102330.718000", "102330.721000", "102330.723000", "102330.726000", "102330.729000", "102330.731000", "102330.734000", "102330.736000", "102330.739000", "102330.741000", "102330.744000", "102330.746000", "102410.697000", "102410.700000", "102410.703000", "102410.705000", "102410.708000", "102410.711000", "102410.713000", "102410.716000", "102410.718000", "102410.721000", "102410.723000", "102410.726000", "102410.728000", "102410.731000", "102410.733000", "102410.736000", "102410.739000", "102410.741000", "102410.744000", "102410.746000", "102450.698000", "102450.701000", "102450.704000", "102450.706000", "102450.709000", "102450.711000", "102450.714000", "102450.716000", "102450.719000", "102450.722000", "102450.724000", "102450.727000", "102450.729000", "102450.732000", "102450.734000", "102450.737000", "102450.739000", "102450.742000", "102450.744000", "102450.747000", "102530.698000", "102530.700000", "102530.703000", "102530.706000", "102530.708000", "102530.711000", "102530.713000", "102530.716000", "102530.718000", "102530.721000", "102530.723000", "102530.726000", "102530.728000", "102530.731000", "102530.733000", "102530.736000", "102530.739000", "102530.741000", "102530.744000", "102530.746000", "102607.532000", "102607.535000", "102607.538000", "102607.540000", "102607.543000", "102607.545000", "102607.548000", "102607.551000", "102607.553000", "102607.556000", "102607.559000", "102607.565000", "102607.568000", "102607.572000", "102607.575000", "102607.578000", "102607.582000", "102607.585000", "102607.587000"],
      "InstanceNumber": [1, 2, 3, 4, 5, 6, 7, 8, 9, 10, 11, 12, 13, 14, 15, 16, 17, 18, 19, 20, 21, 22, 23, 24, 25, 26, 27, 28, 29, 30, 31, 32, 33, 34, 35, 36, 37, 38, 39, 40, 41, 42, 43, 44, 45, 46, 47, 48, 49, 50, 51, 52, 53, 54, 55, 56, 57, 58, 59, 60, 61, 62, 63, 64, 65, 66, 67, 68, 69, 70, 71, 72, 73, 74, 75, 76, 77, 78, 79, 80, 81, 82, 83, 84, 85, 86, 87, 88, 89, 90, 91, 92, 93, 94, 95, 96, 97, 98, 99, 100, 101, 102, 103, 104, 105, 106, 107, 108, 109, 110, 111, 112, 113, 114, 115, 116, 117, 118, 119, 120, 121, 122, 123, 124, 125, 126, 127, 128, 129, 130, 131, 132, 133, 134, 135, 136, 137, 138, 139, 140, 141, 142, 143, 144, 145, 146, 147, 148, 149, 150, 151, 152, 153, 154, 155, 156, 157, 158, 159, 160, 161, 162, 163, 164, 165, 166, 167, 168, 169, 170, 171, 172, 173, 174, 175, 176, 177, 178, 179, 180, 181, 182, 183, 184, 185, 186, 187, 188, 189, 190, 191, 192, 193, 194, 195, 196, 197, 198, 199, 200],
      "WindowCenter": [1519.0, 1519.0, 1519.0, 1519.0, 1518.0, 1518.0, 1517.0, 1518.0, 1517.0, 1517.0, 1517.0, 1518.0, 1517.0, 1517.0, 1516.0, 1516.0, 1517.0, 1516.0, 1517.0, 1517.0, 1516.0, 1516.0, 1516.0, 1516.0, 1516.0, 1516.0, 1516.0, 1517.0, 1516.0, 1516.0, 1516.0, 1515.0, 1516.0, 1517.0, 1515.0, 1515.0, 1514.0, 1514.0, 1515.0, 1515.0, 1514.0, 1515.0, 1515.0, 1515.0, 1515.0, 1516.0, 1514.0, 1515.0, 1515.0, 1515.0, 1515.0, 1514.0, 1514.0, 1515.0, 1515.0, 1514.0, 1514.0, 1515.0, 1514.0, 1514.0, 1514.0, 1514.0, 1514.0, 1513.0, 1514.0, 1514.0, 1514.0, 1514.0, 1513.0, 1514.0, 1514.0, 1513.0, 1514.0, 1513.0, 1513.0, 1514.0, 1513.0, 1513.0, 1514.0, 1514.0, 1513.0, 1513.0, 1514.0, 1514.0, 1513.0, 1513.0, 1513.0, 1513.0, 1513.0, 1512.0, 1513.0, 1512.0, 1512.0, 1513.0, 1512.0, 1513.0, 1511.0, 1512.0, 1512.0, 1513.0, 1513.0, 1512.0, 1512.0, 1512.0, 1512.0, 1512.0, 1512.0, 1512.0, 1512.0, 1512.0, 1512.0, 1512.0, 1512.0, 1513.0, 1511.0, 1512.0, 1512.0, 1511.0, 1511.0, 1512.0, 1512.0, 1512.0, 1512.0, 1512.0, 1511.0, 1512.0, 1511.0, 1512.0, 1512.0, 1511.0, 1512.0, 1511.0, 1510.0, 1511.0, 1511.0, 1511.0, 1511.0, 1510.0, 1511.0, 1511.0, 1511.0, 1511.0, 1511.0, 1512.0, 1510.0, 1510.0, 1510.0, 1510.0, 1511.0, 1510.0, 1510.0, 1510.0, 1511.0, 1511.0, 1511.0, 1510.0, 1510.0, 1510.0, 1509.0, 1510.0, 1510.0, 1510.0, 1510.0, 1510.0, 1511.0, 1510.0, 1511.0, 1510.0, 1510.0, 1510.0, 1510.0, 1510.0, 1510.0, 1510.0, 1509.0, 1509.0, 1510.0, 1510.0, 1509.0, 1510.0, 1510.0, 1510.0, 1510.0, 1510.0, 1510.0, 1510.0, 1509.0, 1509.0, 1510.0, 1509.0, 1509.0, 1509.0, 1509.0, 1509.0, 1509.0, 1509.0, 1509.0, 1509.0, 1509.0, 1509.0],
      "WindowWidth": [3433.0, 3432.0, 3432.0, 3432.0, 3432.0, 3432.0, 3432.0, 3432.0, 3432.0, 3432.0, 3432.0, 3431.0, 3431.0, 3431.0, 3431.0, 3431.0, 3431.0, 3431.0, 3431.0, 3431.0, 3431.0, 3431.0, 3431.0, 3431.0, 3431.0, 3431.0, 3431.0, 3430.0, 3431.0, 3430.0, 3431.0, 3430.0, 3430.0, 3430.0, 3431.0, 3430.0, 3430.0, 3430.0, 3430.0, 3430.0, 3430.0, 3430.0, 3430.0, 3430.0, 3430.0, 3429.0, 3430.0, 3430.0, 3429.0, 3429.0, 3429.0, 3430.0, 3430.0, 3429.0, 3429.0, 3429.0, 3429.0, 3429.0, 3429.0, 3428.0, 3429.0, 3429.0, 3428.0, 3429.0, 3428.0, 3428.0, 3429.0, 3428.0, 3429.0, 3428.0, 3428.0, 3429.0, 3428.0, 3428.0, 3428.0, 3428.0, 3428.0, 3428.0, 3428.0, 3428.0, 3428.0, 3428.0, 3428.0, 3428.0, 3428.0, 3428.0, 3427.0, 3427.0, 3427.0, 3427.0, 3427.0, 3427.0, 3427.0, 3427.0, 3427.0, 3427.0, 3428.0, 3427.0, 3427.0, 3427.0, 3427.0, 3427.0, 3427.0, 3427.0, 3427.0, 3427.0, 3427.0, 3426.0, 3426.0, 3427.0, 3427.0, 3427.0, 3427.0, 3426.0, 3426.0, 3427.0, 3426.0, 3426.0, 3426.0, 3426.0, 3426.0, 3426.0, 3426.0, 3426.0, 3426.0, 3426.0, 3426.0, 3426.0, 3426.0, 3426.0, 3426.0, 3426.0, 3426.0, 3426.0, 3426.0, 3426.0, 3426.0, 3426.0, 3426.0, 3426.0, 3426.0, 3426.0, 3425.0, 3425.0, 3425.0, 3425.0, 3425.0, 3425.0, 3425.0, 3425.0, 3426.0, 3425.0, 3425.0, 3425.0, 3425.0, 3425.0, 3425.0, 3425.0, 3425.0, 3425.0, 3425.0, 3425.0, 3425.0, 3424.0, 3424.0, 3425.0, 3424.0, 3425.0, 3425.0, 3425.0, 3424.0, 3424.0, 3424.0, 3424.0, 3425.0, 3425.0, 3424.0, 3424.0, 3425.0, 3424.0, 3424.0, 3424.0, 3424.0, 3424.0, 3424.0, 3424.0, 3424.0, 3424.0, 3424.0, 3424.0, 3424.0, 3423.0, 3424.0, 3424.0, 3424.0, 3424.0, 3424.0, 3424.0, 3423.0, 3423.0]
    },
    "slices": {}
  }
}