{
  "AcquisitionMatrixPE": 80,
  "AcquisitionNumber": 1,
  "AcquisitionTime": "10:26:16.527500",
  "BandwidthPerPixelPhaseEncode": 25,
  "BaseResolution": 80,
  "BodyPartExamined": "BRAIN",
  "CoilCombinationMethod": "Sum of Squares",
  "ConsistencyInfo": "N4_VE11C_LATEST_20160120",
  "ConversionSoftware": "dcm2niix",
  "ConversionSoftwareVersion": "v1.0.20220720",
  "DerivedVendorReportedEchoSpacing": 0.0005,
  "DeviceSerialNumber": "66112",
  "DwellTime": 2.7e-06,
  "EchoTime": 0.03,
  "EchoTrainLength": 80,
  "EffectiveEchoSpacing": 0.0005,
  "FlipAngle": 77,
  "HeudiconvVersion": "0.13.1",
  "ImageOrientationPatientDICOM": [0.999934, 0.01144, 0.00100729, -0.0111699, 0.948426, 0.316801],
  "ImageOrientationText": "Tra>Cor(18.5)>Sag(-0.2)",
  "ImageType": [
    "ORIGINAL",
    "PRIMARY",
    "M",
    "ND",
    "NORM",
    "MOSAIC"
],
  "ImagingFrequency": 123.252,
  "InPlanePhaseEncodingDirectionDICOM": "COL",
  "InstitutionAddress": "Maynard 3,Hanover,NH,US,03755",
  "InstitutionName": "Dartmouth College - PBS",
  "InstitutionalDepartmentName": "Department",
  "MRAcquisitionType": "2D",
  "MagneticFieldStrength": 3,
  "Manufacturer": "Siemens",
  "ManufacturersModelName": "Prisma",
  "MatrixCoilMode": "SENSE",
  "Modality": "MR",
  "NonlinearGradientCorrection": false,
  "PartialFourier": 1,
  "PatientPosition": "HFS",
  "PercentPhaseFOV": 100,
  "PercentSampling": 100,
  "PhaseEncodingDirection": "j-",
  "PhaseEncodingSteps": 80,
  "PhaseResolution": 1,
  "PixelBandwidth": 2315,
  "ProcedureStepDescription": "dbic^QA",
  "ProtocolName": "func-bold_fa-77",
  "PulseSequenceDetails": "%SiemensSeq%\\ep2d_bold",
  "ReceiveCoilActiveElements": "HC1-7;NC1,2",
  "ReceiveCoilName": "HeadNeck_64",
  "ReconMatrixPE": 80,
  "RepetitionTime": 2,
  "SAR": 0.0320247,
  "ScanOptions": "FS",
  "ScanningSequence": "EP",
  "SequenceName": "*epfid2d1_80",
  "SequenceVariant": "SK",
  "SeriesDescription": "func-bold_fa-77",
  "SeriesNumber": 7,
  "ShimSetting": [4143, -7691, -7502, 182, -75, -343, -120, 72],
  "SliceThickness": 3.5,
  "SliceTiming": [0.99, 0, 1.0575, 0.0675, 1.1225, 0.1325, 1.1875, 0.2, 1.255, 0.265, 1.32, 0.33, 1.3875, 0.3975, 1.4525, 0.4625, 1.5175, 0.5275, 1.585, 0.595, 1.65, 0.66, 1.7175, 0.7275, 1.7825, 0.7925, 1.8475, 0.8575, 1.915, 0.925],
  "SoftwareVersions": "syngo MR E11",
  "SpacingBetweenSlices": 3.99,
  "StationName": "AWP66112",
  "TotalReadoutTime": 0.0395,
  "TxRefAmp": 209.515,
  "dcmmeta_affine": [
    [-2.9998021125793457, -0.03350956365466118, -0.01064879260957241, 121.72843170166016],
    [-0.03432003781199455, 2.845278739929199, 1.263998031616211, -126.14137268066406],
    [0.0030218639876693487, -0.9504033327102661, 3.7844808101654053, -24.83809471130371],
    [0.0, 0.0, 0.0, 1.0]
],
  "dcmmeta_reorient_transform": [
    [0.0, -1.0, 0.0, 79.0],
    [1.0, 0.0, 0.0, 0.0],
    [0.0, 0.0, 1.0, 0.0],
    [0.0, 0.0, 0.0, 1.0]
],
  "dcmmeta_shape": [80, 80, 30, 200],
  "dcmmeta_slice_dim": 2,
  "dcmmeta_version": 0.6,
  "global": {
    "const": {
      "AccessionNumber": "qa64",
      "AcquisitionMatrix": [80, 0, 0, 80],
      "AngioFlag": "N",
      "BitsAllocated": 16,
      "BitsStored": 12,
      "BodyPartExamined": "BRAIN",
      "Columns": 480,
      "EchoNumbers": 1,
      "EchoTime": 30.0,
      "EchoTrainLength": 80,
      "FlipAngle": 77.0,
      "HighBit": 11,
      "ImageOrientationPatient": [0.99993405357145, 0.01144001219759, 0.00100728799139, -0.01116985405, 0.94842621582508, 0.31680111662718],
      "ImagePositionPatient": [-712.33969973779, -674.5553805722, -290.60500268035],
      "ImageType": [
        "ORIGINAL",
        "PRIMARY",
        "M",
        "ND",
        "NORM",
        "MOSAIC"
],
      "ImagedNucleus": "1H",
      "ImagingFrequency": 123.252342,
      "InPlanePhaseEncodingDirection": "COL",
      "LargestImagePixelValue": 4095,
      "MRAcquisitionType": "2D",
      "MagneticFieldStrength": 3.0,
      "Manufacturer": "SIEMENS",
      "ManufacturerModelName": "Prisma",
      "Modality": "MR",
      "NumberOfAverages": 1.0,
      "NumberOfPhaseEncodingSteps": 80,
      "PercentPhaseFieldOfView": 100.0,
      "PercentSampling": 100.0,
      "PerformedProcedureStepStartTime": "101733.114000",
      "PhotometricInterpretation": "MONOCHROME2",
      "PixelBandwidth": 2315.0,
      "PixelRepresentation": 0,
      "PixelSpacing": [3.0, 3.0],
      "ProtocolName": "func-bold_fa-77",
      "RepetitionTime": 2000.0,
      "Rows": 480,
      "SAR": 0.03202473655818,
      "SamplesPerPixel": 1,
      "ScanOptions": "FS",
      "ScanningSequence": "EP",
      "SequenceName": "*epfid2d1_80",
      "SequenceVariant": "SK",
      "SeriesDescription": "func-bold_fa-77",
      "SeriesNumber": 7,
      "SeriesTime": "102710.770000",
      "SliceLocation": -63.844109088642,
      "SliceThickness": 3.5,
      "SmallestImagePixelValue": 0,
      "SoftwareVersions": "syngo MR E11",
      "SpacingBetweenSlices": 3.9900000290199,
      "SpecificCharacterSet": "ISO_IR 100",
      "StudyID": "21",
      "StudyTime": "101733.048000",
      "TransmitCoilName": "Body",
      "VariableFlipAngleFlag": "N",
      "WindowCenterWidthExplanation": "Algo1",
      "dBdt": 0.0},
    "slices": {}
  },
  "time": {
    "samples": {
      "AcquisitionNumber": [1, 2, 3, 4, 5, 6, 7, 8, 9, 10, 11, 12, 13, 14, 15, 16, 17, 18, 19, 20, 21, 22, 23, 24, 25, 26, 27, 28, 29, 30, 31, 32, 33, 34, 35, 36, 37, 38, 39, 40, 41, 42, 43, 44, 45, 46, 47, 48, 49, 50, 51, 52, 53, 54, 55, 56, 57, 58, 59, 60, 61, 62, 63, 64, 65, 66, 67, 68, 69, 70, 71, 72, 73, 74, 75, 76, 77, 78, 79, 80, 81, 82, 83, 84, 85, 86, 87, 88, 89, 90, 91, 92, 93, 94, 95, 96, 97, 98, 99, 100, 101, 102, 103, 104, 105, 106, 107, 108, 109, 110, 111, 112, 113, 114, 115, 116, 117, 118, 119, 120, 121, 122, 123, 124, 125, 126, 127, 128, 129, 130, 131, 132, 133, 134, 135, 136, 137, 138, 139, 140, 141, 142, 143, 144, 145, 146, 147, 148, 149, 150, 151, 152, 153, 154, 155, 156, 157, 158, 159, 160, 161, 162, 163, 164, 165, 166, 167, 168, 169, 170, 171, 172, 173, 174, 175, 176, 177, 178, 179, 180, 181, 182, 183, 184, 185, 186, 187, 188, 189, 190, 191, 192, 193, 194, 195, 196, 197, 198, 199, 200],
      "AcquisitionTime": ["102616.527500", "102618.527500", "102620.527500", "102622.527500", "102624.527500", "102626.527500", "102628.527500", "102630.527500", "102632.527500", "102634.527500", "102636.527500", "102638.527500", "102640.527500", "102642.527500", "102644.527500", "102646.527500", "102648.527500", "102650.527500", "102652.527500", "102654.527500", "102656.527500", "102658.527500", "102700.527500", "102702.527500", "102704.527500", "102706.527500", "102708.527500", "102710.527500", "102712.527500", "102714.527500", "102716.527500", "102718.527500", "102720.527500", "102722.527500", "102724.527500", "102726.527500", "102728.527500", "102730.527500", "102732.527500", "102734.527500", "102736.527500", "102738.527500", "102740.527500", "102742.527500", "102744.527500", "102746.527500", "102748.527500", "102750.527500", "102752.527500", "102754.527500", "102756.527500", "102758.527500", "102800.527500", "102802.527500", "102804.527500", "102806.527500", "102808.527500", "102810.527500", "102812.527500", "102814.527500", "102816.527500", "102818.527500", "102820.527500", "102822.527500", "102824.527500", "102826.527500", "102828.527500", "102830.527500", "102832.527500", "102834.527500", "102836.527500", "102838.527500", "102840.527500", "102842.527500", "102844.527500", "102846.527500", "102848.527500", "102850.527500", "102852.527500", "102854.527500", "102856.527500", "102858.527500", "102900.527500", "102902.527500", "102904.527500", "102906.527500", "102908.527500", "102910.527500", "102912.527500", "102914.527500", "102916.527500", "102918.527500", "102920.527500", "102922.527500", "102924.527500", "102926.527500", "102928.527500", "102930.527500", "102932.527500", "102934.527500", "102936.527500", "102938.527500", "102940.527500", "102942.527500", "102944.527500", "102946.527500", "102948.527500", "102950.527500", "102952.527500", "102954.527500", "102956.527500", "102958.527500", "103000.527500", "103002.527500", "103004.527500", "103006.527500", "103008.527500", "103010.527500", "103012.527500", "103014.527500", "103016.527500", "103018.527500", "103020.527500", "103022.527500", "103024.527500", "103026.527500", "103028.527500", "103030.527500", "103032.527500", "103034.527500", "103036.527500", "103038.527500", "103040.527500", "103042.527500", "103044.527500", "103046.527500", "103048.527500", "103050.527500", "103052.527500", "103054.527500", "103056.527500", "103058.527500", "103100.527500", "103102.527500", "103104.527500", "103106.527500", "103108.527500", "103110.527500", "103112.527500", "103114.527500", "103116.527500", "103118.527500", "103120.527500", "103122.527500", "103124.527500", "103126.527500", "103128.527500", "103130.527500", "103132.527500", "103134.527500", "103136.527500", "103138.527500", "103140.527500", "103142.527500", "103144.527500", "103146.527500", "103148.527500", "103150.527500", "103152.527500", "103154.527500", "103156.527500", "103158.527500", "103200.527500", "103202.527500", "103204.527500", "103206.527500", "103208.527500", "103210.527500", "103212.527500", "103214.527500", "103216.527500", "103218.527500", "103220.527500", "103222.527500", "103224.527500", "103226.527500", "103228.527500", "103230.527500", "103232.527500", "103234.527500", "103236.527500", "103238.527500", "103240.527500", "103242.527500", "103244.527500", "103246.527500", "103248.527500", "103250.527500", "103252.527500", "103254.527500"],
      "ContentTime": ["102710.773000", "102710.777000", "102710.779000", "102710.782000", "102710.784000", "102710.787000", "102710.789000", "102710.792000", "102710.794000", "102710.797000", "102710.800000", "102710.802000", "102710.805000", "102710.807000", "102710.810000", "102710.812000", "102710.815000", "102710.817000", "102710.820000", "102710.822000", "102710.825000", "102710.827000", "102710.830000", "102710.832000", "102710.835000", "102710.837000", "102710.840000", "102750.767000", "102750.770000", "102750.773000", "102750.775000", "102750.778000", "102750.780000", "102750.783000", "102750.785000", "102750.788000", "102750.791000", "102750.793000", "102750.796000", "102750.798000", "102750.801000", "102750.803000", "102750.806000", "102750.808000", "102750.811000", "102750.813000", "102750.816000", "102830.767000", "102830.770000", "102830.773000", "102830.775000", "102830.778000", "102830.781000", "102830.783000", "102830.786000", "102830.788000", "102830.791000", "102830.793000", "102830.796000", "102830.798000", "102830.801000", "102830.804000", "102830.806000", "102830.809000", "102830.811000", "102830.814000", "102830.816000", "102910.768000", "102910.771000", "102910.774000", "102910.776000", "102910.779000", "102910.781000", "102910.784000", "102910.786000", "102910.789000", "102910.791000", "102910.794000", "102910.796000", "102910.799000", "102910.801000", "102910.804000", "102910.807000", "102910.809000", "102910.812000", "102910.814000", "102910.817000", "102950.769000", "102950.771000", "102950.774000", "102950.776000", "102950.779000", "102950.781000", "102950.784000", "102950.787000", "102950.789000", "102950.792000", "102950.794000", "102950.797000", "102950.799000", "102950.802000", "102950.804000", "102950.807000", "102950.809000", "102950.812000", "102950.814000", "102950.817000", "103030.768000", "103030.770000", "103030.773000", "103030.775000", "103030.778000", "103030.781000", "103030.783000", "103030.786000", "103030.788000", "103030.791000", "103030.793000", "103030.796000", "103030.798000", "103030.801000", "103030.803000", "103030.806000", "103030.808000", "103030.811000", "103030.813000", "103030.830000", "103110.768000", "103110.770000", "103110.773000", "103110.776000", "103110.778000", "103110.781000", "103110.783000", "103110.786000", "103110.788000", "103110.791000", "103110.793000", "103110.796000", "103110.798000", "103110.801000", "103110.803000", "103110.806000", "103110.808000", "103110.811000", "103110.814000", "103110.816000", "103150.769000", "103150.771000", "103150.774000", "103150.777000", "103150.779000", "103150.782000", "103150.784000", "103150.787000", "103150.789000", "103150.792000", "103150.794000", "103150.797000", "103150.799000", "103150.802000", "103150.804000", "103150.807000", "103150.809000", "103150.812000", "103150.815000", "103150.817000", "103230.767000", "103230.770000", "103230.773000", "103230.776000", "103230.778000", "103230.781000", "103230.783000", "103230.786000", "103230.788000", "103230.791000", "103230.793000", "103230.796000", "103230.798000", "103230.801000", "103230.803000", "103230.806000", "103230.808000", "103230.811000", "103230.813000", "103230.816000", "103256.360000", "103256.363000", "103256.365000", "103256.368000", "103256.371000", "103256.373000", "103256.376000", "103256.378000", "103256.381000", "103256.383000", "103256.386000", "103256.388000", "103256.395000"],
      "InstanceCreationTime": ["102710.773000", "102710.777000", "102710.779000", "102710.782000", "102710.784000", "102710.787000", "102710.789000", "102710.792000", "102710.794000", "102710.797000", "102710.800000", "102710.802000", "102710.805000", "102710.807000", "102710.810000", "102710.812000", "102710.815000", "102710.817000", "102710.820000", "102710.822000", "102710.825000", "102710.827000", "102710.830000", "102710.832000", "102710.835000", "102710.837000", "102710.840000", "102750.767000", "102750.770000", "102750.773000", "102750.775000", "102750.778000", "102750.780000", "102750.783000", "102750.785000", "102750.788000", "102750.791000", "102750.793000", "102750.796000", "102750.798000", "102750.801000", "102750.803000", "102750.806000", "102750.808000", "102750.811000", "102750.813000", "102750.816000", "102830.767000", "102830.770000", "102830.773000", "102830.775000", "102830.778000", "102830.781000", "102830.783000", "102830.786000", "102830.788000", "102830.791000", "102830.793000", "102830.796000", "102830.798000", "102830.801000", "102830.804000", "102830.806000", "102830.809000", "102830.811000", "102830.814000", "102830.816000", "102910.768000", "102910.771000", "102910.774000", "102910.776000", "102910.779000", "102910.781000", "102910.784000", "102910.786000", "102910.789000", "102910.791000", "102910.794000", "102910.796000", "102910.799000", "102910.801000", "102910.804000", "102910.807000", "102910.809000", "102910.812000", "102910.814000", "102910.817000", "102950.769000", "102950.771000", "102950.774000", "102950.776000", "102950.779000", "102950.781000", "102950.784000", "102950.787000", "102950.789000", "102950.792000", "102950.794000", "102950.797000", "102950.799000", "102950.802000", "102950.804000", "102950.807000", "102950.809000", "102950.812000", "102950.814000", "102950.817000", "103030.768000", "103030.770000", "103030.773000", "103030.775000", "103030.778000", "103030.781000", "103030.783000", "103030.786000", "103030.788000", "103030.791000", "103030.793000", "103030.796000", "103030.798000", "103030.801000", "103030.803000", "103030.806000", "103030.808000", "103030.811000", "103030.813000", "103030.830000", "103110.768000", "103110.770000", "103110.773000", "103110.776000", "103110.778000", "103110.781000", "103110.783000", "103110.786000", "103110.788000", "103110.791000", "103110.793000", "103110.796000", "103110.798000", "103110.801000", "103110.803000", "103110.806000", "103110.808000", "103110.811000", "103110.814000", "103110.816000", "103150.769000", "103150.771000", "103150.774000", "103150.777000", "103150.779000", "103150.782000", "103150.784000", "103150.787000", "103150.789000", "103150.792000", "103150.794000", "103150.797000", "103150.799000", "103150.802000", "103150.804000", "103150.807000", "103150.809000", "103150.812000", "103150.815000", "103150.817000", "103230.767000", "103230.770000", "103230.773000", "103230.776000", "103230.778000", "103230.781000", "103230.783000", "103230.786000", "103230.788000", "103230.791000", "103230.793000", "103230.796000", "103230.798000", "103230.801000", "103230.803000", "103230.806000", "103230.808000", "103230.811000", "103230.813000", "103230.816000", "103256.360000", "103256.363000", "103256.365000", "103256.368000", "103256.371000", "103256.373000", "103256.376000", "103256.378000", "103256.381000", "103256.383000", "103256.386000", "103256.388000", "103256.395000"],
      "InstanceNumber": [1, 2, 3, 4, 5, 6, 7, 8, 9, 10, 11, 12, 13, 14, 15, 16, 17, 18, 19, 20, 21, 22, 23, 24, 25, 26, 27, 28, 29, 30, 31, 32, 33, 34, 35, 36, 37, 38, 39, 40, 41, 42, 43, 44, 45, 46, 47, 48, 49, 50, 51, 52, 53, 54, 55, 56, 57, 58, 59, 60, 61, 62, 63, 64, 65, 66, 67, 68, 69, 70, 71, 72, 73, 74, 75, 76, 77, 78, 79, 80, 81, 82, 83, 84, 85, 86, 87, 88, 89, 90, 91, 92, 93, 94, 95, 96, 97, 98, 99, 100, 101, 102, 103, 104, 105, 106, 107, 108, 109, 110, 111, 112, 113, 114, 115, 116, 117, 118, 119, 120, 121, 122, 123, 124, 125, 126, 127, 128, 129, 130, 131, 132, 133, 134, 135, 136, 137, 138, 139, 140, 141, 142, 143, 144, 145, 146, 147, 148, 149, 150, 151, 152, 153, 154, 155, 156, 157, 158, 159, 160, 161, 162, 163, 164, 165, 166, 167, 168, 169, 170, 171, 172, 173, 174, 175, 176, 177, 178, 179, 180, 181, 182, 183, 184, 185, 186, 187, 188, 189, 190, 191, 192, 193, 194, 195, 196, 197, 198, 199, 200],
      "WindowCenter": [1428.0, 1428.0, 1428.0, 1428.0, 1427.0, 1427.0, 1428.0, 1427.0, 1427.0, 1427.0, 1427.0, 1427.0, 1427.0, 1427.0, 1427.0, 1427.0, 1426.0, 1426.0, 1426.0, 1426.0, 1427.0, 1426.0, 1426.0, 1426.0, 1426.0, 1426.0, 1426.0, 1426.0, 1426.0, 1426.0, 1425.0, 1426.0, 1424.0, 1424.0, 1424.0, 1425.0, 1424.0, 1424.0, 1424.0, 1424.0, 1424.0, 1424.0, 1425.0, 1423.0, 1424.0, 1425.0, 1423.0, 1423.0, 1424.0, 1424.0, 1424.0, 1424.0, 1423.0, 1425.0, 1424.0, 1423.0, 1422.0, 1423.0, 1423.0, 1423.0, 1423.0, 1423.0, 1423.0, 1424.0, 1425.0, 1424.0, 1424.0, 1424.0, 1424.0, 1424.0, 1424.0, 1424.0, 1424.0, 1424.0, 1424.0, 1423.0, 1424.0, 1423.0, 1424.0, 1423.0, 1423.0, 1424.0, 1424.0, 1423.0, 1424.0, 1423.0, 1423.0, 1423.0, 1424.0, 1423.0, 1424.0, 1422.0, 1423.0, 1422.0, 1423.0, 1423.0, 1423.0, 1423.0, 1423.0, 1422.0, 1422.0, 1422.0, 1422.0, 1423.0, 1423.0, 1422.0, 1423.0, 1422.0, 1422.0, 1422.0, 1422.0, 1422.0, 1423.0, 1421.0, 1421.0, 1422.0, 1422.0, 1421.0, 1422.0, 1422.0, 1422.0, 1421.0, 1422.0, 1421.0, 1421.0, 1421.0, 1421.0, 1421.0, 1421.0, 1421.0, 1421.0, 1421.0, 1421.0, 1421.0, 1421.0, 1422.0, 1422.0, 1422.0, 1420.0, 1421.0, 1421.0, 1422.0, 1421.0, 1422.0, 1421.0, 1421.0, 1421.0, 1421.0, 1422.0, 1421.0, 1421.0, 1421.0, 1421.0, 1421.0, 1421.0, 1421.0, 1422.0, 1421.0, 1421.0, 1420.0, 1420.0, 1420.0, 1421.0, 1421.0, 1420.0, 1420.0, 1420.0, 1420.0, 1421.0, 1420.0, 1420.0, 1420.0, 1419.0, 1420.0, 1420.0, 1420.0, 1420.0, 1421.0, 1420.0, 1420.0, 1419.0, 1420.0, 1419.0, 1419.0, 1419.0, 1419.0, 1420.0, 1419.0, 1419.0, 1419.0, 1420.0, 1419.0, 1420.0, 1420.0, 1420.0, 1419.0, 1419.0, 1420.0, 1420.0, 1419.0],
      "WindowWidth": [3386.0, 3386.0, 3386.0, 3386.0, 3386.0, 3386.0, 3386.0, 3386.0, 3386.0, 3386.0, 3386.0, 3386.0, 3385.0, 3386.0, 3386.0, 3386.0, 3386.0, 3386.0, 3386.0, 3386.0, 3385.0, 3385.0, 3385.0, 3385.0, 3385.0, 3385.0, 3385.0, 3385.0, 3385.0, 3385.0, 3385.0, 3385.0, 3385.0, 3383.0, 3384.0, 3384.0, 3383.0, 3383.0, 3383.0, 3383.0, 3383.0, 3383.0, 3383.0, 3383.0, 3383.0, 3383.0, 3383.0, 3383.0, 3383.0, 3383.0, 3383.0, 3383.0, 3383.0, 3383.0, 3383.0, 3382.0, 3383.0, 3382.0, 3382.0, 3382.0, 3382.0, 3383.0, 3382.0, 3383.0, 3383.0, 3384.0, 3383.0, 3383.0, 3383.0, 3383.0, 3383.0, 3383.0, 3383.0, 3383.0, 3383.0, 3383.0, 3383.0, 3383.0, 3383.0, 3383.0, 3383.0, 3383.0, 3383.0, 3383.0, 3383.0, 3383.0, 3382.0, 3383.0, 3383.0, 3382.0, 3382.0, 3382.0, 3382.0, 3382.0, 3382.0, 3382.0, 3382.0, 3382.0, 3382.0, 3382.0, 3382.0, 3382.0, 3382.0, 3382.0, 3382.0, 3381.0, 3381.0, 3381.0, 3381.0, 3381.0, 3381.0, 3381.0, 3381.0, 3381.0, 3381.0, 3381.0, 3381.0, 3381.0, 3381.0, 3381.0, 3381.0, 3381.0, 3381.0, 3381.0, 3381.0, 3381.0, 3381.0, 3381.0, 3381.0, 3381.0, 3381.0, 3381.0, 3381.0, 3380.0, 3380.0, 3380.0, 3380.0, 3380.0, 3380.0, 3380.0, 3381.0, 3381.0, 3381.0, 3381.0, 3381.0, 3381.0, 3381.0, 3380.0, 3380.0, 3380.0, 3380.0, 3381.0, 3380.0, 3380.0, 3380.0, 3380.0, 3380.0, 3380.0, 3380.0, 3380.0, 3380.0, 3380.0, 3380.0, 3380.0, 3379.0, 3380.0, 3380.0, 3379.0, 3379.0, 3379.0, 3379.0, 3379.0, 3379.0, 3379.0, 3379.0, 3379.0, 3379.0, 3378.0, 3379.0, 3379.0, 3379.0, 3379.0, 3379.0, 3379.0, 3379.0, 3379.0, 3379.0, 3379.0, 3379.0, 3379.0, 3378.0, 3379.0, 3379.0, 3379.0, 3379.0, 3379.0, 3379.0, 3378.0, 3378.0, 3379.0]
    },
    "slices": {}
  }
}