{
  "AcquisitionMatrixPE": 80,
  "AcquisitionNumber": 1,
  "AcquisitionTime": "10:33:3.530000",
  "BandwidthPerPixelPhaseEncode": 25,
  "BaseResolution": 80,
  "BodyPartExamined": "BRAIN",
  "CoilCombinationMethod": "Sum of Squares",
  "ConsistencyInfo": "N4_VE11C_LATEST_20160120",
  "ConversionSoftware": "dcm2niix",
  "ConversionSoftwareVersion": "v1.0.20220720",
  "DerivedVendorReportedEchoSpacing": 0.0005,
  "DeviceSerialNumber": "66112",
  "DwellTime": 2.7e-06,
  "EchoTime": 0.03,
  "EchoTrainLength": 80,
  "EffectiveEchoSpacing": 0.0005,
  "FlipAngle": 10,
  "HeudiconvVersion": "0.13.1",
  "ImageOrientationPatientDICOM": [0.999934, 0.01144, 0.00100729, -0.0111699, 0.948426, 0.316801],
  "ImageOrientationText": "Tra>Cor(18.5)>Sag(-0.2)",
  "ImageType": [
    "ORIGINAL",
    "PRIMARY",
    "M",
    "ND",
    "NORM",
    "MOSAIC"
],
  "ImagingFrequency": 123.252,
  "InPlanePhaseEncodingDirectionDICOM": "COL",
  "InstitutionAddress": "Maynard 3,Hanover,NH,US,03755",
  "InstitutionName": "Dartmouth College - PBS",
  "InstitutionalDepartmentName": "Department",
  "MRAcquisitionType": "2D",
  "MagneticFieldStrength": 3,
  "Manufacturer": "Siemens",
  "ManufacturersModelName": "Prisma",
  "MatrixCoilMode": "SENSE",
  "Modality": "MR",
  "NonlinearGradientCorrection": false,
  "PartialFourier": 1,
  "PatientPosition": "HFS",
  "PercentPhaseFOV": 100,
  "PercentSampling": 100,
  "PhaseEncodingDirection": "j-",
  "PhaseEncodingSteps": 80,
  "PhaseResolution": 1,
  "PixelBandwidth": 2315,
  "ProcedureStepDescription": "dbic^QA",
  "ProtocolName": "func-bold_fa-10",
  "PulseSequenceDetails": "%SiemensSeq%\\ep2d_bold",
  "ReceiveCoilActiveElements": "HC1-7;NC1,2",
  "ReceiveCoilName": "HeadNeck_64",
  "ReconMatrixPE": 80,
  "RepetitionTime": 2,
  "SAR": 0.00859061,
  "ScanOptions": "FS",
  "ScanningSequence": "EP",
  "SequenceName": "*epfid2d1_80",
  "SequenceVariant": "SK",
  "SeriesDescription": "func-bold_fa-10",
  "SeriesNumber": 9,
  "ShimSetting": [4143, -7691, -7502, 182, -75, -343, -120, 72],
  "SliceThickness": 3.5,
  "SliceTiming": [0.99, 0, 1.055, 0.065, 1.1225, 0.1325, 1.1875, 0.1975, 1.2525, 0.2625, 1.32, 0.33, 1.385, 0.395, 1.4525, 0.4625, 1.5175, 0.5275, 1.5825, 0.5925, 1.65, 0.66, 1.715, 0.725, 1.7825, 0.7925, 1.8475, 0.8575, 1.9125, 0.9225],
  "SoftwareVersions": "syngo MR E11",
  "SpacingBetweenSlices": 3.99,
  "StationName": "AWP66112",
  "TotalReadoutTime": 0.0395,
  "TxRefAmp": 209.515,
  "dcmmeta_affine": [
    [-2.9998021125793457, -0.03350956365466118, -0.01064879260957241, 121.72843170166016],
    [-0.03432003781199455, 2.845278739929199, 1.263998031616211, -126.14137268066406],
    [0.0030218639876693487, -0.9504033327102661, 3.7844808101654053, -24.83809471130371],
    [0.0, 0.0, 0.0, 1.0]
],
  "dcmmeta_reorient_transform": [
    [0.0, -1.0, 0.0, 79.0],
    [1.0, 0.0, 0.0, 0.0],
    [0.0, 0.0, 1.0, 0.0],
    [0.0, 0.0, 0.0, 1.0]
],
  "dcmmeta_shape": [80, 80, 30, 200],
  "dcmmeta_slice_dim": 2,
  "dcmmeta_version": 0.6,
  "global": {
    "const": {
      "AccessionNumber": "qa64",
      "AcquisitionMatrix": [80, 0, 0, 80],
      "AngioFlag": "N",
      "BitsAllocated": 16,
      "BitsStored": 12,
      "BodyPartExamined": "BRAIN",
      "Columns": 480,
      "EchoNumbers": 1,
      "EchoTime": 30.0,
      "EchoTrainLength": 80,
      "FlipAngle": 10.0,
      "HighBit": 11,
      "ImageOrientationPatient": [0.99993405357145, 0.01144001219759, 0.00100728799139, -0.01116985405, 0.94842621582508, 0.31680111662718],
      "ImagePositionPatient": [-712.33969973779, -674.5553805722, -290.60500268035],
      "ImageType": [
        "ORIGINAL",
        "PRIMARY",
        "M",
        "ND",
        "NORM",
        "MOSAIC"
],
      "ImagedNucleus": "1H",
      "ImagingFrequency": 123.252346,
      "InPlanePhaseEncodingDirection": "COL",
      "MRAcquisitionType": "2D",
      "MagneticFieldStrength": 3.0,
      "Manufacturer": "SIEMENS",
      "ManufacturerModelName": "Prisma",
      "Modality": "MR",
      "NumberOfAverages": 1.0,
      "NumberOfPhaseEncodingSteps": 80,
      "PercentPhaseFieldOfView": 100.0,
      "PercentSampling": 100.0,
      "PerformedProcedureStepStartTime": "101733.114000",
      "PhotometricInterpretation": "MONOCHROME2",
      "PixelBandwidth": 2315.0,
      "PixelRepresentation": 0,
      "PixelSpacing": [3.0, 3.0],
      "ProtocolName": "func-bold_fa-10",
      "RepetitionTime": 2000.0,
      "Rows": 480,
      "SAR": 0.00859060718454,
      "SamplesPerPixel": 1,
      "ScanOptions": "FS",
      "ScanningSequence": "EP",
      "SequenceName": "*epfid2d1_80",
      "SequenceVariant": "SK",
      "SeriesDescription": "func-bold_fa-10",
      "SeriesNumber": 9,
      "SeriesTime": "103350.629000",
      "SliceLocation": -63.844109088642,
      "SliceThickness": 3.5,
      "SmallestImagePixelValue": 0,
      "SoftwareVersions": "syngo MR E11",
      "SpacingBetweenSlices": 3.9900000290199,
      "SpecificCharacterSet": "ISO_IR 100",
      "StudyID": "21",
      "StudyTime": "101733.048000",
      "TransmitCoilName": "Body",
      "VariableFlipAngleFlag": "N",
      "WindowCenterWidthExplanation": "Algo1",
      "dBdt": 0.0},
    "slices": {}
  },
  "time": {
    "samples": {
      "AcquisitionNumber": [1, 2, 3, 4, 5, 6, 7, 8, 9, 10, 11, 12, 13, 14, 15, 16, 17, 18, 19, 20, 21, 22, 23, 24, 25, 26, 27, 28, 29, 30, 31, 32, 33, 34, 35, 36, 37, 38, 39, 40, 41, 42, 43, 44, 45, 46, 47, 48, 49, 50, 51, 52, 53, 54, 55, 56, 57, 58, 59, 60, 61, 62, 63, 64, 65, 66, 67, 68, 69, 70, 71, 72, 73, 74, 75, 76, 77, 78, 79, 80, 81, 82, 83, 84, 85, 86, 87, 88, 89, 90, 91, 92, 93, 94, 95, 96, 97, 98, 99, 100, 101, 102, 103, 104, 105, 106, 107, 108, 109, 110, 111, 112, 113, 114, 115, 116, 117, 118, 119, 120, 121, 122, 123, 124, 125, 126, 127, 128, 129, 130, 131, 132, 133, 134, 135, 136, 137, 138, 139, 140, 141, 142, 143, 144, 145, 146, 147, 148, 149, 150, 151, 152, 153, 154, 155, 156, 157, 158, 159, 160, 161, 162, 163, 164, 165, 166, 167, 168, 169, 170, 171, 172, 173, 174, 175, 176, 177, 178, 179, 180, 181, 182, 183, 184, 185, 186, 187, 188, 189, 190, 191, 192, 193, 194, 195, 196, 197, 198, 199, 200],
      "AcquisitionTime": ["103303.530000", "103305.530000", "103307.530000", "103309.530000", "103311.530000", "103313.530000", "103315.530000", "103317.530000", "103319.530000", "103321.530000", "103323.530000", "103325.530000", "103327.530000", "103329.530000", "103331.530000", "103333.530000", "103335.530000", "103337.530000", "103339.530000", "103341.530000", "103343.530000", "103345.530000", "103347.530000", "103349.530000", "103351.530000", "103353.530000", "103355.530000", "103357.530000", "103359.530000", "103401.530000", "103403.530000", "103405.530000", "103407.530000", "103409.530000", "103411.530000", "103413.530000", "103415.530000", "103417.530000", "103419.530000", "103421.530000", "103423.530000", "103425.530000", "103427.530000", "103429.530000", "103431.530000", "103433.530000", "103435.530000", "103437.530000", "103439.530000", "103441.530000", "103443.530000", "103445.530000", "103447.530000", "103449.530000", "103451.530000", "103453.530000", "103455.530000", "103457.530000", "103459.530000", "103501.530000", "103503.530000", "103505.530000", "103507.530000", "103509.530000", "103511.530000", "103513.530000", "103515.530000", "103517.530000", "103519.530000", "103521.530000", "103523.530000", "103525.530000", "103527.530000", "103529.530000", "103531.530000", "103533.530000", "103535.530000", "103537.530000", "103539.530000", "103541.530000", "103543.530000", "103545.530000", "103547.530000", "103549.530000", "103551.530000", "103553.530000", "103555.530000", "103557.530000", "103559.530000", "103601.530000", "103603.530000", "103605.530000", "103607.530000", "103609.530000", "103611.530000", "103613.530000", "103615.530000", "103617.530000", "103619.530000", "103621.530000", "103623.530000", "103625.530000", "103627.530000", "103629.530000", "103631.530000", "103633.530000", "103635.530000", "103637.530000", "103639.530000", "103641.530000", "103643.530000", "103645.530000", "103647.530000", "103649.530000", "103651.530000", "103653.530000", "103655.530000", "103657.530000", "103659.530000", "103701.530000", "103703.530000", "103705.530000", "103707.530000", "103709.530000", "103711.530000", "103713.530000", "103715.530000", "103717.530000", "103719.530000", "103721.530000", "103723.530000", "103725.530000", "103727.530000", "103729.530000", "103731.530000", "103733.530000", "103735.530000", "103737.530000", "103739.530000", "103741.530000", "103743.530000", "103745.530000", "103747.530000", "103749.530000", "103751.530000", "103753.530000", "103755.530000", "103757.530000", "103759.530000", "103801.530000", "103803.530000", "103805.530000", "103807.530000", "103809.530000", "103811.530000", "103813.530000", "103815.530000", "103817.530000", "103819.530000", "103821.530000", "103823.530000", "103825.530000", "103827.530000", "103829.530000", "103831.530000", "103833.530000", "103835.530000", "103837.530000", "103839.530000", "103841.530000", "103843.530000", "103845.530000", "103847.530000", "103849.530000", "103851.530000", "103853.530000", "103855.530000", "103857.530000", "103859.530000", "103901.530000", "103903.530000", "103905.530000", "103907.530000", "103909.530000", "103911.530000", "103913.530000", "103915.530000", "103917.530000", "103919.530000", "103921.530000", "103923.530000", "103925.530000", "103927.530000", "103929.530000", "103931.530000", "103933.530000", "103935.530000", "103937.530000", "103939.530000", "103941.530000"],
      "ContentTime": ["103350.632000", "103350.636000", "103350.638000", "103350.641000", "103350.643000", "103350.646000", "103350.648000", "103350.651000", "103350.653000", "103350.656000", "103350.658000", "103350.661000", "103350.663000", "103350.666000", "103350.668000", "103350.671000", "103350.673000", "103350.676000", "103350.678000", "103350.681000", "103350.683000", "103350.686000", "103350.714000", "103430.627000", "103430.630000", "103430.633000", "103430.635000", "103430.638000", "103430.640000", "103430.643000", "103430.645000", "103430.648000", "103430.650000", "103430.653000", "103430.655000", "103430.658000", "103430.660000", "103430.663000", "103430.665000", "103430.668000", "103430.670000", "103430.673000", "103430.675000", "103510.627000", "103510.629000", "103510.632000", "103510.634000", "103510.647000", "103510.649000", "103510.652000", "103510.654000", "103510.657000", "103510.659000", "103510.662000", "103510.664000", "103510.667000", "103510.669000", "103510.672000", "103510.674000", "103510.676000", "103510.679000", "103510.681000", "103510.684000", "103550.626000", "103550.629000", "103550.632000", "103550.634000", "103550.637000", "103550.639000", "103550.642000", "103550.644000", "103550.647000", "103550.649000", "103550.652000", "103550.654000", "103550.657000", "103550.659000", "103550.662000", "103550.664000", "103550.667000", "103550.669000", "103550.672000", "103550.674000", "103630.627000", "103630.630000", "103630.633000", "103630.635000", "103630.638000", "103630.640000", "103630.643000", "103630.645000", "103630.648000", "103630.650000", "103630.653000", "103630.655000", "103630.658000", "103630.660000", "103630.663000", "103630.665000", "103630.668000", "103630.670000", "103630.673000", "103630.675000", "103710.626000", "103710.629000", "103710.632000", "103710.634000", "103710.637000", "103710.639000", "103710.642000", "103710.644000", "103710.647000", "103710.649000", "103710.652000", "103710.654000", "103710.657000", "103710.659000", "103710.662000", "103710.664000", "103710.667000", "103710.669000", "103710.672000", "103710.674000", "103750.626000", "103750.629000", "103750.632000", "103750.634000", "103750.637000", "103750.639000", "103750.642000", "103750.644000", "103750.647000", "103750.649000", "103750.652000", "103750.654000", "103750.657000", "103750.659000", "103750.662000", "103750.664000", "103750.667000", "103750.669000", "103750.672000", "103750.674000", "103830.627000", "103830.630000", "103830.633000", "103830.635000", "103830.638000", "103830.640000", "103830.643000", "103830.645000", "103830.648000", "103830.650000", "103830.653000", "103830.655000", "103830.658000", "103830.660000", "103830.663000", "103830.665000", "103830.668000", "103830.670000", "103830.673000", "103830.675000", "103910.627000", "103910.630000", "103910.633000", "103910.635000", "103910.638000", "103910.640000", "103910.643000", "103910.645000", "103910.648000", "103910.650000", "103910.653000", "103910.655000", "103910.658000", "103910.660000", "103910.663000", "103910.665000", "103910.668000", "103910.670000", "103910.673000", "103910.675000", "103942.852000", "103942.855000", "103942.858000", "103942.860000", "103942.863000", "103942.866000", "103942.868000", "103942.871000", "103942.873000", "103942.876000", "103942.878000", "103942.881000", "103942.884000", "103942.889000", "103942.897000", "103942.900000", "103942.908000"],
      "InstanceCreationTime": ["103350.632000", "103350.636000", "103350.638000", "103350.641000", "103350.643000", "103350.646000", "103350.648000", "103350.651000", "103350.653000", "103350.656000", "103350.658000", "103350.661000", "103350.663000", "103350.666000", "103350.668000", "103350.671000", "103350.673000", "103350.676000", "103350.678000", "103350.681000", "103350.683000", "103350.686000", "103350.714000", "103430.627000", "103430.630000", "103430.633000", "103430.635000", "103430.638000", "103430.640000", "103430.643000", "103430.645000", "103430.648000", "103430.650000", "103430.653000", "103430.655000", "103430.658000", "103430.660000", "103430.663000", "103430.665000", "103430.668000", "103430.670000", "103430.673000", "103430.675000", "103510.627000", "103510.629000", "103510.632000", "103510.634000", "103510.647000", "103510.649000", "103510.652000", "103510.654000", "103510.657000", "103510.659000", "103510.662000", "103510.664000", "103510.667000", "103510.669000", "103510.672000", "103510.674000", "103510.676000", "103510.679000", "103510.681000", "103510.684000", "103550.626000", "103550.629000", "103550.632000", "103550.634000", "103550.637000", "103550.639000", "103550.642000", "103550.644000", "103550.647000", "103550.649000", "103550.652000", "103550.654000", "103550.657000", "103550.659000", "103550.662000", "103550.664000", "103550.667000", "103550.669000", "103550.672000", "103550.674000", "103630.627000", "103630.630000", "103630.633000", "103630.635000", "103630.638000", "103630.640000", "103630.643000", "103630.645000", "103630.648000", "103630.650000", "103630.653000", "103630.655000", "103630.658000", "103630.660000", "103630.663000", "103630.665000", "103630.668000", "103630.670000", "103630.673000", "103630.675000", "103710.626000", "103710.629000", "103710.632000", "103710.634000", "103710.637000", "103710.639000", "103710.642000", "103710.644000", "103710.647000", "103710.649000", "103710.652000", "103710.654000", "103710.657000", "103710.659000", "103710.662000", "103710.664000", "103710.667000", "103710.669000", "103710.672000", "103710.674000", "103750.626000", "103750.629000", "103750.632000", "103750.634000", "103750.637000", "103750.639000", "103750.642000", "103750.644000", "103750.647000", "103750.649000", "103750.652000", "103750.654000", "103750.657000", "103750.659000", "103750.662000", "103750.664000", "103750.667000", "103750.669000", "103750.672000", "103750.674000", "103830.627000", "103830.630000", "103830.633000", "103830.635000", "103830.638000", "103830.640000", "103830.643000", "103830.645000", "103830.648000", "103830.650000", "103830.653000", "103830.655000", "103830.658000", "103830.660000", "103830.663000", "103830.665000", "103830.668000", "103830.670000", "103830.673000", "103830.675000", "103910.627000", "103910.630000", "103910.633000", "103910.635000", "103910.638000", "103910.640000", "103910.643000", "103910.645000", "103910.648000", "103910.650000", "103910.653000", "103910.655000", "103910.658000", "103910.660000", "103910.663000", "103910.665000", "103910.668000", "103910.670000", "103910.673000", "103910.675000", "103942.852000", "103942.855000", "103942.858000", "103942.860000", "103942.863000", "103942.866000", "103942.868000", "103942.871000", "103942.873000", "103942.876000", "103942.878000", "103942.881000", "103942.884000", "103942.889000", "103942.897000", "103942.900000", "103942.908000"],
      "InstanceNumber": [1, 2, 3, 4, 5, 6, 7, 8, 9, 10, 11, 12, 13, 14, 15, 16, 17, 18, 19, 20, 21, 22, 23, 24, 25, 26, 27, 28, 29, 30, 31, 32, 33, 34, 35, 36, 37, 38, 39, 40, 41, 42, 43, 44, 45, 46, 47, 48, 49, 50, 51, 52, 53, 54, 55, 56, 57, 58, 59, 60, 61, 62, 63, 64, 65, 66, 67, 68, 69, 70, 71, 72, 73, 74, 75, 76, 77, 78, 79, 80, 81, 82, 83, 84, 85, 86, 87, 88, 89, 90, 91, 92, 93, 94, 95, 96, 97, 98, 99, 100, 101, 102, 103, 104, 105, 106, 107, 108, 109, 110, 111, 112, 113, 114, 115, 116, 117, 118, 119, 120, 121, 122, 123, 124, 125, 126, 127, 128, 129, 130, 131, 132, 133, 134, 135, 136, 137, 138, 139, 140, 141, 142, 143, 144, 145, 146, 147, 148, 149, 150, 151, 152, 153, 154, 155, 156, 157, 158, 159, 160, 161, 162, 163, 164, 165, 166, 167, 168, 169, 170, 171, 172, 173, 174, 175, 176, 177, 178, 179, 180, 181, 182, 183, 184, 185, 186, 187, 188, 189, 190, 191, 192, 193, 194, 195, 196, 197, 198, 199, 200],
      "LargestImagePixelValue": [678, 677, 681, 676, 679, 681, 676, 679, 678, 679, 677, 680, 682, 679, 680, 678, 679, 676, 681, 680, 680, 677, 675, 679, 676, 675, 677, 675, 676, 677, 676, 677, 677, 678, 676, 677, 674, 676, 674, 679, 681, 673, 671, 674, 672, 670, 672, 670, 673, 672, 670, 673, 675, 673, 670, 671, 671, 671, 671, 671, 671, 671, 673, 671, 672, 672, 670, 674, 672, 671, 672, 671, 672, 668, 670, 670, 672, 672, 671, 671, 671, 671, 672, 668, 671, 670, 670, 673, 670, 672, 673, 673, 672, 669, 671, 673, 674, 672, 670, 671, 671, 669, 673, 670, 671, 672, 670, 671, 672, 670, 671, 670, 672, 674, 675, 672, 670, 676, 670, 672, 675, 671, 671, 670, 671, 671, 671, 671, 670, 676, 672, 671, 672, 670, 675, 670, 673, 673, 672, 674, 674, 669, 672, 671, 670, 673, 668, 668, 671, 674, 673, 668, 669, 671, 675, 675, 672, 671, 676, 670, 672, 676, 673, 676, 671, 670, 671, 672, 669, 670, 671, 672, 670, 670, 672, 671, 670, 671, 670, 669, 670, 670, 670, 672, 670, 673, 673, 668, 672, 670, 673, 671, 671, 668, 670, 672, 670, 673, 669, 670],
      "WindowCenter": [465.0, 465.0, 465.0, 465.0, 465.0, 465.0, 465.0, 465.0, 465.0, 465.0, 465.0, 465.0, 465.0, 465.0, 465.0, 465.0, 465.0, 465.0, 465.0, 465.0, 465.0, 465.0, 465.0, 465.0, 465.0, 465.0, 465.0, 465.0, 465.0, 465.0, 465.0, 465.0, 465.0, 465.0, 465.0, 465.0, 465.0, 465.0, 465.0, 465.0, 465.0, 462.0, 462.0, 462.0, 462.0, 462.0, 462.0, 462.0, 461.0, 462.0, 461.0, 461.0, 462.0, 461.0, 461.0, 462.0, 462.0, 461.0, 461.0, 461.0, 461.0, 461.0, 461.0, 461.0, 461.0, 461.0, 461.0, 461.0, 461.0, 461.0, 461.0, 461.0, 461.0, 460.0, 461.0, 461.0, 461.0, 461.0, 461.0, 461.0, 461.0, 461.0, 461.0, 460.0, 461.0, 461.0, 461.0, 461.0, 461.0, 461.0, 461.0, 461.0, 461.0, 460.0, 461.0, 461.0, 461.0, 461.0, 461.0, 461.0, 461.0, 460.0, 461.0, 461.0, 461.0, 461.0, 461.0, 461.0, 461.0, 461.0, 461.0, 461.0, 461.0, 461.0, 464.0, 461.0, 461.0, 463.0, 461.0, 461.0, 462.0, 461.0, 461.0, 461.0, 461.0, 461.0, 461.0, 461.0, 461.0, 462.0, 461.0, 461.0, 461.0, 461.0, 462.0, 461.0, 461.0, 461.0, 461.0, 462.0, 464.0, 460.0, 461.0, 461.0, 461.0, 461.0, 460.0, 460.0, 461.0, 461.0, 462.0, 460.0, 460.0, 461.0, 463.0, 461.0, 461.0, 462.0, 464.0, 462.0, 461.0, 463.0, 462.0, 462.0, 461.0, 461.0, 461.0, 461.0, 460.0, 461.0, 461.0, 461.0, 461.0, 461.0, 461.0, 461.0, 461.0, 461.0, 461.0, 460.0, 461.0, 461.0, 461.0, 461.0, 461.0, 461.0, 461.0, 460.0, 461.0, 461.0, 461.0, 461.0, 461.0, 460.0, 461.0, 461.0, 461.0, 461.0, 460.0, 461.0],
      "WindowWidth": [967.0, 967.0, 966.0, 966.0, 966.0, 966.0, 966.0, 966.0, 966.0, 966.0, 966.0, 966.0, 966.0, 966.0, 966.0, 966.0, 966.0, 966.0, 966.0, 966.0, 965.0, 966.0, 965.0, 965.0, 965.0, 965.0, 965.0, 966.0, 965.0, 965.0, 965.0, 965.0, 965.0, 965.0, 965.0, 965.0, 965.0, 965.0, 965.0, 965.0, 965.0, 960.0, 959.0, 960.0, 960.0, 959.0, 960.0, 959.0, 959.0, 959.0, 959.0, 959.0, 960.0, 959.0, 959.0, 959.0, 959.0, 959.0, 959.0, 959.0, 959.0, 959.0, 959.0, 959.0, 959.0, 959.0, 959.0, 959.0, 959.0, 959.0, 959.0, 959.0, 959.0, 957.0, 959.0, 959.0, 959.0, 959.0, 959.0, 959.0, 959.0, 959.0, 959.0, 957.0, 958.0, 958.0, 958.0, 959.0, 959.0, 959.0, 959.0, 959.0, 958.0, 957.0, 958.0, 958.0, 958.0, 959.0, 958.0, 958.0, 958.0, 957.0, 958.0, 958.0, 958.0, 958.0, 958.0, 958.0, 958.0, 958.0, 958.0, 958.0, 958.0, 959.0, 963.0, 959.0, 959.0, 961.0, 958.0, 958.0, 960.0, 958.0, 957.0, 958.0, 958.0, 958.0, 958.0, 958.0, 958.0, 960.0, 958.0, 958.0, 958.0, 958.0, 961.0, 958.0, 958.0, 958.0, 957.0, 960.0, 963.0, 956.0, 958.0, 957.0, 957.0, 958.0, 956.0, 957.0, 957.0, 957.0, 959.0, 956.0, 956.0, 958.0, 962.0, 959.0, 958.0, 959.0, 963.0, 960.0, 957.0, 962.0, 960.0, 959.0, 957.0, 957.0, 957.0, 957.0, 956.0, 957.0, 958.0, 957.0, 957.0, 958.0, 957.0, 957.0, 957.0, 957.0, 957.0, 956.0, 957.0, 957.0, 957.0, 957.0, 957.0, 959.0, 958.0, 957.0, 957.0, 957.0, 958.0, 957.0, 957.0, 956.0, 957.0, 957.0, 957.0, 957.0, 957.0, 957.0]
    },
    "slices": {}
  }
}