{
  "AcquisitionMatrixPE": 80,
  "AcquisitionNumber": 1,
  "AcquisitionTime": "10:26:30.495000",
  "BandwidthPerPixelPhaseEncode": 25,
  "BaseResolution": 80,
  "BodyPartExamined": "BRAIN",
  "CoilCombinationMethod": "Sum of Squares",
  "ConsistencyInfo": "N4_VE11C_LATEST_20160120",
  "ConversionSoftware": "dcm2niix",
  "ConversionSoftwareVersion": "v1.0.20220720",
  "DerivedVendorReportedEchoSpacing": 0.0005,
  "DeviceSerialNumber": "66112",
  "DwellTime": 2.7e-06,
  "EchoTime": 0.03,
  "EchoTrainLength": 80,
  "EffectiveEchoSpacing": 0.0005,
  "FlipAngle": 10,
  "HeudiconvVersion": "0.13.1",
  "ImageOrientationPatientDICOM": [0.976761, 0.213796, 0.0151326, -0.207795, 0.927309, 0.311318],
  "ImageOrientationText": "Tra>Cor(17.9)>Sag(-3.0)",
  "ImageType": [
    "ORIGINAL",
    "PRIMARY",
    "M",
    "ND",
    "NORM",
    "MOSAIC"
],
  "ImagingFrequency": 123.252,
  "InPlanePhaseEncodingDirectionDICOM": "COL",
  "InstitutionAddress": "Maynard 3,Hanover,NH,US,03755",
  "InstitutionName": "Dartmouth College - PBS",
  "InstitutionalDepartmentName": "Department",
  "MRAcquisitionType": "2D",
  "MagneticFieldStrength": 3,
  "Manufacturer": "Siemens",
  "ManufacturersModelName": "Prisma",
  "MatrixCoilMode": "SENSE",
  "Modality": "MR",
  "NonlinearGradientCorrection": false,
  "PartialFourier": 1,
  "PatientPosition": "HFS",
  "PercentPhaseFOV": 100,
  "PercentSampling": 100,
  "PhaseEncodingDirection": "j-",
  "PhaseEncodingSteps": 80,
  "PhaseResolution": 1,
  "PixelBandwidth": 2315,
  "ProcedureStepDescription": "dbic^QA",
  "ProtocolName": "func-bold_fa-10",
  "PulseSequenceDetails": "%SiemensSeq%\\ep2d_bold",
  "ReceiveCoilActiveElements": "HEA;HEP",
  "ReceiveCoilName": "Head_32",
  "ReconMatrixPE": 80,
  "RepetitionTime": 2,
  "SAR": 0.0117286,
  "ScanOptions": "FS",
  "ScanningSequence": "EP",
  "SequenceName": "*epfid2d1_80",
  "SequenceVariant": "SK",
  "SeriesDescription": "func-bold_fa-10",
  "SeriesNumber": 10,
  "ShimSetting": [4143, -7683, -7517, 279, -46, -124, -36, 53],
  "SliceThickness": 3.5,
  "SliceTiming": [0.99, 0, 1.055, 0.065, 1.1225, 0.1325, 1.1875, 0.1975, 1.255, 0.265, 1.32, 0.33, 1.385, 0.395, 1.4525, 0.4625, 1.5175, 0.5275, 1.5825, 0.595, 1.65, 0.66, 1.715, 0.725, 1.7825, 0.7925, 1.8475, 0.8575, 1.9125, 0.925],
  "SoftwareVersions": "syngo MR E11",
  "SpacingBetweenSlices": 3.99,
  "StationName": "AWP66112",
  "TotalReadoutTime": 0.0395,
  "TxRefAmp": 225.517,
  "dcmmeta_affine": [
    [-2.930283308029175, -0.6233854293823242, -0.20957864820957184, 147.46620178222656],
    [-0.6413885354995728, 2.7819275856018066, 1.2258387804031372, -86.09011840820312],
    [0.04539784789085388, -0.9339539408683777, 3.7912392616271973, -28.319141387939453],
    [0.0, 0.0, 0.0, 1.0]
],
  "dcmmeta_reorient_transform": [
    [0.0, -1.0, 0.0, 79.0],
    [1.0, 0.0, 0.0, 0.0],
    [0.0, 0.0, 1.0, 0.0],
    [0.0, 0.0, 0.0, 1.0]
],
  "dcmmeta_shape": [80, 80, 30, 200],
  "dcmmeta_slice_dim": 2,
  "dcmmeta_version": 0.6,
  "global": {
    "const": {
      "AccessionNumber": "qa",
      "AcquisitionMatrix": [80, 0, 0, 80],
      "AngioFlag": "N",
      "BitsAllocated": 16,
      "BitsStored": 12,
      "BodyPartExamined": "BRAIN",
      "Columns": 480,
      "EchoNumbers": 1,
      "EchoTime": 30.0,
      "EchoTrainLength": 80,
      "FlipAngle": 10.0,
      "HighBit": 11,
      "ImageOrientationPatient": [0.97676107543147, 0.213796177403, 0.0151326154327, -0.2077951468423, 0.92730917072793, 0.31131797062277],
      "ImagePositionPatient": [-559.59831631295, -818.34536714139, -297.97185115916],
      "ImageType": [
        "ORIGINAL",
        "PRIMARY",
        "M",
        "ND",
        "NORM",
        "MOSAIC"
],
      "ImagedNucleus": "1H",
      "ImagingFrequency": 123.252361,
      "InPlanePhaseEncodingDirection": "COL",
      "MRAcquisitionType": "2D",
      "MagneticFieldStrength": 3.0,
      "Manufacturer": "SIEMENS",
      "ManufacturerModelName": "Prisma",
      "Modality": "MR",
      "NumberOfAverages": 1.0,
      "NumberOfPhaseEncodingSteps": 80,
      "PercentPhaseFieldOfView": 100.0,
      "PercentSampling": 100.0,
      "PerformedProcedureStepStartTime": "100346.995000",
      "PhotometricInterpretation": "MONOCHROME2",
      "PixelBandwidth": 2315.0,
      "PixelRepresentation": 0,
      "PixelSpacing": [3.0, 3.0],
      "ProtocolName": "func-bold_fa-10",
      "RepetitionTime": 2000.0,
      "Rows": 480,
      "SAR": 0.01172862810371,
      "SamplesPerPixel": 1,
      "ScanOptions": "FS",
      "ScanningSequence": "EP",
      "SequenceName": "*epfid2d1_80",
      "SequenceVariant": "SK",
      "SeriesDescription": "func-bold_fa-10",
      "SeriesNumber": 10,
      "SeriesTime": "102722.844000",
      "SliceLocation": -61.10351154311,
      "SliceThickness": 3.5,
      "SmallestImagePixelValue": 0,
      "SoftwareVersions": "syngo MR E11",
      "SpacingBetweenSlices": 3.9899999753318,
      "SpecificCharacterSet": "ISO_IR 100",
      "StudyID": "1",
      "StudyTime": "100346.947000",
      "TransmitCoilName": "Body",
      "VariableFlipAngleFlag": "N",
      "WindowCenterWidthExplanation": "Algo1",
      "dBdt": 0.0},
    "slices": {}
  },
  "time": {
    "samples": {
      "AcquisitionNumber": [1, 2, 3, 4, 5, 6, 7, 8, 9, 10, 11, 12, 13, 14, 15, 16, 17, 18, 19, 20, 21, 22, 23, 24, 25, 26, 27, 28, 29, 30, 31, 32, 33, 34, 35, 36, 37, 38, 39, 40, 41, 42, 43, 44, 45, 46, 47, 48, 49, 50, 51, 52, 53, 54, 55, 56, 57, 58, 59, 60, 61, 62, 63, 64, 65, 66, 67, 68, 69, 70, 71, 72, 73, 74, 75, 76, 77, 78, 79, 80, 81, 82, 83, 84, 85, 86, 87, 88, 89, 90, 91, 92, 93, 94, 95, 96, 97, 98, 99, 100, 101, 102, 103, 104, 105, 106, 107, 108, 109, 110, 111, 112, 113, 114, 115, 116, 117, 118, 119, 120, 121, 122, 123, 124, 125, 126, 127, 128, 129, 130, 131, 132, 133, 134, 135, 136, 137, 138, 139, 140, 141, 142, 143, 144, 145, 146, 147, 148, 149, 150, 151, 152, 153, 154, 155, 156, 157, 158, 159, 160, 161, 162, 163, 164, 165, 166, 167, 168, 169, 170, 171, 172, 173, 174, 175, 176, 177, 178, 179, 180, 181, 182, 183, 184, 185, 186, 187, 188, 189, 190, 191, 192, 193, 194, 195, 196, 197, 198, 199, 200],
      "AcquisitionTime": ["102630.495000", "102632.495000", "102634.495000", "102636.495000", "102638.495000", "102640.495000", "102642.495000", "102644.495000", "102646.495000", "102648.495000", "102650.495000", "102652.495000", "102654.495000", "102656.495000", "102658.495000", "102700.495000", "102702.495000", "102704.495000", "102706.495000", "102708.495000", "102710.495000", "102712.495000", "102714.495000", "102716.495000", "102718.495000", "102720.495000", "102722.495000", "102724.495000", "102726.495000", "102728.495000", "102730.495000", "102732.495000", "102734.495000", "102736.495000", "102738.495000", "102740.495000", "102742.495000", "102744.495000", "102746.495000", "102748.495000", "102750.495000", "102752.495000", "102754.495000", "102756.495000", "102758.495000", "102800.495000", "102802.495000", "102804.495000", "102806.495000", "102808.495000", "102810.495000", "102812.495000", "102814.495000", "102816.495000", "102818.495000", "102820.495000", "102822.495000", "102824.495000", "102826.495000", "102828.495000", "102830.495000", "102832.495000", "102834.495000", "102836.495000", "102838.495000", "102840.495000", "102842.495000", "102844.495000", "102846.495000", "102848.495000", "102850.495000", "102852.495000", "102854.495000", "102856.495000", "102858.495000", "102900.495000", "102902.495000", "102904.495000", "102906.495000", "102908.495000", "102910.495000", "102912.495000", "102914.495000", "102916.495000", "102918.495000", "102920.495000", "102922.495000", "102924.495000", "102926.495000", "102928.495000", "102930.495000", "102932.495000", "102934.495000", "102936.495000", "102938.495000", "102940.495000", "102942.495000", "102944.495000", "102946.495000", "102948.495000", "102950.495000", "102952.495000", "102954.495000", "102956.495000", "102958.495000", "103000.495000", "103002.495000", "103004.495000", "103006.495000", "103008.495000", "103010.495000", "103012.495000", "103014.495000", "103016.495000", "103018.495000", "103020.495000", "103022.495000", "103024.495000", "103026.495000", "103028.495000", "103030.495000", "103032.495000", "103034.495000", "103036.495000", "103038.495000", "103040.495000", "103042.495000", "103044.495000", "103046.495000", "103048.495000", "103050.495000", "103052.495000", "103054.495000", "103056.495000", "103058.495000", "103100.495000", "103102.495000", "103104.495000", "103106.495000", "103108.495000", "103110.495000", "103112.495000", "103114.495000", "103116.495000", "103118.495000", "103120.495000", "103122.495000", "103124.495000", "103126.495000", "103128.495000", "103130.495000", "103132.495000", "103134.495000", "103136.495000", "103138.495000", "103140.495000", "103142.495000", "103144.495000", "103146.495000", "103148.495000", "103150.495000", "103152.495000", "103154.495000", "103156.495000", "103158.495000", "103200.495000", "103202.495000", "103204.495000", "103206.495000", "103208.495000", "103210.495000", "103212.495000", "103214.495000", "103216.495000", "103218.495000", "103220.495000", "103222.495000", "103224.495000", "103226.495000", "103228.495000", "103230.495000", "103232.495000", "103234.495000", "103236.495000", "103238.495000", "103240.495000", "103242.495000", "103244.495000", "103246.495000", "103248.495000", "103250.495000", "103252.495000", "103254.495000", "103256.495000", "103258.495000", "103300.495000", "103302.495000", "103304.495000", "103306.495000", "103308.495000"],
      "ContentTime": ["102722.847000", "102722.851000", "102722.853000", "102722.856000", "102722.858000", "102722.861000", "102722.867000", "102722.870000", "102722.872000", "102722.875000", "102722.878000", "102722.880000", "102722.883000", "102722.886000", "102722.888000", "102722.891000", "102722.893000", "102722.896000", "102722.899000", "102722.901000", "102722.904000", "102722.906000", "102722.909000", "102722.912000", "102722.914000", "102722.917000", "102802.842000", "102802.844000", "102802.847000", "102802.850000", "102802.852000", "102802.855000", "102802.858000", "102802.860000", "102802.863000", "102802.865000", "102802.868000", "102802.870000", "102802.873000", "102802.876000", "102802.878000", "102802.881000", "102802.884000", "102802.886000", "102802.893000", "102802.895000", "102842.842000", "102842.845000", "102842.847000", "102842.850000", "102842.853000", "102842.855000", "102842.858000", "102842.861000", "102842.863000", "102842.866000", "102842.869000", "102842.871000", "102842.874000", "102842.876000", "102842.879000", "102842.882000", "102842.892000", "102842.895000", "102842.898000", "102842.900000", "102922.842000", "102922.845000", "102922.847000", "102922.850000", "102922.852000", "102922.855000", "102922.858000", "102922.860000", "102922.863000", "102922.865000", "102922.868000", "102922.870000", "102922.873000", "102922.876000", "102922.878000", "102922.881000", "102922.884000", "102922.886000", "102922.889000", "102922.892000", "102942.843000", "102942.846000", "102942.848000", "102942.851000", "102942.854000", "102942.856000", "102942.859000", "102942.861000", "102942.864000", "102942.867000", "103022.842000", "103022.844000", "103022.847000", "103022.850000", "103022.852000", "103022.855000", "103022.858000", "103022.860000", "103022.863000", "103022.865000", "103022.868000", "103022.871000", "103022.873000", "103022.876000", "103022.878000", "103022.881000", "103022.884000", "103022.886000", "103022.889000", "103022.891000", "103102.842000", "103102.844000", "103102.847000", "103102.850000", "103102.852000", "103102.855000", "103102.858000", "103102.860000", "103102.863000", "103102.866000", "103102.868000", "103102.871000", "103102.873000", "103102.876000", "103102.879000", "103102.881000", "103102.884000", "103102.887000", "103102.889000", "103102.892000", "103142.842000", "103142.844000", "103142.847000", "103142.850000", "103142.852000", "103142.855000", "103142.858000", "103142.860000", "103142.863000", "103142.866000", "103142.868000", "103142.871000", "103142.874000", "103142.876000", "103142.879000", "103142.881000", "103142.884000", "103142.887000", "103142.889000", "103142.892000", "103222.842000", "103222.845000", "103222.847000", "103222.850000", "103222.852000", "103222.855000", "103222.858000", "103222.860000", "103222.863000", "103222.866000", "103222.868000", "103222.871000", "103222.874000", "103222.876000", "103222.879000", "103222.881000", "103222.884000", "103222.887000", "103222.889000", "103222.892000", "103302.841000", "103302.844000", "103302.847000", "103302.850000", "103302.852000", "103302.855000", "103302.857000", "103302.860000", "103302.863000", "103302.865000", "103302.868000", "103302.870000", "103302.873000", "103302.876000", "103302.878000", "103302.881000", "103302.884000", "103302.886000", "103302.889000", "103302.891000", "103310.156000", "103310.159000", "103310.162000", "103310.165000"],
      "InstanceCreationTime": ["102722.847000", "102722.851000", "102722.853000", "102722.856000", "102722.858000", "102722.861000", "102722.867000", "102722.870000", "102722.872000", "102722.875000", "102722.878000", "102722.880000", "102722.883000", "102722.886000", "102722.888000", "102722.891000", "102722.893000", "102722.896000", "102722.899000", "102722.901000", "102722.904000", "102722.906000", "102722.909000", "102722.912000", "102722.914000", "102722.917000", "102802.842000", "102802.844000", "102802.847000", "102802.850000", "102802.852000", "102802.855000", "102802.858000", "102802.860000", "102802.863000", "102802.865000", "102802.868000", "102802.870000", "102802.873000", "102802.876000", "102802.878000", "102802.881000", "102802.884000", "102802.886000", "102802.893000", "102802.895000", "102842.842000", "102842.845000", "102842.847000", "102842.850000", "102842.853000", "102842.855000", "102842.858000", "102842.861000", "102842.863000", "102842.866000", "102842.869000", "102842.871000", "102842.874000", "102842.876000", "102842.879000", "102842.882000", "102842.892000", "102842.895000", "102842.898000", "102842.900000", "102922.842000", "102922.845000", "102922.847000", "102922.850000", "102922.852000", "102922.855000", "102922.858000", "102922.860000", "102922.863000", "102922.865000", "102922.868000", "102922.870000", "102922.873000", "102922.876000", "102922.878000", "102922.881000", "102922.884000", "102922.886000", "102922.889000", "102922.892000", "102942.843000", "102942.846000", "102942.848000", "102942.851000", "102942.854000", "102942.856000", "102942.859000", "102942.861000", "102942.864000", "102942.867000", "103022.842000", "103022.844000", "103022.847000", "103022.850000", "103022.852000", "103022.855000", "103022.858000", "103022.860000", "103022.863000", "103022.865000", "103022.868000", "103022.871000", "103022.873000", "103022.876000", "103022.878000", "103022.881000", "103022.884000", "103022.886000", "103022.889000", "103022.891000", "103102.842000", "103102.844000", "103102.847000", "103102.850000", "103102.852000", "103102.855000", "103102.858000", "103102.860000", "103102.863000", "103102.866000", "103102.868000", "103102.871000", "103102.873000", "103102.876000", "103102.879000", "103102.881000", "103102.884000", "103102.887000", "103102.889000", "103102.892000", "103142.842000", "103142.844000", "103142.847000", "103142.850000", "103142.852000", "103142.855000", "103142.858000", "103142.860000", "103142.863000", "103142.866000", "103142.868000", "103142.871000", "103142.874000", "103142.876000", "103142.879000", "103142.881000", "103142.884000", "103142.887000", "103142.889000", "103142.892000", "103222.842000", "103222.845000", "103222.847000", "103222.850000", "103222.852000", "103222.855000", "103222.858000", "103222.860000", "103222.863000", "103222.866000", "103222.868000", "103222.871000", "103222.874000", "103222.876000", "103222.879000", "103222.881000", "103222.884000", "103222.887000", "103222.889000", "103222.892000", "103302.841000", "103302.844000", "103302.847000", "103302.850000", "103302.852000", "103302.855000", "103302.857000", "103302.860000", "103302.863000", "103302.865000", "103302.868000", "103302.870000", "103302.873000", "103302.876000", "103302.878000", "103302.881000", "103302.884000", "103302.886000", "103302.889000", "103302.891000", "103310.156000", "103310.159000", "103310.162000", "103310.165000"],
      "InstanceNumber": [1, 2, 3, 4, 5, 6, 7, 8, 9, 10, 11, 12, 13, 14, 15, 16, 17, 18, 19, 20, 21, 22, 23, 24, 25, 26, 27, 28, 29, 30, 31, 32, 33, 34, 35, 36, 37, 38, 39, 40, 41, 42, 43, 44, 45, 46, 47, 48, 49, 50, 51, 52, 53, 54, 55, 56, 57, 58, 59, 60, 61, 62, 63, 64, 65, 66, 67, 68, 69, 70, 71, 72, 73, 74, 75, 76, 77, 78, 79, 80, 81, 82, 83, 84, 85, 86, 87, 88, 89, 90, 91, 92, 93, 94, 95, 96, 97, 98, 99, 100, 101, 102, 103, 104, 105, 106, 107, 108, 109, 110, 111, 112, 113, 114, 115, 116, 117, 118, 119, 120, 121, 122, 123, 124, 125, 126, 127, 128, 129, 130, 131, 132, 133, 134, 135, 136, 137, 138, 139, 140, 141, 142, 143, 144, 145, 146, 147, 148, 149, 150, 151, 152, 153, 154, 155, 156, 157, 158, 159, 160, 161, 162, 163, 164, 165, 166, 167, 168, 169, 170, 171, 172, 173, 174, 175, 176, 177, 178, 179, 180, 181, 182, 183, 184, 185, 186, 187, 188, 189, 190, 191, 192, 193, 194, 195, 196, 197, 198, 199, 200],
      "LargestImagePixelValue": [320, 321, 317, 318, 318, 317, 317, 324, 320, 319, 320, 323, 319, 318, 318, 318, 321, 317, 318, 319, 318, 317, 319, 319, 320, 323, 318, 317, 318, 319, 322, 320, 323, 320, 320, 320, 318, 319, 321, 320, 319, 319, 319, 319, 320, 318, 318, 319, 318, 317, 318, 320, 318, 320, 320, 319, 316, 317, 320, 317, 325, 321, 318, 320, 322, 318, 318, 317, 319, 318, 322, 321, 320, 321, 319, 320, 317, 319, 319, 319, 320, 319, 320, 318, 321, 319, 317, 318, 322, 318, 319, 320, 319, 323, 318, 318, 321, 319, 322, 320, 317, 320, 318, 317, 320, 318, 316, 319, 318, 321, 320, 318, 318, 318, 319, 319, 320, 320, 317, 319, 320, 318, 320, 318, 320, 319, 318, 317, 318, 318, 318, 319, 316, 318, 318, 318, 319, 321, 318, 318, 316, 317, 319, 321, 318, 323, 320, 318, 319, 318, 318, 320, 319, 317, 319, 318, 318, 323, 318, 316, 319, 317, 319, 317, 318, 320, 320, 316, 318, 317, 319, 320, 318, 317, 319, 318, 316, 320, 317, 318, 320, 320, 320, 320, 318, 318, 318, 318, 317, 318, 319, 318, 318, 317, 316, 319, 317, 319, 318, 317],
      "WindowCenter": [269.0, 269.0, 269.0, 269.0, 269.0, 269.0, 269.0, 269.0, 269.0, 269.0, 269.0, 269.0, 269.0, 269.0, 269.0, 269.0, 269.0, 269.0, 268.0, 269.0, 269.0, 269.0, 269.0, 269.0, 269.0, 269.0, 269.0, 269.0, 269.0, 269.0, 269.0, 269.0, 269.0, 269.0, 269.0, 269.0, 268.0, 269.0, 269.0, 269.0, 268.0, 268.0, 268.0, 269.0, 269.0, 269.0, 269.0, 269.0, 268.0, 269.0, 268.0, 269.0, 268.0, 269.0, 269.0, 268.0, 269.0, 269.0, 269.0, 268.0, 268.0, 269.0, 268.0, 268.0, 268.0, 269.0, 268.0, 268.0, 268.0, 268.0, 268.0, 268.0, 269.0, 268.0, 268.0, 268.0, 268.0, 268.0, 268.0, 268.0, 268.0, 268.0, 268.0, 268.0, 268.0, 268.0, 268.0, 268.0, 268.0, 268.0, 268.0, 268.0, 268.0, 269.0, 268.0, 268.0, 268.0, 268.0, 268.0, 269.0, 268.0, 268.0, 268.0, 268.0, 268.0, 268.0, 268.0, 268.0, 268.0, 268.0, 268.0, 268.0, 268.0, 268.0, 268.0, 269.0, 268.0, 268.0, 268.0, 268.0, 268.0, 268.0, 268.0, 268.0, 268.0, 268.0, 268.0, 268.0, 268.0, 268.0, 269.0, 268.0, 268.0, 268.0, 268.0, 268.0, 268.0, 268.0, 268.0, 268.0, 268.0, 268.0, 268.0, 268.0, 268.0, 268.0, 268.0, 268.0, 268.0, 268.0, 268.0, 268.0, 268.0, 268.0, 268.0, 268.0, 268.0, 268.0, 268.0, 268.0, 268.0, 268.0, 268.0, 268.0, 268.0, 268.0, 268.0, 268.0, 268.0, 268.0, 268.0, 268.0, 268.0, 268.0, 268.0, 268.0, 268.0, 268.0, 268.0, 269.0, 268.0, 268.0, 268.0, 268.0, 268.0, 268.0, 268.0, 268.0, 268.0, 268.0, 268.0, 268.0, 268.0, 268.0, 268.0, 268.0, 268.0, 268.0, 268.0, 268.0],
      "WindowWidth": [592.0, 592.0, 592.0, 592.0, 592.0, 592.0, 591.0, 592.0, 592.0, 592.0, 592.0, 592.0, 592.0, 591.0, 592.0, 592.0, 592.0, 592.0, 591.0, 592.0, 592.0, 592.0, 591.0, 592.0, 592.0, 592.0, 592.0, 592.0, 591.0, 592.0, 592.0, 592.0, 592.0, 592.0, 592.0, 592.0, 591.0, 592.0, 592.0, 592.0, 591.0, 591.0, 591.0, 591.0, 592.0, 591.0, 592.0, 591.0, 590.0, 591.0, 591.0, 592.0, 591.0, 592.0, 591.0, 591.0, 592.0, 592.0, 591.0, 590.0, 591.0, 592.0, 591.0, 591.0, 591.0, 591.0, 591.0, 590.0, 591.0, 591.0, 591.0, 591.0, 591.0, 591.0, 591.0, 591.0, 591.0, 591.0, 591.0, 590.0, 590.0, 591.0, 591.0, 591.0, 591.0, 590.0, 591.0, 591.0, 591.0, 590.0, 591.0, 591.0, 591.0, 591.0, 591.0, 590.0, 591.0, 590.0, 590.0, 591.0, 591.0, 591.0, 591.0, 591.0, 591.0, 591.0, 590.0, 590.0, 591.0, 590.0, 591.0, 591.0, 591.0, 591.0, 591.0, 591.0, 590.0, 591.0, 591.0, 590.0, 591.0, 591.0, 591.0, 591.0, 591.0, 591.0, 590.0, 591.0, 591.0, 590.0, 591.0, 591.0, 591.0, 590.0, 590.0, 591.0, 591.0, 591.0, 590.0, 591.0, 591.0, 591.0, 590.0, 591.0, 591.0, 591.0, 591.0, 590.0, 590.0, 590.0, 591.0, 590.0, 590.0, 590.0, 590.0, 590.0, 590.0, 591.0, 591.0, 591.0, 591.0, 590.0, 590.0, 590.0, 590.0, 590.0, 590.0, 591.0, 590.0, 590.0, 590.0, 590.0, 591.0, 591.0, 591.0, 590.0, 590.0, 590.0, 591.0, 591.0, 590.0, 590.0, 590.0, 590.0, 590.0, 590.0, 590.0, 590.0, 591.0, 590.0, 591.0, 590.0, 591.0, 590.0, 590.0, 590.0, 590.0, 590.0, 590.0, 590.0]
    },
    "slices": {}
  }
}