{
  "AcquisitionMatrixPE": 80,
  "AcquisitionNumber": 1,
  "AcquisitionTime": "09:27:43.502500",
  "BandwidthPerPixelPhaseEncode": 25,
  "BaseResolution": 80,
  "BodyPartExamined": "BRAIN",
  "CoilCombinationMethod": "Sum of Squares",
  "ConsistencyInfo": "N4_VE11C_LATEST_20160120",
  "ConversionSoftware": "dcm2niix",
  "ConversionSoftwareVersion": "v1.0.20220720",
  "DerivedVendorReportedEchoSpacing": 0.0005,
  "DeviceSerialNumber": "66112",
  "DwellTime": 2.7e-06,
  "EchoTime": 0.03,
  "EchoTrainLength": 80,
  "EffectiveEchoSpacing": 0.0005,
  "FlipAngle": 10,
  "HeudiconvVersion": "0.13.1",
  "ImageOrientationPatientDICOM": [0.986508, 0.163459, 0.00910529, -0.158366, 0.93872, 0.306146],
  "ImageOrientationText": "Tra>Cor(17.7)>Sag(-2.4)",
  "ImageType": [
    "ORIGINAL",
    "PRIMARY",
    "M",
    "ND",
    "NORM",
    "MOSAIC"
],
  "ImagingFrequency": 123.252,
  "InPlanePhaseEncodingDirectionDICOM": "COL",
  "InstitutionAddress": "Maynard 3,Hanover,NH,US,03755",
  "InstitutionName": "Dartmouth College - PBS",
  "InstitutionalDepartmentName": "Department",
  "MRAcquisitionType": "2D",
  "MagneticFieldStrength": 3,
  "Manufacturer": "Siemens",
  "ManufacturersModelName": "Prisma",
  "MatrixCoilMode": "SENSE",
  "Modality": "MR",
  "NonlinearGradientCorrection": false,
  "PartialFourier": 1,
  "PatientPosition": "HFS",
  "PercentPhaseFOV": 100,
  "PercentSampling": 100,
  "PhaseEncodingDirection": "j-",
  "PhaseEncodingSteps": 80,
  "PhaseResolution": 1,
  "PixelBandwidth": 2315,
  "ProcedureStepDescription": "dbic^QA",
  "ProtocolName": "func-bold_acq-32ch-10flip",
  "PulseSequenceDetails": "%SiemensSeq%\\ep2d_bold",
  "ReceiveCoilActiveElements": "HEA;HEP",
  "ReceiveCoilName": "Head_32",
  "ReconMatrixPE": 80,
  "RepetitionTime": 2,
  "SAR": 0.0117856,
  "ScanOptions": "FS",
  "ScanningSequence": "EP",
  "SequenceName": "*epfid2d1_80",
  "SequenceVariant": "SK",
  "SeriesDescription": "func-bold_acq-32ch-10flip",
  "SeriesNumber": 10,
  "ShimSetting": [4149, -7699, -7513, 253, -20, -99, -17, 68],
  "SliceThickness": 3.5,
  "SliceTiming": [0.99, 0, 1.0575, 0.0675, 1.1225, 0.1325, 1.1875, 0.2, 1.255, 0.265, 1.32, 0.33, 1.3875, 0.3975, 1.4525, 0.4625, 1.5175, 0.53, 1.585, 0.595, 1.65, 0.66, 1.7175, 0.7275, 1.7825, 0.7925, 1.8475, 0.86, 1.915, 0.925],
  "SoftwareVersions": "syngo MR E11",
  "SpacingBetweenSlices": 3.99,
  "StationName": "AWP66112",
  "TotalReadoutTime": 0.0395,
  "TxRefAmp": 231.899,
  "dcmmeta_affine": [
    [-2.959524393081665, -0.4750986099243164, -0.16556458175182343, 141.03271484375],
    [-0.490376353263855, 2.81615948677063, 1.2107940912246704, -97.77862548828125],
    [0.02731587365269661, -0.9184370040893555, 3.7982451915740967, -20.026153564453125],
    [0.0, 0.0, 0.0, 1.0]
],
  "dcmmeta_reorient_transform": [
    [0.0, -1.0, 0.0, 79.0],
    [1.0, 0.0, 0.0, 0.0],
    [0.0, 0.0, 1.0, 0.0],
    [0.0, 0.0, 0.0, 1.0]
],
  "dcmmeta_shape": [80, 80, 30, 200],
  "dcmmeta_slice_dim": 2,
  "dcmmeta_version": 0.6,
  "global": {
    "const": {
      "AccessionNumber": "qa",
      "AcquisitionMatrix": [80, 0, 0, 80],
      "AngioFlag": "N",
      "BitsAllocated": 16,
      "BitsStored": 12,
      "BodyPartExamined": "BRAIN",
      "Columns": 480,
      "EchoNumbers": 1,
      "EchoTime": 30.0,
      "EchoTrainLength": 80,
      "FlipAngle": 10.0,
      "HighBit": 11,
      "ImageOrientationPatient": [0.98650814444101, 0.16345878568833, 0.00910529147581, -0.158366207505, 0.93871985681671, 0.30614567568152],
      "ImagePositionPatient": [-600.38508506634, -786.0051674988, -281.73325982984],
      "ImageType": [
        "ORIGINAL",
        "PRIMARY",
        "M",
        "ND",
        "NORM",
        "MOSAIC"
],
      "ImagedNucleus": "1H",
      "ImagingFrequency": 123.252433,
      "InPlanePhaseEncodingDirection": "COL",
      "MRAcquisitionType": "2D",
      "MagneticFieldStrength": 3.0,
      "Manufacturer": "SIEMENS",
      "ManufacturerModelName": "Prisma",
      "Modality": "MR",
      "NumberOfAverages": 1.0,
      "NumberOfPhaseEncodingSteps": 80,
      "PercentPhaseFieldOfView": 100.0,
      "PercentSampling": 100.0,
      "PerformedProcedureStepStartTime": "090537.843000",
      "PhotometricInterpretation": "MONOCHROME2",
      "PixelBandwidth": 2315.0,
      "PixelRepresentation": 0,
      "PixelSpacing": [3.0, 3.0],
      "ProtocolName": "func-bold_acq-32ch-10flip",
      "RepetitionTime": 2000.0,
      "Rows": 480,
      "SAR": 0.01178556569923,
      "SamplesPerPixel": 1,
      "ScanOptions": "FS",
      "ScanningSequence": "EP",
      "SequenceName": "*epfid2d1_80",
      "SequenceVariant": "SK",
      "SeriesDescription": "func-bold_acq-32ch-10flip",
      "SeriesNumber": 10,
      "SeriesTime": "092836.254000",
      "SliceLocation": -54.587480818953,
      "SliceThickness": 3.5,
      "SmallestImagePixelValue": 0,
      "SoftwareVersions": "syngo MR E11",
      "SpacingBetweenSlices": 3.9900000117361,
      "SpecificCharacterSet": "ISO_IR 100",
      "StudyID": "107",
      "StudyTime": "090537.783000",
      "TransmitCoilName": "Body",
      "VariableFlipAngleFlag": "N",
      "WindowCenterWidthExplanation": "Algo1",
      "dBdt": 0.0},
    "slices": {}
  },
  "time": {
    "samples": {
      "AcquisitionNumber": [1, 2, 3, 4, 5, 6, 7, 8, 9, 10, 11, 12, 13, 14, 15, 16, 17, 18, 19, 20, 21, 22, 23, 24, 25, 26, 27, 28, 29, 30, 31, 32, 33, 34, 35, 36, 37, 38, 39, 40, 41, 42, 43, 44, 45, 46, 47, 48, 49, 50, 51, 52, 53, 54, 55, 56, 57, 58, 59, 60, 61, 62, 63, 64, 65, 66, 67, 68, 69, 70, 71, 72, 73, 74, 75, 76, 77, 78, 79, 80, 81, 82, 83, 84, 85, 86, 87, 88, 89, 90, 91, 92, 93, 94, 95, 96, 97, 98, 99, 100, 101, 102, 103, 104, 105, 106, 107, 108, 109, 110, 111, 112, 113, 114, 115, 116, 117, 118, 119, 120, 121, 122, 123, 124, 125, 126, 127, 128, 129, 130, 131, 132, 133, 134, 135, 136, 137, 138, 139, 140, 141, 142, 143, 144, 145, 146, 147, 148, 149, 150, 151, 152, 153, 154, 155, 156, 157, 158, 159, 160, 161, 162, 163, 164, 165, 166, 167, 168, 169, 170, 171, 172, 173, 174, 175, 176, 177, 178, 179, 180, 181, 182, 183, 184, 185, 186, 187, 188, 189, 190, 191, 192, 193, 194, 195, 196, 197, 198, 199, 200],
      "AcquisitionTime": ["092743.502500", "092745.502500", "092747.502500", "092749.502500", "092751.502500", "092753.502500", "092755.502500", "092757.502500", "092759.502500", "092801.502500", "092803.502500", "092805.502500", "092807.502500", "092809.502500", "092811.502500", "092813.502500", "092815.502500", "092817.502500", "092819.502500", "092821.502500", "092823.502500", "092825.502500", "092827.502500", "092829.502500", "092831.502500", "092833.502500", "092835.502500", "092837.502500", "092839.502500", "092841.502500", "092843.502500", "092845.502500", "092847.502500", "092849.502500", "092851.502500", "092853.502500", "092855.502500", "092857.502500", "092859.502500", "092901.502500", "092903.502500", "092905.502500", "092907.502500", "092909.502500", "092911.502500", "092913.502500", "092915.502500", "092917.502500", "092919.502500", "092921.502500", "092923.502500", "092925.502500", "092927.502500", "092929.502500", "092931.502500", "092933.502500", "092935.502500", "092937.502500", "092939.502500", "092941.502500", "092943.502500", "092945.502500", "092947.502500", "092949.502500", "092951.502500", "092953.502500", "092955.502500", "092957.502500", "092959.502500", "093001.502500", "093003.502500", "093005.502500", "093007.502500", "093009.502500", "093011.502500", "093013.502500", "093015.502500", "093017.502500", "093019.502500", "093021.502500", "093023.502500", "093025.502500", "093027.502500", "093029.502500", "093031.502500", "093033.502500", "093035.502500", "093037.502500", "093039.502500", "093041.502500", "093043.502500", "093045.502500", "093047.502500", "093049.502500", "093051.502500", "093053.502500", "093055.502500", "093057.502500", "093059.502500", "093101.502500", "093103.502500", "093105.502500", "093107.502500", "093109.502500", "093111.502500", "093113.502500", "093115.502500", "093117.502500", "093119.502500", "093121.502500", "093123.502500", "093125.502500", "093127.502500", "093129.502500", "093131.502500", "093133.502500", "093135.502500", "093137.502500", "093139.502500", "093141.502500", "093143.502500", "093145.502500", "093147.502500", "093149.502500", "093151.502500", "093153.502500", "093155.502500", "093157.502500", "093159.502500", "093201.502500", "093203.502500", "093205.502500", "093207.502500", "093209.502500", "093211.502500", "093213.502500", "093215.502500", "093217.502500", "093219.502500", "093221.502500", "093223.502500", "093225.502500", "093227.502500", "093229.502500", "093231.502500", "093233.502500", "093235.502500", "093237.502500", "093239.502500", "093241.502500", "093243.502500", "093245.502500", "093247.502500", "093249.502500", "093251.502500", "093253.502500", "093255.502500", "093257.502500", "093259.502500", "093301.502500", "093303.502500", "093305.502500", "093307.502500", "093309.502500", "093311.502500", "093313.502500", "093315.502500", "093317.502500", "093319.502500", "093321.502500", "093323.502500", "093325.502500", "093327.502500", "093329.502500", "093331.502500", "093333.502500", "093335.502500", "093337.502500", "093339.502500", "093341.502500", "093343.502500", "093345.502500", "093347.502500", "093349.502500", "093351.502500", "093353.502500", "093355.502500", "093357.502500", "093359.502500", "093401.502500", "093403.502500", "093405.502500", "093407.502500", "093409.502500", "093411.502500", "093413.502500", "093415.502500", "093417.502500", "093419.502500", "093421.502500"],
      "ContentTime": ["092836.257000", "092836.260000", "092836.263000", "092836.266000", "092836.268000", "092836.271000", "092836.273000", "092836.276000", "092836.278000", "092836.281000", "092836.283000", "092836.286000", "092836.288000", "092836.291000", "092836.293000", "092836.296000", "092836.298000", "092836.301000", "092836.303000", "092836.306000", "092836.308000", "092836.311000", "092836.313000", "092836.316000", "092836.318000", "092836.321000", "092916.251000", "092916.254000", "092916.257000", "092916.259000", "092916.262000", "092916.264000", "092916.267000", "092916.269000", "092916.271000", "092916.274000", "092916.276000", "092916.279000", "092916.281000", "092916.284000", "092916.286000", "092916.289000", "092916.291000", "092916.294000", "092916.296000", "092916.298000", "092956.251000", "092956.254000", "092956.257000", "092956.259000", "092956.262000", "092956.264000", "092956.267000", "092956.269000", "092956.272000", "092956.274000", "092956.277000", "092956.279000", "092956.282000", "092956.284000", "092956.287000", "092956.289000", "092956.292000", "092956.294000", "092956.297000", "092956.299000", "093036.252000", "093036.255000", "093036.258000", "093036.260000", "093036.263000", "093036.265000", "093036.268000", "093036.270000", "093036.273000", "093036.275000", "093036.278000", "093036.280000", "093036.283000", "093036.285000", "093036.288000", "093036.290000", "093036.293000", "093036.295000", "093036.298000", "093036.300000", "093116.252000", "093116.255000", "093116.258000", "093116.260000", "093116.263000", "093116.265000", "093116.268000", "093116.270000", "093116.273000", "093116.275000", "093116.278000", "093116.280000", "093116.283000", "093116.285000", "093116.288000", "093116.290000", "093116.293000", "093116.296000", "093116.298000", "093116.300000", "093156.251000", "093156.254000", "093156.257000", "093156.259000", "093156.262000", "093156.264000", "093156.267000", "093156.269000", "093156.272000", "093156.274000", "093156.277000", "093156.279000", "093156.282000", "093156.284000", "093156.287000", "093156.289000", "093156.292000", "093156.294000", "093156.297000", "093156.299000", "093236.252000", "093236.255000", "093236.258000", "093236.260000", "093236.263000", "093236.265000", "093236.268000", "093236.270000", "093236.273000", "093236.275000", "093236.278000", "093236.280000", "093236.283000", "093236.286000", "093236.288000", "093236.291000", "093236.293000", "093236.296000", "093236.298000", "093236.300000", "093316.252000", "093316.255000", "093316.258000", "093316.260000", "093316.263000", "093316.265000", "093316.268000", "093316.270000", "093316.273000", "093316.275000", "093316.278000", "093316.280000", "093316.283000", "093316.285000", "093316.288000", "093316.290000", "093316.293000", "093316.295000", "093316.298000", "093316.300000", "093356.252000", "093356.254000", "093356.257000", "093356.259000", "093356.262000", "093356.265000", "093356.267000", "093356.269000", "093356.272000", "093356.275000", "093356.277000", "093356.279000", "093356.282000", "093356.285000", "093356.287000", "093356.290000", "093356.292000", "093356.295000", "093356.298000", "093356.301000", "093422.894000", "093422.897000", "093422.899000", "093422.902000", "093422.904000", "093422.907000", "093422.910000", "093422.912000", "093422.915000", "093422.917000", "093422.920000", "093422.922000", "093422.925000", "093422.932000"],
      "InstanceCreationTime": ["092836.257000", "092836.260000", "092836.263000", "092836.266000", "092836.268000", "092836.271000", "092836.273000", "092836.276000", "092836.278000", "092836.281000", "092836.283000", "092836.286000", "092836.288000", "092836.291000", "092836.293000", "092836.296000", "092836.298000", "092836.301000", "092836.303000", "092836.306000", "092836.308000", "092836.311000", "092836.313000", "092836.316000", "092836.318000", "092836.321000", "092916.251000", "092916.254000", "092916.257000", "092916.259000", "092916.262000", "092916.264000", "092916.267000", "092916.269000", "092916.271000", "092916.274000", "092916.276000", "092916.279000", "092916.281000", "092916.284000", "092916.286000", "092916.289000", "092916.291000", "092916.294000", "092916.296000", "092916.298000", "092956.251000", "092956.254000", "092956.257000", "092956.259000", "092956.262000", "092956.264000", "092956.267000", "092956.269000", "092956.272000", "092956.274000", "092956.277000", "092956.279000", "092956.282000", "092956.284000", "092956.287000", "092956.289000", "092956.292000", "092956.294000", "092956.297000", "092956.299000", "093036.252000", "093036.255000", "093036.258000", "093036.260000", "093036.263000", "093036.265000", "093036.268000", "093036.270000", "093036.273000", "093036.275000", "093036.278000", "093036.280000", "093036.283000", "093036.285000", "093036.288000", "093036.290000", "093036.293000", "093036.295000", "093036.298000", "093036.300000", "093116.252000", "093116.255000", "093116.258000", "093116.260000", "093116.263000", "093116.265000", "093116.268000", "093116.270000", "093116.273000", "093116.275000", "093116.278000", "093116.280000", "093116.283000", "093116.285000", "093116.288000", "093116.290000", "093116.293000", "093116.296000", "093116.298000", "093116.300000", "093156.251000", "093156.254000", "093156.257000", "093156.259000", "093156.262000", "093156.264000", "093156.267000", "093156.269000", "093156.272000", "093156.274000", "093156.277000", "093156.279000", "093156.282000", "093156.284000", "093156.287000", "093156.289000", "093156.292000", "093156.294000", "093156.297000", "093156.299000", "093236.252000", "093236.255000", "093236.258000", "093236.260000", "093236.263000", "093236.265000", "093236.268000", "093236.270000", "093236.273000", "093236.275000", "093236.278000", "093236.280000", "093236.283000", "093236.286000", "093236.288000", "093236.291000", "093236.293000", "093236.296000", "093236.298000", "093236.300000", "093316.252000", "093316.255000", "093316.258000", "093316.260000", "093316.263000", "093316.265000", "093316.268000", "093316.270000", "093316.273000", "093316.275000", "093316.278000", "093316.280000", "093316.283000", "093316.285000", "093316.288000", "093316.290000", "093316.293000", "093316.295000", "093316.298000", "093316.300000", "093356.252000", "093356.254000", "093356.257000", "093356.259000", "093356.262000", "093356.265000", "093356.267000", "093356.269000", "093356.272000", "093356.275000", "093356.277000", "093356.279000", "093356.282000", "093356.285000", "093356.287000", "093356.290000", "093356.292000", "093356.295000", "093356.298000", "093356.301000", "093422.894000", "093422.897000", "093422.899000", "093422.902000", "093422.904000", "093422.907000", "093422.910000", "093422.912000", "093422.915000", "093422.917000", "093422.920000", "093422.922000", "093422.925000", "093422.932000"],
      "InstanceNumber": [1, 2, 3, 4, 5, 6, 7, 8, 9, 10, 11, 12, 13, 14, 15, 16, 17, 18, 19, 20, 21, 22, 23, 24, 25, 26, 27, 28, 29, 30, 31, 32, 33, 34, 35, 36, 37, 38, 39, 40, 41, 42, 43, 44, 45, 46, 47, 48, 49, 50, 51, 52, 53, 54, 55, 56, 57, 58, 59, 60, 61, 62, 63, 64, 65, 66, 67, 68, 69, 70, 71, 72, 73, 74, 75, 76, 77, 78, 79, 80, 81, 82, 83, 84, 85, 86, 87, 88, 89, 90, 91, 92, 93, 94, 95, 96, 97, 98, 99, 100, 101, 102, 103, 104, 105, 106, 107, 108, 109, 110, 111, 112, 113, 114, 115, 116, 117, 118, 119, 120, 121, 122, 123, 124, 125, 126, 127, 128, 129, 130, 131, 132, 133, 134, 135, 136, 137, 138, 139, 140, 141, 142, 143, 144, 145, 146, 147, 148, 149, 150, 151, 152, 153, 154, 155, 156, 157, 158, 159, 160, 161, 162, 163, 164, 165, 166, 167, 168, 169, 170, 171, 172, 173, 174, 175, 176, 177, 178, 179, 180, 181, 182, 183, 184, 185, 186, 187, 188, 189, 190, 191, 192, 193, 194, 195, 196, 197, 198, 199, 200],
      "LargestImagePixelValue": [337, 340, 336, 337, 339, 339, 339, 339, 338, 338, 338, 338, 339, 338, 337, 337, 338, 338, 337, 338, 340, 339, 338, 339, 337, 338, 339, 337, 338, 336, 338, 338, 337, 337, 339, 337, 337, 337, 337, 338, 338, 338, 337, 339, 338, 337, 337, 337, 337, 338, 336, 337, 337, 337, 338, 337, 338, 338, 338, 336, 337, 337, 339, 336, 336, 337, 337, 338, 338, 339, 336, 339, 337, 337, 340, 337, 339, 339, 339, 338, 338, 339, 338, 338, 339, 338, 338, 338, 338, 337, 337, 338, 337, 337, 337, 339, 337, 337, 337, 337, 337, 339, 339, 337, 337, 336, 339, 338, 339, 338, 338, 339, 339, 338, 336, 338, 338, 338, 338, 337, 338, 336, 337, 338, 337, 338, 336, 337, 338, 337, 339, 337, 336, 336, 337, 339, 338, 337, 338, 338, 337, 338, 338, 337, 337, 338, 339, 338, 338, 338, 337, 336, 338, 338, 336, 338, 338, 338, 338, 338, 336, 337, 337, 338, 338, 339, 338, 339, 337, 338, 338, 337, 338, 338, 337, 337, 338, 338, 337, 338, 338, 338, 338, 337, 338, 337, 338, 338, 337, 336, 337, 337, 337, 339, 337, 337, 338, 338, 339, 337],
      "WindowCenter": [279.0, 279.0, 279.0, 279.0, 279.0, 279.0, 279.0, 279.0, 279.0, 279.0, 279.0, 279.0, 279.0, 279.0, 279.0, 279.0, 279.0, 279.0, 279.0, 279.0, 279.0, 279.0, 279.0, 279.0, 279.0, 279.0, 279.0, 279.0, 279.0, 279.0, 279.0, 279.0, 279.0, 279.0, 279.0, 279.0, 279.0, 279.0, 279.0, 279.0, 279.0, 279.0, 279.0, 279.0, 279.0, 279.0, 279.0, 279.0, 279.0, 279.0, 279.0, 279.0, 279.0, 279.0, 279.0, 279.0, 279.0, 279.0, 279.0, 279.0, 279.0, 279.0, 279.0, 279.0, 279.0, 279.0, 279.0, 279.0, 279.0, 279.0, 279.0, 279.0, 279.0, 279.0, 279.0, 279.0, 279.0, 279.0, 279.0, 279.0, 279.0, 279.0, 279.0, 279.0, 279.0, 279.0, 279.0, 279.0, 279.0, 279.0, 279.0, 279.0, 279.0, 279.0, 279.0, 279.0, 279.0, 279.0, 279.0, 279.0, 279.0, 279.0, 279.0, 279.0, 279.0, 279.0, 279.0, 279.0, 279.0, 279.0, 279.0, 279.0, 279.0, 279.0, 279.0, 279.0, 279.0, 279.0, 279.0, 279.0, 279.0, 279.0, 279.0, 279.0, 279.0, 279.0, 279.0, 279.0, 279.0, 279.0, 279.0, 279.0, 279.0, 279.0, 279.0, 279.0, 279.0, 279.0, 279.0, 279.0, 279.0, 279.0, 279.0, 279.0, 279.0, 279.0, 279.0, 279.0, 279.0, 279.0, 279.0, 279.0, 279.0, 279.0, 279.0, 279.0, 279.0, 279.0, 279.0, 279.0, 279.0, 279.0, 279.0, 279.0, 279.0, 279.0, 279.0, 279.0, 278.0, 279.0, 279.0, 279.0, 279.0, 279.0, 279.0, 279.0, 279.0, 279.0, 279.0, 279.0, 279.0, 278.0, 279.0, 279.0, 279.0, 279.0, 279.0, 279.0, 279.0, 279.0, 279.0, 279.0, 279.0, 279.0, 279.0, 279.0, 279.0, 279.0, 279.0, 279.0],
      "WindowWidth": [610.0, 610.0, 610.0, 610.0, 610.0, 610.0, 610.0, 610.0, 610.0, 610.0, 610.0, 610.0, 610.0, 610.0, 610.0, 610.0, 610.0, 610.0, 610.0, 610.0, 610.0, 610.0, 610.0, 610.0, 610.0, 610.0, 610.0, 610.0, 609.0, 610.0, 610.0, 610.0, 610.0, 610.0, 610.0, 610.0, 610.0, 610.0, 610.0, 610.0, 610.0, 610.0, 610.0, 610.0, 610.0, 610.0, 610.0, 610.0, 610.0, 610.0, 610.0, 610.0, 610.0, 610.0, 610.0, 610.0, 610.0, 610.0, 610.0, 610.0, 610.0, 610.0, 610.0, 610.0, 610.0, 610.0, 610.0, 609.0, 610.0, 610.0, 610.0, 610.0, 610.0, 610.0, 610.0, 610.0, 610.0, 610.0, 610.0, 610.0, 610.0, 609.0, 610.0, 610.0, 610.0, 610.0, 610.0, 610.0, 610.0, 610.0, 610.0, 610.0, 610.0, 610.0, 610.0, 610.0, 610.0, 610.0, 610.0, 610.0, 610.0, 610.0, 610.0, 610.0, 610.0, 610.0, 610.0, 610.0, 610.0, 610.0, 610.0, 610.0, 609.0, 609.0, 609.0, 610.0, 609.0, 610.0, 609.0, 610.0, 610.0, 610.0, 609.0, 609.0, 609.0, 610.0, 609.0, 610.0, 610.0, 609.0, 610.0, 609.0, 610.0, 610.0, 610.0, 609.0, 610.0, 610.0, 610.0, 609.0, 610.0, 610.0, 609.0, 610.0, 609.0, 610.0, 610.0, 610.0, 610.0, 609.0, 610.0, 610.0, 610.0, 609.0, 610.0, 609.0, 609.0, 610.0, 609.0, 609.0, 610.0, 610.0, 610.0, 609.0, 609.0, 609.0, 609.0, 610.0, 609.0, 610.0, 610.0, 610.0, 609.0, 609.0, 609.0, 610.0, 610.0, 610.0, 609.0, 609.0, 610.0, 609.0, 609.0, 609.0, 609.0, 609.0, 610.0, 610.0, 609.0, 609.0, 609.0, 610.0, 610.0, 609.0, 610.0, 610.0, 609.0, 609.0, 609.0, 609.0]
    },
    "slices": {}
  }
}