{
  "AcquisitionMatrixPE": 80,
  "AcquisitionNumber": 1,
  "AcquisitionTime": "09:20:57.467500",
  "BandwidthPerPixelPhaseEncode": 25,
  "BaseResolution": 80,
  "BodyPartExamined": "BRAIN",
  "CoilCombinationMethod": "Sum of Squares",
  "ConsistencyInfo": "N4_VE11C_LATEST_20160120",
  "ConversionSoftware": "dcm2niix",
  "ConversionSoftwareVersion": "v1.0.20220720",
  "DerivedVendorReportedEchoSpacing": 0.0005,
  "DeviceSerialNumber": "66112",
  "DwellTime": 2.7e-06,
  "EchoTime": 0.03,
  "EchoTrainLength": 80,
  "EffectiveEchoSpacing": 0.0005,
  "FlipAngle": 77,
  "HeudiconvVersion": "0.13.1",
  "ImageOrientationPatientDICOM": [0.986508, 0.163459, 0.00910529, -0.158366, 0.93872, 0.306146],
  "ImageOrientationText": "Tra>Cor(17.7)>Sag(-2.4)",
  "ImageType": [
    "ORIGINAL",
    "PRIMARY",
    "M",
    "ND",
    "NORM",
    "MOSAIC"
],
  "ImagingFrequency": 123.252,
  "InPlanePhaseEncodingDirectionDICOM": "COL",
  "InstitutionAddress": "Maynard 3,Hanover,NH,US,03755",
  "InstitutionName": "Dartmouth College - PBS",
  "InstitutionalDepartmentName": "Department",
  "MRAcquisitionType": "2D",
  "MagneticFieldStrength": 3,
  "Manufacturer": "Siemens",
  "ManufacturersModelName": "Prisma",
  "MatrixCoilMode": "SENSE",
  "Modality": "MR",
  "NonlinearGradientCorrection": false,
  "PartialFourier": 1,
  "PatientPosition": "HFS",
  "PercentPhaseFOV": 100,
  "PercentSampling": 100,
  "PhaseEncodingDirection": "j-",
  "PhaseEncodingSteps": 80,
  "PhaseResolution": 1,
  "PixelBandwidth": 2315,
  "ProcedureStepDescription": "dbic^QA",
  "ProtocolName": "func-bold_acq-32ch-77flip",
  "PulseSequenceDetails": "%SiemensSeq%\\ep2d_bold",
  "ReceiveCoilActiveElements": "HEA;HEP",
  "ReceiveCoilName": "Head_32",
  "ReconMatrixPE": 80,
  "RepetitionTime": 2,
  "SAR": 0.0439352,
  "ScanOptions": "FS",
  "ScanningSequence": "EP",
  "SequenceName": "*epfid2d1_80",
  "SequenceVariant": "SK",
  "SeriesDescription": "func-bold_acq-32ch-77flip",
  "SeriesNumber": 8,
  "ShimSetting": [4149, -7699, -7513, 253, -20, -99, -17, 68],
  "SliceThickness": 3.5,
  "SliceTiming": [0.99, 0, 1.055, 0.065, 1.1225, 0.1325, 1.1875, 0.1975, 1.2525, 0.265, 1.32, 0.33, 1.385, 0.395, 1.4525, 0.4625, 1.5175, 0.5275, 1.5825, 0.595, 1.65, 0.66, 1.715, 0.725, 1.7825, 0.7925, 1.8475, 0.8575, 1.9125, 0.9225],
  "SoftwareVersions": "syngo MR E11",
  "SpacingBetweenSlices": 3.99,
  "StationName": "AWP66112",
  "TotalReadoutTime": 0.0395,
  "TxRefAmp": 231.899,
  "dcmmeta_affine": [
    [-2.959524393081665, -0.4750986099243164, -0.16556458175182343, 141.03271484375],
    [-0.490376353263855, 2.81615948677063, 1.2107940912246704, -97.77862548828125],
    [0.02731587365269661, -0.9184370040893555, 3.7982451915740967, -20.026153564453125],
    [0.0, 0.0, 0.0, 1.0]
],
  "dcmmeta_reorient_transform": [
    [0.0, -1.0, 0.0, 79.0],
    [1.0, 0.0, 0.0, 0.0],
    [0.0, 0.0, 1.0, 0.0],
    [0.0, 0.0, 0.0, 1.0]
],
  "dcmmeta_shape": [80, 80, 30, 200],
  "dcmmeta_slice_dim": 2,
  "dcmmeta_version": 0.6,
  "global": {
    "const": {
      "AccessionNumber": "qa",
      "AcquisitionMatrix": [80, 0, 0, 80],
      "AngioFlag": "N",
      "BitsAllocated": 16,
      "BitsStored": 12,
      "BodyPartExamined": "BRAIN",
      "Columns": 480,
      "EchoNumbers": 1,
      "EchoTime": 30.0,
      "EchoTrainLength": 80,
      "FlipAngle": 77.0,
      "HighBit": 11,
      "ImageOrientationPatient": [0.98650814444101, 0.16345878568833, 0.00910529147581, -0.158366207505, 0.93871985681671, 0.30614567568152],
      "ImagePositionPatient": [-600.38508506634, -786.0051674988, -281.73325982984],
      "ImageType": [
        "ORIGINAL",
        "PRIMARY",
        "M",
        "ND",
        "NORM",
        "MOSAIC"
],
      "ImagedNucleus": "1H",
      "ImagingFrequency": 123.252433,
      "InPlanePhaseEncodingDirection": "COL",
      "MRAcquisitionType": "2D",
      "MagneticFieldStrength": 3.0,
      "Manufacturer": "SIEMENS",
      "ManufacturerModelName": "Prisma",
      "Modality": "MR",
      "NumberOfAverages": 1.0,
      "NumberOfPhaseEncodingSteps": 80,
      "PercentPhaseFieldOfView": 100.0,
      "PercentSampling": 100.0,
      "PerformedProcedureStepStartTime": "090537.843000",
      "PhotometricInterpretation": "MONOCHROME2",
      "PixelBandwidth": 2315.0,
      "PixelRepresentation": 0,
      "PixelSpacing": [3.0, 3.0],
      "ProtocolName": "func-bold_acq-32ch-77flip",
      "RepetitionTime": 2000.0,
      "Rows": 480,
      "SAR": 0.04393515486759,
      "SamplesPerPixel": 1,
      "ScanOptions": "FS",
      "ScanningSequence": "EP",
      "SequenceName": "*epfid2d1_80",
      "SequenceVariant": "SK",
      "SeriesDescription": "func-bold_acq-32ch-77flip",
      "SeriesNumber": 8,
      "SeriesTime": "092156.182000",
      "SliceLocation": -54.587480818953,
      "SliceThickness": 3.5,
      "SmallestImagePixelValue": 0,
      "SoftwareVersions": "syngo MR E11",
      "SpacingBetweenSlices": 3.9900000117361,
      "SpecificCharacterSet": "ISO_IR 100",
      "StudyID": "107",
      "StudyTime": "090537.783000",
      "TransmitCoilName": "Body",
      "VariableFlipAngleFlag": "N",
      "WindowCenterWidthExplanation": "Algo1",
      "dBdt": 0.0},
    "slices": {}
  },
  "time": {
    "samples": {
      "AcquisitionNumber": [1, 2, 3, 4, 5, 6, 7, 8, 9, 10, 11, 12, 13, 14, 15, 16, 17, 18, 19, 20, 21, 22, 23, 24, 25, 26, 27, 28, 29, 30, 31, 32, 33, 34, 35, 36, 37, 38, 39, 40, 41, 42, 43, 44, 45, 46, 47, 48, 49, 50, 51, 52, 53, 54, 55, 56, 57, 58, 59, 60, 61, 62, 63, 64, 65, 66, 67, 68, 69, 70, 71, 72, 73, 74, 75, 76, 77, 78, 79, 80, 81, 82, 83, 84, 85, 86, 87, 88, 89, 90, 91, 92, 93, 94, 95, 96, 97, 98, 99, 100, 101, 102, 103, 104, 105, 106, 107, 108, 109, 110, 111, 112, 113, 114, 115, 116, 117, 118, 119, 120, 121, 122, 123, 124, 125, 126, 127, 128, 129, 130, 131, 132, 133, 134, 135, 136, 137, 138, 139, 140, 141, 142, 143, 144, 145, 146, 147, 148, 149, 150, 151, 152, 153, 154, 155, 156, 157, 158, 159, 160, 161, 162, 163, 164, 165, 166, 167, 168, 169, 170, 171, 172, 173, 174, 175, 176, 177, 178, 179, 180, 181, 182, 183, 184, 185, 186, 187, 188, 189, 190, 191, 192, 193, 194, 195, 196, 197, 198, 199, 200],
      "AcquisitionTime": ["092057.467500", "092059.467500", "092101.467500", "092103.467500", "092105.467500", "092107.467500", "092109.467500", "092111.467500", "092113.467500", "092115.467500", "092117.467500", "092119.467500", "092121.467500", "092123.467500", "092125.467500", "092127.467500", "092129.467500", "092131.467500", "092133.467500", "092135.467500", "092137.467500", "092139.467500", "092141.467500", "092143.467500", "092145.467500", "092147.467500", "092149.467500", "092151.467500", "092153.467500", "092155.467500", "092157.467500", "092159.467500", "092201.467500", "092203.467500", "092205.467500", "092207.467500", "092209.467500", "092211.467500", "092213.467500", "092215.467500", "092217.467500", "092219.467500", "092221.467500", "092223.467500", "092225.467500", "092227.467500", "092229.467500", "092231.467500", "092233.467500", "092235.467500", "092237.467500", "092239.467500", "092241.467500", "092243.467500", "092245.467500", "092247.467500", "092249.467500", "092251.467500", "092253.467500", "092255.467500", "092257.467500", "092259.467500", "092301.467500", "092303.467500", "092305.467500", "092307.467500", "092309.467500", "092311.467500", "092313.467500", "092315.467500", "092317.467500", "092319.467500", "092321.467500", "092323.467500", "092325.467500", "092327.467500", "092329.467500", "092331.467500", "092333.467500", "092335.467500", "092337.467500", "092339.467500", "092341.467500", "092343.467500", "092345.467500", "092347.467500", "092349.467500", "092351.467500", "092353.467500", "092355.467500", "092357.467500", "092359.467500", "092401.467500", "092403.467500", "092405.467500", "092407.467500", "092409.467500", "092411.467500", "092413.467500", "092415.467500", "092417.467500", "092419.467500", "092421.467500", "092423.467500", "092425.467500", "092427.467500", "092429.467500", "092431.467500", "092433.467500", "092435.467500", "092437.467500", "092439.467500", "092441.467500", "092443.467500", "092445.467500", "092447.467500", "092449.467500", "092451.467500", "092453.467500", "092455.467500", "092457.467500", "092459.467500", "092501.467500", "092503.467500", "092505.467500", "092507.467500", "092509.467500", "092511.467500", "092513.467500", "092515.467500", "092517.467500", "092519.467500", "092521.467500", "092523.467500", "092525.467500", "092527.467500", "092529.467500", "092531.467500", "092533.467500", "092535.467500", "092537.467500", "092539.467500", "092541.467500", "092543.467500", "092545.467500", "092547.467500", "092549.467500", "092551.467500", "092553.467500", "092555.467500", "092557.467500", "092559.467500", "092601.467500", "092603.467500", "092605.467500", "092607.467500", "092609.467500", "092611.467500", "092613.467500", "092615.467500", "092617.467500", "092619.467500", "092621.467500", "092623.467500", "092625.467500", "092627.467500", "092629.467500", "092631.467500", "092633.467500", "092635.467500", "092637.467500", "092639.467500", "092641.467500", "092643.467500", "092645.467500", "092647.467500", "092649.467500", "092651.467500", "092653.467500", "092655.467500", "092657.467500", "092659.467500", "092701.467500", "092703.467500", "092705.467500", "092707.467500", "092709.467500", "092711.467500", "092713.467500", "092715.467500", "092717.467500", "092719.467500", "092721.467500", "092723.467500", "092725.467500", "092727.467500", "092729.467500", "092731.467500", "092733.467500", "092735.467500"],
      "ContentTime": ["092156.185000", "092156.189000", "092156.191000", "092156.194000", "092156.196000", "092156.199000", "092156.201000", "092156.203000", "092156.206000", "092156.218000", "092156.220000", "092156.223000", "092156.225000", "092156.228000", "092156.230000", "092156.233000", "092156.235000", "092156.238000", "092156.240000", "092156.242000", "092156.245000", "092156.247000", "092156.250000", "092156.253000", "092156.255000", "092156.258000", "092156.260000", "092156.263000", "092156.265000", "092236.179000", "092236.182000", "092236.185000", "092236.187000", "092236.190000", "092236.192000", "092236.195000", "092236.197000", "092236.200000", "092236.202000", "092236.213000", "092236.215000", "092236.218000", "092236.220000", "092236.223000", "092236.225000", "092236.228000", "092236.230000", "092236.233000", "092236.235000", "092316.180000", "092316.183000", "092316.186000", "092316.188000", "092316.191000", "092316.193000", "092316.196000", "092316.199000", "092316.201000", "092316.204000", "092316.206000", "092316.209000", "092316.211000", "092316.214000", "092316.216000", "092316.219000", "092316.221000", "092316.224000", "092316.226000", "092316.229000", "092356.180000", "092356.183000", "092356.186000", "092356.189000", "092356.191000", "092356.193000", "092356.196000", "092356.199000", "092356.201000", "092356.203000", "092356.206000", "092356.209000", "092356.211000", "092356.214000", "092356.216000", "092356.219000", "092356.221000", "092356.224000", "092356.226000", "092356.229000", "092436.179000", "092436.182000", "092436.185000", "092436.187000", "092436.190000", "092436.193000", "092436.195000", "092436.197000", "092436.200000", "092436.203000", "092436.205000", "092436.207000", "092436.210000", "092436.213000", "092436.215000", "092436.217000", "092436.220000", "092436.223000", "092436.225000", "092436.228000", "092516.179000", "092516.182000", "092516.185000", "092516.187000", "092516.190000", "092516.193000", "092516.195000", "092516.197000", "092516.200000", "092516.203000", "092516.205000", "092516.207000", "092516.210000", "092516.213000", "092516.215000", "092516.218000", "092516.220000", "092516.223000", "092516.225000", "092516.228000", "092556.180000", "092556.183000", "092556.186000", "092556.188000", "092556.191000", "092556.194000", "092556.196000", "092556.199000", "092556.201000", "092556.204000", "092556.206000", "092556.209000", "092556.211000", "092556.214000", "092556.216000", "092556.219000", "092556.221000", "092556.224000", "092556.237000", "092556.239000", "092636.180000", "092636.184000", "092636.186000", "092636.189000", "092636.191000", "092636.194000", "092636.196000", "092636.199000", "092636.201000", "092636.204000", "092636.207000", "092636.209000", "092636.211000", "092636.214000", "092636.217000", "092636.219000", "092636.222000", "092636.224000", "092636.227000", "092636.229000", "092716.179000", "092716.182000", "092716.185000", "092716.188000", "092716.190000", "092716.193000", "092716.195000", "092716.198000", "092716.200000", "092716.203000", "092716.206000", "092716.208000", "092716.211000", "092716.213000", "092716.216000", "092716.218000", "092716.221000", "092716.223000", "092716.226000", "092716.228000", "092736.621000", "092736.624000", "092736.626000", "092736.629000", "092736.631000", "092736.634000", "092736.637000", "092736.639000", "092736.642000", "092736.644000", "092736.647000"],
      "InstanceCreationTime": ["092156.185000", "092156.189000", "092156.191000", "092156.194000", "092156.196000", "092156.199000", "092156.201000", "092156.203000", "092156.206000", "092156.218000", "092156.220000", "092156.223000", "092156.225000", "092156.228000", "092156.230000", "092156.233000", "092156.235000", "092156.238000", "092156.240000", "092156.242000", "092156.245000", "092156.247000", "092156.250000", "092156.253000", "092156.255000", "092156.258000", "092156.260000", "092156.263000", "092156.265000", "092236.179000", "092236.182000", "092236.185000", "092236.187000", "092236.190000", "092236.192000", "092236.195000", "092236.197000", "092236.200000", "092236.202000", "092236.213000", "092236.215000", "092236.218000", "092236.220000", "092236.223000", "092236.225000", "092236.228000", "092236.230000", "092236.233000", "092236.235000", "092316.180000", "092316.183000", "092316.186000", "092316.188000", "092316.191000", "092316.193000", "092316.196000", "092316.199000", "092316.201000", "092316.204000", "092316.206000", "092316.209000", "092316.211000", "092316.214000", "092316.216000", "092316.219000", "092316.221000", "092316.224000", "092316.226000", "092316.229000", "092356.180000", "092356.183000", "092356.186000", "092356.189000", "092356.191000", "092356.193000", "092356.196000", "092356.199000", "092356.201000", "092356.203000", "092356.206000", "092356.209000", "092356.211000", "092356.214000", "092356.216000", "092356.219000", "092356.221000", "092356.224000", "092356.226000", "092356.229000", "092436.179000", "092436.182000", "092436.185000", "092436.187000", "092436.190000", "092436.193000", "092436.195000", "092436.197000", "092436.200000", "092436.203000", "092436.205000", "092436.207000", "092436.210000", "092436.213000", "092436.215000", "092436.217000", "092436.220000", "092436.223000", "092436.225000", "092436.228000", "092516.179000", "092516.182000", "092516.185000", "092516.187000", "092516.190000", "092516.193000", "092516.195000", "092516.197000", "092516.200000", "092516.203000", "092516.205000", "092516.207000", "092516.210000", "092516.213000", "092516.215000", "092516.218000", "092516.220000", "092516.223000", "092516.225000", "092516.228000", "092556.180000", "092556.183000", "092556.186000", "092556.188000", "092556.191000", "092556.194000", "092556.196000", "092556.199000", "092556.201000", "092556.204000", "092556.206000", "092556.209000", "092556.211000", "092556.214000", "092556.216000", "092556.219000", "092556.221000", "092556.224000", "092556.237000", "092556.239000", "092636.180000", "092636.184000", "092636.186000", "092636.189000", "092636.191000", "092636.194000", "092636.196000", "092636.199000", "092636.201000", "092636.204000", "092636.207000", "092636.209000", "092636.211000", "092636.214000", "092636.217000", "092636.219000", "092636.222000", "092636.224000", "092636.227000", "092636.229000", "092716.179000", "092716.182000", "092716.185000", "092716.188000", "092716.190000", "092716.193000", "092716.195000", "092716.198000", "092716.200000", "092716.203000", "092716.206000", "092716.208000", "092716.211000", "092716.213000", "092716.216000", "092716.218000", "092716.221000", "092716.223000", "092716.226000", "092716.228000", "092736.621000", "092736.624000", "092736.626000", "092736.629000", "092736.631000", "092736.634000", "092736.637000", "092736.639000", "092736.642000", "092736.644000", "092736.647000"],
      "InstanceNumber": [1, 2, 3, 4, 5, 6, 7, 8, 9, 10, 11, 12, 13, 14, 15, 16, 17, 18, 19, 20, 21, 22, 23, 24, 25, 26, 27, 28, 29, 30, 31, 32, 33, 34, 35, 36, 37, 38, 39, 40, 41, 42, 43, 44, 45, 46, 47, 48, 49, 50, 51, 52, 53, 54, 55, 56, 57, 58, 59, 60, 61, 62, 63, 64, 65, 66, 67, 68, 69, 70, 71, 72, 73, 74, 75, 76, 77, 78, 79, 80, 81, 82, 83, 84, 85, 86, 87, 88, 89, 90, 91, 92, 93, 94, 95, 96, 97, 98, 99, 100, 101, 102, 103, 104, 105, 106, 107, 108, 109, 110, 111, 112, 113, 114, 115, 116, 117, 118, 119, 120, 121, 122, 123, 124, 125, 126, 127, 128, 129, 130, 131, 132, 133, 134, 135, 136, 137, 138, 139, 140, 141, 142, 143, 144, 145, 146, 147, 148, 149, 150, 151, 152, 153, 154, 155, 156, 157, 158, 159, 160, 161, 162, 163, 164, 165, 166, 167, 168, 169, 170, 171, 172, 173, 174, 175, 176, 177, 178, 179, 180, 181, 182, 183, 184, 185, 186, 187, 188, 189, 190, 191, 192, 193, 194, 195, 196, 197, 198, 199, 200],
      "LargestImagePixelValue": [2009, 2010, 2007, 2008, 2006, 2010, 2009, 2008, 2008, 2007, 2004, 2006, 2007, 2007, 2010, 2007, 2010, 2009, 2010, 2009, 2008, 2007, 2009, 2008, 2006, 2006, 2005, 2007, 2006, 2007, 2008, 2007, 2008, 2008, 2007, 2008, 2007, 2008, 2007, 2006, 2008, 2008, 2006, 2006, 2009, 2007, 2008, 2008, 2005, 2007, 2008, 2006, 2005, 2007, 2006, 2005, 2005, 2008, 2008, 2009, 2008, 2007, 2007, 2006, 2010, 2009, 2009, 2006, 2008, 2008, 2010, 2007, 2009, 2006, 2008, 2008, 2008, 2005, 2007, 2006, 2006, 2006, 2008, 2008, 2008, 2008, 2008, 2006, 2007, 2007, 2008, 2010, 2008, 2010, 2009, 2009, 2009, 2008, 2009, 2008, 2007, 2007, 2009, 2008, 2009, 2008, 2006, 2008, 2008, 2008, 2006, 2006, 2006, 2009, 2009, 2008, 2008, 2007, 2009, 2009, 2006, 2008, 2011, 2008, 2008, 2007, 2008, 2007, 2007, 2005, 2006, 2006, 2007, 2008, 2007, 2009, 2009, 2008, 2009, 2007, 2008, 2008, 2006, 2009, 2007, 2008, 2008, 2008, 2008, 2008, 2008, 2005, 2006, 2006, 2010, 2010, 2008, 2007, 2008, 2006, 2008, 2007, 2007, 2007, 2006, 2008, 2006, 2010, 2009, 2008, 2010, 2009, 2007, 2009, 2008, 2007, 2009, 2008, 2009, 2007, 2008, 2007, 2007, 2006, 2005, 2007, 2008, 2006, 2007, 2007, 2007, 2008, 2007, 2008, 2005, 2008, 2007, 2006, 2008, 2005],
      "WindowCenter": [978.0, 980.0, 980.0, 980.0, 980.0, 980.0, 980.0, 980.0, 980.0, 980.0, 979.0, 980.0, 979.0, 980.0, 978.0, 980.0, 980.0, 980.0, 979.0, 980.0, 979.0, 979.0, 979.0, 979.0, 979.0, 979.0, 979.0, 979.0, 979.0, 979.0, 979.0, 979.0, 979.0, 980.0, 980.0, 980.0, 978.0, 979.0, 979.0, 978.0, 979.0, 978.0, 979.0, 979.0, 978.0, 979.0, 979.0, 979.0, 979.0, 978.0, 978.0, 979.0, 979.0, 979.0, 978.0, 979.0, 978.0, 979.0, 979.0, 979.0, 979.0, 978.0, 979.0, 979.0, 979.0, 979.0, 979.0, 978.0, 979.0, 979.0, 978.0, 980.0, 979.0, 978.0, 979.0, 979.0, 979.0, 978.0, 979.0, 979.0, 979.0, 977.0, 979.0, 977.0, 978.0, 979.0, 978.0, 979.0, 979.0, 978.0, 979.0, 979.0, 977.0, 978.0, 978.0, 978.0, 979.0, 978.0, 979.0, 979.0, 979.0, 978.0, 979.0, 979.0, 979.0, 979.0, 979.0, 979.0, 979.0, 978.0, 978.0, 979.0, 979.0, 979.0, 979.0, 979.0, 979.0, 979.0, 979.0, 979.0, 979.0, 979.0, 979.0, 979.0, 979.0, 979.0, 978.0, 979.0, 979.0, 979.0, 977.0, 977.0, 979.0, 977.0, 979.0, 979.0, 979.0, 979.0, 978.0, 979.0, 979.0, 977.0, 979.0, 979.0, 979.0, 977.0, 977.0, 977.0, 978.0, 979.0, 979.0, 978.0, 978.0, 978.0, 979.0, 978.0, 979.0, 979.0, 978.0, 979.0, 979.0, 979.0, 979.0, 979.0, 978.0, 979.0, 979.0, 979.0, 979.0, 979.0, 979.0, 979.0, 978.0, 978.0, 977.0, 978.0, 979.0, 979.0, 979.0, 979.0, 978.0, 979.0, 979.0, 979.0, 979.0, 979.0, 978.0, 979.0, 979.0, 979.0, 978.0, 978.0, 979.0, 978.0, 978.0, 978.0, 978.0, 978.0, 978.0, 978.0],
      "WindowWidth": [2143.0, 2144.0, 2145.0, 2145.0, 2145.0, 2145.0, 2145.0, 2145.0, 2145.0, 2145.0, 2144.0, 2145.0, 2144.0, 2145.0, 2143.0, 2144.0, 2144.0, 2144.0, 2144.0, 2145.0, 2144.0, 2144.0, 2144.0, 2144.0, 2144.0, 2144.0, 2144.0, 2143.0, 2144.0, 2144.0, 2144.0, 2144.0, 2144.0, 2144.0, 2144.0, 2145.0, 2143.0, 2144.0, 2144.0, 2143.0, 2144.0, 2143.0, 2144.0, 2144.0, 2143.0, 2144.0, 2144.0, 2144.0, 2144.0, 2143.0, 2144.0, 2144.0, 2144.0, 2144.0, 2143.0, 2144.0, 2143.0, 2144.0, 2144.0, 2144.0, 2144.0, 2143.0, 2144.0, 2144.0, 2144.0, 2144.0, 2144.0, 2143.0, 2144.0, 2144.0, 2143.0, 2145.0, 2144.0, 2143.0, 2143.0, 2144.0, 2144.0, 2143.0, 2143.0, 2144.0, 2144.0, 2143.0, 2144.0, 2142.0, 2143.0, 2144.0, 2143.0, 2144.0, 2144.0, 2143.0, 2144.0, 2144.0, 2143.0, 2143.0, 2143.0, 2143.0, 2144.0, 2143.0, 2144.0, 2143.0, 2144.0, 2143.0, 2144.0, 2144.0, 2144.0, 2143.0, 2144.0, 2144.0, 2143.0, 2143.0, 2143.0, 2144.0, 2144.0, 2143.0, 2143.0, 2143.0, 2143.0, 2144.0, 2144.0, 2143.0, 2143.0, 2144.0, 2144.0, 2143.0, 2144.0, 2144.0, 2143.0, 2144.0, 2144.0, 2143.0, 2142.0, 2142.0, 2144.0, 2142.0, 2143.0, 2143.0, 2143.0, 2143.0, 2143.0, 2144.0, 2144.0, 2142.0, 2143.0, 2144.0, 2143.0, 2142.0, 2142.0, 2142.0, 2142.0, 2143.0, 2143.0, 2142.0, 2142.0, 2142.0, 2143.0, 2142.0, 2143.0, 2143.0, 2142.0, 2143.0, 2143.0, 2143.0, 2143.0, 2143.0, 2142.0, 2143.0, 2143.0, 2143.0, 2144.0, 2143.0, 2143.0, 2143.0, 2142.0, 2142.0, 2142.0, 2142.0, 2143.0, 2143.0, 2143.0, 2143.0, 2142.0, 2143.0, 2143.0, 2143.0, 2143.0, 2143.0, 2143.0, 2143.0, 2143.0, 2143.0, 2143.0, 2143.0, 2143.0, 2143.0, 2143.0, 2143.0, 2143.0, 2142.0, 2143.0, 2143.0]
    },
    "slices": {}
  }
}