{
  "AcquisitionMatrixPE": 80,
  "AcquisitionNumber": 1,
  "AcquisitionTime": "09:14:22.522500",
  "BandwidthPerPixelPhaseEncode": 25,
  "BaseResolution": 80,
  "BodyPartExamined": "BRAIN",
  "CoilCombinationMethod": "Sum of Squares",
  "ConsistencyInfo": "N4_VE11E_LATEST_20181129",
  "ConversionSoftware": "dcm2niix",
  "ConversionSoftwareVersion": "v1.0.20220720",
  "DerivedVendorReportedEchoSpacing": 0.0005,
  "DeviceSerialNumber": "66112",
  "DwellTime": 2.7e-06,
  "EchoTime": 0.03,
  "EchoTrainLength": 80,
  "EffectiveEchoSpacing": 0.0005,
  "FlipAngle": 10,
  "HeudiconvVersion": "0.13.1",
  "ImageOrientationPatientDICOM": [0.988742, 0.149536, 0.0053081, -0.143889, 0.94048, 0.307885],
  "ImageOrientationText": "Tra>Cor(17.8)>Sag(-2.4)",
  "ImageType": [
    "ORIGINAL",
    "PRIMARY",
    "M",
    "ND",
    "NORM",
    "MOSAIC"
],
  "ImagingFrequency": 123.259,
  "InPlanePhaseEncodingDirectionDICOM": "COL",
  "InstitutionAddress": "Maynard 3,Hanover,NH,US,03755",
  "InstitutionName": "Dartmouth College - PBS",
  "InstitutionalDepartmentName": "Department",
  "MRAcquisitionType": "2D",
  "MagneticFieldStrength": 3,
  "Manufacturer": "Siemens",
  "ManufacturersModelName": "Prisma",
  "MatrixCoilMode": "SENSE",
  "Modality": "MR",
  "NonlinearGradientCorrection": false,
  "PartialFourier": 1,
  "PatientPosition": "HFS",
  "PercentPhaseFOV": 100,
  "PercentSampling": 100,
  "PhaseEncodingDirection": "j-",
  "PhaseEncodingSteps": 80,
  "PhaseResolution": 1,
  "PixelBandwidth": 2315,
  "ProcedureStepDescription": "dbic^QA",
  "ProtocolName": "func-bold_fa-10",
  "PulseSequenceDetails": "%SiemensSeq%\\ep2d_bold",
  "ReceiveCoilActiveElements": "HC1-7;NC1,2",
  "ReceiveCoilName": "HeadNeck_64",
  "ReconMatrixPE": 80,
  "RepetitionTime": 2,
  "SAR": 0.00861725,
  "ScanOptions": "FS",
  "ScanningSequence": "EP",
  "SequenceName": "*epfid2d1_80",
  "SequenceVariant": "SK",
  "SeriesDescription": "func-bold_fa-10",
  "SeriesNumber": 7,
  "ShimSetting": [4221, -7748, -7480, -112, -142, -228, -59, 92],
  "SliceThickness": 3.5,
  "SliceTiming": [0.99, 0, 1.055, 0.065, 1.12, 0.13, 1.1875, 0.1975, 1.2525, 0.2625, 1.32, 0.33, 1.385, 0.395, 1.45, 0.46, 1.5175, 0.5275, 1.5825, 0.5925, 1.65, 0.66, 1.715, 0.725, 1.78, 0.79, 1.8475, 0.8575, 1.9125, 0.9225],
  "SoftwareVersions": "syngo MR E11",
  "SpacingBetweenSlices": 3.99,
  "StationName": "AWP66112",
  "TotalReadoutTime": 0.0395,
  "TxRefAmp": 214.254,
  "dcmmeta_affine": [
    [-2.96622633934021, -0.43166837096214294, -0.16378028690814972, 137.66510009765625],
    [-0.4486069977283478, 2.821439504623413, 1.21768057346344, -106.5264892578125],
    [0.015924306586384773, -0.9236563444137573, 3.7961204051971436, -7.66704797744751],
    [0.0, 0.0, 0.0, 1.0]
],
  "dcmmeta_reorient_transform": [
    [0.0, -1.0, 0.0, 79.0],
    [1.0, 0.0, 0.0, 0.0],
    [0.0, 0.0, 1.0, 0.0],
    [0.0, 0.0, 0.0, 1.0]
],
  "dcmmeta_shape": [80, 80, 30, 200],
  "dcmmeta_slice_dim": 2,
  "dcmmeta_version": 0.6,
  "global": {
    "const": {
      "AccessionNumber": "qa64",
      "AcquisitionMatrix": [80, 0, 0, 80],
      "AngioFlag": "N",
      "BitsAllocated": 16,
      "BitsStored": 12,
      "BodyPartExamined": "BRAIN",
      "Columns": 480,
      "EchoNumbers": 1,
      "EchoTime": 30.0,
      "EchoTrainLength": 80,
      "FlipAngle": 10.0,
      "HighBit": 11,
      "ImageOrientationPatient": [0.98874208459559, 0.14953566196662, 0.00530810227605, -0.1438894616567, 0.94047986250214, 0.30788545118617],
      "ImagePositionPatient": [-610.47486895998, -770.37655389925, -268.55203183264],
      "ImageType": [
        "ORIGINAL",
        "PRIMARY",
        "M",
        "ND",
        "NORM",
        "MOSAIC"
],
      "ImagedNucleus": "1H",
      "ImagingFrequency": 123.259258,
      "InPlanePhaseEncodingDirection": "COL",
      "MRAcquisitionType": "2D",
      "MagneticFieldStrength": 3.0,
      "Manufacturer": "SIEMENS",
      "ManufacturerModelName": "Prisma",
      "Modality": "MR",
      "NumberOfAverages": 1.0,
      "NumberOfPhaseEncodingSteps": 80,
      "PercentPhaseFieldOfView": 100.0,
      "PercentSampling": 100.0,
      "PerformedProcedureStepStartTime": "085353.238000",
      "PhotometricInterpretation": "MONOCHROME2",
      "PixelBandwidth": 2315.0,
      "PixelRepresentation": 0,
      "PixelSpacing": [3.0, 3.0],
      "ProtocolName": "func-bold_fa-10",
      "RepetitionTime": 2000.0,
      "Rows": 480,
      "SAR": 0.00861724922754,
      "SamplesPerPixel": 1,
      "ScanOptions": "FS",
      "ScanningSequence": "EP",
      "SequenceName": "*epfid2d1_80",
      "SequenceVariant": "SK",
      "SeriesDescription": "func-bold_fa-10",
      "SeriesNumber": 7,
      "SeriesTime": "091512.619000",
      "SliceLocation": -45.455411951402,
      "SliceThickness": 3.5,
      "SmallestImagePixelValue": 0,
      "SoftwareVersions": "syngo MR E11",
      "SpacingBetweenSlices": 3.9900000592434,
      "SpecificCharacterSet": "ISO_IR 100",
      "StudyID": "17",
      "StudyTime": "085353.161000",
      "TransmitCoilName": "Body",
      "VariableFlipAngleFlag": "N",
      "WindowCenterWidthExplanation": "Algo1"
    },
    "slices": {}
  },
  "time": {
    "samples": {
      "AcquisitionNumber": [1, 2, 3, 4, 5, 6, 7, 8, 9, 10, 11, 12, 13, 14, 15, 16, 17, 18, 19, 20, 21, 22, 23, 24, 25, 26, 27, 28, 29, 30, 31, 32, 33, 34, 35, 36, 37, 38, 39, 40, 41, 42, 43, 44, 45, 46, 47, 48, 49, 50, 51, 52, 53, 54, 55, 56, 57, 58, 59, 60, 61, 62, 63, 64, 65, 66, 67, 68, 69, 70, 71, 72, 73, 74, 75, 76, 77, 78, 79, 80, 81, 82, 83, 84, 85, 86, 87, 88, 89, 90, 91, 92, 93, 94, 95, 96, 97, 98, 99, 100, 101, 102, 103, 104, 105, 106, 107, 108, 109, 110, 111, 112, 113, 114, 115, 116, 117, 118, 119, 120, 121, 122, 123, 124, 125, 126, 127, 128, 129, 130, 131, 132, 133, 134, 135, 136, 137, 138, 139, 140, 141, 142, 143, 144, 145, 146, 147, 148, 149, 150, 151, 152, 153, 154, 155, 156, 157, 158, 159, 160, 161, 162, 163, 164, 165, 166, 167, 168, 169, 170, 171, 172, 173, 174, 175, 176, 177, 178, 179, 180, 181, 182, 183, 184, 185, 186, 187, 188, 189, 190, 191, 192, 193, 194, 195, 196, 197, 198, 199, 200],
      "AcquisitionTime": ["091422.522500", "091424.522500", "091426.522500", "091428.522500", "091430.522500", "091432.522500", "091434.522500", "091436.522500", "091438.522500", "091440.522500", "091442.522500", "091444.522500", "091446.522500", "091448.522500", "091450.522500", "091452.522500", "091454.522500", "091456.522500", "091458.522500", "091500.522500", "091502.522500", "091504.522500", "091506.522500", "091508.522500", "091510.522500", "091512.522500", "091514.522500", "091516.522500", "091518.522500", "091520.522500", "091522.522500", "091524.522500", "091526.522500", "091528.522500", "091530.522500", "091532.522500", "091534.522500", "091536.522500", "091538.522500", "091540.522500", "091542.522500", "091544.522500", "091546.522500", "091548.522500", "091550.522500", "091552.522500", "091554.522500", "091556.522500", "091558.522500", "091600.522500", "091602.522500", "091604.522500", "091606.522500", "091608.522500", "091610.522500", "091612.522500", "091614.522500", "091616.522500", "091618.522500", "091620.522500", "091622.522500", "091624.522500", "091626.522500", "091628.522500", "091630.522500", "091632.522500", "091634.522500", "091636.522500", "091638.522500", "091640.522500", "091642.522500", "091644.522500", "091646.522500", "091648.522500", "091650.522500", "091652.522500", "091654.522500", "091656.522500", "091658.522500", "091700.522500", "091702.522500", "091704.522500", "091706.522500", "091708.522500", "091710.522500", "091712.522500", "091714.522500", "091716.522500", "091718.522500", "091720.522500", "091722.522500", "091724.522500", "091726.522500", "091728.522500", "091730.522500", "091732.522500", "091734.522500", "091736.522500", "091738.522500", "091740.522500", "091742.522500", "091744.522500", "091746.522500", "091748.522500", "091750.522500", "091752.522500", "091754.522500", "091756.522500", "091758.522500", "091800.522500", "091802.522500", "091804.522500", "091806.522500", "091808.522500", "091810.522500", "091812.522500", "091814.522500", "091816.522500", "091818.522500", "091820.522500", "091822.522500", "091824.522500", "091826.522500", "091828.522500", "091830.522500", "091832.522500", "091834.522500", "091836.522500", "091838.522500", "091840.522500", "091842.522500", "091844.522500", "091846.522500", "091848.522500", "091850.522500", "091852.522500", "091854.522500", "091856.522500", "091858.522500", "091900.522500", "091902.522500", "091904.522500", "091906.522500", "091908.522500", "091910.522500", "091912.522500", "091914.522500", "091916.522500", "091918.522500", "091920.522500", "091922.522500", "091924.522500", "091926.522500", "091928.522500", "091930.522500", "091932.522500", "091934.522500", "091936.522500", "091938.522500", "091940.522500", "091942.522500", "091944.522500", "091946.522500", "091948.522500", "091950.522500", "091952.522500", "091954.522500", "091956.522500", "091958.522500", "092000.522500", "092002.522500", "092004.522500", "092006.522500", "092008.522500", "092010.522500", "092012.522500", "092014.522500", "092016.522500", "092018.522500", "092020.522500", "092022.522500", "092024.522500", "092026.522500", "092028.522500", "092030.522500", "092032.522500", "092034.522500", "092036.522500", "092038.522500", "092040.522500", "092042.522500", "092044.522500", "092046.522500", "092048.522500", "092050.522500", "092052.522500", "092054.522500", "092056.522500", "092058.522500", "092100.522500"],
      "ContentTime": ["091512.622000", "091512.626000", "091512.628000", "091512.630000", "091512.633000", "091512.635000", "091512.637000", "091512.644000", "091512.647000", "091512.649000", "091512.651000", "091512.653000", "091512.656000", "091512.666000", "091512.668000", "091512.670000", "091512.672000", "091512.675000", "091512.677000", "091512.679000", "091512.682000", "091512.684000", "091512.687000", "091512.689000", "091512.691000", "091552.617000", "091552.620000", "091552.622000", "091552.625000", "091552.627000", "091552.629000", "091552.632000", "091552.634000", "091552.636000", "091552.639000", "091552.641000", "091552.643000", "091552.646000", "091552.648000", "091552.650000", "091552.652000", "091552.655000", "091552.657000", "091552.659000", "091552.662000", "091632.617000", "091632.620000", "091632.629000", "091632.631000", "091632.633000", "091632.636000", "091632.638000", "091632.640000", "091632.643000", "091632.645000", "091632.647000", "091632.650000", "091632.652000", "091632.654000", "091632.656000", "091632.659000", "091632.661000", "091632.663000", "091632.666000", "091632.668000", "091712.617000", "091712.620000", "091712.622000", "091712.624000", "091712.627000", "091712.629000", "091712.631000", "091712.633000", "091712.636000", "091712.638000", "091712.640000", "091712.642000", "091712.645000", "091712.647000", "091712.649000", "091712.651000", "091712.654000", "091712.656000", "091712.658000", "091712.661000", "091752.617000", "091752.620000", "091752.622000", "091752.624000", "091752.627000", "091752.629000", "091752.631000", "091752.633000", "091752.636000", "091752.638000", "091752.640000", "091752.642000", "091752.645000", "091752.647000", "091752.649000", "091752.651000", "091752.654000", "091752.656000", "091752.658000", "091752.660000", "091832.618000", "091832.621000", "091832.623000", "091832.626000", "091832.628000", "091832.630000", "091832.633000", "091832.635000", "091832.637000", "091832.639000", "091832.642000", "091832.644000", "091832.646000", "091832.648000", "091832.651000", "091832.653000", "091832.655000", "091832.657000", "091832.660000", "091832.662000", "091912.617000", "091912.620000", "091912.622000", "091912.625000", "091912.627000", "091912.629000", "091912.631000", "091912.634000", "091912.636000", "091912.638000", "091912.641000", "091912.643000", "091912.645000", "091912.648000", "091912.650000", "091912.652000", "091912.655000", "091912.657000", "091912.659000", "091912.661000", "091952.617000", "091952.620000", "091952.622000", "091952.624000", "091952.627000", "091952.629000", "091952.631000", "091952.633000", "091952.636000", "091952.638000", "091952.640000", "091952.643000", "091952.645000", "091952.647000", "091952.649000", "091952.652000", "091952.654000", "091952.656000", "091952.658000", "091952.661000", "092032.617000", "092032.620000", "092032.622000", "092032.624000", "092032.627000", "092032.629000", "092032.631000", "092032.634000", "092032.640000", "092032.642000", "092032.645000", "092032.647000", "092032.649000", "092032.651000", "092032.654000", "092032.656000", "092032.658000", "092032.661000", "092032.663000", "092032.665000", "092102.130000", "092102.132000", "092102.135000", "092102.137000", "092102.139000", "092102.142000", "092102.144000", "092102.146000", "092102.149000", "092102.151000", "092102.153000", "092102.156000", "092102.158000", "092102.161000", "092102.165000"],
      "InstanceCreationTime": ["091512.622000", "091512.626000", "091512.628000", "091512.630000", "091512.633000", "091512.635000", "091512.637000", "091512.644000", "091512.647000", "091512.649000", "091512.651000", "091512.653000", "091512.656000", "091512.666000", "091512.668000", "091512.670000", "091512.672000", "091512.675000", "091512.677000", "091512.679000", "091512.682000", "091512.684000", "091512.687000", "091512.689000", "091512.691000", "091552.617000", "091552.620000", "091552.622000", "091552.625000", "091552.627000", "091552.629000", "091552.632000", "091552.634000", "091552.636000", "091552.639000", "091552.641000", "091552.643000", "091552.646000", "091552.648000", "091552.650000", "091552.652000", "091552.655000", "091552.657000", "091552.659000", "091552.662000", "091632.617000", "091632.620000", "091632.629000", "091632.631000", "091632.633000", "091632.636000", "091632.638000", "091632.640000", "091632.643000", "091632.645000", "091632.647000", "091632.650000", "091632.652000", "091632.654000", "091632.656000", "091632.659000", "091632.661000", "091632.663000", "091632.666000", "091632.668000", "091712.617000", "091712.620000", "091712.622000", "091712.624000", "091712.627000", "091712.629000", "091712.631000", "091712.633000", "091712.636000", "091712.638000", "091712.640000", "091712.642000", "091712.645000", "091712.647000", "091712.649000", "091712.651000", "091712.654000", "091712.656000", "091712.658000", "091712.661000", "091752.617000", "091752.620000", "091752.622000", "091752.624000", "091752.627000", "091752.629000", "091752.631000", "091752.633000", "091752.636000", "091752.638000", "091752.640000", "091752.642000", "091752.645000", "091752.647000", "091752.649000", "091752.651000", "091752.654000", "091752.656000", "091752.658000", "091752.660000", "091832.618000", "091832.621000", "091832.623000", "091832.626000", "091832.628000", "091832.630000", "091832.633000", "091832.635000", "091832.637000", "091832.639000", "091832.642000", "091832.644000", "091832.646000", "091832.648000", "091832.651000", "091832.653000", "091832.655000", "091832.657000", "091832.660000", "091832.662000", "091912.617000", "091912.620000", "091912.622000", "091912.625000", "091912.627000", "091912.629000", "091912.631000", "091912.634000", "091912.636000", "091912.638000", "091912.641000", "091912.643000", "091912.645000", "091912.648000", "091912.650000", "091912.652000", "091912.655000", "091912.657000", "091912.659000", "091912.661000", "091952.617000", "091952.620000", "091952.622000", "091952.624000", "091952.627000", "091952.629000", "091952.631000", "091952.633000", "091952.636000", "091952.638000", "091952.640000", "091952.643000", "091952.645000", "091952.647000", "091952.649000", "091952.652000", "091952.654000", "091952.656000", "091952.658000", "091952.661000", "092032.617000", "092032.620000", "092032.622000", "092032.624000", "092032.627000", "092032.629000", "092032.631000", "092032.634000", "092032.640000", "092032.642000", "092032.645000", "092032.647000", "092032.649000", "092032.651000", "092032.654000", "092032.656000", "092032.658000", "092032.661000", "092032.663000", "092032.665000", "092102.130000", "092102.132000", "092102.135000", "092102.137000", "092102.139000", "092102.142000", "092102.144000", "092102.146000", "092102.149000", "092102.151000", "092102.153000", "092102.156000", "092102.158000", "092102.161000", "092102.165000"],
      "InstanceNumber": [1, 2, 3, 4, 5, 6, 7, 8, 9, 10, 11, 12, 13, 14, 15, 16, 17, 18, 19, 20, 21, 22, 23, 24, 25, 26, 27, 28, 29, 30, 31, 32, 33, 34, 35, 36, 37, 38, 39, 40, 41, 42, 43, 44, 45, 46, 47, 48, 49, 50, 51, 52, 53, 54, 55, 56, 57, 58, 59, 60, 61, 62, 63, 64, 65, 66, 67, 68, 69, 70, 71, 72, 73, 74, 75, 76, 77, 78, 79, 80, 81, 82, 83, 84, 85, 86, 87, 88, 89, 90, 91, 92, 93, 94, 95, 96, 97, 98, 99, 100, 101, 102, 103, 104, 105, 106, 107, 108, 109, 110, 111, 112, 113, 114, 115, 116, 117, 118, 119, 120, 121, 122, 123, 124, 125, 126, 127, 128, 129, 130, 131, 132, 133, 134, 135, 136, 137, 138, 139, 140, 141, 142, 143, 144, 145, 146, 147, 148, 149, 150, 151, 152, 153, 154, 155, 156, 157, 158, 159, 160, 161, 162, 163, 164, 165, 166, 167, 168, 169, 170, 171, 172, 173, 174, 175, 176, 177, 178, 179, 180, 181, 182, 183, 184, 185, 186, 187, 188, 189, 190, 191, 192, 193, 194, 195, 196, 197, 198, 199, 200],
      "LargestImagePixelValue": [663, 661, 665, 666, 665, 657, 664, 664, 662, 664, 659, 662, 663, 663, 665, 665, 664, 662, 663, 662, 662, 667, 666, 665, 667, 664, 662, 666, 662, 663, 667, 662, 666, 664, 665, 665, 665, 663, 660, 665, 665, 660, 669, 666, 665, 665, 660, 664, 663, 665, 662, 661, 662, 664, 664, 665, 660, 661, 666, 661, 665, 661, 669, 668, 663, 665, 663, 666, 664, 661, 665, 663, 663, 666, 663, 664, 663, 662, 662, 663, 665, 661, 665, 661, 663, 663, 665, 668, 664, 666, 664, 664, 663, 668, 663, 660, 663, 664, 667, 666, 661, 666, 665, 665, 666, 667, 660, 666, 663, 665, 665, 665, 668, 667, 668, 663, 664, 665, 662, 668, 665, 663, 664, 666, 665, 663, 663, 665, 665, 666, 664, 664, 663, 667, 663, 665, 664, 667, 667, 665, 668, 664, 665, 667, 662, 663, 665, 665, 670, 662, 663, 669, 665, 666, 663, 663, 667, 665, 666, 665, 665, 666, 665, 667, 667, 669, 665, 663, 669, 666, 666, 666, 666, 665, 671, 665, 668, 662, 663, 666, 667, 672, 666, 664, 666, 665, 667, 666, 663, 663, 668, 665, 664, 666, 670, 665, 664, 669, 665, 665],
      "WindowCenter": [462.0, 462.0, 463.0, 462.0, 462.0, 462.0, 462.0, 463.0, 462.0, 462.0, 462.0, 462.0, 462.0, 462.0, 462.0, 462.0, 462.0, 462.0, 462.0, 462.0, 462.0, 462.0, 462.0, 463.0, 462.0, 462.0, 462.0, 462.0, 462.0, 462.0, 462.0, 462.0, 462.0, 462.0, 462.0, 462.0, 462.0, 462.0, 462.0, 462.0, 462.0, 462.0, 462.0, 462.0, 462.0, 462.0, 462.0, 462.0, 462.0, 462.0, 462.0, 462.0, 462.0, 462.0, 462.0, 462.0, 462.0, 462.0, 462.0, 462.0, 462.0, 462.0, 462.0, 462.0, 462.0, 462.0, 462.0, 462.0, 462.0, 462.0, 462.0, 462.0, 462.0, 462.0, 462.0, 462.0, 462.0, 462.0, 462.0, 462.0, 462.0, 462.0, 462.0, 462.0, 462.0, 462.0, 462.0, 462.0, 462.0, 462.0, 462.0, 462.0, 462.0, 462.0, 462.0, 462.0, 462.0, 462.0, 462.0, 462.0, 462.0, 462.0, 462.0, 462.0, 462.0, 462.0, 462.0, 462.0, 462.0, 462.0, 462.0, 462.0, 462.0, 462.0, 462.0, 462.0, 462.0, 462.0, 462.0, 462.0, 462.0, 462.0, 462.0, 462.0, 462.0, 462.0, 462.0, 462.0, 462.0, 462.0, 462.0, 462.0, 461.0, 462.0, 462.0, 462.0, 462.0, 461.0, 462.0, 462.0, 461.0, 462.0, 461.0, 462.0, 462.0, 461.0, 462.0, 461.0, 462.0, 462.0, 461.0, 462.0, 461.0, 461.0, 462.0, 461.0, 462.0, 462.0, 461.0, 462.0, 461.0, 461.0, 462.0, 461.0, 462.0, 461.0, 461.0, 462.0, 461.0, 461.0, 461.0, 461.0, 462.0, 461.0, 462.0, 461.0, 461.0, 461.0, 461.0, 461.0, 461.0, 462.0, 461.0, 461.0, 461.0, 461.0, 461.0, 461.0, 461.0, 461.0, 461.0, 461.0, 461.0, 461.0, 462.0, 461.0, 461.0, 461.0, 461.0, 461.0],
      "WindowWidth": [961.0, 961.0, 962.0, 961.0, 961.0, 961.0, 961.0, 962.0, 961.0, 961.0, 961.0, 961.0, 961.0, 961.0, 961.0, 961.0, 961.0, 961.0, 961.0, 961.0, 961.0, 960.0, 961.0, 961.0, 960.0, 961.0, 960.0, 961.0, 961.0, 960.0, 961.0, 961.0, 960.0, 961.0, 960.0, 961.0, 961.0, 960.0, 961.0, 960.0, 961.0, 961.0, 960.0, 961.0, 960.0, 960.0, 961.0, 960.0, 961.0, 960.0, 960.0, 961.0, 960.0, 961.0, 960.0, 960.0, 961.0, 960.0, 960.0, 960.0, 960.0, 961.0, 960.0, 960.0, 960.0, 960.0, 960.0, 960.0, 960.0, 961.0, 960.0, 960.0, 960.0, 960.0, 960.0, 960.0, 960.0, 960.0, 959.0, 960.0, 960.0, 959.0, 960.0, 960.0, 960.0, 960.0, 959.0, 960.0, 959.0, 960.0, 960.0, 960.0, 960.0, 959.0, 959.0, 960.0, 959.0, 960.0, 960.0, 960.0, 960.0, 959.0, 960.0, 959.0, 959.0, 960.0, 960.0, 960.0, 960.0, 959.0, 960.0, 959.0, 959.0, 959.0, 960.0, 960.0, 959.0, 959.0, 960.0, 959.0, 960.0, 960.0, 959.0, 960.0, 959.0, 960.0, 959.0, 959.0, 960.0, 959.0, 959.0, 960.0, 959.0, 959.0, 959.0, 959.0, 960.0, 959.0, 959.0, 959.0, 959.0, 959.0, 959.0, 959.0, 959.0, 959.0, 959.0, 959.0, 960.0, 959.0, 959.0, 959.0, 959.0, 959.0, 960.0, 959.0, 959.0, 959.0, 959.0, 959.0, 959.0, 959.0, 959.0, 959.0, 959.0, 959.0, 959.0, 959.0, 959.0, 959.0, 959.0, 959.0, 959.0, 959.0, 960.0, 959.0, 959.0, 959.0, 959.0, 959.0, 959.0, 959.0, 959.0, 959.0, 959.0, 959.0, 959.0, 959.0, 959.0, 959.0, 959.0, 959.0, 959.0, 959.0, 960.0, 959.0, 958.0, 959.0, 959.0, 958.0]
    },
    "slices": {}
  }
}