{
  "AcquisitionMatrixPE": 80,
  "AcquisitionNumber": 1,
  "AcquisitionTime": "09:00:47.727500",
  "BandwidthPerPixelPhaseEncode": 48.077,
  "BaseResolution": 80,
  "BodyPartExamined": "BRAIN",
  "CoilCombinationMethod": "Sum of Squares",
  "ConsistencyInfo": "N4_VE11E_LATEST_20181129",
  "ConversionSoftware": "dcm2niix",
  "ConversionSoftwareVersion": "v1.0.20220720",
  "DerivedVendorReportedEchoSpacing": 0.000519999,
  "DeviceSerialNumber": "66112",
  "DwellTime": 2.7e-06,
  "EchoTime": 0.035,
  "EchoTrainLength": 39,
  "EffectiveEchoSpacing": 0.00026,
  "FlipAngle": 90,
  "HeudiconvVersion": "0.13.1",
  "ImageOrientationPatientDICOM": [0.988742, 0.149536, 0.0053081, -0.143889, 0.94048, 0.307885],
  "ImageOrientationText": "Tra>Cor(17.8)>Sag(-2.4)",
  "ImageType": [
    "ORIGINAL",
    "PRIMARY",
    "M",
    "ND",
    "NORM",
    "MOSAIC"
],
  "ImagingFrequency": 123.259,
  "InPlanePhaseEncodingDirectionDICOM": "COL",
  "InstitutionAddress": "Maynard 3,Hanover,NH,US,03755",
  "InstitutionName": "Dartmouth College - PBS",
  "InstitutionalDepartmentName": "Department",
  "MRAcquisitionType": "2D",
  "MagneticFieldStrength": 3,
  "Manufacturer": "Siemens",
  "ManufacturersModelName": "Prisma",
  "MatrixCoilMode": "GRAPPA",
  "Modality": "MR",
  "NonlinearGradientCorrection": false,
  "ParallelReductionFactorInPlane": 2,
  "PartialFourier": 1,
  "PatientPosition": "HFS",
  "PercentPhaseFOV": 100,
  "PercentSampling": 100,
  "PhaseEncodingDirection": "j-",
  "PhaseEncodingSteps": 79,
  "PhaseResolution": 1,
  "PixelBandwidth": 2315,
  "ProcedureStepDescription": "dbic^QA",
  "ProtocolName": "func-bold_task-rest_acq-p2",
  "PulseSequenceDetails": "%SiemensSeq%\\ep2d_bold",
  "ReceiveCoilActiveElements": "HC1-7;NC1,2",
  "ReceiveCoilName": "HeadNeck_64",
  "ReconMatrixPE": 80,
  "RefLinesPE": 24,
  "RepetitionTime": 2,
  "SAR": 0.0408781,
  "ScanOptions": "FS",
  "ScanningSequence": "EP",
  "SequenceName": "*epfid2d1_80",
  "SequenceVariant": "SK",
  "SeriesDescription": "func-bold_task-rest_acq-p2",
  "SeriesNumber": 5,
  "ShimSetting": [4221, -7748, -7481, -114, -142, -229, -61, 91],
  "SliceThickness": 3.5,
  "SliceTiming": [0.99, 0, 1.055, 0.065, 1.1225, 0.1325, 1.1875, 0.1975, 1.2525, 0.2625, 1.32, 0.33, 1.385, 0.395, 1.4525, 0.4625, 1.5175, 0.5275, 1.5825, 0.5925, 1.65, 0.66, 1.715, 0.725, 1.7825, 0.7925, 1.8475, 0.8575, 1.9125, 0.9225],
  "SoftwareVersions": "syngo MR E11",
  "SpacingBetweenSlices": 3.99,
  "StationName": "AWP66112",
  "TaskName": "rest",
  "TotalReadoutTime": 0.02054,
  "TxRefAmp": 214.254,
  "dcmmeta_affine": [
    [-2.96622633934021, -0.43166837096214294, -0.16378028690814972, 139.8924560546875],
    [-0.4486069977283478, 2.821439504623413, 1.2176804542541504, -108.43587493896484],
    [0.015924306586384773, -0.9236563444137573, 3.7961204051971436, -8.301992416381836],
    [0.0, 0.0, 0.0, 1.0]
],
  "dcmmeta_reorient_transform": [
    [0.0, -1.0, 0.0, 79.0],
    [1.0, 0.0, 0.0, 0.0],
    [0.0, 0.0, 1.0, 0.0],
    [0.0, 0.0, 0.0, 1.0]
],
  "dcmmeta_shape": [80, 80, 30, 200],
  "dcmmeta_slice_dim": 2,
  "dcmmeta_version": 0.6,
  "global": {
    "const": {
      "AccessionNumber": "qa64",
      "AcquisitionMatrix": [80, 0, 0, 80],
      "AngioFlag": "N",
      "BitsAllocated": 16,
      "BitsStored": 12,
      "BodyPartExamined": "BRAIN",
      "Columns": 480,
      "EchoNumbers": 1,
      "EchoTime": 35.0,
      "EchoTrainLength": 39,
      "FlipAngle": 90.0,
      "HighBit": 11,
      "ImageOrientationPatient": [0.98874208459559, 0.14953566196662, 0.00530810227605, -0.1438894616567, 0.94047986250214, 0.30788545118617],
      "ImagePositionPatient": [-612.70222563227, -768.46717012544, -269.18697674841],
      "ImageType": [
        "ORIGINAL",
        "PRIMARY",
        "M",
        "ND",
        "NORM",
        "MOSAIC"
],
      "ImagedNucleus": "1H",
      "ImagingFrequency": 123.25926,
      "InPlanePhaseEncodingDirection": "COL",
      "MRAcquisitionType": "2D",
      "MagneticFieldStrength": 3.0,
      "Manufacturer": "SIEMENS",
      "ManufacturerModelName": "Prisma",
      "Modality": "MR",
      "NumberOfAverages": 1.0,
      "NumberOfPhaseEncodingSteps": 79,
      "PercentPhaseFieldOfView": 100.0,
      "PercentSampling": 100.0,
      "PerformedProcedureStepStartTime": "085353.238000",
      "PhotometricInterpretation": "MONOCHROME2",
      "PixelBandwidth": 2315.0,
      "PixelRepresentation": 0,
      "PixelSpacing": [3.0, 3.0],
      "ProtocolName": "func-bold_task-rest_acq-p2",
      "RepetitionTime": 2000.0,
      "Rows": 480,
      "SAR": 0.04087810728822,
      "SamplesPerPixel": 1,
      "ScanOptions": "FS",
      "ScanningSequence": "EP",
      "SequenceName": "*epfid2d1_80",
      "SequenceVariant": "SK",
      "SeriesDescription": "func-bold_task-rest_acq-p2",
      "SeriesNumber": 5,
      "SeriesTime": "090132.703000",
      "SliceLocation": -46.733643496875,
      "SliceThickness": 3.5,
      "SmallestImagePixelValue": 0,
      "SoftwareVersions": "syngo MR E11",
      "SpacingBetweenSlices": 3.9899999337564,
      "SpecificCharacterSet": "ISO_IR 100",
      "StudyID": "17",
      "StudyTime": "085353.161000",
      "TransmitCoilName": "Body",
      "VariableFlipAngleFlag": "N",
      "WindowCenterWidthExplanation": "Algo1"
    },
    "slices": {}
  },
  "time": {
    "samples": {
      "AcquisitionNumber": [1, 2, 3, 4, 5, 6, 7, 8, 9, 10, 11, 12, 13, 14, 15, 16, 17, 18, 19, 20, 21, 22, 23, 24, 25, 26, 27, 28, 29, 30, 31, 32, 33, 34, 35, 36, 37, 38, 39, 40, 41, 42, 43, 44, 45, 46, 47, 48, 49, 50, 51, 52, 53, 54, 55, 56, 57, 58, 59, 60, 61, 62, 63, 64, 65, 66, 67, 68, 69, 70, 71, 72, 73, 74, 75, 76, 77, 78, 79, 80, 81, 82, 83, 84, 85, 86, 87, 88, 89, 90, 91, 92, 93, 94, 95, 96, 97, 98, 99, 100, 101, 102, 103, 104, 105, 106, 107, 108, 109, 110, 111, 112, 113, 114, 115, 116, 117, 118, 119, 120, 121, 122, 123, 124, 125, 126, 127, 128, 129, 130, 131, 132, 133, 134, 135, 136, 137, 138, 139, 140, 141, 142, 143, 144, 145, 146, 147, 148, 149, 150, 151, 152, 153, 154, 155, 156, 157, 158, 159, 160, 161, 162, 163, 164, 165, 166, 167, 168, 169, 170, 171, 172, 173, 174, 175, 176, 177, 178, 179, 180, 181, 182, 183, 184, 185, 186, 187, 188, 189, 190, 191, 192, 193, 194, 195, 196, 197, 198, 199, 200],
      "AcquisitionTime": ["090047.727500", "090049.727500", "090051.727500", "090053.727500", "090055.727500", "090057.727500", "090059.727500", "090101.727500", "090103.727500", "090105.727500", "090107.727500", "090109.727500", "090111.727500", "090113.727500", "090115.727500", "090117.727500", "090119.727500", "090121.727500", "090123.727500", "090125.727500", "090127.727500", "090129.727500", "090131.727500", "090133.727500", "090135.727500", "090137.727500", "090139.727500", "090141.727500", "090143.727500", "090145.727500", "090147.727500", "090149.727500", "090151.727500", "090153.727500", "090155.727500", "090157.727500", "090159.727500", "090201.727500", "090203.727500", "090205.727500", "090207.727500", "090209.727500", "090211.727500", "090213.727500", "090215.727500", "090217.727500", "090219.727500", "090221.727500", "090223.727500", "090225.727500", "090227.727500", "090229.727500", "090231.727500", "090233.727500", "090235.727500", "090237.727500", "090239.727500", "090241.727500", "090243.727500", "090245.727500", "090247.727500", "090249.727500", "090251.727500", "090253.727500", "090255.727500", "090257.727500", "090259.727500", "090301.727500", "090303.727500", "090305.727500", "090307.727500", "090309.727500", "090311.727500", "090313.727500", "090315.727500", "090317.727500", "090319.727500", "090321.727500", "090323.727500", "090325.727500", "090327.727500", "090329.727500", "090331.727500", "090333.727500", "090335.727500", "090337.727500", "090339.727500", "090341.727500", "090343.727500", "090345.727500", "090347.727500", "090349.727500", "090351.727500", "090353.727500", "090355.727500", "090357.727500", "090359.727500", "090401.727500", "090403.727500", "090405.727500", "090407.727500", "090409.727500", "090411.727500", "090413.727500", "090415.727500", "090417.727500", "090419.727500", "090421.727500", "090423.727500", "090425.727500", "090427.727500", "090429.727500", "090431.727500", "090433.727500", "090435.727500", "090437.727500", "090439.727500", "090441.727500", "090443.727500", "090445.727500", "090447.727500", "090449.727500", "090451.727500", "090453.727500", "090455.727500", "090457.727500", "090459.727500", "090501.727500", "090503.727500", "090505.727500", "090507.727500", "090509.727500", "090511.727500", "090513.727500", "090515.727500", "090517.727500", "090519.727500", "090521.727500", "090523.727500", "090525.727500", "090527.727500", "090529.727500", "090531.727500", "090533.727500", "090535.727500", "090537.727500", "090539.727500", "090541.727500", "090543.727500", "090545.727500", "090547.727500", "090549.727500", "090551.727500", "090553.727500", "090555.727500", "090557.727500", "090559.727500", "090601.727500", "090603.727500", "090605.727500", "090607.727500", "090609.727500", "090611.727500", "090613.727500", "090615.727500", "090617.727500", "090619.727500", "090621.727500", "090623.727500", "090625.727500", "090627.727500", "090629.727500", "090631.727500", "090633.727500", "090635.727500", "090637.727500", "090639.727500", "090641.727500", "090643.727500", "090645.727500", "090647.727500", "090649.727500", "090651.727500", "090653.727500", "090655.727500", "090657.727500", "090659.727500", "090701.727500", "090703.727500", "090705.727500", "090707.727500", "090709.727500", "090711.727500", "090713.727500", "090715.727500", "090717.727500", "090719.727500", "090721.727500", "090723.727500", "090725.727500"],
      "ContentTime": ["090132.707000", "090132.710000", "090132.712000", "090132.724000", "090132.727000", "090132.729000", "090132.732000", "090132.734000", "090132.736000", "090132.738000", "090132.741000", "090132.743000", "090132.748000", "090132.750000", "090132.752000", "090132.755000", "090132.757000", "090132.760000", "090132.762000", "090132.764000", "090132.767000", "090132.769000", "090212.701000", "090212.704000", "090212.706000", "090212.708000", "090212.711000", "090212.713000", "090212.716000", "090212.718000", "090212.720000", "090212.723000", "090212.725000", "090212.727000", "090212.730000", "090212.732000", "090212.734000", "090212.736000", "090212.739000", "090212.741000", "090212.743000", "090212.746000", "090252.701000", "090252.704000", "090252.706000", "090252.708000", "090252.711000", "090252.713000", "090252.715000", "090252.727000", "090252.730000", "090252.732000", "090252.734000", "090252.736000", "090252.739000", "090252.741000", "090252.744000", "090252.746000", "090252.748000", "090252.751000", "090252.753000", "090252.755000", "090332.701000", "090332.704000", "090332.706000", "090332.709000", "090332.711000", "090332.713000", "090332.716000", "090332.718000", "090332.720000", "090332.723000", "090332.725000", "090332.727000", "090332.730000", "090332.732000", "090332.734000", "090332.737000", "090332.739000", "090332.741000", "090332.744000", "090332.746000", "090412.701000", "090412.704000", "090412.706000", "090412.708000", "090412.711000", "090412.714000", "090412.716000", "090412.718000", "090412.721000", "090412.723000", "090412.725000", "090412.727000", "090412.730000", "090412.732000", "090412.735000", "090412.737000", "090412.739000", "090412.742000", "090412.744000", "090412.746000", "090452.701000", "090452.704000", "090452.706000", "090452.708000", "090452.711000", "090452.713000", "090452.716000", "090452.718000", "090452.720000", "090452.723000", "090452.725000", "090452.727000", "090452.730000", "090452.732000", "090452.734000", "090452.737000", "090452.739000", "090452.741000", "090452.744000", "090452.746000", "090532.701000", "090532.704000", "090532.706000", "090532.709000", "090532.711000", "090532.713000", "090532.716000", "090532.718000", "090532.720000", "090532.723000", "090532.725000", "090532.727000", "090532.730000", "090532.732000", "090532.734000", "090532.736000", "090532.739000", "090532.741000", "090532.743000", "090532.746000", "090612.701000", "090612.704000", "090612.706000", "090612.709000", "090612.711000", "090612.714000", "090612.716000", "090612.718000", "090612.721000", "090612.723000", "090612.725000", "090612.728000", "090612.730000", "090612.732000", "090612.734000", "090612.737000", "090612.739000", "090612.742000", "090612.744000", "090612.746000", "090652.701000", "090652.704000", "090652.706000", "090652.708000", "090652.711000", "090652.713000", "090652.716000", "090652.718000", "090652.720000", "090652.723000", "090652.725000", "090652.727000", "090652.730000", "090652.732000", "090652.734000", "090652.737000", "090652.739000", "090652.742000", "090652.744000", "090652.746000", "090726.970000", "090726.973000", "090726.975000", "090726.977000", "090726.980000", "090726.982000", "090726.984000", "090726.987000", "090726.990000", "090727.006000", "090727.010000", "090727.012000", "090727.016000", "090727.022000", "090727.025000", "090727.029000", "090727.032000", "090727.036000"],
      "InstanceCreationTime": ["090132.707000", "090132.710000", "090132.712000", "090132.724000", "090132.727000", "090132.729000", "090132.732000", "090132.734000", "090132.736000", "090132.738000", "090132.741000", "090132.743000", "090132.748000", "090132.750000", "090132.752000", "090132.755000", "090132.757000", "090132.760000", "090132.762000", "090132.764000", "090132.767000", "090132.769000", "090212.701000", "090212.704000", "090212.706000", "090212.708000", "090212.711000", "090212.713000", "090212.716000", "090212.718000", "090212.720000", "090212.723000", "090212.725000", "090212.727000", "090212.730000", "090212.732000", "090212.734000", "090212.736000", "090212.739000", "090212.741000", "090212.743000", "090212.746000", "090252.701000", "090252.704000", "090252.706000", "090252.708000", "090252.711000", "090252.713000", "090252.715000", "090252.727000", "090252.730000", "090252.732000", "090252.734000", "090252.736000", "090252.739000", "090252.741000", "090252.744000", "090252.746000", "090252.748000", "090252.751000", "090252.753000", "090252.755000", "090332.701000", "090332.704000", "090332.706000", "090332.709000", "090332.711000", "090332.713000", "090332.716000", "090332.718000", "090332.720000", "090332.723000", "090332.725000", "090332.727000", "090332.730000", "090332.732000", "090332.734000", "090332.737000", "090332.739000", "090332.741000", "090332.744000", "090332.746000", "090412.701000", "090412.704000", "090412.706000", "090412.708000", "090412.711000", "090412.714000", "090412.716000", "090412.718000", "090412.721000", "090412.723000", "090412.725000", "090412.727000", "090412.730000", "090412.732000", "090412.735000", "090412.737000", "090412.739000", "090412.742000", "090412.744000", "090412.746000", "090452.701000", "090452.704000", "090452.706000", "090452.708000", "090452.711000", "090452.713000", "090452.716000", "090452.718000", "090452.720000", "090452.723000", "090452.725000", "090452.727000", "090452.730000", "090452.732000", "090452.734000", "090452.737000", "090452.739000", "090452.741000", "090452.744000", "090452.746000", "090532.701000", "090532.704000", "090532.706000", "090532.709000", "090532.711000", "090532.713000", "090532.716000", "090532.718000", "090532.720000", "090532.723000", "090532.725000", "090532.727000", "090532.730000", "090532.732000", "090532.734000", "090532.736000", "090532.739000", "090532.741000", "090532.743000", "090532.746000", "090612.701000", "090612.704000", "090612.706000", "090612.709000", "090612.711000", "090612.714000", "090612.716000", "090612.718000", "090612.721000", "090612.723000", "090612.725000", "090612.728000", "090612.730000", "090612.732000", "090612.734000", "090612.737000", "090612.739000", "090612.742000", "090612.744000", "090612.746000", "090652.701000", "090652.704000", "090652.706000", "090652.708000", "090652.711000", "090652.713000", "090652.716000", "090652.718000", "090652.720000", "090652.723000", "090652.725000", "090652.727000", "090652.730000", "090652.732000", "090652.734000", "090652.737000", "090652.739000", "090652.742000", "090652.744000", "090652.746000", "090726.970000", "090726.973000", "090726.975000", "090726.977000", "090726.980000", "090726.982000", "090726.984000", "090726.987000", "090726.990000", "090727.006000", "090727.010000", "090727.012000", "090727.016000", "090727.022000", "090727.025000", "090727.029000", "090727.032000", "090727.036000"],
      "InstanceNumber": [1, 2, 3, 4, 5, 6, 7, 8, 9, 10, 11, 12, 13, 14, 15, 16, 17, 18, 19, 20, 21, 22, 23, 24, 25, 26, 27, 28, 29, 30, 31, 32, 33, 34, 35, 36, 37, 38, 39, 40, 41, 42, 43, 44, 45, 46, 47, 48, 49, 50, 51, 52, 53, 54, 55, 56, 57, 58, 59, 60, 61, 62, 63, 64, 65, 66, 67, 68, 69, 70, 71, 72, 73, 74, 75, 76, 77, 78, 79, 80, 81, 82, 83, 84, 85, 86, 87, 88, 89, 90, 91, 92, 93, 94, 95, 96, 97, 98, 99, 100, 101, 102, 103, 104, 105, 106, 107, 108, 109, 110, 111, 112, 113, 114, 115, 116, 117, 118, 119, 120, 121, 122, 123, 124, 125, 126, 127, 128, 129, 130, 131, 132, 133, 134, 135, 136, 137, 138, 139, 140, 141, 142, 143, 144, 145, 146, 147, 148, 149, 150, 151, 152, 153, 154, 155, 156, 157, 158, 159, 160, 161, 162, 163, 164, 165, 166, 167, 168, 169, 170, 171, 172, 173, 174, 175, 176, 177, 178, 179, 180, 181, 182, 183, 184, 185, 186, 187, 188, 189, 190, 191, 192, 193, 194, 195, 196, 197, 198, 199, 200],
      "LargestImagePixelValue": [4052, 4049, 4041, 4047, 4040, 4037, 4045, 4041, 4047, 4040, 4046, 4039, 4045, 4037, 4051, 4053, 4048, 4051, 4041, 4045, 4046, 4046, 4051, 4045, 4044, 4049, 4042, 4049, 4049, 4046, 4045, 4052, 4047, 4053, 4048, 4049, 4046, 4058, 4052, 4052, 4056, 4051, 4051, 4050, 4055, 4049, 4058, 4054, 4059, 4055, 4050, 4057, 4056, 4060, 4054, 4056, 4059, 4053, 4055, 4065, 4056, 4055, 4050, 4054, 4057, 4056, 4052, 4061, 4055, 4056, 4058, 4060, 4057, 4059, 4053, 4058, 4064, 4055, 4060, 4066, 4063, 4062, 4071, 4059, 4058, 4059, 4067, 4073, 4066, 4063, 4066, 4064, 4068, 4068, 4070, 4076, 4071, 4072, 4068, 4071, 4083, 4067, 4055, 4068, 4087, 4078, 4067, 4069, 4066, 4068, 4071, 4069, 4069, 4083, 4067, 4065, 4059, 4064, 4061, 4073, 4062, 4061, 4070, 4061, 4067, 4067, 4067, 4073, 4069, 4069, 4075, 4074, 4075, 4081, 4067, 4076, 4079, 4076, 4077, 4071, 4084, 4074, 4083, 4071, 4086, 4079, 4083, 4072, 4077, 4087, 4070, 4072, 4071, 4076, 4075, 4080, 4084, 4083, 4090, 4087, 4085, 4068, 4085, 4095, 4095, 4082, 4084, 4086, 4088, 4075, 4085, 4087, 4086, 4087, 4080, 4083, 4085, 4089, 4088, 4093, 4092, 4092, 4091, 4084, 4090, 4095, 4095, 4094, 4095, 4095, 4088, 4086, 4089, 4095, 4095, 4094, 4095, 4088, 4087, 4089],
      "WindowCenter": [1484.0, 1484.0, 1484.0, 1484.0, 1484.0, 1484.0, 1484.0, 1484.0, 1484.0, 1484.0, 1483.0, 1484.0, 1484.0, 1484.0, 1483.0, 1482.0, 1484.0, 1483.0, 1482.0, 1483.0, 1483.0, 1483.0, 1483.0, 1484.0, 1483.0, 1483.0, 1484.0, 1484.0, 1484.0, 1483.0, 1484.0, 1482.0, 1483.0, 1483.0, 1483.0, 1483.0, 1483.0, 1482.0, 1482.0, 1482.0, 1482.0, 1482.0, 1482.0, 1482.0, 1482.0, 1483.0, 1482.0, 1482.0, 1483.0, 1482.0, 1482.0, 1482.0, 1483.0, 1482.0, 1482.0, 1481.0, 1482.0, 1481.0, 1481.0, 1482.0, 1482.0, 1482.0, 1482.0, 1482.0, 1482.0, 1481.0, 1482.0, 1482.0, 1481.0, 1482.0, 1481.0, 1481.0, 1482.0, 1481.0, 1481.0, 1481.0, 1481.0, 1481.0, 1481.0, 1480.0, 1481.0, 1480.0, 1480.0, 1480.0, 1480.0, 1480.0, 1480.0, 1480.0, 1481.0, 1480.0, 1481.0, 1481.0, 1480.0, 1481.0, 1479.0, 1480.0, 1481.0, 1481.0, 1480.0, 1480.0, 1480.0, 1480.0, 1480.0, 1479.0, 1480.0, 1480.0, 1480.0, 1480.0, 1480.0, 1481.0, 1480.0, 1480.0, 1481.0, 1480.0, 1480.0, 1480.0, 1480.0, 1480.0, 1480.0, 1479.0, 1480.0, 1480.0, 1479.0, 1480.0, 1479.0, 1479.0, 1479.0, 1479.0, 1479.0, 1479.0, 1480.0, 1479.0, 1479.0, 1479.0, 1480.0, 1479.0, 1480.0, 1479.0, 1479.0, 1479.0, 1480.0, 1479.0, 1479.0, 1480.0, 1479.0, 1479.0, 1480.0, 1479.0, 1479.0, 1479.0, 1478.0, 1479.0, 1479.0, 1480.0, 1479.0, 1480.0, 1480.0, 1479.0, 1479.0, 1480.0, 1480.0, 1479.0, 1479.0, 1479.0, 1479.0, 1480.0, 1480.0, 1479.0, 1480.0, 1479.0, 1479.0, 1479.0, 1479.0, 1480.0, 1479.0, 1478.0, 1479.0, 1479.0, 1480.0, 1479.0, 1480.0, 1478.0, 1480.0, 1480.0, 1479.0, 1479.0, 1479.0, 1480.0, 1479.0, 1479.0, 1479.0, 1479.0, 1480.0, 1479.0, 1479.0, 1479.0, 1479.0, 1479.0, 1480.0, 1480.0],
      "WindowWidth": [3385.0, 3384.0, 3384.0, 3383.0, 3383.0, 3383.0, 3383.0, 3383.0, 3383.0, 3383.0, 3383.0, 3383.0, 3383.0, 3383.0, 3383.0, 3384.0, 3383.0, 3383.0, 3383.0, 3383.0, 3383.0, 3383.0, 3383.0, 3383.0, 3383.0, 3383.0, 3383.0, 3383.0, 3383.0, 3383.0, 3383.0, 3383.0, 3383.0, 3383.0, 3383.0, 3383.0, 3383.0, 3383.0, 3383.0, 3383.0, 3383.0, 3383.0, 3383.0, 3383.0, 3383.0, 3383.0, 3383.0, 3383.0, 3383.0, 3383.0, 3383.0, 3383.0, 3384.0, 3383.0, 3383.0, 3384.0, 3383.0, 3384.0, 3384.0, 3383.0, 3383.0, 3383.0, 3383.0, 3383.0, 3383.0, 3384.0, 3383.0, 3383.0, 3383.0, 3383.0, 3384.0, 3384.0, 3383.0, 3383.0, 3384.0, 3384.0, 3383.0, 3383.0, 3383.0, 3384.0, 3384.0, 3384.0, 3384.0, 3384.0, 3384.0, 3384.0, 3384.0, 3384.0, 3383.0, 3384.0, 3383.0, 3383.0, 3384.0, 3384.0, 3384.0, 3384.0, 3383.0, 3384.0, 3384.0, 3384.0, 3384.0, 3383.0, 3384.0, 3384.0, 3384.0, 3384.0, 3384.0, 3384.0, 3384.0, 3383.0, 3383.0, 3384.0, 3384.0, 3384.0, 3384.0, 3384.0, 3384.0, 3384.0, 3384.0, 3384.0, 3383.0, 3384.0, 3384.0, 3383.0, 3383.0, 3384.0, 3384.0, 3383.0, 3383.0, 3384.0, 3383.0, 3384.0, 3383.0, 3383.0, 3384.0, 3384.0, 3383.0, 3383.0, 3383.0, 3383.0, 3383.0, 3384.0, 3383.0, 3384.0, 3384.0, 3384.0, 3383.0, 3383.0, 3384.0, 3384.0, 3384.0, 3383.0, 3383.0, 3384.0, 3384.0, 3383.0, 3384.0, 3384.0, 3384.0, 3384.0, 3384.0, 3383.0, 3384.0, 3384.0, 3384.0, 3384.0, 3384.0, 3384.0, 3384.0, 3384.0, 3384.0, 3384.0, 3384.0, 3384.0, 3383.0, 3384.0, 3384.0, 3384.0, 3384.0, 3384.0, 3384.0, 3384.0, 3384.0, 3384.0, 3384.0, 3384.0, 3384.0, 3384.0, 3384.0, 3384.0, 3384.0, 3384.0, 3384.0, 3384.0, 3384.0, 3384.0, 3384.0, 3384.0, 3384.0, 3384.0]
    },
    "slices": {}
  }
}