{
  "AcquisitionMatrixPE": 80,
  "AcquisitionNumber": 1,
  "AcquisitionTime": "10:12:46.807500",
  "BandwidthPerPixelPhaseEncode": 48.077,
  "BaseResolution": 80,
  "BodyPartExamined": "BRAIN",
  "CoilCombinationMethod": "Sum of Squares",
  "ConsistencyInfo": "N4_VE11C_LATEST_20160120",
  "ConversionSoftware": "dcm2niix",
  "ConversionSoftwareVersion": "v1.0.20220720",
  "DerivedVendorReportedEchoSpacing": 0.000519999,
  "DeviceSerialNumber": "66112",
  "DwellTime": 2.7e-06,
  "EchoTime": 0.035,
  "EchoTrainLength": 39,
  "EffectiveEchoSpacing": 0.00026,
  "FlipAngle": 90,
  "HeudiconvVersion": "0.13.1",
  "ImageOrientationPatientDICOM": [0.978411, -0.206654, -0.00253838, 0.197993, 0.933745, 0.298193],
  "ImageOrientationText": "Tra>Cor(17.0)>Sag(3.4)",
  "ImageType": [
    "ORIGINAL",
    "PRIMARY",
    "M",
    "ND",
    "NORM",
    "MOSAIC"
],
  "ImagingFrequency": 123.252,
  "InPlanePhaseEncodingDirectionDICOM": "COL",
  "InstitutionAddress": "Maynard 3,Hanover,NH,US,03755",
  "InstitutionName": "Dartmouth College - PBS",
  "InstitutionalDepartmentName": "Department",
  "MRAcquisitionType": "2D",
  "MagneticFieldStrength": 3,
  "Manufacturer": "Siemens",
  "ManufacturersModelName": "Prisma",
  "MatrixCoilMode": "GRAPPA",
  "Modality": "MR",
  "NonlinearGradientCorrection": false,
  "ParallelReductionFactorInPlane": 2,
  "PartialFourier": 1,
  "PatientPosition": "HFS",
  "PercentPhaseFOV": 100,
  "PercentSampling": 100,
  "PhaseEncodingDirection": "j-",
  "PhaseEncodingSteps": 79,
  "PhaseResolution": 1,
  "PixelBandwidth": 2315,
  "ProcedureStepDescription": "dbic^QA",
  "ProtocolName": "func-bold_task-rest_acq-p2",
  "PulseSequenceDetails": "%SiemensSeq%\\ep2d_bold",
  "ReceiveCoilActiveElements": "HC1-7;NC1,2",
  "ReceiveCoilName": "HeadNeck_64",
  "ReconMatrixPE": 80,
  "RefLinesPE": 24,
  "RepetitionTime": 2,
  "SAR": 0.0409856,
  "ScanOptions": "FS",
  "ScanningSequence": "EP",
  "SequenceName": "*epfid2d1_80",
  "SequenceVariant": "SK",
  "SeriesDescription": "func-bold_task-rest_acq-p2",
  "SeriesNumber": 5,
  "ShimSetting": [4139, -7706, -7505, 147, -84, -304, -70, 101],
  "SliceThickness": 3.5,
  "SliceTiming": [0.99, 0, 1.0575, 0.0675, 1.1225, 0.1325, 1.19, 0.2, 1.255, 0.265, 1.32, 0.33, 1.3875, 0.3975, 1.4525, 0.4625, 1.52, 0.53, 1.585, 0.595, 1.65, 0.66, 1.7175, 0.7275, 1.7825, 0.7925, 1.85, 0.86, 1.915, 0.925],
  "SoftwareVersions": "syngo MR E11",
  "SpacingBetweenSlices": 3.99,
  "StationName": "AWP66112",
  "TaskName": "rest",
  "TotalReadoutTime": 0.02054,
  "TxRefAmp": 222.87,
  "dcmmeta_affine": [
    [-2.935232639312744, 0.5939796566963196, 0.23641709983348846, 91.14730834960938],
    [0.6199608445167542, 2.8012351989746094, 1.1661077737808228, -144.86495971679688],
    [-0.00761514063924551, -0.894578218460083, 3.808464288711548, -22.989103317260742],
    [0.0, 0.0, 0.0, 1.0]
],
  "dcmmeta_reorient_transform": [
    [0.0, -1.0, 0.0, 79.0],
    [1.0, 0.0, 0.0, 0.0],
    [0.0, 0.0, 1.0, 0.0],
    [0.0, 0.0, 0.0, 1.0]
],
  "dcmmeta_shape": [80, 80, 30, 200],
  "dcmmeta_slice_dim": 2,
  "dcmmeta_version": 0.6,
  "global": {
    "const": {
      "AccessionNumber": "qa64",
      "AcquisitionMatrix": [80, 0, 0, 80],
      "AngioFlag": "N",
      "BitsAllocated": 16,
      "BitsStored": 12,
      "BodyPartExamined": "BRAIN",
      "Columns": 480,
      "EchoNumbers": 1,
      "EchoTime": 35.0,
      "EchoTrainLength": 39,
      "FlipAngle": 90.0,
      "HighBit": 11,
      "ImageOrientationPatient": [0.97841087546122, -0.206653612127, -0.0025383802057, 0.19799320974952, 0.9337450294591, 0.29819273776118],
      "ImagePositionPatient": [-843.91414793857, -512.68746301144, -271.05339604588],
      "ImageType": [
        "ORIGINAL",
        "PRIMARY",
        "M",
        "ND",
        "NORM",
        "MOSAIC"
],
      "ImagedNucleus": "1H",
      "ImagingFrequency": 123.252375,
      "InPlanePhaseEncodingDirection": "COL",
      "MRAcquisitionType": "2D",
      "MagneticFieldStrength": 3.0,
      "Manufacturer": "SIEMENS",
      "ManufacturerModelName": "Prisma",
      "Modality": "MR",
      "NumberOfAverages": 1.0,
      "NumberOfPhaseEncodingSteps": 79,
      "PercentPhaseFieldOfView": 100.0,
      "PercentSampling": 100.0,
      "PerformedProcedureStepStartTime": "101119.150000",
      "PhotometricInterpretation": "MONOCHROME2",
      "PixelBandwidth": 2315.0,
      "PixelRepresentation": 0,
      "PixelSpacing": [3.0, 3.0],
      "ProtocolName": "func-bold_task-rest_acq-p2",
      "RepetitionTime": 2000.0,
      "Rows": 480,
      "SAR": 0.04098555871428,
      "SamplesPerPixel": 1,
      "ScanOptions": "FS",
      "ScanningSequence": "EP",
      "SequenceName": "*epfid2d1_80",
      "SequenceVariant": "SK",
      "SeriesDescription": "func-bold_task-rest_acq-p2",
      "SeriesNumber": 5,
      "SeriesTime": "101340.377000",
      "SliceLocation": -58.880339521727,
      "SliceThickness": 3.5,
      "SmallestImagePixelValue": 0,
      "SoftwareVersions": "syngo MR E11",
      "SpacingBetweenSlices": 3.9899999919843,
      "SpecificCharacterSet": "ISO_IR 100",
      "StudyID": "7",
      "StudyTime": "101119.096000",
      "TransmitCoilName": "Body",
      "VariableFlipAngleFlag": "N",
      "WindowCenterWidthExplanation": "Algo1",
      "dBdt": 0.0},
    "slices": {}
  },
  "time": {
    "samples": {
      "AcquisitionNumber": [1, 2, 3, 4, 5, 6, 7, 8, 9, 10, 11, 12, 13, 14, 15, 16, 17, 18, 19, 20, 21, 22, 23, 24, 25, 26, 27, 28, 29, 30, 31, 32, 33, 34, 35, 36, 37, 38, 39, 40, 41, 42, 43, 44, 45, 46, 47, 48, 49, 50, 51, 52, 53, 54, 55, 56, 57, 58, 59, 60, 61, 62, 63, 64, 65, 66, 67, 68, 69, 70, 71, 72, 73, 74, 75, 76, 77, 78, 79, 80, 81, 82, 83, 84, 85, 86, 87, 88, 89, 90, 91, 92, 93, 94, 95, 96, 97, 98, 99, 100, 101, 102, 103, 104, 105, 106, 107, 108, 109, 110, 111, 112, 113, 114, 115, 116, 117, 118, 119, 120, 121, 122, 123, 124, 125, 126, 127, 128, 129, 130, 131, 132, 133, 134, 135, 136, 137, 138, 139, 140, 141, 142, 143, 144, 145, 146, 147, 148, 149, 150, 151, 152, 153, 154, 155, 156, 157, 158, 159, 160, 161, 162, 163, 164, 165, 166, 167, 168, 169, 170, 171, 172, 173, 174, 175, 176, 177, 178, 179, 180, 181, 182, 183, 184, 185, 186, 187, 188, 189, 190, 191, 192, 193, 194, 195, 196, 197, 198, 199, 200],
      "AcquisitionTime": ["101246.807500", "101248.807500", "101250.807500", "101252.807500", "101254.807500", "101256.807500", "101258.807500", "101300.807500", "101302.807500", "101304.807500", "101306.807500", "101308.807500", "101310.807500", "101312.807500", "101314.807500", "101316.807500", "101318.807500", "101320.807500", "101322.807500", "101324.807500", "101326.807500", "101328.807500", "101330.807500", "101332.807500", "101334.807500", "101336.807500", "101338.807500", "101340.807500", "101342.807500", "101344.807500", "101346.807500", "101348.807500", "101350.807500", "101352.807500", "101354.807500", "101356.807500", "101358.807500", "101400.807500", "101402.807500", "101404.807500", "101406.807500", "101408.807500", "101410.807500", "101412.807500", "101414.807500", "101416.807500", "101418.807500", "101420.807500", "101422.807500", "101424.807500", "101426.807500", "101428.807500", "101430.807500", "101432.807500", "101434.807500", "101436.807500", "101438.807500", "101440.807500", "101442.807500", "101444.807500", "101446.807500", "101448.807500", "101450.807500", "101452.807500", "101454.807500", "101456.807500", "101458.807500", "101500.807500", "101502.807500", "101504.807500", "101506.807500", "101508.807500", "101510.807500", "101512.807500", "101514.807500", "101516.807500", "101518.807500", "101520.807500", "101522.807500", "101524.807500", "101526.807500", "101528.807500", "101530.807500", "101532.807500", "101534.807500", "101536.807500", "101538.807500", "101540.807500", "101542.807500", "101544.807500", "101546.807500", "101548.807500", "101550.807500", "101552.807500", "101554.807500", "101556.807500", "101558.807500", "101600.807500", "101602.807500", "101604.807500", "101606.807500", "101608.807500", "101610.807500", "101612.807500", "101614.807500", "101616.807500", "101618.807500", "101620.807500", "101622.807500", "101624.807500", "101626.807500", "101628.807500", "101630.807500", "101632.807500", "101634.807500", "101636.807500", "101638.807500", "101640.807500", "101642.807500", "101644.807500", "101646.807500", "101648.807500", "101650.807500", "101652.807500", "101654.807500", "101656.807500", "101658.807500", "101700.807500", "101702.807500", "101704.807500", "101706.807500", "101708.807500", "101710.807500", "101712.807500", "101714.807500", "101716.807500", "101718.807500", "101720.807500", "101722.807500", "101724.807500", "101726.807500", "101728.807500", "101730.807500", "101732.807500", "101734.807500", "101736.807500", "101738.807500", "101740.807500", "101742.807500", "101744.807500", "101746.807500", "101748.807500", "101750.807500", "101752.807500", "101754.807500", "101756.807500", "101758.807500", "101800.807500", "101802.807500", "101804.807500", "101806.807500", "101808.807500", "101810.807500", "101812.807500", "101814.807500", "101816.807500", "101818.807500", "101820.807500", "101822.807500", "101824.807500", "101826.807500", "101828.807500", "101830.807500", "101832.807500", "101834.807500", "101836.807500", "101838.807500", "101840.807500", "101842.807500", "101844.807500", "101846.807500", "101848.807500", "101850.807500", "101852.807500", "101854.807500", "101856.807500", "101858.807500", "101900.807500", "101902.807500", "101904.807500", "101906.807500", "101908.807500", "101910.807500", "101912.807500", "101914.807500", "101916.807500", "101918.807500", "101920.807500", "101922.807500", "101924.807500"],
      "ContentTime": ["101340.380000", "101340.384000", "101340.386000", "101340.389000", "101340.391000", "101340.394000", "101340.396000", "101340.399000", "101340.401000", "101340.404000", "101340.406000", "101340.409000", "101340.411000", "101340.414000", "101340.417000", "101340.419000", "101340.422000", "101340.424000", "101340.427000", "101340.429000", "101340.439000", "101340.442000", "101340.444000", "101340.447000", "101340.449000", "101340.452000", "101420.375000", "101420.377000", "101420.380000", "101420.383000", "101420.385000", "101420.388000", "101420.390000", "101420.393000", "101420.395000", "101420.398000", "101420.400000", "101420.403000", "101420.405000", "101420.408000", "101420.410000", "101420.413000", "101420.415000", "101420.418000", "101420.420000", "101420.427000", "101500.374000", "101500.377000", "101500.380000", "101500.382000", "101500.385000", "101500.387000", "101500.390000", "101500.392000", "101500.395000", "101500.398000", "101500.400000", "101500.403000", "101500.405000", "101500.408000", "101500.410000", "101500.413000", "101500.415000", "101500.418000", "101500.420000", "101500.423000", "101540.376000", "101540.378000", "101540.381000", "101540.383000", "101540.386000", "101540.389000", "101540.391000", "101540.394000", "101540.396000", "101540.399000", "101540.401000", "101540.404000", "101540.406000", "101540.409000", "101540.411000", "101540.414000", "101540.416000", "101540.419000", "101540.421000", "101540.424000", "101620.375000", "101620.377000", "101620.380000", "101620.383000", "101620.385000", "101620.388000", "101620.390000", "101620.393000", "101620.395000", "101620.398000", "101620.400000", "101620.403000", "101620.405000", "101620.408000", "101620.410000", "101620.413000", "101620.416000", "101620.418000", "101620.421000", "101620.423000", "101700.375000", "101700.377000", "101700.380000", "101700.383000", "101700.385000", "101700.388000", "101700.390000", "101700.393000", "101700.395000", "101700.398000", "101700.400000", "101700.403000", "101700.405000", "101700.408000", "101700.410000", "101700.413000", "101700.415000", "101700.418000", "101700.420000", "101700.423000", "101740.376000", "101740.378000", "101740.381000", "101740.384000", "101740.386000", "101740.389000", "101740.391000", "101740.394000", "101740.396000", "101740.399000", "101740.401000", "101740.404000", "101740.406000", "101740.409000", "101740.411000", "101740.414000", "101740.417000", "101740.419000", "101740.422000", "101740.424000", "101820.376000", "101820.378000", "101820.381000", "101820.384000", "101820.386000", "101820.400000", "101820.402000", "101820.405000", "101820.407000", "101820.410000", "101820.412000", "101820.415000", "101820.417000", "101820.420000", "101820.422000", "101820.425000", "101820.427000", "101820.430000", "101820.433000", "101820.435000", "101900.374000", "101900.377000", "101900.380000", "101900.382000", "101900.385000", "101900.387000", "101900.390000", "101900.392000", "101900.395000", "101900.398000", "101900.400000", "101900.403000", "101900.405000", "101900.408000", "101900.421000", "101900.424000", "101900.426000", "101900.429000", "101900.431000", "101900.434000", "101926.560000", "101926.563000", "101926.565000", "101926.568000", "101926.571000", "101926.573000", "101926.576000", "101926.578000", "101926.581000", "101926.583000", "101926.586000", "101926.589000", "101926.596000", "101926.600000"],
      "InstanceCreationTime": ["101340.380000", "101340.384000", "101340.386000", "101340.389000", "101340.391000", "101340.394000", "101340.396000", "101340.399000", "101340.401000", "101340.404000", "101340.406000", "101340.409000", "101340.411000", "101340.414000", "101340.417000", "101340.419000", "101340.422000", "101340.424000", "101340.427000", "101340.429000", "101340.439000", "101340.442000", "101340.444000", "101340.447000", "101340.449000", "101340.452000", "101420.375000", "101420.377000", "101420.380000", "101420.383000", "101420.385000", "101420.388000", "101420.390000", "101420.393000", "101420.395000", "101420.398000", "101420.400000", "101420.403000", "101420.405000", "101420.408000", "101420.410000", "101420.413000", "101420.415000", "101420.418000", "101420.420000", "101420.427000", "101500.374000", "101500.377000", "101500.380000", "101500.382000", "101500.385000", "101500.387000", "101500.390000", "101500.392000", "101500.395000", "101500.398000", "101500.400000", "101500.403000", "101500.405000", "101500.408000", "101500.410000", "101500.413000", "101500.415000", "101500.418000", "101500.420000", "101500.423000", "101540.376000", "101540.378000", "101540.381000", "101540.383000", "101540.386000", "101540.389000", "101540.391000", "101540.394000", "101540.396000", "101540.399000", "101540.401000", "101540.404000", "101540.406000", "101540.409000", "101540.411000", "101540.414000", "101540.416000", "101540.419000", "101540.421000", "101540.424000", "101620.375000", "101620.377000", "101620.380000", "101620.383000", "101620.385000", "101620.388000", "101620.390000", "101620.393000", "101620.395000", "101620.398000", "101620.400000", "101620.403000", "101620.405000", "101620.408000", "101620.410000", "101620.413000", "101620.416000", "101620.418000", "101620.421000", "101620.423000", "101700.375000", "101700.377000", "101700.380000", "101700.383000", "101700.385000", "101700.388000", "101700.390000", "101700.393000", "101700.395000", "101700.398000", "101700.400000", "101700.403000", "101700.405000", "101700.408000", "101700.410000", "101700.413000", "101700.415000", "101700.418000", "101700.420000", "101700.423000", "101740.376000", "101740.378000", "101740.381000", "101740.384000", "101740.386000", "101740.389000", "101740.391000", "101740.394000", "101740.396000", "101740.399000", "101740.401000", "101740.404000", "101740.406000", "101740.409000", "101740.411000", "101740.414000", "101740.417000", "101740.419000", "101740.422000", "101740.424000", "101820.376000", "101820.378000", "101820.381000", "101820.384000", "101820.386000", "101820.400000", "101820.402000", "101820.405000", "101820.407000", "101820.410000", "101820.412000", "101820.415000", "101820.417000", "101820.420000", "101820.422000", "101820.425000", "101820.427000", "101820.430000", "101820.433000", "101820.435000", "101900.374000", "101900.377000", "101900.380000", "101900.382000", "101900.385000", "101900.387000", "101900.390000", "101900.392000", "101900.395000", "101900.398000", "101900.400000", "101900.403000", "101900.405000", "101900.408000", "101900.421000", "101900.424000", "101900.426000", "101900.429000", "101900.431000", "101900.434000", "101926.560000", "101926.563000", "101926.565000", "101926.568000", "101926.571000", "101926.573000", "101926.576000", "101926.578000", "101926.581000", "101926.583000", "101926.586000", "101926.589000", "101926.596000", "101926.600000"],
      "InstanceNumber": [1, 2, 3, 4, 5, 6, 7, 8, 9, 10, 11, 12, 13, 14, 15, 16, 17, 18, 19, 20, 21, 22, 23, 24, 25, 26, 27, 28, 29, 30, 31, 32, 33, 34, 35, 36, 37, 38, 39, 40, 41, 42, 43, 44, 45, 46, 47, 48, 49, 50, 51, 52, 53, 54, 55, 56, 57, 58, 59, 60, 61, 62, 63, 64, 65, 66, 67, 68, 69, 70, 71, 72, 73, 74, 75, 76, 77, 78, 79, 80, 81, 82, 83, 84, 85, 86, 87, 88, 89, 90, 91, 92, 93, 94, 95, 96, 97, 98, 99, 100, 101, 102, 103, 104, 105, 106, 107, 108, 109, 110, 111, 112, 113, 114, 115, 116, 117, 118, 119, 120, 121, 122, 123, 124, 125, 126, 127, 128, 129, 130, 131, 132, 133, 134, 135, 136, 137, 138, 139, 140, 141, 142, 143, 144, 145, 146, 147, 148, 149, 150, 151, 152, 153, 154, 155, 156, 157, 158, 159, 160, 161, 162, 163, 164, 165, 166, 167, 168, 169, 170, 171, 172, 173, 174, 175, 176, 177, 178, 179, 180, 181, 182, 183, 184, 185, 186, 187, 188, 189, 190, 191, 192, 193, 194, 195, 196, 197, 198, 199, 200],
      "LargestImagePixelValue": [3991, 3983, 3986, 3980, 3981, 3983, 3973, 3977, 3975, 3984, 3983, 3975, 3984, 3967, 3974, 3961, 3971, 3961, 3973, 3961, 3969, 3975, 3981, 3969, 3961, 3976, 3967, 3960, 3968, 3968, 3958, 3962, 3961, 3962, 3952, 3969, 3957, 3956, 3944, 3954, 3958, 3967, 3957, 3943, 3953, 3963, 3953, 3969, 3960, 3943, 3954, 3952, 3956, 3957, 3950, 3946, 3964, 3944, 3949, 3959, 3938, 3955, 3956, 3958, 3955, 3954, 3945, 3946, 3950, 3948, 3950, 3943, 3949, 3949, 3949, 3948, 3947, 3938, 3953, 3942, 3950, 3963, 3947, 3946, 3950, 3952, 3953, 3951, 3944, 3938, 3946, 3958, 3937, 3945, 3932, 3935, 3943, 3950, 3937, 3955, 3945, 3938, 3944, 3942, 3942, 3937, 3951, 3937, 3934, 3938, 3944, 3945, 3940, 3938, 3940, 3943, 3959, 3940, 3940, 3942, 3942, 3943, 3943, 3950, 3938, 3935, 3942, 3931, 3941, 3931, 3939, 3940, 3941, 3932, 3930, 3946, 3942, 3941, 3929, 3948, 3946, 3925, 3935, 3926, 3925, 3927, 3932, 3946, 3931, 3939, 3932, 3947, 3932, 3927, 3928, 3926, 3931, 3928, 3936, 3928, 3940, 3925, 3921, 3943, 3937, 3942, 3927, 3919, 3929, 3936, 3931, 3936, 3932, 3922, 3925, 3940, 3930, 3933, 3939, 3919, 3924, 3935, 3924, 3917, 3914, 3936, 3920, 3928, 3932, 3921, 3920, 3933, 3928, 3926, 3921, 3927, 3929, 3932, 3932, 3927],
      "WindowCenter": [1461.0, 1461.0, 1460.0, 1460.0, 1460.0, 1460.0, 1459.0, 1459.0, 1459.0, 1458.0, 1458.0, 1458.0, 1458.0, 1458.0, 1457.0, 1457.0, 1457.0, 1457.0, 1457.0, 1456.0, 1457.0, 1456.0, 1456.0, 1457.0, 1456.0, 1456.0, 1455.0, 1456.0, 1455.0, 1455.0, 1455.0, 1455.0, 1455.0, 1454.0, 1454.0, 1454.0, 1453.0, 1454.0, 1453.0, 1454.0, 1453.0, 1453.0, 1453.0, 1453.0, 1452.0, 1452.0, 1452.0, 1452.0, 1452.0, 1452.0, 1452.0, 1451.0, 1452.0, 1452.0, 1451.0, 1452.0, 1451.0, 1451.0, 1450.0, 1451.0, 1450.0, 1450.0, 1451.0, 1450.0, 1450.0, 1450.0, 1450.0, 1450.0, 1449.0, 1450.0, 1450.0, 1449.0, 1450.0, 1449.0, 1449.0, 1449.0, 1448.0, 1448.0, 1448.0, 1448.0, 1448.0, 1448.0, 1448.0, 1448.0, 1448.0, 1448.0, 1448.0, 1448.0, 1448.0, 1448.0, 1448.0, 1447.0, 1447.0, 1448.0, 1447.0, 1447.0, 1447.0, 1447.0, 1446.0, 1447.0, 1446.0, 1447.0, 1446.0, 1446.0, 1446.0, 1446.0, 1446.0, 1446.0, 1446.0, 1447.0, 1446.0, 1446.0, 1446.0, 1446.0, 1446.0, 1445.0, 1446.0, 1446.0, 1446.0, 1446.0, 1445.0, 1445.0, 1445.0, 1445.0, 1445.0, 1445.0, 1444.0, 1445.0, 1444.0, 1444.0, 1444.0, 1444.0, 1444.0, 1444.0, 1444.0, 1445.0, 1444.0, 1444.0, 1444.0, 1444.0, 1444.0, 1444.0, 1443.0, 1444.0, 1443.0, 1444.0, 1443.0, 1443.0, 1443.0, 1443.0, 1444.0, 1442.0, 1443.0, 1443.0, 1443.0, 1442.0, 1443.0, 1444.0, 1443.0, 1442.0, 1442.0, 1443.0, 1442.0, 1443.0, 1442.0, 1442.0, 1442.0, 1443.0, 1443.0, 1443.0, 1442.0, 1442.0, 1442.0, 1442.0, 1441.0, 1442.0, 1441.0, 1442.0, 1441.0, 1441.0, 1442.0, 1442.0, 1441.0, 1442.0, 1441.0, 1441.0, 1441.0, 1441.0, 1441.0, 1440.0, 1441.0, 1441.0, 1441.0, 1441.0, 1441.0, 1441.0, 1442.0, 1440.0, 1441.0, 1440.0],
      "WindowWidth": [3302.0, 3301.0, 3301.0, 3301.0, 3300.0, 3300.0, 3300.0, 3300.0, 3300.0, 3300.0, 3299.0, 3299.0, 3299.0, 3299.0, 3298.0, 3298.0, 3298.0, 3297.0, 3296.0, 3296.0, 3296.0, 3296.0, 3296.0, 3296.0, 3296.0, 3295.0, 3295.0, 3295.0, 3295.0, 3294.0, 3294.0, 3294.0, 3294.0, 3294.0, 3293.0, 3294.0, 3293.0, 3293.0, 3293.0, 3292.0, 3293.0, 3293.0, 3292.0, 3292.0, 3292.0, 3292.0, 3292.0, 3291.0, 3291.0, 3291.0, 3290.0, 3290.0, 3290.0, 3290.0, 3290.0, 3290.0, 3290.0, 3290.0, 3290.0, 3289.0, 3289.0, 3289.0, 3288.0, 3289.0, 3289.0, 3289.0, 3288.0, 3288.0, 3288.0, 3288.0, 3288.0, 3288.0, 3287.0, 3288.0, 3287.0, 3287.0, 3287.0, 3287.0, 3287.0, 3287.0, 3287.0, 3287.0, 3287.0, 3287.0, 3287.0, 3287.0, 3287.0, 3287.0, 3286.0, 3286.0, 3286.0, 3286.0, 3286.0, 3285.0, 3286.0, 3286.0, 3286.0, 3285.0, 3285.0, 3285.0, 3285.0, 3285.0, 3285.0, 3285.0, 3285.0, 3285.0, 3285.0, 3285.0, 3285.0, 3284.0, 3284.0, 3284.0, 3284.0, 3284.0, 3284.0, 3285.0, 3284.0, 3284.0, 3283.0, 3283.0, 3283.0, 3284.0, 3283.0, 3283.0, 3283.0, 3283.0, 3283.0, 3283.0, 3282.0, 3283.0, 3282.0, 3283.0, 3283.0, 3282.0, 3282.0, 3282.0, 3283.0, 3282.0, 3282.0, 3282.0, 3282.0, 3282.0, 3282.0, 3282.0, 3281.0, 3281.0, 3281.0, 3281.0, 3281.0, 3282.0, 3281.0, 3282.0, 3281.0, 3281.0, 3281.0, 3282.0, 3281.0, 3280.0, 3281.0, 3281.0, 3281.0, 3281.0, 3281.0, 3281.0, 3281.0, 3281.0, 3280.0, 3280.0, 3280.0, 3280.0, 3280.0, 3280.0, 3280.0, 3280.0, 3280.0, 3280.0, 3280.0, 3280.0, 3280.0, 3279.0, 3279.0, 3279.0, 3279.0, 3279.0, 3279.0, 3279.0, 3279.0, 3279.0, 3279.0, 3279.0, 3279.0, 3279.0, 3279.0, 3279.0, 3279.0, 3279.0, 3278.0, 3279.0, 3278.0, 3279.0]
    },
    "slices": {}
  }
}