{
  "AcquisitionMatrixPE": 80,
  "AcquisitionNumber": 1,
  "AcquisitionTime": "10:19:37.542500",
  "BandwidthPerPixelPhaseEncode": 25,
  "BaseResolution": 80,
  "BodyPartExamined": "BRAIN",
  "CoilCombinationMethod": "Sum of Squares",
  "ConsistencyInfo": "N4_VE11C_LATEST_20160120",
  "ConversionSoftware": "dcm2niix",
  "ConversionSoftwareVersion": "v1.0.20220720",
  "DerivedVendorReportedEchoSpacing": 0.0005,
  "DeviceSerialNumber": "66112",
  "DwellTime": 2.7e-06,
  "EchoTime": 0.03,
  "EchoTrainLength": 80,
  "EffectiveEchoSpacing": 0.0005,
  "FlipAngle": 77,
  "HeudiconvVersion": "0.13.1",
  "ImageOrientationPatientDICOM": [0.978411, -0.206654, -0.00253838, 0.197993, 0.933745, 0.298193],
  "ImageOrientationText": "Tra>Cor(17.0)>Sag(3.4)",
  "ImageType": [
    "ORIGINAL",
    "PRIMARY",
    "M",
    "ND",
    "NORM",
    "MOSAIC"
],
  "ImagingFrequency": 123.252,
  "InPlanePhaseEncodingDirectionDICOM": "COL",
  "InstitutionAddress": "Maynard 3,Hanover,NH,US,03755",
  "InstitutionName": "Dartmouth College - PBS",
  "InstitutionalDepartmentName": "Department",
  "MRAcquisitionType": "2D",
  "MagneticFieldStrength": 3,
  "Manufacturer": "Siemens",
  "ManufacturersModelName": "Prisma",
  "MatrixCoilMode": "SENSE",
  "Modality": "MR",
  "NonlinearGradientCorrection": false,
  "PartialFourier": 1,
  "PatientPosition": "HFS",
  "PercentPhaseFOV": 100,
  "PercentSampling": 100,
  "PhaseEncodingDirection": "j-",
  "PhaseEncodingSteps": 80,
  "PhaseResolution": 1,
  "PixelBandwidth": 2315,
  "ProcedureStepDescription": "dbic^QA",
  "ProtocolName": "func-bold_fa-77",
  "PulseSequenceDetails": "%SiemensSeq%\\ep2d_bold",
  "ReceiveCoilActiveElements": "HC1-7;NC1,2",
  "ReceiveCoilName": "HeadNeck_64",
  "ReconMatrixPE": 80,
  "RepetitionTime": 2,
  "SAR": 0.0322085,
  "ScanOptions": "FS",
  "ScanningSequence": "EP",
  "SequenceName": "*epfid2d1_80",
  "SequenceVariant": "SK",
  "SeriesDescription": "func-bold_fa-77",
  "SeriesNumber": 7,
  "ShimSetting": [4139, -7706, -7504, 148, -86, -303, -68, 101],
  "SliceThickness": 3.5,
  "SliceTiming": [0.99, 0, 1.055, 0.0675, 1.1225, 0.1325, 1.1875, 0.1975, 1.255, 0.265, 1.32, 0.33, 1.385, 0.3975, 1.4525, 0.4625, 1.5175, 0.5275, 1.585, 0.595, 1.65, 0.66, 1.715, 0.7275, 1.7825, 0.7925, 1.8475, 0.8575, 1.915, 0.925],
  "SoftwareVersions": "syngo MR E11",
  "SpacingBetweenSlices": 3.99,
  "StationName": "AWP66112",
  "TotalReadoutTime": 0.0395,
  "TxRefAmp": 222.87,
  "dcmmeta_affine": [
    [-2.935232639312744, 0.5939796566963196, 0.23641709983348846, 89.7249984741211],
    [0.6199608445167542, 2.8012351989746094, 1.1661077737808228, -142.3004608154297],
    [-0.00761514063924551, -0.894578218460083, 3.808464288711548, -22.3465633392334],
    [0.0, 0.0, 0.0, 1.0]
],
  "dcmmeta_reorient_transform": [
    [0.0, -1.0, 0.0, 79.0],
    [1.0, 0.0, 0.0, 0.0],
    [0.0, 0.0, 1.0, 0.0],
    [0.0, 0.0, 0.0, 1.0]
],
  "dcmmeta_shape": [80, 80, 30, 200],
  "dcmmeta_slice_dim": 2,
  "dcmmeta_version": 0.6,
  "global": {
    "const": {
      "AccessionNumber": "qa64",
      "AcquisitionMatrix": [80, 0, 0, 80],
      "AngioFlag": "N",
      "BitsAllocated": 16,
      "BitsStored": 12,
      "BodyPartExamined": "BRAIN",
      "Columns": 480,
      "EchoNumbers": 1,
      "EchoTime": 30.0,
      "EchoTrainLength": 80,
      "FlipAngle": 77.0,
      "HighBit": 11,
      "ImageOrientationPatient": [0.97841087546122, -0.206653612127, -0.0025383802057, 0.19799320974952, 0.9337450294591, 0.29819273776118],
      "ImagePositionPatient": [-842.49184402355, -515.25196668118, -270.41085606785],
      "ImageType": [
        "ORIGINAL",
        "PRIMARY",
        "M",
        "ND",
        "NORM",
        "MOSAIC"
],
      "ImagedNucleus": "1H",
      "ImagingFrequency": 123.252375,
      "InPlanePhaseEncodingDirection": "COL",
      "MRAcquisitionType": "2D",
      "MagneticFieldStrength": 3.0,
      "Manufacturer": "SIEMENS",
      "ManufacturerModelName": "Prisma",
      "Modality": "MR",
      "NumberOfAverages": 1.0,
      "NumberOfPhaseEncodingSteps": 80,
      "PercentPhaseFieldOfView": 100.0,
      "PercentSampling": 100.0,
      "PerformedProcedureStepStartTime": "101119.150000",
      "PhotometricInterpretation": "MONOCHROME2",
      "PixelBandwidth": 2315.0,
      "PixelRepresentation": 0,
      "PixelSpacing": [3.0, 3.0],
      "ProtocolName": "func-bold_fa-77",
      "RepetitionTime": 2000.0,
      "Rows": 480,
      "SAR": 0.03220849559884,
      "SamplesPerPixel": 1,
      "ScanOptions": "FS",
      "ScanningSequence": "EP",
      "SequenceName": "*epfid2d1_80",
      "SequenceVariant": "SK",
      "SeriesDescription": "func-bold_fa-77",
      "SeriesNumber": 7,
      "SeriesTime": "102020.448000",
      "SliceLocation": -57.601812875353,
      "SliceThickness": 3.5,
      "SmallestImagePixelValue": 0,
      "SoftwareVersions": "syngo MR E11",
      "SpacingBetweenSlices": 3.9900000015953,
      "SpecificCharacterSet": "ISO_IR 100",
      "StudyID": "7",
      "StudyTime": "101119.096000",
      "TransmitCoilName": "Body",
      "VariableFlipAngleFlag": "N",
      "WindowCenterWidthExplanation": "Algo1",
      "dBdt": 0.0},
    "slices": {}
  },
  "time": {
    "samples": {
      "AcquisitionNumber": [1, 2, 3, 4, 5, 6, 7, 8, 9, 10, 11, 12, 13, 14, 15, 16, 17, 18, 19, 20, 21, 22, 23, 24, 25, 26, 27, 28, 29, 30, 31, 32, 33, 34, 35, 36, 37, 38, 39, 40, 41, 42, 43, 44, 45, 46, 47, 48, 49, 50, 51, 52, 53, 54, 55, 56, 57, 58, 59, 60, 61, 62, 63, 64, 65, 66, 67, 68, 69, 70, 71, 72, 73, 74, 75, 76, 77, 78, 79, 80, 81, 82, 83, 84, 85, 86, 87, 88, 89, 90, 91, 92, 93, 94, 95, 96, 97, 98, 99, 100, 101, 102, 103, 104, 105, 106, 107, 108, 109, 110, 111, 112, 113, 114, 115, 116, 117, 118, 119, 120, 121, 122, 123, 124, 125, 126, 127, 128, 129, 130, 131, 132, 133, 134, 135, 136, 137, 138, 139, 140, 141, 142, 143, 144, 145, 146, 147, 148, 149, 150, 151, 152, 153, 154, 155, 156, 157, 158, 159, 160, 161, 162, 163, 164, 165, 166, 167, 168, 169, 170, 171, 172, 173, 174, 175, 176, 177, 178, 179, 180, 181, 182, 183, 184, 185, 186, 187, 188, 189, 190, 191, 192, 193, 194, 195, 196, 197, 198, 199, 200],
      "AcquisitionTime": ["101937.542500", "101939.542500", "101941.542500", "101943.542500", "101945.542500", "101947.542500", "101949.542500", "101951.542500", "101953.542500", "101955.542500", "101957.542500", "101959.542500", "102001.542500", "102003.542500", "102005.542500", "102007.542500", "102009.542500", "102011.542500", "102013.542500", "102015.542500", "102017.542500", "102019.542500", "102021.542500", "102023.542500", "102025.542500", "102027.542500", "102029.542500", "102031.542500", "102033.542500", "102035.542500", "102037.542500", "102039.542500", "102041.542500", "102043.542500", "102045.542500", "102047.542500", "102049.542500", "102051.542500", "102053.542500", "102055.542500", "102057.542500", "102059.542500", "102101.542500", "102103.542500", "102105.542500", "102107.542500", "102109.542500", "102111.542500", "102113.542500", "102115.542500", "102117.542500", "102119.542500", "102121.542500", "102123.542500", "102125.542500", "102127.542500", "102129.542500", "102131.542500", "102133.542500", "102135.542500", "102137.542500", "102139.542500", "102141.542500", "102143.542500", "102145.542500", "102147.542500", "102149.542500", "102151.542500", "102153.542500", "102155.542500", "102157.542500", "102159.542500", "102201.542500", "102203.542500", "102205.542500", "102207.542500", "102209.542500", "102211.542500", "102213.542500", "102215.542500", "102217.542500", "102219.542500", "102221.542500", "102223.542500", "102225.542500", "102227.542500", "102229.542500", "102231.542500", "102233.542500", "102235.542500", "102237.542500", "102239.542500", "102241.542500", "102243.542500", "102245.542500", "102247.542500", "102249.542500", "102251.542500", "102253.542500", "102255.542500", "102257.542500", "102259.542500", "102301.542500", "102303.542500", "102305.542500", "102307.542500", "102309.542500", "102311.542500", "102313.542500", "102315.542500", "102317.542500", "102319.542500", "102321.542500", "102323.542500", "102325.542500", "102327.542500", "102329.542500", "102331.542500", "102333.542500", "102335.542500", "102337.542500", "102339.542500", "102341.542500", "102343.542500", "102345.542500", "102347.542500", "102349.542500", "102351.542500", "102353.542500", "102355.542500", "102357.542500", "102359.542500", "102401.542500", "102403.542500", "102405.542500", "102407.542500", "102409.542500", "102411.542500", "102413.542500", "102415.542500", "102417.542500", "102419.542500", "102421.542500", "102423.542500", "102425.542500", "102427.542500", "102429.542500", "102431.542500", "102433.542500", "102435.542500", "102437.542500", "102439.542500", "102441.542500", "102443.542500", "102445.542500", "102447.542500", "102449.542500", "102451.542500", "102453.542500", "102455.542500", "102457.542500", "102459.542500", "102501.542500", "102503.542500", "102505.542500", "102507.542500", "102509.542500", "102511.542500", "102513.542500", "102515.542500", "102517.542500", "102519.542500", "102521.542500", "102523.542500", "102525.542500", "102527.542500", "102529.542500", "102531.542500", "102533.542500", "102535.542500", "102537.542500", "102539.542500", "102541.542500", "102543.542500", "102545.542500", "102547.542500", "102549.542500", "102551.542500", "102553.542500", "102555.542500", "102557.542500", "102559.542500", "102601.542500", "102603.542500", "102605.542500", "102607.542500", "102609.542500", "102611.542500", "102613.542500", "102615.542500"],
      "ContentTime": ["102020.451000", "102020.455000", "102020.457000", "102020.460000", "102020.462000", "102020.465000", "102020.467000", "102020.470000", "102020.472000", "102020.474000", "102020.477000", "102020.479000", "102020.482000", "102020.484000", "102020.487000", "102020.489000", "102020.492000", "102020.494000", "102020.497000", "102020.499000", "102020.501000", "102100.445000", "102100.448000", "102100.451000", "102100.453000", "102100.456000", "102100.458000", "102100.461000", "102100.463000", "102100.466000", "102100.468000", "102100.471000", "102100.473000", "102100.476000", "102100.478000", "102100.480000", "102100.483000", "102100.485000", "102100.488000", "102100.490000", "102100.493000", "102140.446000", "102140.448000", "102140.451000", "102140.453000", "102140.456000", "102140.458000", "102140.461000", "102140.463000", "102140.466000", "102140.468000", "102140.471000", "102140.473000", "102140.476000", "102140.478000", "102140.481000", "102140.483000", "102140.486000", "102140.488000", "102140.491000", "102140.493000", "102220.446000", "102220.449000", "102220.452000", "102220.454000", "102220.457000", "102220.459000", "102220.462000", "102220.464000", "102220.467000", "102220.469000", "102220.472000", "102220.475000", "102220.477000", "102220.480000", "102220.482000", "102220.484000", "102220.487000", "102220.489000", "102220.492000", "102220.494000", "102300.446000", "102300.449000", "102300.452000", "102300.454000", "102300.457000", "102300.459000", "102300.462000", "102300.464000", "102300.467000", "102300.469000", "102300.472000", "102300.474000", "102300.477000", "102300.479000", "102300.482000", "102300.484000", "102300.487000", "102300.489000", "102300.492000", "102300.494000", "102340.445000", "102340.448000", "102340.451000", "102340.453000", "102340.456000", "102340.458000", "102340.461000", "102340.476000", "102340.478000", "102340.481000", "102340.483000", "102340.486000", "102340.488000", "102340.491000", "102340.493000", "102340.496000", "102340.498000", "102340.501000", "102340.503000", "102340.505000", "102420.445000", "102420.448000", "102420.451000", "102420.453000", "102420.456000", "102420.458000", "102420.461000", "102420.463000", "102420.466000", "102420.468000", "102420.471000", "102420.473000", "102420.476000", "102420.478000", "102420.481000", "102420.483000", "102420.486000", "102420.488000", "102420.491000", "102420.493000", "102500.446000", "102500.449000", "102500.452000", "102500.454000", "102500.457000", "102500.459000", "102500.462000", "102500.464000", "102500.467000", "102500.469000", "102500.472000", "102500.474000", "102500.477000", "102500.479000", "102500.482000", "102500.484000", "102500.487000", "102500.489000", "102500.492000", "102500.494000", "102540.445000", "102540.448000", "102540.451000", "102540.453000", "102540.456000", "102540.458000", "102540.461000", "102540.463000", "102540.466000", "102540.468000", "102540.471000", "102540.473000", "102540.476000", "102540.478000", "102540.481000", "102540.483000", "102540.486000", "102540.488000", "102540.491000", "102540.493000", "102617.325000", "102617.328000", "102617.331000", "102617.333000", "102617.336000", "102617.338000", "102617.341000", "102617.343000", "102617.346000", "102617.348000", "102617.351000", "102617.353000", "102617.362000", "102617.365000", "102617.375000", "102617.378000", "102617.385000", "102617.388000", "102617.391000"],
      "InstanceCreationTime": ["102020.451000", "102020.455000", "102020.457000", "102020.460000", "102020.462000", "102020.465000", "102020.467000", "102020.470000", "102020.472000", "102020.474000", "102020.477000", "102020.479000", "102020.482000", "102020.484000", "102020.487000", "102020.489000", "102020.492000", "102020.494000", "102020.497000", "102020.499000", "102020.501000", "102100.445000", "102100.448000", "102100.451000", "102100.453000", "102100.456000", "102100.458000", "102100.461000", "102100.463000", "102100.466000", "102100.468000", "102100.471000", "102100.473000", "102100.476000", "102100.478000", "102100.480000", "102100.483000", "102100.485000", "102100.488000", "102100.490000", "102100.493000", "102140.446000", "102140.448000", "102140.451000", "102140.453000", "102140.456000", "102140.458000", "102140.461000", "102140.463000", "102140.466000", "102140.468000", "102140.471000", "102140.473000", "102140.476000", "102140.478000", "102140.481000", "102140.483000", "102140.486000", "102140.488000", "102140.491000", "102140.493000", "102220.446000", "102220.449000", "102220.452000", "102220.454000", "102220.457000", "102220.459000", "102220.462000", "102220.464000", "102220.467000", "102220.469000", "102220.472000", "102220.475000", "102220.477000", "102220.480000", "102220.482000", "102220.484000", "102220.487000", "102220.489000", "102220.492000", "102220.494000", "102300.446000", "102300.449000", "102300.452000", "102300.454000", "102300.457000", "102300.459000", "102300.462000", "102300.464000", "102300.467000", "102300.469000", "102300.472000", "102300.474000", "102300.477000", "102300.479000", "102300.482000", "102300.484000", "102300.487000", "102300.489000", "102300.492000", "102300.494000", "102340.445000", "102340.448000", "102340.451000", "102340.453000", "102340.456000", "102340.458000", "102340.461000", "102340.476000", "102340.478000", "102340.481000", "102340.483000", "102340.486000", "102340.488000", "102340.491000", "102340.493000", "102340.496000", "102340.498000", "102340.501000", "102340.503000", "102340.505000", "102420.445000", "102420.448000", "102420.451000", "102420.453000", "102420.456000", "102420.458000", "102420.461000", "102420.463000", "102420.466000", "102420.468000", "102420.471000", "102420.473000", "102420.476000", "102420.478000", "102420.481000", "102420.483000", "102420.486000", "102420.488000", "102420.491000", "102420.493000", "102500.446000", "102500.449000", "102500.452000", "102500.454000", "102500.457000", "102500.459000", "102500.462000", "102500.464000", "102500.467000", "102500.469000", "102500.472000", "102500.474000", "102500.477000", "102500.479000", "102500.482000", "102500.484000", "102500.487000", "102500.489000", "102500.492000", "102500.494000", "102540.445000", "102540.448000", "102540.451000", "102540.453000", "102540.456000", "102540.458000", "102540.461000", "102540.463000", "102540.466000", "102540.468000", "102540.471000", "102540.473000", "102540.476000", "102540.478000", "102540.481000", "102540.483000", "102540.486000", "102540.488000", "102540.491000", "102540.493000", "102617.325000", "102617.328000", "102617.331000", "102617.333000", "102617.336000", "102617.338000", "102617.341000", "102617.343000", "102617.346000", "102617.348000", "102617.351000", "102617.353000", "102617.362000", "102617.365000", "102617.375000", "102617.378000", "102617.385000", "102617.388000", "102617.391000"],
      "InstanceNumber": [1, 2, 3, 4, 5, 6, 7, 8, 9, 10, 11, 12, 13, 14, 15, 16, 17, 18, 19, 20, 21, 22, 23, 24, 25, 26, 27, 28, 29, 30, 31, 32, 33, 34, 35, 36, 37, 38, 39, 40, 41, 42, 43, 44, 45, 46, 47, 48, 49, 50, 51, 52, 53, 54, 55, 56, 57, 58, 59, 60, 61, 62, 63, 64, 65, 66, 67, 68, 69, 70, 71, 72, 73, 74, 75, 76, 77, 78, 79, 80, 81, 82, 83, 84, 85, 86, 87, 88, 89, 90, 91, 92, 93, 94, 95, 96, 97, 98, 99, 100, 101, 102, 103, 104, 105, 106, 107, 108, 109, 110, 111, 112, 113, 114, 115, 116, 117, 118, 119, 120, 121, 122, 123, 124, 125, 126, 127, 128, 129, 130, 131, 132, 133, 134, 135, 136, 137, 138, 139, 140, 141, 142, 143, 144, 145, 146, 147, 148, 149, 150, 151, 152, 153, 154, 155, 156, 157, 158, 159, 160, 161, 162, 163, 164, 165, 166, 167, 168, 169, 170, 171, 172, 173, 174, 175, 176, 177, 178, 179, 180, 181, 182, 183, 184, 185, 186, 187, 188, 189, 190, 191, 192, 193, 194, 195, 196, 197, 198, 199, 200],
      "LargestImagePixelValue": [3865, 3860, 3861, 3857, 3862, 3862, 3860, 3859, 3856, 3861, 3861, 3858, 3863, 3855, 3859, 3858, 3858, 3859, 3857, 3857, 3865, 3856, 3864, 3860, 3860, 3861, 3861, 3859, 3859, 3857, 3859, 3860, 3859, 3861, 3863, 3861, 3864, 3860, 3861, 3862, 3863, 3863, 3860, 3858, 3860, 3861, 3861, 3856, 3860, 3861, 3858, 3860, 3859, 3859, 3858, 3860, 3860, 3857, 3855, 3859, 3856, 3858, 3855, 3852, 3856, 3855, 3856, 3853, 3860, 3856, 3858, 3861, 3859, 3858, 3853, 3857, 3861, 3856, 3853, 3854, 3856, 3859, 3857, 3859, 3857, 3858, 3856, 3854, 3852, 3853, 3856, 3853, 3858, 3854, 3856, 3852, 3855, 3851, 3856, 3857, 3857, 3853, 3857, 3854, 3855, 3856, 3851, 3854, 3851, 3854, 3855, 3854, 3854, 3854, 3852, 3850, 3849, 3854, 3853, 3853, 3851, 3851, 3857, 3855, 3852, 3851, 3855, 3851, 3854, 3854, 3853, 3854, 3851, 3851, 3850, 3852, 3848, 3848, 3855, 3851, 3854, 3854, 3853, 3853, 3848, 3853, 3853, 3849, 3850, 3855, 3855, 3858, 3856, 3854, 3853, 3850, 3848, 3851, 3853, 3851, 3848, 3851, 3856, 3849, 3854, 3849, 3848, 3849, 3849, 3851, 3850, 3851, 3848, 3853, 3851, 3851, 3850, 3848, 3846, 3845, 3850, 3847, 3850, 3848, 3844, 3847, 3847, 3849, 3848, 3850, 3847, 3848, 3849, 3847, 3845, 3850, 3850, 3851, 3850, 3848],
      "WindowCenter": [1371.0, 1371.0, 1371.0, 1371.0, 1371.0, 1371.0, 1371.0, 1371.0, 1371.0, 1371.0, 1371.0, 1371.0, 1371.0, 1371.0, 1370.0, 1370.0, 1370.0, 1371.0, 1370.0, 1371.0, 1370.0, 1370.0, 1370.0, 1370.0, 1370.0, 1370.0, 1371.0, 1371.0, 1371.0, 1370.0, 1370.0, 1370.0, 1370.0, 1370.0, 1370.0, 1370.0, 1370.0, 1370.0, 1370.0, 1371.0, 1370.0, 1370.0, 1370.0, 1370.0, 1370.0, 1370.0, 1370.0, 1370.0, 1370.0, 1370.0, 1369.0, 1370.0, 1370.0, 1370.0, 1370.0, 1370.0, 1370.0, 1369.0, 1369.0, 1369.0, 1369.0, 1369.0, 1369.0, 1369.0, 1369.0, 1369.0, 1370.0, 1369.0, 1369.0, 1369.0, 1369.0, 1369.0, 1369.0, 1369.0, 1369.0, 1369.0, 1368.0, 1369.0, 1369.0, 1369.0, 1369.0, 1369.0, 1369.0, 1369.0, 1369.0, 1369.0, 1368.0, 1368.0, 1368.0, 1368.0, 1369.0, 1369.0, 1369.0, 1368.0, 1368.0, 1368.0, 1368.0, 1368.0, 1368.0, 1368.0, 1368.0, 1368.0, 1368.0, 1368.0, 1368.0, 1368.0, 1368.0, 1368.0, 1368.0, 1368.0, 1368.0, 1368.0, 1368.0, 1368.0, 1368.0, 1368.0, 1367.0, 1368.0, 1368.0, 1368.0, 1368.0, 1367.0, 1367.0, 1367.0, 1367.0, 1367.0, 1367.0, 1367.0, 1367.0, 1367.0, 1367.0, 1367.0, 1367.0, 1367.0, 1367.0, 1367.0, 1367.0, 1366.0, 1367.0, 1367.0, 1367.0, 1367.0, 1367.0, 1366.0, 1367.0, 1367.0, 1367.0, 1367.0, 1366.0, 1366.0, 1367.0, 1366.0, 1367.0, 1367.0, 1367.0, 1367.0, 1366.0, 1367.0, 1366.0, 1367.0, 1367.0, 1366.0, 1366.0, 1366.0, 1366.0, 1366.0, 1367.0, 1366.0, 1366.0, 1366.0, 1366.0, 1366.0, 1366.0, 1366.0, 1366.0, 1366.0, 1366.0, 1366.0, 1366.0, 1366.0, 1366.0, 1367.0, 1366.0, 1366.0, 1366.0, 1366.0, 1366.0, 1366.0, 1366.0, 1366.0, 1366.0, 1366.0, 1366.0, 1366.0, 1366.0, 1365.0, 1365.0, 1365.0, 1366.0, 1365.0],
      "WindowWidth": [3254.0, 3254.0, 3254.0, 3254.0, 3254.0, 3254.0, 3253.0, 3253.0, 3253.0, 3253.0, 3253.0, 3253.0, 3252.0, 3253.0, 3253.0, 3253.0, 3253.0, 3252.0, 3253.0, 3252.0, 3252.0, 3252.0, 3253.0, 3253.0, 3252.0, 3252.0, 3252.0, 3252.0, 3252.0, 3253.0, 3253.0, 3253.0, 3253.0, 3253.0, 3253.0, 3253.0, 3253.0, 3253.0, 3253.0, 3252.0, 3253.0, 3252.0, 3252.0, 3252.0, 3253.0, 3252.0, 3253.0, 3252.0, 3252.0, 3252.0, 3252.0, 3252.0, 3252.0, 3252.0, 3252.0, 3252.0, 3252.0, 3252.0, 3252.0, 3252.0, 3251.0, 3251.0, 3252.0, 3251.0, 3251.0, 3251.0, 3251.0, 3251.0, 3251.0, 3251.0, 3251.0, 3251.0, 3252.0, 3251.0, 3251.0, 3251.0, 3251.0, 3251.0, 3251.0, 3251.0, 3251.0, 3251.0, 3251.0, 3251.0, 3251.0, 3251.0, 3251.0, 3251.0, 3251.0, 3251.0, 3250.0, 3250.0, 3250.0, 3251.0, 3251.0, 3251.0, 3251.0, 3250.0, 3250.0, 3250.0, 3250.0, 3250.0, 3250.0, 3250.0, 3251.0, 3250.0, 3250.0, 3250.0, 3250.0, 3250.0, 3250.0, 3250.0, 3250.0, 3250.0, 3250.0, 3249.0, 3249.0, 3249.0, 3249.0, 3249.0, 3249.0, 3249.0, 3249.0, 3249.0, 3249.0, 3250.0, 3249.0, 3249.0, 3249.0, 3249.0, 3249.0, 3249.0, 3249.0, 3249.0, 3249.0, 3248.0, 3249.0, 3249.0, 3249.0, 3249.0, 3249.0, 3249.0, 3248.0, 3249.0, 3249.0, 3248.0, 3248.0, 3248.0, 3249.0, 3249.0, 3248.0, 3249.0, 3248.0, 3248.0, 3248.0, 3248.0, 3249.0, 3248.0, 3248.0, 3248.0, 3248.0, 3248.0, 3248.0, 3248.0, 3248.0, 3248.0, 3248.0, 3248.0, 3248.0, 3248.0, 3248.0, 3248.0, 3248.0, 3248.0, 3248.0, 3248.0, 3248.0, 3248.0, 3248.0, 3248.0, 3247.0, 3248.0, 3248.0, 3247.0, 3247.0, 3247.0, 3247.0, 3247.0, 3247.0, 3247.0, 3247.0, 3247.0, 3247.0, 3247.0, 3247.0, 3247.0, 3247.0, 3247.0, 3247.0, 3247.0]
    },
    "slices": {}
  }
}