{
  "AcquisitionMatrixPE": 80,
  "AcquisitionNumber": 1,
  "AcquisitionTime": "10:26:24.860000",
  "BandwidthPerPixelPhaseEncode": 25,
  "BaseResolution": 80,
  "BodyPartExamined": "BRAIN",
  "CoilCombinationMethod": "Sum of Squares",
  "ConsistencyInfo": "N4_VE11C_LATEST_20160120",
  "ConversionSoftware": "dcm2niix",
  "ConversionSoftwareVersion": "v1.0.20220720",
  "DerivedVendorReportedEchoSpacing": 0.0005,
  "DeviceSerialNumber": "66112",
  "DwellTime": 2.7e-06,
  "EchoTime": 0.03,
  "EchoTrainLength": 80,
  "EffectiveEchoSpacing": 0.0005,
  "FlipAngle": 10,
  "HeudiconvVersion": "0.13.1",
  "ImageOrientationPatientDICOM": [0.978411, -0.206654, -0.00253838, 0.197993, 0.933745, 0.298193],
  "ImageOrientationText": "Tra>Cor(17.0)>Sag(3.4)",
  "ImageType": [
    "ORIGINAL",
    "PRIMARY",
    "M",
    "ND",
    "NORM",
    "MOSAIC"
],
  "ImagingFrequency": 123.252,
  "InPlanePhaseEncodingDirectionDICOM": "COL",
  "InstitutionAddress": "Maynard 3,Hanover,NH,US,03755",
  "InstitutionName": "Dartmouth College - PBS",
  "InstitutionalDepartmentName": "Department",
  "MRAcquisitionType": "2D",
  "MagneticFieldStrength": 3,
  "Manufacturer": "Siemens",
  "ManufacturersModelName": "Prisma",
  "MatrixCoilMode": "SENSE",
  "Modality": "MR",
  "NonlinearGradientCorrection": false,
  "PartialFourier": 1,
  "PatientPosition": "HFS",
  "PercentPhaseFOV": 100,
  "PercentSampling": 100,
  "PhaseEncodingDirection": "j-",
  "PhaseEncodingSteps": 80,
  "PhaseResolution": 1,
  "PixelBandwidth": 2315,
  "ProcedureStepDescription": "dbic^QA",
  "ProtocolName": "func-bold_fa-10",
  "PulseSequenceDetails": "%SiemensSeq%\\ep2d_bold",
  "ReceiveCoilActiveElements": "HC1-7;NC1,2",
  "ReceiveCoilName": "HeadNeck_64",
  "ReconMatrixPE": 80,
  "RepetitionTime": 2,
  "SAR": 0.0086399,
  "ScanOptions": "FS",
  "ScanningSequence": "EP",
  "SequenceName": "*epfid2d1_80",
  "SequenceVariant": "SK",
  "SeriesDescription": "func-bold_fa-10",
  "SeriesNumber": 9,
  "ShimSetting": [4139, -7706, -7504, 148, -86, -303, -68, 101],
  "SliceThickness": 3.5,
  "SliceTiming": [0.99, 0, 1.0575, 0.0675, 1.1225, 0.1325, 1.1875, 0.1975, 1.255, 0.265, 1.32, 0.33, 1.3875, 0.3975, 1.4525, 0.4625, 1.5175, 0.5275, 1.585, 0.595, 1.65, 0.66, 1.715, 0.7275, 1.7825, 0.7925, 1.8475, 0.8575, 1.915, 0.925],
  "SoftwareVersions": "syngo MR E11",
  "SpacingBetweenSlices": 3.99,
  "StationName": "AWP66112",
  "TotalReadoutTime": 0.0395,
  "TxRefAmp": 222.87,
  "dcmmeta_affine": [
    [-2.935232639312744, 0.5939796566963196, 0.23641709983348846, 89.7249984741211],
    [0.6199608445167542, 2.8012351989746094, 1.1661077737808228, -142.3004608154297],
    [-0.00761514063924551, -0.894578218460083, 3.808464288711548, -22.3465633392334],
    [0.0, 0.0, 0.0, 1.0]
],
  "dcmmeta_reorient_transform": [
    [0.0, -1.0, 0.0, 79.0],
    [1.0, 0.0, 0.0, 0.0],
    [0.0, 0.0, 1.0, 0.0],
    [0.0, 0.0, 0.0, 1.0]
],
  "dcmmeta_shape": [80, 80, 30, 200],
  "dcmmeta_slice_dim": 2,
  "dcmmeta_version": 0.6,
  "global": {
    "const": {
      "AccessionNumber": "qa64",
      "AcquisitionMatrix": [80, 0, 0, 80],
      "AngioFlag": "N",
      "BitsAllocated": 16,
      "BitsStored": 12,
      "BodyPartExamined": "BRAIN",
      "Columns": 480,
      "EchoNumbers": 1,
      "EchoTime": 30.0,
      "EchoTrainLength": 80,
      "FlipAngle": 10.0,
      "HighBit": 11,
      "ImageOrientationPatient": [0.97841087546122, -0.206653612127, -0.0025383802057, 0.19799320974952, 0.9337450294591, 0.29819273776118],
      "ImagePositionPatient": [-842.49184402355, -515.25196668118, -270.41085606785],
      "ImageType": [
        "ORIGINAL",
        "PRIMARY",
        "M",
        "ND",
        "NORM",
        "MOSAIC"
],
      "ImagedNucleus": "1H",
      "ImagingFrequency": 123.252379,
      "InPlanePhaseEncodingDirection": "COL",
      "MRAcquisitionType": "2D",
      "MagneticFieldStrength": 3.0,
      "Manufacturer": "SIEMENS",
      "ManufacturerModelName": "Prisma",
      "Modality": "MR",
      "NumberOfAverages": 1.0,
      "NumberOfPhaseEncodingSteps": 80,
      "PercentPhaseFieldOfView": 100.0,
      "PercentSampling": 100.0,
      "PerformedProcedureStepStartTime": "101119.150000",
      "PhotometricInterpretation": "MONOCHROME2",
      "PixelBandwidth": 2315.0,
      "PixelRepresentation": 0,
      "PixelSpacing": [3.0, 3.0],
      "ProtocolName": "func-bold_fa-10",
      "RepetitionTime": 2000.0,
      "Rows": 480,
      "SAR": 0.00863990073468,
      "SamplesPerPixel": 1,
      "ScanOptions": "FS",
      "ScanningSequence": "EP",
      "SequenceName": "*epfid2d1_80",
      "SequenceVariant": "SK",
      "SeriesDescription": "func-bold_fa-10",
      "SeriesNumber": 9,
      "SeriesTime": "102640.305000",
      "SliceLocation": -57.601812875353,
      "SliceThickness": 3.5,
      "SmallestImagePixelValue": 0,
      "SoftwareVersions": "syngo MR E11",
      "SpacingBetweenSlices": 3.9900000015953,
      "SpecificCharacterSet": "ISO_IR 100",
      "StudyID": "7",
      "StudyTime": "101119.096000",
      "TransmitCoilName": "Body",
      "VariableFlipAngleFlag": "N",
      "WindowCenterWidthExplanation": "Algo1",
      "dBdt": 0.0},
    "slices": {}
  },
  "time": {
    "samples": {
      "AcquisitionNumber": [1, 2, 3, 4, 5, 6, 7, 8, 9, 10, 11, 12, 13, 14, 15, 16, 17, 18, 19, 20, 21, 22, 23, 24, 25, 26, 27, 28, 29, 30, 31, 32, 33, 34, 35, 36, 37, 38, 39, 40, 41, 42, 43, 44, 45, 46, 47, 48, 49, 50, 51, 52, 53, 54, 55, 56, 57, 58, 59, 60, 61, 62, 63, 64, 65, 66, 67, 68, 69, 70, 71, 72, 73, 74, 75, 76, 77, 78, 79, 80, 81, 82, 83, 84, 85, 86, 87, 88, 89, 90, 91, 92, 93, 94, 95, 96, 97, 98, 99, 100, 101, 102, 103, 104, 105, 106, 107, 108, 109, 110, 111, 112, 113, 114, 115, 116, 117, 118, 119, 120, 121, 122, 123, 124, 125, 126, 127, 128, 129, 130, 131, 132, 133, 134, 135, 136, 137, 138, 139, 140, 141, 142, 143, 144, 145, 146, 147, 148, 149, 150, 151, 152, 153, 154, 155, 156, 157, 158, 159, 160, 161, 162, 163, 164, 165, 166, 167, 168, 169, 170, 171, 172, 173, 174, 175, 176, 177, 178, 179, 180, 181, 182, 183, 184, 185, 186, 187, 188, 189, 190, 191, 192, 193, 194, 195, 196, 197, 198, 199, 200],
      "AcquisitionTime": ["102624.860000", "102626.860000", "102628.860000", "102630.860000", "102632.860000", "102634.860000", "102636.860000", "102638.860000", "102640.860000", "102642.860000", "102644.860000", "102646.860000", "102648.860000", "102650.860000", "102652.860000", "102654.860000", "102656.860000", "102658.860000", "102700.860000", "102702.860000", "102704.860000", "102706.860000", "102708.860000", "102710.860000", "102712.860000", "102714.860000", "102716.860000", "102718.860000", "102720.860000", "102722.860000", "102724.860000", "102726.860000", "102728.860000", "102730.860000", "102732.860000", "102734.860000", "102736.860000", "102738.860000", "102740.860000", "102742.860000", "102744.860000", "102746.860000", "102748.860000", "102750.860000", "102752.860000", "102754.860000", "102756.860000", "102758.860000", "102800.860000", "102802.860000", "102804.860000", "102806.860000", "102808.860000", "102810.860000", "102812.860000", "102814.860000", "102816.860000", "102818.860000", "102820.860000", "102822.860000", "102824.860000", "102826.860000", "102828.860000", "102830.860000", "102832.860000", "102834.860000", "102836.860000", "102838.860000", "102840.860000", "102842.860000", "102844.860000", "102846.860000", "102848.860000", "102850.860000", "102852.860000", "102854.860000", "102856.860000", "102858.860000", "102900.860000", "102902.860000", "102904.860000", "102906.860000", "102908.860000", "102910.860000", "102912.860000", "102914.860000", "102916.860000", "102918.860000", "102920.860000", "102922.860000", "102924.860000", "102926.860000", "102928.860000", "102930.860000", "102932.860000", "102934.860000", "102936.860000", "102938.860000", "102940.860000", "102942.860000", "102944.860000", "102946.860000", "102948.860000", "102950.860000", "102952.860000", "102954.860000", "102956.860000", "102958.860000", "103000.860000", "103002.860000", "103004.860000", "103006.860000", "103008.860000", "103010.860000", "103012.860000", "103014.860000", "103016.860000", "103018.860000", "103020.860000", "103022.860000", "103024.860000", "103026.860000", "103028.860000", "103030.860000", "103032.860000", "103034.860000", "103036.860000", "103038.860000", "103040.860000", "103042.860000", "103044.860000", "103046.860000", "103048.860000", "103050.860000", "103052.860000", "103054.860000", "103056.860000", "103058.860000", "103100.860000", "103102.860000", "103104.860000", "103106.860000", "103108.860000", "103110.860000", "103112.860000", "103114.860000", "103116.860000", "103118.860000", "103120.860000", "103122.860000", "103124.860000", "103126.860000", "103128.860000", "103130.860000", "103132.860000", "103134.860000", "103136.860000", "103138.860000", "103140.860000", "103142.860000", "103144.860000", "103146.860000", "103148.860000", "103150.860000", "103152.860000", "103154.860000", "103156.860000", "103158.860000", "103200.860000", "103202.860000", "103204.860000", "103206.860000", "103208.860000", "103210.860000", "103212.860000", "103214.860000", "103216.860000", "103218.860000", "103220.860000", "103222.860000", "103224.860000", "103226.860000", "103228.860000", "103230.860000", "103232.860000", "103234.860000", "103236.860000", "103238.860000", "103240.860000", "103242.860000", "103244.860000", "103246.860000", "103248.860000", "103250.860000", "103252.860000", "103254.860000", "103256.860000", "103258.860000", "103300.860000", "103302.860000"],
      "ContentTime": ["102640.308000", "102640.311000", "102640.314000", "102640.316000", "102640.319000", "102640.321000", "102640.324000", "102720.304000", "102720.307000", "102720.310000", "102720.312000", "102720.315000", "102720.317000", "102720.320000", "102720.323000", "102720.325000", "102720.328000", "102720.336000", "102720.338000", "102720.341000", "102720.343000", "102720.346000", "102720.348000", "102720.351000", "102720.353000", "102720.356000", "102720.358000", "102800.302000", "102800.305000", "102800.308000", "102800.310000", "102800.313000", "102800.315000", "102800.318000", "102800.320000", "102800.323000", "102800.325000", "102800.327000", "102800.330000", "102800.332000", "102800.335000", "102800.337000", "102800.340000", "102800.342000", "102800.345000", "102800.347000", "102800.350000", "102800.352000", "102840.303000", "102840.306000", "102840.308000", "102840.311000", "102840.313000", "102840.316000", "102840.318000", "102840.321000", "102840.323000", "102840.329000", "102840.331000", "102840.334000", "102840.336000", "102840.339000", "102840.341000", "102840.344000", "102840.346000", "102840.349000", "102840.351000", "102840.354000", "102920.303000", "102920.306000", "102920.308000", "102920.311000", "102920.314000", "102920.316000", "102920.318000", "102920.321000", "102920.323000", "102920.326000", "102920.328000", "102920.331000", "102920.333000", "102920.336000", "102920.338000", "102920.341000", "102920.343000", "102920.346000", "102920.348000", "102920.351000", "103000.304000", "103000.306000", "103000.309000", "103000.311000", "103000.314000", "103000.316000", "103000.319000", "103000.321000", "103000.324000", "103000.326000", "103000.329000", "103000.331000", "103000.334000", "103000.336000", "103000.353000", "103000.356000", "103000.358000", "103000.361000", "103000.363000", "103000.366000", "103040.313000", "103040.316000", "103040.319000", "103040.321000", "103040.324000", "103040.326000", "103040.328000", "103040.331000", "103040.333000", "103040.336000", "103040.338000", "103040.341000", "103040.343000", "103040.346000", "103040.348000", "103040.351000", "103040.353000", "103040.356000", "103040.358000", "103040.361000", "103120.302000", "103120.305000", "103120.308000", "103120.310000", "103120.312000", "103120.315000", "103120.317000", "103120.320000", "103120.323000", "103120.325000", "103120.327000", "103120.330000", "103120.332000", "103120.335000", "103120.337000", "103120.340000", "103120.342000", "103120.345000", "103120.347000", "103120.350000", "103200.303000", "103200.306000", "103200.309000", "103200.311000", "103200.314000", "103200.316000", "103200.319000", "103200.321000", "103200.324000", "103200.326000", "103200.329000", "103200.331000", "103200.333000", "103200.336000", "103200.338000", "103200.341000", "103200.343000", "103200.346000", "103200.348000", "103200.351000", "103240.302000", "103240.305000", "103240.308000", "103240.310000", "103240.313000", "103240.315000", "103240.318000", "103240.320000", "103240.323000", "103240.325000", "103240.328000", "103240.330000", "103240.333000", "103240.335000", "103240.338000", "103240.340000", "103240.343000", "103240.345000", "103240.348000", "103240.350000", "103304.267000", "103304.270000", "103304.272000", "103304.275000", "103304.277000", "103304.280000", "103304.282000", "103304.285000", "103304.287000", "103304.290000", "103304.292000", "103304.295000"],
      "InstanceCreationTime": ["102640.308000", "102640.311000", "102640.314000", "102640.316000", "102640.319000", "102640.321000", "102640.324000", "102720.304000", "102720.307000", "102720.310000", "102720.312000", "102720.315000", "102720.317000", "102720.320000", "102720.323000", "102720.325000", "102720.328000", "102720.336000", "102720.338000", "102720.341000", "102720.343000", "102720.346000", "102720.348000", "102720.351000", "102720.353000", "102720.356000", "102720.358000", "102800.302000", "102800.305000", "102800.308000", "102800.310000", "102800.313000", "102800.315000", "102800.318000", "102800.320000", "102800.323000", "102800.325000", "102800.327000", "102800.330000", "102800.332000", "102800.335000", "102800.337000", "102800.340000", "102800.342000", "102800.345000", "102800.347000", "102800.350000", "102800.352000", "102840.303000", "102840.306000", "102840.308000", "102840.311000", "102840.313000", "102840.316000", "102840.318000", "102840.321000", "102840.323000", "102840.329000", "102840.331000", "102840.334000", "102840.336000", "102840.339000", "102840.341000", "102840.344000", "102840.346000", "102840.349000", "102840.351000", "102840.354000", "102920.303000", "102920.306000", "102920.308000", "102920.311000", "102920.314000", "102920.316000", "102920.318000", "102920.321000", "102920.323000", "102920.326000", "102920.328000", "102920.331000", "102920.333000", "102920.336000", "102920.338000", "102920.341000", "102920.343000", "102920.346000", "102920.348000", "102920.351000", "103000.304000", "103000.306000", "103000.309000", "103000.311000", "103000.314000", "103000.316000", "103000.319000", "103000.321000", "103000.324000", "103000.326000", "103000.329000", "103000.331000", "103000.334000", "103000.336000", "103000.353000", "103000.356000", "103000.358000", "103000.361000", "103000.363000", "103000.366000", "103040.313000", "103040.316000", "103040.319000", "103040.321000", "103040.324000", "103040.326000", "103040.328000", "103040.331000", "103040.333000", "103040.336000", "103040.338000", "103040.341000", "103040.343000", "103040.346000", "103040.348000", "103040.351000", "103040.353000", "103040.356000", "103040.358000", "103040.361000", "103120.302000", "103120.305000", "103120.308000", "103120.310000", "103120.312000", "103120.315000", "103120.317000", "103120.320000", "103120.323000", "103120.325000", "103120.327000", "103120.330000", "103120.332000", "103120.335000", "103120.337000", "103120.340000", "103120.342000", "103120.345000", "103120.347000", "103120.350000", "103200.303000", "103200.306000", "103200.309000", "103200.311000", "103200.314000", "103200.316000", "103200.319000", "103200.321000", "103200.324000", "103200.326000", "103200.329000", "103200.331000", "103200.333000", "103200.336000", "103200.338000", "103200.341000", "103200.343000", "103200.346000", "103200.348000", "103200.351000", "103240.302000", "103240.305000", "103240.308000", "103240.310000", "103240.313000", "103240.315000", "103240.318000", "103240.320000", "103240.323000", "103240.325000", "103240.328000", "103240.330000", "103240.333000", "103240.335000", "103240.338000", "103240.340000", "103240.343000", "103240.345000", "103240.348000", "103240.350000", "103304.267000", "103304.270000", "103304.272000", "103304.275000", "103304.277000", "103304.280000", "103304.282000", "103304.285000", "103304.287000", "103304.290000", "103304.292000", "103304.295000"],
      "InstanceNumber": [1, 2, 3, 4, 5, 6, 7, 8, 9, 10, 11, 12, 13, 14, 15, 16, 17, 18, 19, 20, 21, 22, 23, 24, 25, 26, 27, 28, 29, 30, 31, 32, 33, 34, 35, 36, 37, 38, 39, 40, 41, 42, 43, 44, 45, 46, 47, 48, 49, 50, 51, 52, 53, 54, 55, 56, 57, 58, 59, 60, 61, 62, 63, 64, 65, 66, 67, 68, 69, 70, 71, 72, 73, 74, 75, 76, 77, 78, 79, 80, 81, 82, 83, 84, 85, 86, 87, 88, 89, 90, 91, 92, 93, 94, 95, 96, 97, 98, 99, 100, 101, 102, 103, 104, 105, 106, 107, 108, 109, 110, 111, 112, 113, 114, 115, 116, 117, 118, 119, 120, 121, 122, 123, 124, 125, 126, 127, 128, 129, 130, 131, 132, 133, 134, 135, 136, 137, 138, 139, 140, 141, 142, 143, 144, 145, 146, 147, 148, 149, 150, 151, 152, 153, 154, 155, 156, 157, 158, 159, 160, 161, 162, 163, 164, 165, 166, 167, 168, 169, 170, 171, 172, 173, 174, 175, 176, 177, 178, 179, 180, 181, 182, 183, 184, 185, 186, 187, 188, 189, 190, 191, 192, 193, 194, 195, 196, 197, 198, 199, 200],
      "LargestImagePixelValue": [678, 679, 675, 678, 677, 676, 679, 676, 679, 674, 677, 679, 679, 676, 675, 678, 678, 676, 677, 675, 675, 677, 675, 675, 677, 677, 676, 679, 678, 677, 676, 679, 676, 676, 679, 679, 679, 678, 676, 680, 678, 676, 675, 677, 676, 677, 675, 675, 678, 676, 677, 681, 678, 674, 674, 675, 677, 677, 676, 678, 673, 675, 677, 677, 672, 677, 676, 677, 674, 677, 677, 676, 676, 676, 677, 676, 676, 676, 675, 677, 674, 677, 675, 677, 678, 674, 675, 678, 678, 677, 679, 673, 677, 675, 682, 678, 673, 677, 678, 674, 677, 680, 676, 675, 675, 677, 676, 675, 677, 675, 675, 677, 678, 675, 677, 675, 675, 675, 675, 680, 678, 679, 675, 679, 677, 678, 679, 675, 674, 677, 674, 677, 675, 674, 676, 676, 673, 674, 677, 678, 676, 677, 675, 679, 676, 676, 674, 680, 676, 676, 677, 678, 676, 674, 678, 675, 677, 674, 675, 677, 675, 677, 674, 676, 675, 674, 676, 678, 674, 676, 675, 675, 675, 677, 677, 675, 677, 677, 676, 675, 678, 680, 675, 678, 674, 676, 674, 673, 677, 675, 676, 674, 676, 677, 673, 675, 676, 675, 676, 677],
      "WindowCenter": [449.0, 449.0, 449.0, 449.0, 449.0, 449.0, 449.0, 449.0, 449.0, 449.0, 449.0, 449.0, 449.0, 449.0, 449.0, 449.0, 449.0, 449.0, 449.0, 449.0, 449.0, 449.0, 449.0, 449.0, 449.0, 449.0, 449.0, 449.0, 449.0, 449.0, 449.0, 449.0, 449.0, 449.0, 449.0, 449.0, 449.0, 449.0, 449.0, 449.0, 449.0, 449.0, 449.0, 449.0, 449.0, 449.0, 449.0, 449.0, 449.0, 449.0, 449.0, 449.0, 449.0, 449.0, 449.0, 449.0, 449.0, 449.0, 449.0, 449.0, 449.0, 449.0, 449.0, 449.0, 449.0, 449.0, 449.0, 449.0, 449.0, 449.0, 449.0, 449.0, 449.0, 449.0, 449.0, 449.0, 449.0, 449.0, 449.0, 449.0, 449.0, 449.0, 449.0, 449.0, 449.0, 449.0, 449.0, 449.0, 449.0, 449.0, 449.0, 449.0, 449.0, 449.0, 449.0, 449.0, 449.0, 449.0, 449.0, 449.0, 449.0, 449.0, 449.0, 449.0, 449.0, 448.0, 449.0, 449.0, 449.0, 449.0, 448.0, 449.0, 449.0, 449.0, 449.0, 449.0, 449.0, 448.0, 448.0, 449.0, 449.0, 448.0, 449.0, 448.0, 448.0, 449.0, 448.0, 449.0, 448.0, 449.0, 448.0, 449.0, 448.0, 448.0, 448.0, 449.0, 449.0, 448.0, 448.0, 448.0, 448.0, 448.0, 449.0, 448.0, 448.0, 449.0, 448.0, 448.0, 448.0, 448.0, 448.0, 448.0, 448.0, 449.0, 448.0, 449.0, 449.0, 448.0, 448.0, 448.0, 448.0, 448.0, 448.0, 449.0, 448.0, 448.0, 448.0, 448.0, 448.0, 448.0, 448.0, 448.0, 448.0, 448.0, 448.0, 448.0, 448.0, 448.0, 448.0, 448.0, 448.0, 448.0, 448.0, 448.0, 448.0, 448.0, 448.0, 448.0, 448.0, 448.0, 448.0, 448.0, 448.0, 448.0, 448.0, 448.0, 448.0, 448.0, 448.0, 448.0],
      "WindowWidth": [933.0, 933.0, 933.0, 933.0, 933.0, 933.0, 933.0, 933.0, 933.0, 933.0, 932.0, 933.0, 933.0, 933.0, 932.0, 932.0, 932.0, 932.0, 932.0, 932.0, 932.0, 933.0, 932.0, 932.0, 932.0, 932.0, 932.0, 932.0, 932.0, 932.0, 932.0, 932.0, 932.0, 932.0, 932.0, 932.0, 932.0, 932.0, 932.0, 932.0, 932.0, 932.0, 932.0, 932.0, 932.0, 932.0, 932.0, 932.0, 932.0, 932.0, 932.0, 932.0, 932.0, 932.0, 932.0, 932.0, 932.0, 932.0, 932.0, 932.0, 932.0, 932.0, 932.0, 932.0, 932.0, 932.0, 932.0, 932.0, 932.0, 932.0, 932.0, 932.0, 932.0, 932.0, 932.0, 932.0, 932.0, 932.0, 932.0, 932.0, 932.0, 932.0, 932.0, 932.0, 932.0, 932.0, 932.0, 932.0, 932.0, 932.0, 932.0, 932.0, 932.0, 932.0, 932.0, 932.0, 932.0, 932.0, 932.0, 932.0, 932.0, 932.0, 932.0, 932.0, 932.0, 931.0, 932.0, 932.0, 932.0, 932.0, 931.0, 932.0, 932.0, 932.0, 932.0, 932.0, 932.0, 931.0, 931.0, 932.0, 932.0, 931.0, 932.0, 931.0, 931.0, 932.0, 931.0, 932.0, 931.0, 932.0, 931.0, 932.0, 931.0, 931.0, 931.0, 932.0, 932.0, 931.0, 931.0, 931.0, 931.0, 931.0, 932.0, 931.0, 931.0, 932.0, 931.0, 931.0, 931.0, 931.0, 931.0, 931.0, 931.0, 932.0, 931.0, 932.0, 932.0, 931.0, 931.0, 932.0, 931.0, 931.0, 931.0, 932.0, 931.0, 931.0, 931.0, 931.0, 931.0, 931.0, 931.0, 931.0, 931.0, 932.0, 931.0, 932.0, 931.0, 931.0, 931.0, 931.0, 931.0, 931.0, 931.0, 931.0, 931.0, 931.0, 931.0, 931.0, 931.0, 931.0, 931.0, 931.0, 931.0, 931.0, 931.0, 931.0, 931.0, 931.0, 931.0, 931.0]
    },
    "slices": {}
  }
}