{
  "AcquisitionMatrixPE": 80,
  "AcquisitionNumber": 1,
  "AcquisitionTime": "10:33:7.150000",
  "BandwidthPerPixelPhaseEncode": 44.643,
  "BaseResolution": 80,
  "BodyPartExamined": "BRAIN",
  "CoilCombinationMethod": "Sum of Squares",
  "ConsistencyInfo": "N4_VE11C_LATEST_20160120",
  "ConversionSoftware": "dcm2niix",
  "ConversionSoftwareVersion": "v1.0.20220720",
  "DerivedVendorReportedEchoSpacing": 0.000559998,
  "DeviceSerialNumber": "66112",
  "DwellTime": 2.7e-06,
  "EchoTime": 0.035,
  "EchoTrainLength": 39,
  "EffectiveEchoSpacing": 0.000279999,
  "FlipAngle": 90,
  "HeudiconvVersion": "0.13.1",
  "ImageOrientationPatientDICOM": [0.994142, -0.107872, 0.00670429, 0.100806, 0.947816, 0.30246],
  "ImageOrientationText": "Tra>Cor(17.5)>Sag(2.2)",
  "ImageType": [
    "ORIGINAL",
    "PRIMARY",
    "M",
    "ND",
    "NORM",
    "MOSAIC"
],
  "ImagingFrequency": 123.252,
  "InPlanePhaseEncodingDirectionDICOM": "COL",
  "InstitutionAddress": "Maynard 3,Hanover,NH,US,03755",
  "InstitutionName": "Dartmouth College - PBS",
  "InstitutionalDepartmentName": "Department",
  "MRAcquisitionType": "2D",
  "MagneticFieldStrength": 3,
  "Manufacturer": "Siemens",
  "ManufacturersModelName": "Prisma",
  "Modality": "MR",
  "MultibandAccelerationFactor": 4,
  "NonlinearGradientCorrection": false,
  "ParallelReductionFactorInPlane": 2,
  "PartialFourier": 1,
  "PatientPosition": "HFS",
  "PercentPhaseFOV": 100,
  "PercentSampling": 100,
  "PhaseEncodingDirection": "j-",
  "PhaseEncodingSteps": 79,
  "PhaseResolution": 1,
  "PixelBandwidth": 2315,
  "ProcedureStepDescription": "dbic^QA",
  "ProtocolName": "func-bold_task-rest_acq-p2-s4-3.5mm",
  "PulseSequenceDetails": "%SiemensSeq%\\ep2d_bold",
  "ReceiveCoilActiveElements": "HEA;HEP",
  "ReceiveCoilName": "Head_32",
  "ReconMatrixPE": 80,
  "RefLinesPE": 24,
  "RepetitionTime": 2,
  "SAR": 0.0209002,
  "ScanOptions": "FS",
  "ScanningSequence": "EP",
  "SequenceName": "*epfid2d1_80",
  "SequenceVariant": "SK",
  "SeriesDescription": "func-bold_task-rest_acq-p2-s4-3.5mm",
  "SeriesNumber": 7,
  "ShimSetting": [4146, -7690, -7516, 338, -73, -142, -62, 75],
  "SliceThickness": 3.5,
  "SliceTiming": [1.485, 0, 0.99, 0.2475, 1.2375, 0.7425, 1.7325, 0.495, 1.485, 0, 0.99, 0.2475, 1.2375, 0.7425, 1.7325, 0.495, 1.485, 0, 0.99, 0.2475, 1.2375, 0.7425, 1.7325, 0.495, 1.485, 0, 0.99, 0.2475, 1.2375, 0.7425, 1.7325, 0.495],
  "SoftwareVersions": "syngo MR E11",
  "SpacingBetweenSlices": 3.99,
  "StationName": "AWP66112",
  "TaskName": "rest",
  "TotalReadoutTime": 0.0221199,
  "TxRefAmp": 233.584,
  "dcmmeta_affine": [
    [-2.982426404953003, 0.30241793394088745, 0.15553632378578186, 105.91201782226562],
    [0.32361721992492676, 2.843449354171753, 1.1970497369766235, -138.63735961914062],
    [0.020112866535782814, -0.907380223274231, 3.8030223846435547, -28.22041130065918],
    [0.0, 0.0, 0.0, 1.0]
],
  "dcmmeta_reorient_transform": [
    [0.0, -1.0, 0.0, 79.0],
    [1.0, 0.0, 0.0, 0.0],
    [0.0, 0.0, 1.0, 0.0],
    [0.0, 0.0, 0.0, 1.0]
],
  "dcmmeta_shape": [80, 80, 32, 200],
  "dcmmeta_slice_dim": 2,
  "dcmmeta_version": 0.6,
  "global": {
    "const": {
      "AccessionNumber": "qa",
      "AcquisitionMatrix": [80, 0, 0, 80],
      "AngioFlag": "N",
      "BitsAllocated": 16,
      "BitsStored": 12,
      "BodyPartExamined": "BRAIN",
      "Columns": 480,
      "EchoNumbers": 1,
      "EchoTime": 35.0,
      "EchoTrainLength": 39,
      "FlipAngle": 90.0,
      "HighBit": 11,
      "ImageOrientationPatient": [0.99414214060833, -0.1078724097055, 0.00670428900204, 0.10080597355893, 0.94781646607288, 0.30246008387218],
      "ImagePositionPatient": [-786.77190509601, -589.96157719767, -285.40207466573],
      "ImageType": [
        "ORIGINAL",
        "PRIMARY",
        "M",
        "ND",
        "NORM",
        "MOSAIC"
],
      "ImagedNucleus": "1H",
      "ImagingFrequency": 123.252445,
      "InPlanePhaseEncodingDirection": "COL",
      "MRAcquisitionType": "2D",
      "MagneticFieldStrength": 3.0,
      "Manufacturer": "SIEMENS",
      "ManufacturerModelName": "Prisma",
      "Modality": "MR",
      "NumberOfAverages": 1.0,
      "NumberOfPhaseEncodingSteps": 79,
      "PercentPhaseFieldOfView": 100.0,
      "PercentSampling": 100.0,
      "PerformedProcedureStepStartTime": "101401.794000",
      "PhotometricInterpretation": "MONOCHROME2",
      "PixelBandwidth": 2315.0,
      "PixelRepresentation": 0,
      "PixelSpacing": [3.0, 3.0],
      "ProtocolName": "func-bold_task-rest_acq-p2-s4-3.5mm",
      "RepetitionTime": 2000.0,
      "Rows": 480,
      "SAR": 0.02090015903522,
      "SamplesPerPixel": 1,
      "ScanOptions": "FS",
      "ScanningSequence": "EP",
      "SequenceName": "*epfid2d1_80",
      "SequenceVariant": "SK",
      "SeriesDescription": "func-bold_task-rest_acq-p2-s4-3.5mm",
      "SeriesNumber": 7,
      "SeriesTime": "103359.992000",
      "SliceLocation": -64.362284844476,
      "SliceThickness": 3.5,
      "SmallestImagePixelValue": 0,
      "SoftwareVersions": "syngo MR E11",
      "SpacingBetweenSlices": 3.9899999518012,
      "SpecificCharacterSet": "ISO_IR 100",
      "StudyID": "44",
      "StudyTime": "101401.698000",
      "TransmitCoilName": "Body",
      "VariableFlipAngleFlag": "N",
      "WindowCenter": 930.0,
      "WindowCenterWidthExplanation": "Algo1",
      "dBdt": 0.0},
    "slices": {}
  },
  "time": {
    "samples": {
      "AcquisitionNumber": [1, 2, 3, 4, 5, 6, 7, 8, 9, 10, 11, 12, 13, 14, 15, 16, 17, 18, 19, 20, 21, 22, 23, 24, 25, 26, 27, 28, 29, 30, 31, 32, 33, 34, 35, 36, 37, 38, 39, 40, 41, 42, 43, 44, 45, 46, 47, 48, 49, 50, 51, 52, 53, 54, 55, 56, 57, 58, 59, 60, 61, 62, 63, 64, 65, 66, 67, 68, 69, 70, 71, 72, 73, 74, 75, 76, 77, 78, 79, 80, 81, 82, 83, 84, 85, 86, 87, 88, 89, 90, 91, 92, 93, 94, 95, 96, 97, 98, 99, 100, 101, 102, 103, 104, 105, 106, 107, 108, 109, 110, 111, 112, 113, 114, 115, 116, 117, 118, 119, 120, 121, 122, 123, 124, 125, 126, 127, 128, 129, 130, 131, 132, 133, 134, 135, 136, 137, 138, 139, 140, 141, 142, 143, 144, 145, 146, 147, 148, 149, 150, 151, 152, 153, 154, 155, 156, 157, 158, 159, 160, 161, 162, 163, 164, 165, 166, 167, 168, 169, 170, 171, 172, 173, 174, 175, 176, 177, 178, 179, 180, 181, 182, 183, 184, 185, 186, 187, 188, 189, 190, 191, 192, 193, 194, 195, 196, 197, 198, 199, 200],
      "AcquisitionTime": ["103307.150000", "103309.150000", "103311.150000", "103313.150000", "103315.150000", "103317.150000", "103319.150000", "103321.150000", "103323.150000", "103325.150000", "103327.150000", "103329.150000", "103331.150000", "103333.150000", "103335.150000", "103337.150000", "103339.150000", "103341.150000", "103343.150000", "103345.150000", "103347.150000", "103349.150000", "103351.150000", "103353.150000", "103355.150000", "103357.150000", "103359.150000", "103401.150000", "103403.150000", "103405.150000", "103407.150000", "103409.150000", "103411.150000", "103413.150000", "103415.150000", "103417.150000", "103419.150000", "103421.150000", "103423.150000", "103425.150000", "103427.150000", "103429.150000", "103431.150000", "103433.150000", "103435.150000", "103437.150000", "103439.150000", "103441.150000", "103443.150000", "103445.150000", "103447.150000", "103449.150000", "103451.150000", "103453.150000", "103455.150000", "103457.150000", "103459.150000", "103501.150000", "103503.150000", "103505.150000", "103507.150000", "103509.150000", "103511.150000", "103513.150000", "103515.150000", "103517.150000", "103519.150000", "103521.150000", "103523.150000", "103525.150000", "103527.150000", "103529.150000", "103531.150000", "103533.150000", "103535.150000", "103537.150000", "103539.150000", "103541.150000", "103543.150000", "103545.150000", "103547.150000", "103549.150000", "103551.150000", "103553.150000", "103555.150000", "103557.150000", "103559.150000", "103601.150000", "103603.150000", "103605.150000", "103607.150000", "103609.150000", "103611.150000", "103613.150000", "103615.150000", "103617.150000", "103619.150000", "103621.150000", "103623.150000", "103625.150000", "103627.150000", "103629.150000", "103631.150000", "103633.150000", "103635.150000", "103637.150000", "103639.150000", "103641.150000", "103643.150000", "103645.150000", "103647.150000", "103649.150000", "103651.150000", "103653.150000", "103655.150000", "103657.150000", "103659.150000", "103701.150000", "103703.150000", "103705.150000", "103707.150000", "103709.150000", "103711.150000", "103713.150000", "103715.150000", "103717.150000", "103719.150000", "103721.150000", "103723.150000", "103725.150000", "103727.150000", "103729.150000", "103731.150000", "103733.150000", "103735.150000", "103737.150000", "103739.150000", "103741.150000", "103743.150000", "103745.150000", "103747.150000", "103749.150000", "103751.150000", "103753.150000", "103755.150000", "103757.150000", "103759.150000", "103801.150000", "103803.150000", "103805.150000", "103807.150000", "103809.150000", "103811.150000", "103813.150000", "103815.150000", "103817.150000", "103819.150000", "103821.150000", "103823.150000", "103825.150000", "103827.150000", "103829.150000", "103831.150000", "103833.150000", "103835.150000", "103837.150000", "103839.150000", "103841.150000", "103843.150000", "103845.150000", "103847.150000", "103849.150000", "103851.150000", "103853.150000", "103855.150000", "103857.150000", "103859.150000", "103901.150000", "103903.150000", "103905.150000", "103907.150000", "103909.150000", "103911.150000", "103913.150000", "103915.150000", "103917.150000", "103919.150000", "103921.150000", "103923.150000", "103925.150000", "103927.150000", "103929.150000", "103931.150000", "103933.150000", "103935.150000", "103937.150000", "103939.150000", "103941.150000", "103943.150000", "103945.150000"],
      "ContentTime": ["103359.995000", "103400.000000", "103400.003000", "103400.009000", "103400.012000", "103400.027000", "103400.036000", "103400.039000", "103400.041000", "103400.044000", "103400.047000", "103400.049000", "103400.052000", "103400.054000", "103400.057000", "103400.059000", "103400.062000", "103400.065000", "103400.067000", "103400.070000", "103400.073000", "103400.075000", "103400.078000", "103400.081000", "103400.083000", "103400.086000", "103439.991000", "103439.993000", "103439.996000", "103440.000000", "103440.002000", "103440.005000", "103440.008000", "103440.010000", "103440.013000", "103440.015000", "103440.018000", "103440.021000", "103440.023000", "103440.026000", "103440.029000", "103440.036000", "103440.039000", "103440.042000", "103440.044000", "103440.047000", "103519.990000", "103519.993000", "103519.996000", "103519.998000", "103520.002000", "103520.005000", "103520.007000", "103520.010000", "103520.013000", "103520.015000", "103520.018000", "103520.020000", "103520.023000", "103520.026000", "103520.028000", "103520.031000", "103520.034000", "103520.036000", "103520.039000", "103520.042000", "103559.990000", "103559.993000", "103559.996000", "103600.000000", "103600.002000", "103600.005000", "103600.008000", "103600.010000", "103600.013000", "103600.015000", "103600.018000", "103600.020000", "103600.023000", "103600.026000", "103600.028000", "103600.031000", "103600.034000", "103600.036000", "103600.039000", "103600.042000", "103639.990000", "103639.993000", "103639.996000", "103640.000000", "103640.002000", "103640.005000", "103640.008000", "103640.010000", "103640.013000", "103640.015000", "103640.018000", "103640.021000", "103640.023000", "103640.026000", "103640.029000", "103640.031000", "103640.034000", "103640.036000", "103640.039000", "103640.042000", "103719.991000", "103719.994000", "103719.996000", "103720.000000", "103720.003000", "103720.005000", "103720.008000", "103720.010000", "103720.013000", "103720.016000", "103720.018000", "103720.021000", "103720.023000", "103720.026000", "103720.029000", "103720.031000", "103720.034000", "103720.037000", "103720.039000", "103720.042000", "103759.990000", "103759.993000", "103759.996000", "103800.000000", "103800.002000", "103800.005000", "103800.008000", "103800.010000", "103800.013000", "103800.016000", "103800.018000", "103800.021000", "103800.023000", "103800.026000", "103800.029000", "103800.031000", "103800.034000", "103800.037000", "103800.039000", "103800.042000", "103839.991000", "103839.994000", "103839.997000", "103840.000000", "103840.003000", "103840.006000", "103840.009000", "103840.011000", "103840.014000", "103840.016000", "103840.019000", "103840.022000", "103840.024000", "103840.027000", "103840.030000", "103840.032000", "103840.035000", "103840.037000", "103840.040000", "103840.043000", "103919.990000", "103919.993000", "103919.996000", "103920.000000", "103920.002000", "103920.005000", "103920.008000", "103920.010000", "103920.013000", "103920.015000", "103920.018000", "103920.021000", "103920.023000", "103920.026000", "103920.029000", "103920.031000", "103920.034000", "103920.036000", "103920.039000", "103920.042000", "103946.498000", "103946.500000", "103946.503000", "103946.506000", "103946.509000", "103946.511000", "103946.514000", "103946.517000", "103946.520000", "103946.522000", "103946.525000", "103946.529000", "103946.532000", "103946.535000"],
      "InstanceCreationTime": ["103359.995000", "103400.000000", "103400.003000", "103400.009000", "103400.012000", "103400.027000", "103400.036000", "103400.039000", "103400.041000", "103400.044000", "103400.047000", "103400.049000", "103400.052000", "103400.054000", "103400.057000", "103400.059000", "103400.062000", "103400.065000", "103400.067000", "103400.070000", "103400.073000", "103400.075000", "103400.078000", "103400.081000", "103400.083000", "103400.086000", "103439.991000", "103439.993000", "103439.996000", "103440.000000", "103440.002000", "103440.005000", "103440.008000", "103440.010000", "103440.013000", "103440.015000", "103440.018000", "103440.021000", "103440.023000", "103440.026000", "103440.029000", "103440.036000", "103440.039000", "103440.042000", "103440.044000", "103440.047000", "103519.990000", "103519.993000", "103519.996000", "103519.998000", "103520.002000", "103520.005000", "103520.007000", "103520.010000", "103520.013000", "103520.015000", "103520.018000", "103520.020000", "103520.023000", "103520.026000", "103520.028000", "103520.031000", "103520.034000", "103520.036000", "103520.039000", "103520.042000", "103559.990000", "103559.993000", "103559.996000", "103600.000000", "103600.002000", "103600.005000", "103600.008000", "103600.010000", "103600.013000", "103600.015000", "103600.018000", "103600.020000", "103600.023000", "103600.026000", "103600.028000", "103600.031000", "103600.034000", "103600.036000", "103600.039000", "103600.042000", "103639.990000", "103639.993000", "103639.996000", "103640.000000", "103640.002000", "103640.005000", "103640.008000", "103640.010000", "103640.013000", "103640.015000", "103640.018000", "103640.021000", "103640.023000", "103640.026000", "103640.029000", "103640.031000", "103640.034000", "103640.036000", "103640.039000", "103640.042000", "103719.991000", "103719.994000", "103719.996000", "103720.000000", "103720.003000", "103720.005000", "103720.008000", "103720.010000", "103720.013000", "103720.016000", "103720.018000", "103720.021000", "103720.023000", "103720.026000", "103720.029000", "103720.031000", "103720.034000", "103720.037000", "103720.039000", "103720.042000", "103759.990000", "103759.993000", "103759.996000", "103800.000000", "103800.002000", "103800.005000", "103800.008000", "103800.010000", "103800.013000", "103800.016000", "103800.018000", "103800.021000", "103800.023000", "103800.026000", "103800.029000", "103800.031000", "103800.034000", "103800.037000", "103800.039000", "103800.042000", "103839.991000", "103839.994000", "103839.997000", "103840.000000", "103840.003000", "103840.006000", "103840.009000", "103840.011000", "103840.014000", "103840.016000", "103840.019000", "103840.022000", "103840.024000", "103840.027000", "103840.030000", "103840.032000", "103840.035000", "103840.037000", "103840.040000", "103840.043000", "103919.990000", "103919.993000", "103919.996000", "103920.000000", "103920.002000", "103920.005000", "103920.008000", "103920.010000", "103920.013000", "103920.015000", "103920.018000", "103920.021000", "103920.023000", "103920.026000", "103920.029000", "103920.031000", "103920.034000", "103920.036000", "103920.039000", "103920.042000", "103946.498000", "103946.500000", "103946.503000", "103946.506000", "103946.509000", "103946.511000", "103946.514000", "103946.517000", "103946.520000", "103946.522000", "103946.525000", "103946.529000", "103946.532000", "103946.535000"],
      "InstanceNumber": [1, 2, 3, 4, 5, 6, 7, 8, 9, 10, 11, 12, 13, 14, 15, 16, 17, 18, 19, 20, 21, 22, 23, 24, 25, 26, 27, 28, 29, 30, 31, 32, 33, 34, 35, 36, 37, 38, 39, 40, 41, 42, 43, 44, 45, 46, 47, 48, 49, 50, 51, 52, 53, 54, 55, 56, 57, 58, 59, 60, 61, 62, 63, 64, 65, 66, 67, 68, 69, 70, 71, 72, 73, 74, 75, 76, 77, 78, 79, 80, 81, 82, 83, 84, 85, 86, 87, 88, 89, 90, 91, 92, 93, 94, 95, 96, 97, 98, 99, 100, 101, 102, 103, 104, 105, 106, 107, 108, 109, 110, 111, 112, 113, 114, 115, 116, 117, 118, 119, 120, 121, 122, 123, 124, 125, 126, 127, 128, 129, 130, 131, 132, 133, 134, 135, 136, 137, 138, 139, 140, 141, 142, 143, 144, 145, 146, 147, 148, 149, 150, 151, 152, 153, 154, 155, 156, 157, 158, 159, 160, 161, 162, 163, 164, 165, 166, 167, 168, 169, 170, 171, 172, 173, 174, 175, 176, 177, 178, 179, 180, 181, 182, 183, 184, 185, 186, 187, 188, 189, 190, 191, 192, 193, 194, 195, 196, 197, 198, 199, 200],
      "LargestImagePixelValue": [2067, 2062, 2067, 2067, 2062, 2064, 2068, 2067, 2068, 2066, 2068, 2063, 2065, 2062, 2071, 2064, 2066, 2070, 2067, 2069, 2062, 2070, 2070, 2072, 2071, 2064, 2070, 2068, 2067, 2065, 2068, 2072, 2069, 2066, 2067, 2067, 2064, 2067, 2069, 2064, 2068, 2074, 2066, 2067, 2071, 2064, 2071, 2066, 2067, 2063, 2074, 2069, 2067, 2063, 2066, 2065, 2068, 2072, 2064, 2072, 2069, 2077, 2069, 2068, 2068, 2069, 2073, 2068, 2070, 2068, 2066, 2066, 2072, 2069, 2069, 2070, 2067, 2070, 2067, 2069, 2068, 2065, 2073, 2066, 2066, 2068, 2070, 2068, 2071, 2068, 2068, 2061, 2069, 2077, 2067, 2076, 2072, 2068, 2068, 2069, 2069, 2069, 2071, 2072, 2072, 2071, 2070, 2065, 2070, 2066, 2070, 2072, 2070, 2071, 2071, 2072, 2070, 2072, 2070, 2068, 2071, 2070, 2066, 2067, 2070, 2064, 2071, 2068, 2064, 2071, 2074, 2072, 2065, 2066, 2073, 2072, 2063, 2069, 2064, 2066, 2066, 2066, 2068, 2066, 2068, 2066, 2074, 2068, 2068, 2067, 2073, 2067, 2068, 2064, 2071, 2069, 2071, 2068, 2071, 2066, 2064, 2071, 2072, 2066, 2067, 2075, 2068, 2068, 2069, 2062, 2069, 2069, 2066, 2070, 2072, 2069, 2066, 2066, 2073, 2069, 2072, 2067, 2068, 2074, 2072, 2074, 2069, 2070, 2073, 2066, 2069, 2070, 2067, 2068, 2068, 2072, 2071, 2070, 2072, 2065],
      "WindowWidth": [2132.0, 2132.0, 2132.0, 2132.0, 2132.0, 2132.0, 2132.0, 2132.0, 2132.0, 2132.0, 2132.0, 2132.0, 2133.0, 2132.0, 2132.0, 2132.0, 2132.0, 2132.0, 2132.0, 2132.0, 2132.0, 2132.0, 2133.0, 2133.0, 2133.0, 2132.0, 2133.0, 2132.0, 2132.0, 2132.0, 2132.0, 2133.0, 2133.0, 2132.0, 2132.0, 2132.0, 2132.0, 2132.0, 2133.0, 2132.0, 2132.0, 2133.0, 2133.0, 2132.0, 2133.0, 2132.0, 2132.0, 2132.0, 2133.0, 2133.0, 2133.0, 2133.0, 2133.0, 2133.0, 2132.0, 2133.0, 2133.0, 2133.0, 2132.0, 2133.0, 2133.0, 2132.0, 2133.0, 2133.0, 2133.0, 2133.0, 2133.0, 2134.0, 2133.0, 2133.0, 2133.0, 2133.0, 2133.0, 2133.0, 2133.0, 2133.0, 2133.0, 2133.0, 2132.0, 2133.0, 2133.0, 2133.0, 2133.0, 2133.0, 2133.0, 2133.0, 2133.0, 2133.0, 2133.0, 2133.0, 2132.0, 2133.0, 2133.0, 2133.0, 2133.0, 2134.0, 2133.0, 2133.0, 2133.0, 2133.0, 2133.0, 2133.0, 2133.0, 2133.0, 2133.0, 2133.0, 2133.0, 2133.0, 2133.0, 2133.0, 2133.0, 2133.0, 2133.0, 2133.0, 2134.0, 2133.0, 2133.0, 2133.0, 2133.0, 2133.0, 2133.0, 2133.0, 2133.0, 2133.0, 2133.0, 2133.0, 2133.0, 2133.0, 2133.0, 2133.0, 2133.0, 2133.0, 2132.0, 2133.0, 2133.0, 2133.0, 2133.0, 2133.0, 2133.0, 2133.0, 2133.0, 2133.0, 2133.0, 2133.0, 2133.0, 2133.0, 2133.0, 2133.0, 2133.0, 2133.0, 2133.0, 2133.0, 2133.0, 2133.0, 2133.0, 2133.0, 2133.0, 2133.0, 2133.0, 2132.0, 2133.0, 2133.0, 2133.0, 2133.0, 2133.0, 2133.0, 2133.0, 2133.0, 2133.0, 2133.0, 2133.0, 2134.0, 2133.0, 2134.0, 2133.0, 2133.0, 2133.0, 2133.0, 2133.0, 2133.0, 2133.0, 2133.0, 2133.0, 2133.0, 2133.0, 2133.0, 2133.0, 2133.0, 2133.0, 2134.0, 2133.0, 2133.0, 2133.0, 2133.0, 2133.0, 2132.0, 2133.0, 2133.0, 2133.0, 2133.0]
    },
    "slices": {}
  }
}