{
  "AcquisitionMatrixPE": 80,
  "AcquisitionNumber": 1,
  "AcquisitionTime": "10:26:12.817500",
  "BandwidthPerPixelPhaseEncode": 48.077,
  "BaseResolution": 80,
  "BodyPartExamined": "BRAIN",
  "CoilCombinationMethod": "Sum of Squares",
  "ConsistencyInfo": "N4_VE11C_LATEST_20160120",
  "ConversionSoftware": "dcm2niix",
  "ConversionSoftwareVersion": "v1.0.20220720",
  "DerivedVendorReportedEchoSpacing": 0.000519999,
  "DeviceSerialNumber": "66112",
  "DwellTime": 2.7e-06,
  "EchoTime": 0.035,
  "EchoTrainLength": 39,
  "EffectiveEchoSpacing": 0.00026,
  "FlipAngle": 90,
  "HeudiconvVersion": "0.13.1",
  "ImageOrientationPatientDICOM": [0.994142, -0.107872, 0.00670429, 0.100806, 0.947816, 0.30246],
  "ImageOrientationText": "Tra>Cor(17.5)>Sag(2.2)",
  "ImageType": [
    "ORIGINAL",
    "PRIMARY",
    "M",
    "ND",
    "NORM",
    "MOSAIC"
],
  "ImagingFrequency": 123.252,
  "InPlanePhaseEncodingDirectionDICOM": "COL",
  "InstitutionAddress": "Maynard 3,Hanover,NH,US,03755",
  "InstitutionName": "Dartmouth College - PBS",
  "InstitutionalDepartmentName": "Department",
  "MRAcquisitionType": "2D",
  "MagneticFieldStrength": 3,
  "Manufacturer": "Siemens",
  "ManufacturersModelName": "Prisma",
  "MatrixCoilMode": "GRAPPA",
  "Modality": "MR",
  "NonlinearGradientCorrection": false,
  "ParallelReductionFactorInPlane": 2,
  "PartialFourier": 1,
  "PatientPosition": "HFS",
  "PercentPhaseFOV": 100,
  "PercentSampling": 100,
  "PhaseEncodingDirection": "j-",
  "PhaseEncodingSteps": 79,
  "PhaseResolution": 1,
  "PixelBandwidth": 2315,
  "ProcedureStepDescription": "dbic^QA",
  "ProtocolName": "func-bold_task-rest_acq-p2",
  "PulseSequenceDetails": "%SiemensSeq%\\ep2d_bold",
  "ReceiveCoilActiveElements": "HEA;HEP",
  "ReceiveCoilName": "Head_32",
  "ReconMatrixPE": 80,
  "RefLinesPE": 24,
  "RepetitionTime": 2,
  "SAR": 0.0555812,
  "ScanOptions": "FS",
  "ScanningSequence": "EP",
  "SequenceName": "*epfid2d1_80",
  "SequenceVariant": "SK",
  "SeriesDescription": "func-bold_task-rest_acq-p2",
  "SeriesNumber": 5,
  "ShimSetting": [4146, -7690, -7516, 343, -73, -140, -61, 77],
  "SliceThickness": 3.5,
  "SliceTiming": [0.99, 0, 1.0575, 0.0675, 1.1225, 0.1325, 1.1875, 0.1975, 1.255, 0.265, 1.32, 0.33, 1.3875, 0.3975, 1.4525, 0.4625, 1.5175, 0.5275, 1.585, 0.595, 1.65, 0.66, 1.7175, 0.7275, 1.7825, 0.7925, 1.8475, 0.8575, 1.915, 0.925],
  "SoftwareVersions": "syngo MR E11",
  "SpacingBetweenSlices": 3.99,
  "StationName": "AWP66112",
  "TaskName": "rest",
  "TotalReadoutTime": 0.02054,
  "TxRefAmp": 233.584,
  "dcmmeta_affine": [
    [-2.982426404953003, 0.30241793394088745, 0.15553632378578186, 106.06755828857422],
    [0.32361721992492676, 2.843449354171753, 1.197049856185913, -137.4403076171875],
    [0.020112866535782814, -0.907380223274231, 3.8030223846435547, -24.417390823364258],
    [0.0, 0.0, 0.0, 1.0]
],
  "dcmmeta_reorient_transform": [
    [0.0, -1.0, 0.0, 79.0],
    [1.0, 0.0, 0.0, 0.0],
    [0.0, 0.0, 1.0, 0.0],
    [0.0, 0.0, 0.0, 1.0]
],
  "dcmmeta_shape": [80, 80, 30, 200],
  "dcmmeta_slice_dim": 2,
  "dcmmeta_version": 0.6,
  "global": {
    "const": {
      "AccessionNumber": "qa",
      "AcquisitionMatrix": [80, 0, 0, 80],
      "AngioFlag": "N",
      "BitsAllocated": 16,
      "BitsStored": 12,
      "BodyPartExamined": "BRAIN",
      "Columns": 480,
      "EchoNumbers": 1,
      "EchoTime": 35.0,
      "EchoTrainLength": 39,
      "FlipAngle": 90.0,
      "HighBit": 11,
      "ImageOrientationPatient": [0.99414214060833, -0.1078724097055, 0.00670428900204, 0.10080597355893, 0.94781646607288, 0.30246008387218],
      "ImagePositionPatient": [-786.92744138999, -591.15862729227, -281.59905418843],
      "ImageType": [
        "ORIGINAL",
        "PRIMARY",
        "M",
        "ND",
        "NORM",
        "MOSAIC"
],
      "ImagedNucleus": "1H",
      "ImagingFrequency": 123.252443,
      "InPlanePhaseEncodingDirection": "COL",
      "MRAcquisitionType": "2D",
      "MagneticFieldStrength": 3.0,
      "Manufacturer": "SIEMENS",
      "ManufacturerModelName": "Prisma",
      "Modality": "MR",
      "NumberOfAverages": 1.0,
      "NumberOfPhaseEncodingSteps": 79,
      "PercentPhaseFieldOfView": 100.0,
      "PercentSampling": 100.0,
      "PerformedProcedureStepStartTime": "101401.794000",
      "PhotometricInterpretation": "MONOCHROME2",
      "PixelBandwidth": 2315.0,
      "PixelRepresentation": 0,
      "PixelSpacing": [3.0, 3.0],
      "ProtocolName": "func-bold_task-rest_acq-p2",
      "RepetitionTime": 2000.0,
      "Rows": 480,
      "SAR": 0.05558122335398,
      "SamplesPerPixel": 1,
      "ScanOptions": "FS",
      "ScanningSequence": "EP",
      "SequenceName": "*epfid2d1_80",
      "SequenceVariant": "SK",
      "SeriesDescription": "func-bold_task-rest_acq-p2",
      "SeriesNumber": 5,
      "SeriesTime": "102659.922000",
      "SliceLocation": -60.3722866968,
      "SliceThickness": 3.5,
      "SmallestImagePixelValue": 0,
      "SoftwareVersions": "syngo MR E11",
      "SpacingBetweenSlices": 3.9899999704183,
      "SpecificCharacterSet": "ISO_IR 100",
      "StudyID": "44",
      "StudyTime": "101401.698000",
      "TransmitCoilName": "Body",
      "VariableFlipAngleFlag": "N",
      "WindowCenterWidthExplanation": "Algo1",
      "dBdt": 0.0},
    "slices": {}
  },
  "time": {
    "samples": {
      "AcquisitionNumber": [1, 2, 3, 4, 5, 6, 7, 8, 9, 10, 11, 12, 13, 14, 15, 16, 17, 18, 19, 20, 21, 22, 23, 24, 25, 26, 27, 28, 29, 30, 31, 32, 33, 34, 35, 36, 37, 38, 39, 40, 41, 42, 43, 44, 45, 46, 47, 48, 49, 50, 51, 52, 53, 54, 55, 56, 57, 58, 59, 60, 61, 62, 63, 64, 65, 66, 67, 68, 69, 70, 71, 72, 73, 74, 75, 76, 77, 78, 79, 80, 81, 82, 83, 84, 85, 86, 87, 88, 89, 90, 91, 92, 93, 94, 95, 96, 97, 98, 99, 100, 101, 102, 103, 104, 105, 106, 107, 108, 109, 110, 111, 112, 113, 114, 115, 116, 117, 118, 119, 120, 121, 122, 123, 124, 125, 126, 127, 128, 129, 130, 131, 132, 133, 134, 135, 136, 137, 138, 139, 140, 141, 142, 143, 144, 145, 146, 147, 148, 149, 150, 151, 152, 153, 154, 155, 156, 157, 158, 159, 160, 161, 162, 163, 164, 165, 166, 167, 168, 169, 170, 171, 172, 173, 174, 175, 176, 177, 178, 179, 180, 181, 182, 183, 184, 185, 186, 187, 188, 189, 190, 191, 192, 193, 194, 195, 196, 197, 198, 199, 200],
      "AcquisitionTime": ["102612.817500", "102614.817500", "102616.817500", "102618.817500", "102620.817500", "102622.817500", "102624.817500", "102626.817500", "102628.817500", "102630.817500", "102632.817500", "102634.817500", "102636.817500", "102638.817500", "102640.817500", "102642.817500", "102644.817500", "102646.817500", "102648.817500", "102650.817500", "102652.817500", "102654.817500", "102656.817500", "102658.817500", "102700.817500", "102702.817500", "102704.817500", "102706.817500", "102708.817500", "102710.817500", "102712.817500", "102714.817500", "102716.817500", "102718.817500", "102720.817500", "102722.817500", "102724.817500", "102726.817500", "102728.817500", "102730.817500", "102732.817500", "102734.817500", "102736.817500", "102738.817500", "102740.817500", "102742.817500", "102744.817500", "102746.817500", "102748.817500", "102750.817500", "102752.817500", "102754.817500", "102756.817500", "102758.817500", "102800.817500", "102802.817500", "102804.817500", "102806.817500", "102808.817500", "102810.817500", "102812.817500", "102814.817500", "102816.817500", "102818.817500", "102820.817500", "102822.817500", "102824.817500", "102826.817500", "102828.817500", "102830.817500", "102832.817500", "102834.817500", "102836.817500", "102838.817500", "102840.817500", "102842.817500", "102844.817500", "102846.817500", "102848.817500", "102850.817500", "102852.817500", "102854.817500", "102856.817500", "102858.817500", "102900.817500", "102902.817500", "102904.817500", "102906.817500", "102908.817500", "102910.817500", "102912.817500", "102914.817500", "102916.817500", "102918.817500", "102920.817500", "102922.817500", "102924.817500", "102926.817500", "102928.817500", "102930.817500", "102932.817500", "102934.817500", "102936.817500", "102938.817500", "102940.817500", "102942.817500", "102944.817500", "102946.817500", "102948.817500", "102950.817500", "102952.817500", "102954.817500", "102956.817500", "102958.817500", "103000.817500", "103002.817500", "103004.817500", "103006.817500", "103008.817500", "103010.817500", "103012.817500", "103014.817500", "103016.817500", "103018.817500", "103020.817500", "103022.817500", "103024.817500", "103026.817500", "103028.817500", "103030.817500", "103032.817500", "103034.817500", "103036.817500", "103038.817500", "103040.817500", "103042.817500", "103044.817500", "103046.817500", "103048.817500", "103050.817500", "103052.817500", "103054.817500", "103056.817500", "103058.817500", "103100.817500", "103102.817500", "103104.817500", "103106.817500", "103108.817500", "103110.817500", "103112.817500", "103114.817500", "103116.817500", "103118.817500", "103120.817500", "103122.817500", "103124.817500", "103126.817500", "103128.817500", "103130.817500", "103132.817500", "103134.817500", "103136.817500", "103138.817500", "103140.817500", "103142.817500", "103144.817500", "103146.817500", "103148.817500", "103150.817500", "103152.817500", "103154.817500", "103156.817500", "103158.817500", "103200.817500", "103202.817500", "103204.817500", "103206.817500", "103208.817500", "103210.817500", "103212.817500", "103214.817500", "103216.817500", "103218.817500", "103220.817500", "103222.817500", "103224.817500", "103226.817500", "103228.817500", "103230.817500", "103232.817500", "103234.817500", "103236.817500", "103238.817500", "103240.817500", "103242.817500", "103244.817500", "103246.817500", "103248.817500", "103250.817500"],
      "ContentTime": ["102659.926000", "102659.929000", "102659.932000", "102659.934000", "102659.937000", "102659.940000", "102659.942000", "102659.950000", "102659.952000", "102659.955000", "102659.957000", "102659.960000", "102659.963000", "102659.973000", "102659.975000", "102659.978000", "102659.981000", "102659.983000", "102659.986000", "102659.988000", "102659.991000", "102659.994000", "102659.996000", "102739.920000", "102739.924000", "102739.926000", "102739.929000", "102739.931000", "102739.934000", "102739.937000", "102739.939000", "102739.942000", "102739.945000", "102739.947000", "102739.950000", "102739.952000", "102739.955000", "102739.958000", "102739.960000", "102739.963000", "102739.965000", "102739.968000", "102739.971000", "102819.920000", "102819.923000", "102819.926000", "102819.928000", "102819.931000", "102819.934000", "102819.936000", "102819.946000", "102819.949000", "102819.951000", "102819.954000", "102819.956000", "102819.959000", "102819.962000", "102819.964000", "102819.967000", "102819.970000", "102819.972000", "102819.975000", "102819.978000", "102859.921000", "102859.924000", "102859.926000", "102859.929000", "102859.931000", "102859.934000", "102859.937000", "102859.939000", "102859.942000", "102859.945000", "102859.947000", "102859.950000", "102859.953000", "102859.955000", "102859.958000", "102859.960000", "102859.963000", "102859.966000", "102859.968000", "102859.971000", "102939.920000", "102939.923000", "102939.926000", "102939.929000", "102939.932000", "102939.934000", "102939.937000", "102939.939000", "102939.948000", "102939.951000", "102939.953000", "102939.956000", "102939.958000", "102939.961000", "102939.964000", "102939.966000", "102939.969000", "102939.972000", "102939.974000", "102939.977000", "103019.921000", "103019.923000", "103019.926000", "103019.929000", "103019.931000", "103019.934000", "103019.937000", "103019.939000", "103019.942000", "103019.945000", "103019.947000", "103019.950000", "103019.953000", "103019.955000", "103019.958000", "103019.960000", "103019.963000", "103019.966000", "103019.968000", "103019.971000", "103059.921000", "103059.924000", "103059.926000", "103059.929000", "103059.932000", "103059.934000", "103059.937000", "103059.940000", "103059.943000", "103059.945000", "103059.948000", "103059.951000", "103059.953000", "103059.956000", "103059.959000", "103059.961000", "103059.964000", "103059.967000", "103059.969000", "103059.972000", "103139.920000", "103139.923000", "103139.926000", "103139.928000", "103139.931000", "103139.934000", "103139.936000", "103139.939000", "103139.942000", "103139.944000", "103139.947000", "103139.956000", "103139.959000", "103139.962000", "103139.965000", "103139.967000", "103139.970000", "103139.973000", "103139.975000", "103139.978000", "103219.921000", "103219.923000", "103219.926000", "103219.929000", "103219.932000", "103219.934000", "103219.937000", "103219.940000", "103219.943000", "103219.945000", "103219.948000", "103219.951000", "103219.953000", "103219.956000", "103219.959000", "103219.961000", "103219.964000", "103219.967000", "103219.969000", "103219.972000", "103252.514000", "103252.517000", "103252.520000", "103252.523000", "103252.526000", "103252.528000", "103252.531000", "103252.534000", "103252.536000", "103252.539000", "103252.542000", "103252.553000", "103252.557000", "103252.563000", "103252.566000", "103252.569000", "103252.572000"],
      "InstanceCreationTime": ["102659.926000", "102659.929000", "102659.932000", "102659.934000", "102659.937000", "102659.940000", "102659.942000", "102659.950000", "102659.952000", "102659.955000", "102659.957000", "102659.960000", "102659.963000", "102659.973000", "102659.975000", "102659.978000", "102659.981000", "102659.983000", "102659.986000", "102659.988000", "102659.991000", "102659.994000", "102659.996000", "102739.920000", "102739.924000", "102739.926000", "102739.929000", "102739.931000", "102739.934000", "102739.937000", "102739.939000", "102739.942000", "102739.945000", "102739.947000", "102739.950000", "102739.952000", "102739.955000", "102739.958000", "102739.960000", "102739.963000", "102739.965000", "102739.968000", "102739.971000", "102819.920000", "102819.923000", "102819.926000", "102819.928000", "102819.931000", "102819.934000", "102819.936000", "102819.946000", "102819.949000", "102819.951000", "102819.954000", "102819.956000", "102819.959000", "102819.962000", "102819.964000", "102819.967000", "102819.970000", "102819.972000", "102819.975000", "102819.978000", "102859.921000", "102859.924000", "102859.926000", "102859.929000", "102859.931000", "102859.934000", "102859.937000", "102859.939000", "102859.942000", "102859.945000", "102859.947000", "102859.950000", "102859.953000", "102859.955000", "102859.958000", "102859.960000", "102859.963000", "102859.966000", "102859.968000", "102859.971000", "102939.920000", "102939.923000", "102939.926000", "102939.929000", "102939.932000", "102939.934000", "102939.937000", "102939.939000", "102939.948000", "102939.951000", "102939.953000", "102939.956000", "102939.958000", "102939.961000", "102939.964000", "102939.966000", "102939.969000", "102939.972000", "102939.974000", "102939.977000", "103019.921000", "103019.923000", "103019.926000", "103019.929000", "103019.931000", "103019.934000", "103019.937000", "103019.939000", "103019.942000", "103019.945000", "103019.947000", "103019.950000", "103019.953000", "103019.955000", "103019.958000", "103019.960000", "103019.963000", "103019.966000", "103019.968000", "103019.971000", "103059.921000", "103059.924000", "103059.926000", "103059.929000", "103059.932000", "103059.934000", "103059.937000", "103059.940000", "103059.943000", "103059.945000", "103059.948000", "103059.951000", "103059.953000", "103059.956000", "103059.959000", "103059.961000", "103059.964000", "103059.967000", "103059.969000", "103059.972000", "103139.920000", "103139.923000", "103139.926000", "103139.928000", "103139.931000", "103139.934000", "103139.936000", "103139.939000", "103139.942000", "103139.944000", "103139.947000", "103139.956000", "103139.959000", "103139.962000", "103139.965000", "103139.967000", "103139.970000", "103139.973000", "103139.975000", "103139.978000", "103219.921000", "103219.923000", "103219.926000", "103219.929000", "103219.932000", "103219.934000", "103219.937000", "103219.940000", "103219.943000", "103219.945000", "103219.948000", "103219.951000", "103219.953000", "103219.956000", "103219.959000", "103219.961000", "103219.964000", "103219.967000", "103219.969000", "103219.972000", "103252.514000", "103252.517000", "103252.520000", "103252.523000", "103252.526000", "103252.528000", "103252.531000", "103252.534000", "103252.536000", "103252.539000", "103252.542000", "103252.553000", "103252.557000", "103252.563000", "103252.566000", "103252.569000", "103252.572000"],
      "InstanceNumber": [1, 2, 3, 4, 5, 6, 7, 8, 9, 10, 11, 12, 13, 14, 15, 16, 17, 18, 19, 20, 21, 22, 23, 24, 25, 26, 27, 28, 29, 30, 31, 32, 33, 34, 35, 36, 37, 38, 39, 40, 41, 42, 43, 44, 45, 46, 47, 48, 49, 50, 51, 52, 53, 54, 55, 56, 57, 58, 59, 60, 61, 62, 63, 64, 65, 66, 67, 68, 69, 70, 71, 72, 73, 74, 75, 76, 77, 78, 79, 80, 81, 82, 83, 84, 85, 86, 87, 88, 89, 90, 91, 92, 93, 94, 95, 96, 97, 98, 99, 100, 101, 102, 103, 104, 105, 106, 107, 108, 109, 110, 111, 112, 113, 114, 115, 116, 117, 118, 119, 120, 121, 122, 123, 124, 125, 126, 127, 128, 129, 130, 131, 132, 133, 134, 135, 136, 137, 138, 139, 140, 141, 142, 143, 144, 145, 146, 147, 148, 149, 150, 151, 152, 153, 154, 155, 156, 157, 158, 159, 160, 161, 162, 163, 164, 165, 166, 167, 168, 169, 170, 171, 172, 173, 174, 175, 176, 177, 178, 179, 180, 181, 182, 183, 184, 185, 186, 187, 188, 189, 190, 191, 192, 193, 194, 195, 196, 197, 198, 199, 200],
      "LargestImagePixelValue": [2073, 2065, 2067, 2078, 2074, 2066, 2077, 2068, 2065, 2070, 2069, 2069, 2073, 2071, 2067, 2073, 2075, 2070, 2070, 2075, 2067, 2065, 2068, 2071, 2069, 2070, 2069, 2074, 2064, 2072, 2068, 2071, 2065, 2063, 2077, 2068, 2076, 2070, 2071, 2074, 2072, 2068, 2067, 2074, 2064, 2069, 2069, 2068, 2071, 2079, 2079, 2063, 2083, 2073, 2068, 2072, 2070, 2067, 2069, 2074, 2063, 2072, 2069, 2071, 2072, 2071, 2068, 2071, 2070, 2076, 2072, 2069, 2068, 2072, 2069, 2071, 2066, 2066, 2066, 2065, 2069, 2066, 2070, 2066, 2072, 2070, 2073, 2065, 2075, 2072, 2068, 2074, 2068, 2065, 2072, 2071, 2069, 2071, 2071, 2067, 2069, 2070, 2065, 2063, 2066, 2066, 2077, 2063, 2072, 2064, 2068, 2068, 2071, 2070, 2066, 2074, 2067, 2066, 2064, 2066, 2065, 2064, 2069, 2071, 2069, 2069, 2069, 2067, 2068, 2066, 2068, 2075, 2076, 2074, 2067, 2068, 2069, 2064, 2071, 2068, 2067, 2068, 2073, 2072, 2070, 2071, 2070, 2068, 2068, 2068, 2071, 2071, 2064, 2071, 2071, 2072, 2074, 2073, 2068, 2068, 2065, 2065, 2069, 2065, 2070, 2074, 2066, 2068, 2068, 2071, 2073, 2068, 2072, 2065, 2067, 2067, 2073, 2067, 2073, 2069, 2068, 2064, 2069, 2067, 2065, 2071, 2065, 2068, 2067, 2066, 2073, 2072, 2065, 2072, 2069, 2068, 2066, 2071, 2073, 2065],
      "WindowCenter": [999.0, 999.0, 999.0, 999.0, 999.0, 999.0, 999.0, 999.0, 999.0, 999.0, 999.0, 999.0, 999.0, 999.0, 999.0, 999.0, 999.0, 999.0, 999.0, 999.0, 999.0, 999.0, 999.0, 999.0, 999.0, 999.0, 999.0, 999.0, 999.0, 999.0, 999.0, 999.0, 999.0, 999.0, 999.0, 999.0, 999.0, 999.0, 999.0, 999.0, 999.0, 999.0, 999.0, 999.0, 999.0, 999.0, 999.0, 999.0, 998.0, 999.0, 999.0, 999.0, 999.0, 999.0, 998.0, 999.0, 998.0, 999.0, 999.0, 999.0, 999.0, 998.0, 999.0, 998.0, 998.0, 999.0, 998.0, 998.0, 999.0, 999.0, 998.0, 998.0, 998.0, 998.0, 998.0, 998.0, 998.0, 998.0, 999.0, 998.0, 998.0, 998.0, 999.0, 998.0, 998.0, 998.0, 998.0, 998.0, 998.0, 998.0, 998.0, 998.0, 998.0, 998.0, 998.0, 998.0, 998.0, 998.0, 998.0, 998.0, 998.0, 998.0, 998.0, 998.0, 998.0, 998.0, 998.0, 998.0, 998.0, 998.0, 998.0, 998.0, 998.0, 998.0, 998.0, 998.0, 998.0, 998.0, 998.0, 998.0, 998.0, 998.0, 998.0, 998.0, 998.0, 998.0, 998.0, 998.0, 998.0, 998.0, 998.0, 998.0, 998.0, 998.0, 998.0, 998.0, 998.0, 998.0, 998.0, 998.0, 998.0, 998.0, 998.0, 998.0, 998.0, 998.0, 998.0, 998.0, 998.0, 998.0, 998.0, 998.0, 998.0, 998.0, 998.0, 998.0, 998.0, 998.0, 998.0, 998.0, 998.0, 998.0, 998.0, 998.0, 998.0, 998.0, 998.0, 998.0, 998.0, 998.0, 998.0, 998.0, 998.0, 998.0, 998.0, 998.0, 998.0, 998.0, 998.0, 998.0, 998.0, 998.0, 998.0, 998.0, 998.0, 998.0, 998.0, 998.0, 998.0, 998.0, 998.0, 998.0, 998.0, 998.0, 998.0, 998.0, 998.0, 998.0, 998.0, 998.0],
      "WindowWidth": [2200.0, 2199.0, 2199.0, 2199.0, 2199.0, 2199.0, 2199.0, 2199.0, 2199.0, 2199.0, 2199.0, 2199.0, 2199.0, 2199.0, 2199.0, 2199.0, 2199.0, 2199.0, 2199.0, 2199.0, 2199.0, 2199.0, 2199.0, 2199.0, 2199.0, 2199.0, 2199.0, 2199.0, 2199.0, 2199.0, 2199.0, 2199.0, 2199.0, 2199.0, 2199.0, 2199.0, 2199.0, 2199.0, 2199.0, 2199.0, 2200.0, 2199.0, 2199.0, 2199.0, 2199.0, 2199.0, 2199.0, 2199.0, 2199.0, 2199.0, 2199.0, 2199.0, 2199.0, 2198.0, 2199.0, 2199.0, 2199.0, 2199.0, 2199.0, 2199.0, 2199.0, 2199.0, 2199.0, 2199.0, 2199.0, 2200.0, 2199.0, 2198.0, 2199.0, 2199.0, 2198.0, 2199.0, 2199.0, 2199.0, 2199.0, 2199.0, 2198.0, 2199.0, 2199.0, 2199.0, 2198.0, 2199.0, 2199.0, 2199.0, 2199.0, 2199.0, 2199.0, 2199.0, 2199.0, 2199.0, 2198.0, 2199.0, 2198.0, 2199.0, 2199.0, 2199.0, 2198.0, 2199.0, 2199.0, 2199.0, 2198.0, 2199.0, 2199.0, 2199.0, 2199.0, 2199.0, 2199.0, 2199.0, 2199.0, 2199.0, 2198.0, 2198.0, 2199.0, 2199.0, 2199.0, 2199.0, 2199.0, 2199.0, 2198.0, 2199.0, 2199.0, 2199.0, 2199.0, 2199.0, 2199.0, 2198.0, 2199.0, 2199.0, 2198.0, 2199.0, 2199.0, 2199.0, 2199.0, 2199.0, 2198.0, 2198.0, 2199.0, 2199.0, 2199.0, 2199.0, 2199.0, 2199.0, 2199.0, 2199.0, 2198.0, 2199.0, 2199.0, 2199.0, 2199.0, 2199.0, 2199.0, 2199.0, 2199.0, 2199.0, 2199.0, 2199.0, 2199.0, 2199.0, 2199.0, 2199.0, 2199.0, 2198.0, 2198.0, 2198.0, 2199.0, 2198.0, 2199.0, 2199.0, 2199.0, 2199.0, 2199.0, 2199.0, 2199.0, 2199.0, 2198.0, 2199.0, 2199.0, 2199.0, 2199.0, 2199.0, 2199.0, 2199.0, 2199.0, 2198.0, 2198.0, 2199.0, 2199.0, 2198.0, 2199.0, 2198.0, 2198.0, 2198.0, 2199.0, 2198.0, 2198.0, 2199.0, 2198.0, 2199.0, 2199.0, 2198.0]
    },
    "slices": {}
  }
}