{
  "AcquisitionMatrixPE": 80,
  "AcquisitionNumber": 1,
  "AcquisitionTime": "09:44:29.422500",
  "BandwidthPerPixelPhaseEncode": 25,
  "BaseResolution": 80,
  "BodyPartExamined": "BRAIN",
  "CoilCombinationMethod": "Sum of Squares",
  "ConsistencyInfo": "N4_VE11E_LATEST_20181129",
  "ConversionSoftware": "dcm2niix",
  "ConversionSoftwareVersion": "v1.0.20220720",
  "DerivedVendorReportedEchoSpacing": 0.0005,
  "DeviceSerialNumber": "66112",
  "DwellTime": 2.7e-06,
  "EchoTime": 0.03,
  "EchoTrainLength": 80,
  "EffectiveEchoSpacing": 0.0005,
  "FlipAngle": 77,
  "HeudiconvVersion": "0.13.1",
  "ImageOrientationPatientDICOM": [0.990833, -0.135055, 0.00331164, 0.127808, 0.945041, 0.300937],
  "ImageOrientationText": "Tra>Cor(17.3)>Sag(2.5)",
  "ImageType": [
    "ORIGINAL",
    "PRIMARY",
    "M",
    "ND",
    "NORM",
    "MOSAIC"
],
  "ImagingFrequency": 123.259,
  "InPlanePhaseEncodingDirectionDICOM": "COL",
  "InstitutionAddress": "Maynard 3,Hanover,NH,US,03755",
  "InstitutionName": "Dartmouth College - PBS",
  "InstitutionalDepartmentName": "Department",
  "MRAcquisitionType": "2D",
  "MagneticFieldStrength": 3,
  "Manufacturer": "Siemens",
  "ManufacturersModelName": "Prisma",
  "MatrixCoilMode": "SENSE",
  "Modality": "MR",
  "NonlinearGradientCorrection": false,
  "PartialFourier": 1,
  "PatientPosition": "HFS",
  "PercentPhaseFOV": 100,
  "PercentSampling": 100,
  "PhaseEncodingDirection": "j-",
  "PhaseEncodingSteps": 80,
  "PhaseResolution": 1,
  "PixelBandwidth": 2315,
  "ProcedureStepDescription": "dbic^QA",
  "ProtocolName": "func-bold_fa-77",
  "PulseSequenceDetails": "%SiemensSeq%\\ep2d_bold",
  "ReceiveCoilActiveElements": "HEA;HEP",
  "ReceiveCoilName": "Head_32",
  "ReconMatrixPE": 80,
  "RepetitionTime": 2,
  "SAR": 0.0564575,
  "ScanOptions": "FS",
  "ScanningSequence": "EP",
  "SequenceName": "*epfid2d1_80",
  "SequenceVariant": "SK",
  "SeriesDescription": "func-bold_fa-77",
  "SeriesNumber": 7,
  "ShimSetting": [4225, -7739, -7490, -41, -121, -21, 17, 76],
  "SliceThickness": 3.5,
  "SliceTiming": [0.99, 0, 1.055, 0.065, 1.1225, 0.1325, 1.1875, 0.1975, 1.2525, 0.265, 1.32, 0.33, 1.385, 0.395, 1.4525, 0.4625, 1.5175, 0.5275, 1.5825, 0.595, 1.65, 0.66, 1.715, 0.725, 1.7825, 0.7925, 1.8475, 0.8575, 1.9125, 0.9225],
  "SoftwareVersions": "syngo MR E11",
  "SpacingBetweenSlices": 3.99,
  "StationName": "AWP66112",
  "TotalReadoutTime": 0.0395,
  "TxRefAmp": 221.753,
  "dcmmeta_affine": [
    [-2.9724977016448975, 0.3834225535392761, 0.174653097987175, 101.25753021240234],
    [0.405164897441864, 2.8351221084594727, 1.188043236732483, -140.59950256347656],
    [0.009934911504387856, -0.9028118252754211, 3.805016279220581, -20.424114227294922],
    [0.0, 0.0, 0.0, 1.0]
],
  "dcmmeta_reorient_transform": [
    [0.0, -1.0, 0.0, 79.0],
    [1.0, 0.0, 0.0, 0.0],
    [0.0, 0.0, 1.0, 0.0],
    [0.0, 0.0, 0.0, 1.0]
],
  "dcmmeta_shape": [80, 80, 30, 200],
  "dcmmeta_slice_dim": 2,
  "dcmmeta_version": 0.6,
  "global": {
    "const": {
      "AccessionNumber": "qa",
      "AcquisitionMatrix": [80, 0, 0, 80],
      "AngioFlag": "N",
      "BitsAllocated": 16,
      "BitsStored": 12,
      "BodyPartExamined": "BRAIN",
      "Columns": 480,
      "EchoNumbers": 1,
      "EchoTime": 30.0,
      "EchoTrainLength": 80,
      "FlipAngle": 77.0,
      "HighBit": 11,
      "ImageOrientationPatient": [0.99083257362882, -0.1350549669384, 0.00331163726463, 0.12780751663043, 0.94504073864113, 0.3009372708745],
      "ImagePositionPatient": [-802.73196451593, -569.36662120369, -274.29559157624],
      "ImageType": [
        "ORIGINAL",
        "PRIMARY",
        "M",
        "ND",
        "NORM",
        "MOSAIC"
],
      "ImagedNucleus": "1H",
      "ImagingFrequency": 123.259233,
      "InPlanePhaseEncodingDirection": "COL",
      "MRAcquisitionType": "2D",
      "MagneticFieldStrength": 3.0,
      "Manufacturer": "SIEMENS",
      "ManufacturerModelName": "Prisma",
      "Modality": "MR",
      "NumberOfAverages": 1.0,
      "NumberOfPhaseEncodingSteps": 80,
      "PercentPhaseFieldOfView": 100.0,
      "PercentSampling": 100.0,
      "PerformedProcedureStepStartTime": "092627.339000",
      "PhotometricInterpretation": "MONOCHROME2",
      "PixelBandwidth": 2315.0,
      "PixelRepresentation": 0,
      "PixelSpacing": [3.0, 3.0],
      "ProtocolName": "func-bold_fa-77",
      "RepetitionTime": 2000.0,
      "Rows": 480,
      "SAR": 0.05645753970255,
      "SamplesPerPixel": 1,
      "ScanOptions": "FS",
      "ScanningSequence": "EP",
      "SequenceName": "*epfid2d1_80",
      "SequenceVariant": "SK",
      "SeriesDescription": "func-bold_fa-77",
      "SeriesNumber": 7,
      "SeriesTime": "094519.830000",
      "SliceLocation": -56.909129693023,
      "SliceThickness": 3.5,
      "SmallestImagePixelValue": 0,
      "SoftwareVersions": "syngo MR E11",
      "SpacingBetweenSlices": 3.9899999842323,
      "SpecificCharacterSet": "ISO_IR 100",
      "StudyID": "14",
      "StudyTime": "092627.299000",
      "TransmitCoilName": "Body",
      "VariableFlipAngleFlag": "N",
      "WindowCenterWidthExplanation": "Algo1"
    },
    "slices": {}
  },
  "time": {
    "samples": {
      "AcquisitionNumber": [1, 2, 3, 4, 5, 6, 7, 8, 9, 10, 11, 12, 13, 14, 15, 16, 17, 18, 19, 20, 21, 22, 23, 24, 25, 26, 27, 28, 29, 30, 31, 32, 33, 34, 35, 36, 37, 38, 39, 40, 41, 42, 43, 44, 45, 46, 47, 48, 49, 50, 51, 52, 53, 54, 55, 56, 57, 58, 59, 60, 61, 62, 63, 64, 65, 66, 67, 68, 69, 70, 71, 72, 73, 74, 75, 76, 77, 78, 79, 80, 81, 82, 83, 84, 85, 86, 87, 88, 89, 90, 91, 92, 93, 94, 95, 96, 97, 98, 99, 100, 101, 102, 103, 104, 105, 106, 107, 108, 109, 110, 111, 112, 113, 114, 115, 116, 117, 118, 119, 120, 121, 122, 123, 124, 125, 126, 127, 128, 129, 130, 131, 132, 133, 134, 135, 136, 137, 138, 139, 140, 141, 142, 143, 144, 145, 146, 147, 148, 149, 150, 151, 152, 153, 154, 155, 156, 157, 158, 159, 160, 161, 162, 163, 164, 165, 166, 167, 168, 169, 170, 171, 172, 173, 174, 175, 176, 177, 178, 179, 180, 181, 182, 183, 184, 185, 186, 187, 188, 189, 190, 191, 192, 193, 194, 195, 196, 197, 198, 199, 200],
      "AcquisitionTime": ["094429.422500", "094431.422500", "094433.422500", "094435.422500", "094437.422500", "094439.422500", "094441.422500", "094443.422500", "094445.422500", "094447.422500", "094449.422500", "094451.422500", "094453.422500", "094455.422500", "094457.422500", "094459.422500", "094501.422500", "094503.422500", "094505.422500", "094507.422500", "094509.422500", "094511.422500", "094513.422500", "094515.422500", "094517.422500", "094519.422500", "094521.422500", "094523.422500", "094525.422500", "094527.422500", "094529.422500", "094531.422500", "094533.422500", "094535.422500", "094537.422500", "094539.422500", "094541.422500", "094543.422500", "094545.422500", "094547.422500", "094549.422500", "094551.422500", "094553.422500", "094555.422500", "094557.422500", "094559.422500", "094601.422500", "094603.422500", "094605.422500", "094607.422500", "094609.422500", "094611.422500", "094613.422500", "094615.422500", "094617.422500", "094619.422500", "094621.422500", "094623.422500", "094625.422500", "094627.422500", "094629.422500", "094631.422500", "094633.422500", "094635.422500", "094637.422500", "094639.422500", "094641.422500", "094643.422500", "094645.422500", "094647.422500", "094649.422500", "094651.422500", "094653.422500", "094655.422500", "094657.422500", "094659.422500", "094701.422500", "094703.422500", "094705.422500", "094707.422500", "094709.422500", "094711.422500", "094713.422500", "094715.422500", "094717.422500", "094719.422500", "094721.422500", "094723.422500", "094725.422500", "094727.422500", "094729.422500", "094731.422500", "094733.422500", "094735.422500", "094737.422500", "094739.422500", "094741.422500", "094743.422500", "094745.422500", "094747.422500", "094749.422500", "094751.422500", "094753.422500", "094755.422500", "094757.422500", "094759.422500", "094801.422500", "094803.422500", "094805.422500", "094807.422500", "094809.422500", "094811.422500", "094813.422500", "094815.422500", "094817.422500", "094819.422500", "094821.422500", "094823.422500", "094825.422500", "094827.422500", "094829.422500", "094831.422500", "094833.422500", "094835.422500", "094837.422500", "094839.422500", "094841.422500", "094843.422500", "094845.422500", "094847.422500", "094849.422500", "094851.422500", "094853.422500", "094855.422500", "094857.422500", "094859.422500", "094901.422500", "094903.422500", "094905.422500", "094907.422500", "094909.422500", "094911.422500", "094913.422500", "094915.422500", "094917.422500", "094919.422500", "094921.422500", "094923.422500", "094925.422500", "094927.422500", "094929.422500", "094931.422500", "094933.422500", "094935.422500", "094937.422500", "094939.422500", "094941.422500", "094943.422500", "094945.422500", "094947.422500", "094949.422500", "094951.422500", "094953.422500", "094955.422500", "094957.422500", "094959.422500", "095001.422500", "095003.422500", "095005.422500", "095007.422500", "095009.422500", "095011.422500", "095013.422500", "095015.422500", "095017.422500", "095019.422500", "095021.422500", "095023.422500", "095025.422500", "095027.422500", "095029.422500", "095031.422500", "095033.422500", "095035.422500", "095037.422500", "095039.422500", "095041.422500", "095043.422500", "095045.422500", "095047.422500", "095049.422500", "095051.422500", "095053.422500", "095055.422500", "095057.422500", "095059.422500", "095101.422500", "095103.422500", "095105.422500", "095107.422500"],
      "ContentTime": ["094519.833000", "094519.836000", "094519.838000", "094519.841000", "094519.843000", "094519.845000", "094519.847000", "094519.850000", "094519.852000", "094519.854000", "094519.856000", "094519.859000", "094519.862000", "094519.864000", "094519.866000", "094519.871000", "094519.880000", "094519.882000", "094519.885000", "094519.887000", "094519.889000", "094519.892000", "094519.894000", "094519.896000", "094519.899000", "094559.827000", "094559.830000", "094559.832000", "094559.842000", "094559.845000", "094559.847000", "094559.849000", "094559.851000", "094559.854000", "094559.856000", "094559.858000", "094559.862000", "094559.864000", "094559.866000", "094559.869000", "094559.871000", "094559.873000", "094559.876000", "094559.878000", "094559.880000", "094639.827000", "094639.830000", "094639.832000", "094639.834000", "094639.837000", "094639.839000", "094639.841000", "094639.843000", "094639.846000", "094639.848000", "094639.850000", "094639.852000", "094639.855000", "094639.857000", "094639.860000", "094639.862000", "094639.864000", "094639.867000", "094639.869000", "094639.871000", "094719.828000", "094719.831000", "094719.833000", "094719.835000", "094719.838000", "094719.840000", "094719.842000", "094719.844000", "094719.847000", "094719.849000", "094719.851000", "094719.853000", "094719.856000", "094719.859000", "094719.861000", "094719.863000", "094719.866000", "094719.868000", "094719.870000", "094719.872000", "094759.827000", "094759.830000", "094759.832000", "094759.834000", "094759.836000", "094759.839000", "094759.841000", "094759.843000", "094759.846000", "094759.848000", "094759.850000", "094759.852000", "094759.855000", "094759.857000", "094759.860000", "094759.862000", "094759.864000", "094759.867000", "094759.869000", "094759.871000", "094839.827000", "094839.830000", "094839.832000", "094839.834000", "094839.836000", "094839.839000", "094839.841000", "094839.843000", "094839.845000", "094839.848000", "094839.850000", "094839.852000", "094839.855000", "094839.857000", "094839.861000", "094839.863000", "094839.865000", "094839.867000", "094839.870000", "094839.872000", "094919.827000", "094919.830000", "094919.832000", "094919.834000", "094919.836000", "094919.839000", "094919.841000", "094919.843000", "094919.846000", "094919.848000", "094919.850000", "094919.852000", "094919.855000", "094919.857000", "094919.860000", "094919.862000", "094919.864000", "094919.867000", "094919.869000", "094919.871000", "094959.828000", "094959.831000", "094959.833000", "094959.835000", "094959.838000", "094959.840000", "094959.842000", "094959.845000", "094959.847000", "094959.849000", "094959.851000", "094959.854000", "094959.856000", "094959.859000", "094959.861000", "094959.863000", "094959.866000", "094959.868000", "094959.870000", "094959.873000", "095039.827000", "095039.830000", "095039.832000", "095039.834000", "095039.837000", "095039.839000", "095039.841000", "095039.844000", "095039.846000", "095039.848000", "095039.851000", "095039.853000", "095039.855000", "095039.858000", "095039.861000", "095039.863000", "095039.865000", "095039.867000", "095039.870000", "095039.872000", "095059.827000", "095059.830000", "095059.832000", "095059.834000", "095059.837000", "095059.839000", "095059.841000", "095059.844000", "095059.846000", "095059.848000", "095109.002000", "095109.005000", "095109.007000", "095109.009000", "095109.012000"],
      "InstanceCreationTime": ["094519.833000", "094519.836000", "094519.838000", "094519.841000", "094519.843000", "094519.845000", "094519.847000", "094519.850000", "094519.852000", "094519.854000", "094519.856000", "094519.859000", "094519.862000", "094519.864000", "094519.866000", "094519.871000", "094519.880000", "094519.882000", "094519.885000", "094519.887000", "094519.889000", "094519.892000", "094519.894000", "094519.896000", "094519.899000", "094559.827000", "094559.830000", "094559.832000", "094559.842000", "094559.845000", "094559.847000", "094559.849000", "094559.851000", "094559.854000", "094559.856000", "094559.858000", "094559.862000", "094559.864000", "094559.866000", "094559.869000", "094559.871000", "094559.873000", "094559.876000", "094559.878000", "094559.880000", "094639.827000", "094639.830000", "094639.832000", "094639.834000", "094639.837000", "094639.839000", "094639.841000", "094639.843000", "094639.846000", "094639.848000", "094639.850000", "094639.852000", "094639.855000", "094639.857000", "094639.860000", "094639.862000", "094639.864000", "094639.867000", "094639.869000", "094639.871000", "094719.828000", "094719.831000", "094719.833000", "094719.835000", "094719.838000", "094719.840000", "094719.842000", "094719.844000", "094719.847000", "094719.849000", "094719.851000", "094719.853000", "094719.856000", "094719.859000", "094719.861000", "094719.863000", "094719.866000", "094719.868000", "094719.870000", "094719.872000", "094759.827000", "094759.830000", "094759.832000", "094759.834000", "094759.836000", "094759.839000", "094759.841000", "094759.843000", "094759.846000", "094759.848000", "094759.850000", "094759.852000", "094759.855000", "094759.857000", "094759.860000", "094759.862000", "094759.864000", "094759.867000", "094759.869000", "094759.871000", "094839.827000", "094839.830000", "094839.832000", "094839.834000", "094839.836000", "094839.839000", "094839.841000", "094839.843000", "094839.845000", "094839.848000", "094839.850000", "094839.852000", "094839.855000", "094839.857000", "094839.861000", "094839.863000", "094839.865000", "094839.867000", "094839.870000", "094839.872000", "094919.827000", "094919.830000", "094919.832000", "094919.834000", "094919.836000", "094919.839000", "094919.841000", "094919.843000", "094919.846000", "094919.848000", "094919.850000", "094919.852000", "094919.855000", "094919.857000", "094919.860000", "094919.862000", "094919.864000", "094919.867000", "094919.869000", "094919.871000", "094959.828000", "094959.831000", "094959.833000", "094959.835000", "094959.838000", "094959.840000", "094959.842000", "094959.845000", "094959.847000", "094959.849000", "094959.851000", "094959.854000", "094959.856000", "094959.859000", "094959.861000", "094959.863000", "094959.866000", "094959.868000", "094959.870000", "094959.873000", "095039.827000", "095039.830000", "095039.832000", "095039.834000", "095039.837000", "095039.839000", "095039.841000", "095039.844000", "095039.846000", "095039.848000", "095039.851000", "095039.853000", "095039.855000", "095039.858000", "095039.861000", "095039.863000", "095039.865000", "095039.867000", "095039.870000", "095039.872000", "095059.827000", "095059.830000", "095059.832000", "095059.834000", "095059.837000", "095059.839000", "095059.841000", "095059.844000", "095059.846000", "095059.848000", "095109.002000", "095109.005000", "095109.007000", "095109.009000", "095109.012000"],
      "InstanceNumber": [1, 2, 3, 4, 5, 6, 7, 8, 9, 10, 11, 12, 13, 14, 15, 16, 17, 18, 19, 20, 21, 22, 23, 24, 25, 26, 27, 28, 29, 30, 31, 32, 33, 34, 35, 36, 37, 38, 39, 40, 41, 42, 43, 44, 45, 46, 47, 48, 49, 50, 51, 52, 53, 54, 55, 56, 57, 58, 59, 60, 61, 62, 63, 64, 65, 66, 67, 68, 69, 70, 71, 72, 73, 74, 75, 76, 77, 78, 79, 80, 81, 82, 83, 84, 85, 86, 87, 88, 89, 90, 91, 92, 93, 94, 95, 96, 97, 98, 99, 100, 101, 102, 103, 104, 105, 106, 107, 108, 109, 110, 111, 112, 113, 114, 115, 116, 117, 118, 119, 120, 121, 122, 123, 124, 125, 126, 127, 128, 129, 130, 131, 132, 133, 134, 135, 136, 137, 138, 139, 140, 141, 142, 143, 144, 145, 146, 147, 148, 149, 150, 151, 152, 153, 154, 155, 156, 157, 158, 159, 160, 161, 162, 163, 164, 165, 166, 167, 168, 169, 170, 171, 172, 173, 174, 175, 176, 177, 178, 179, 180, 181, 182, 183, 184, 185, 186, 187, 188, 189, 190, 191, 192, 193, 194, 195, 196, 197, 198, 199, 200],
      "LargestImagePixelValue": [2142, 2144, 2142, 2143, 2143, 2142, 2145, 2144, 2145, 2145, 2140, 2139, 2142, 2140, 2144, 2145, 2145, 2143, 2146, 2146, 2144, 2145, 2145, 2147, 2144, 2145, 2144, 2145, 2145, 2144, 2144, 2146, 2145, 2143, 2144, 2146, 2142, 2144, 2144, 2144, 2142, 2143, 2147, 2145, 2145, 2145, 2146, 2144, 2144, 2144, 2144, 2142, 2144, 2142, 2142, 2144, 2143, 2143, 2143, 2144, 2144, 2146, 2143, 2144, 2144, 2142, 2143, 2143, 2143, 2144, 2145, 2143, 2143, 2144, 2145, 2145, 2147, 2146, 2147, 2145, 2146, 2146, 2146, 2144, 2147, 2146, 2147, 2145, 2147, 2148, 2149, 2146, 2147, 2146, 2146, 2146, 2147, 2145, 2146, 2145, 2148, 2146, 2147, 2146, 2145, 2145, 2146, 2148, 2149, 2148, 2148, 2147, 2146, 2147, 2145, 2146, 2145, 2146, 2147, 2145, 2145, 2144, 2145, 2147, 2146, 2146, 2147, 2147, 2147, 2147, 2147, 2144, 2146, 2146, 2147, 2146, 2146, 2146, 2144, 2145, 2144, 2145, 2148, 2149, 2149, 2145, 2144, 2146, 2144, 2145, 2145, 2147, 2145, 2147, 2146, 2149, 2150, 2149, 2149, 2148, 2148, 2147, 2146, 2148, 2145, 2148, 2146, 2147, 2148, 2150, 2149, 2149, 2150, 2148, 2148, 2148, 2148, 2147, 2150, 2149, 2148, 2149, 2149, 2146, 2147, 2149, 2146, 2149, 2147, 2145, 2149, 2149, 2149, 2149, 2151, 2150, 2149, 2151, 2150, 2149],
      "WindowCenter": [1023.0, 1024.0, 1024.0, 1022.0, 1023.0, 1023.0, 1023.0, 1024.0, 1023.0, 1022.0, 1024.0, 1022.0, 1023.0, 1024.0, 1023.0, 1022.0, 1022.0, 1022.0, 1023.0, 1022.0, 1023.0, 1022.0, 1023.0, 1023.0, 1024.0, 1023.0, 1022.0, 1022.0, 1024.0, 1022.0, 1022.0, 1023.0, 1023.0, 1022.0, 1023.0, 1023.0, 1023.0, 1022.0, 1023.0, 1023.0, 1023.0, 1023.0, 1023.0, 1022.0, 1023.0, 1023.0, 1023.0, 1023.0, 1022.0, 1022.0, 1023.0, 1023.0, 1023.0, 1023.0, 1023.0, 1022.0, 1024.0, 1022.0, 1023.0, 1022.0, 1022.0, 1022.0, 1022.0, 1022.0, 1023.0, 1023.0, 1022.0, 1023.0, 1023.0, 1023.0, 1023.0, 1023.0, 1023.0, 1023.0, 1022.0, 1024.0, 1023.0, 1023.0, 1024.0, 1022.0, 1023.0, 1023.0, 1021.0, 1022.0, 1024.0, 1022.0, 1022.0, 1023.0, 1023.0, 1022.0, 1022.0, 1023.0, 1023.0, 1022.0, 1023.0, 1023.0, 1023.0, 1022.0, 1022.0, 1023.0, 1022.0, 1022.0, 1022.0, 1022.0, 1023.0, 1022.0, 1023.0, 1021.0, 1023.0, 1022.0, 1023.0, 1022.0, 1023.0, 1022.0, 1023.0, 1023.0, 1021.0, 1021.0, 1023.0, 1023.0, 1022.0, 1021.0, 1021.0, 1023.0, 1022.0, 1022.0, 1022.0, 1022.0, 1022.0, 1021.0, 1022.0, 1022.0, 1022.0, 1022.0, 1021.0, 1021.0, 1022.0, 1021.0, 1022.0, 1021.0, 1023.0, 1021.0, 1023.0, 1021.0, 1020.0, 1022.0, 1023.0, 1021.0, 1021.0, 1021.0, 1021.0, 1021.0, 1021.0, 1021.0, 1021.0, 1021.0, 1021.0, 1022.0, 1023.0, 1023.0, 1023.0, 1023.0, 1022.0, 1023.0, 1022.0, 1022.0, 1021.0, 1022.0, 1022.0, 1023.0, 1021.0, 1023.0, 1021.0, 1022.0, 1022.0, 1023.0, 1021.0, 1021.0, 1022.0, 1022.0, 1022.0, 1022.0, 1022.0, 1022.0, 1022.0, 1023.0, 1023.0, 1022.0, 1021.0, 1022.0, 1023.0, 1022.0, 1022.0, 1023.0, 1024.0, 1023.0, 1021.0, 1022.0, 1021.0, 1022.0],
      "WindowWidth": [2289.0, 2290.0, 2290.0, 2289.0, 2290.0, 2289.0, 2290.0, 2290.0, 2290.0, 2289.0, 2290.0, 2289.0, 2289.0, 2290.0, 2289.0, 2289.0, 2289.0, 2289.0, 2289.0, 2289.0, 2289.0, 2289.0, 2289.0, 2289.0, 2290.0, 2289.0, 2288.0, 2288.0, 2290.0, 2288.0, 2288.0, 2289.0, 2289.0, 2288.0, 2289.0, 2289.0, 2289.0, 2288.0, 2289.0, 2289.0, 2289.0, 2289.0, 2289.0, 2288.0, 2289.0, 2289.0, 2289.0, 2289.0, 2288.0, 2288.0, 2289.0, 2288.0, 2289.0, 2289.0, 2289.0, 2288.0, 2289.0, 2288.0, 2288.0, 2288.0, 2288.0, 2288.0, 2288.0, 2288.0, 2288.0, 2288.0, 2288.0, 2289.0, 2288.0, 2289.0, 2289.0, 2289.0, 2289.0, 2289.0, 2288.0, 2289.0, 2289.0, 2289.0, 2289.0, 2287.0, 2288.0, 2288.0, 2287.0, 2287.0, 2289.0, 2287.0, 2287.0, 2288.0, 2289.0, 2288.0, 2288.0, 2289.0, 2288.0, 2287.0, 2288.0, 2288.0, 2288.0, 2287.0, 2287.0, 2288.0, 2287.0, 2287.0, 2288.0, 2287.0, 2289.0, 2288.0, 2289.0, 2288.0, 2289.0, 2288.0, 2289.0, 2287.0, 2289.0, 2288.0, 2289.0, 2289.0, 2287.0, 2287.0, 2289.0, 2289.0, 2288.0, 2287.0, 2287.0, 2289.0, 2288.0, 2288.0, 2288.0, 2288.0, 2288.0, 2287.0, 2288.0, 2288.0, 2288.0, 2288.0, 2287.0, 2287.0, 2288.0, 2287.0, 2288.0, 2287.0, 2288.0, 2287.0, 2288.0, 2287.0, 2286.0, 2288.0, 2288.0, 2287.0, 2287.0, 2287.0, 2287.0, 2287.0, 2287.0, 2287.0, 2287.0, 2287.0, 2287.0, 2288.0, 2288.0, 2288.0, 2288.0, 2288.0, 2288.0, 2288.0, 2287.0, 2288.0, 2287.0, 2288.0, 2287.0, 2288.0, 2287.0, 2288.0, 2287.0, 2287.0, 2287.0, 2288.0, 2287.0, 2287.0, 2287.0, 2287.0, 2287.0, 2287.0, 2287.0, 2287.0, 2287.0, 2288.0, 2288.0, 2287.0, 2287.0, 2287.0, 2288.0, 2287.0, 2287.0, 2288.0, 2289.0, 2288.0, 2287.0, 2287.0, 2287.0, 2287.0]
    },
    "slices": {}
  }
}