{
  "AcquisitionMatrixPE": 80,
  "AcquisitionNumber": 1,
  "AcquisitionTime": "09:51:15.490000",
  "BandwidthPerPixelPhaseEncode": 25,
  "BaseResolution": 80,
  "BodyPartExamined": "BRAIN",
  "CoilCombinationMethod": "Sum of Squares",
  "ConsistencyInfo": "N4_VE11E_LATEST_20181129",
  "ConversionSoftware": "dcm2niix",
  "ConversionSoftwareVersion": "v1.0.20220720",
  "DerivedVendorReportedEchoSpacing": 0.0005,
  "DeviceSerialNumber": "66112",
  "DwellTime": 2.7e-06,
  "EchoTime": 0.03,
  "EchoTrainLength": 80,
  "EffectiveEchoSpacing": 0.0005,
  "FlipAngle": 10,
  "HeudiconvVersion": "0.13.1",
  "ImageOrientationPatientDICOM": [0.990833, -0.135055, 0.00331164, 0.127808, 0.945041, 0.300937],
  "ImageOrientationText": "Tra>Cor(17.3)>Sag(2.5)",
  "ImageType": [
    "ORIGINAL",
    "PRIMARY",
    "M",
    "ND",
    "NORM",
    "MOSAIC"
],
  "ImagingFrequency": 123.259,
  "InPlanePhaseEncodingDirectionDICOM": "COL",
  "InstitutionAddress": "Maynard 3,Hanover,NH,US,03755",
  "InstitutionName": "Dartmouth College - PBS",
  "InstitutionalDepartmentName": "Department",
  "MRAcquisitionType": "2D",
  "MagneticFieldStrength": 3,
  "Manufacturer": "Siemens",
  "ManufacturersModelName": "Prisma",
  "MatrixCoilMode": "SENSE",
  "Modality": "MR",
  "NonlinearGradientCorrection": false,
  "PartialFourier": 1,
  "PatientPosition": "HFS",
  "PercentPhaseFOV": 100,
  "PercentSampling": 100,
  "PhaseEncodingDirection": "j-",
  "PhaseEncodingSteps": 80,
  "PhaseResolution": 1,
  "PixelBandwidth": 2315,
  "ProcedureStepDescription": "dbic^QA",
  "ProtocolName": "func-bold_fa-10",
  "PulseSequenceDetails": "%SiemensSeq%\\ep2d_bold",
  "ReceiveCoilActiveElements": "HEA;HEP",
  "ReceiveCoilName": "Head_32",
  "ReconMatrixPE": 80,
  "RepetitionTime": 2,
  "SAR": 0.0151447,
  "ScanOptions": "FS",
  "ScanningSequence": "EP",
  "SequenceName": "*epfid2d1_80",
  "SequenceVariant": "SK",
  "SeriesDescription": "func-bold_fa-10",
  "SeriesNumber": 8,
  "ShimSetting": [4225, -7739, -7490, -41, -121, -21, 17, 76],
  "SliceThickness": 3.5,
  "SliceTiming": [0.99, 0, 1.055, 0.065, 1.1225, 0.1325, 1.1875, 0.1975, 1.2525, 0.2625, 1.32, 0.33, 1.385, 0.395, 1.4525, 0.4625, 1.5175, 0.5275, 1.5825, 0.5925, 1.65, 0.66, 1.715, 0.725, 1.7825, 0.7925, 1.8475, 0.8575, 1.9125, 0.9225],
  "SoftwareVersions": "syngo MR E11",
  "SpacingBetweenSlices": 3.99,
  "StationName": "AWP66112",
  "TotalReadoutTime": 0.0395,
  "TxRefAmp": 221.753,
  "dcmmeta_affine": [
    [-2.9724977016448975, 0.3834225535392761, 0.174653097987175, 101.25753021240234],
    [0.405164897441864, 2.8351221084594727, 1.188043236732483, -140.59950256347656],
    [0.009934911504387856, -0.9028118252754211, 3.805016279220581, -20.424114227294922],
    [0.0, 0.0, 0.0, 1.0]
],
  "dcmmeta_reorient_transform": [
    [0.0, -1.0, 0.0, 79.0],
    [1.0, 0.0, 0.0, 0.0],
    [0.0, 0.0, 1.0, 0.0],
    [0.0, 0.0, 0.0, 1.0]
],
  "dcmmeta_shape": [80, 80, 30, 200],
  "dcmmeta_slice_dim": 2,
  "dcmmeta_version": 0.6,
  "global": {
    "const": {
      "AccessionNumber": "qa",
      "AcquisitionMatrix": [80, 0, 0, 80],
      "AngioFlag": "N",
      "BitsAllocated": 16,
      "BitsStored": 12,
      "BodyPartExamined": "BRAIN",
      "Columns": 480,
      "EchoNumbers": 1,
      "EchoTime": 30.0,
      "EchoTrainLength": 80,
      "FlipAngle": 10.0,
      "HighBit": 11,
      "ImageOrientationPatient": [0.99083257362882, -0.1350549669384, 0.00331163726463, 0.12780751663043, 0.94504073864113, 0.3009372708745],
      "ImagePositionPatient": [-802.73196451593, -569.36662120369, -274.29559157624],
      "ImageType": [
        "ORIGINAL",
        "PRIMARY",
        "M",
        "ND",
        "NORM",
        "MOSAIC"
],
      "ImagedNucleus": "1H",
      "ImagingFrequency": 123.259234,
      "InPlanePhaseEncodingDirection": "COL",
      "MRAcquisitionType": "2D",
      "MagneticFieldStrength": 3.0,
      "Manufacturer": "SIEMENS",
      "ManufacturerModelName": "Prisma",
      "Modality": "MR",
      "NumberOfAverages": 1.0,
      "NumberOfPhaseEncodingSteps": 80,
      "PercentPhaseFieldOfView": 100.0,
      "PercentSampling": 100.0,
      "PerformedProcedureStepStartTime": "092627.339000",
      "PhotometricInterpretation": "MONOCHROME2",
      "PixelBandwidth": 2315.0,
      "PixelRepresentation": 0,
      "PixelSpacing": [3.0, 3.0],
      "ProtocolName": "func-bold_fa-10",
      "RepetitionTime": 2000.0,
      "Rows": 480,
      "SAR": 0.01514468494685,
      "SamplesPerPixel": 1,
      "ScanOptions": "FS",
      "ScanningSequence": "EP",
      "SequenceName": "*epfid2d1_80",
      "SequenceVariant": "SK",
      "SeriesDescription": "func-bold_fa-10",
      "SeriesNumber": 8,
      "SeriesTime": "095159.916000",
      "SliceLocation": -56.909129693023,
      "SliceThickness": 3.5,
      "SmallestImagePixelValue": 0,
      "SoftwareVersions": "syngo MR E11",
      "SpacingBetweenSlices": 3.9899999842323,
      "SpecificCharacterSet": "ISO_IR 100",
      "StudyID": "14",
      "StudyTime": "092627.299000",
      "TransmitCoilName": "Body",
      "VariableFlipAngleFlag": "N",
      "WindowCenterWidthExplanation": "Algo1"
    },
    "slices": {}
  },
  "time": {
    "samples": {
      "AcquisitionNumber": [1, 2, 3, 4, 5, 6, 7, 8, 9, 10, 11, 12, 13, 14, 15, 16, 17, 18, 19, 20, 21, 22, 23, 24, 25, 26, 27, 28, 29, 30, 31, 32, 33, 34, 35, 36, 37, 38, 39, 40, 41, 42, 43, 44, 45, 46, 47, 48, 49, 50, 51, 52, 53, 54, 55, 56, 57, 58, 59, 60, 61, 62, 63, 64, 65, 66, 67, 68, 69, 70, 71, 72, 73, 74, 75, 76, 77, 78, 79, 80, 81, 82, 83, 84, 85, 86, 87, 88, 89, 90, 91, 92, 93, 94, 95, 96, 97, 98, 99, 100, 101, 102, 103, 104, 105, 106, 107, 108, 109, 110, 111, 112, 113, 114, 115, 116, 117, 118, 119, 120, 121, 122, 123, 124, 125, 126, 127, 128, 129, 130, 131, 132, 133, 134, 135, 136, 137, 138, 139, 140, 141, 142, 143, 144, 145, 146, 147, 148, 149, 150, 151, 152, 153, 154, 155, 156, 157, 158, 159, 160, 161, 162, 163, 164, 165, 166, 167, 168, 169, 170, 171, 172, 173, 174, 175, 176, 177, 178, 179, 180, 181, 182, 183, 184, 185, 186, 187, 188, 189, 190, 191, 192, 193, 194, 195, 196, 197, 198, 199, 200],
      "AcquisitionTime": ["095115.490000", "095117.490000", "095119.490000", "095121.490000", "095123.490000", "095125.490000", "095127.490000", "095129.490000", "095131.490000", "095133.490000", "095135.490000", "095137.490000", "095139.490000", "095141.490000", "095143.490000", "095145.490000", "095147.490000", "095149.490000", "095151.490000", "095153.490000", "095155.490000", "095157.490000", "095159.490000", "095201.490000", "095203.490000", "095205.490000", "095207.490000", "095209.490000", "095211.490000", "095213.490000", "095215.490000", "095217.490000", "095219.490000", "095221.490000", "095223.490000", "095225.490000", "095227.490000", "095229.490000", "095231.490000", "095233.490000", "095235.490000", "095237.490000", "095239.490000", "095241.490000", "095243.490000", "095245.490000", "095247.490000", "095249.490000", "095251.490000", "095253.490000", "095255.490000", "095257.490000", "095259.490000", "095301.490000", "095303.490000", "095305.490000", "095307.490000", "095309.490000", "095311.490000", "095313.490000", "095315.490000", "095317.490000", "095319.490000", "095321.490000", "095323.490000", "095325.490000", "095327.490000", "095329.490000", "095331.490000", "095333.490000", "095335.490000", "095337.490000", "095339.490000", "095341.490000", "095343.490000", "095345.490000", "095347.490000", "095349.490000", "095351.490000", "095353.490000", "095355.490000", "095357.490000", "095359.490000", "095401.490000", "095403.490000", "095405.490000", "095407.490000", "095409.490000", "095411.490000", "095413.490000", "095415.490000", "095417.490000", "095419.490000", "095421.490000", "095423.490000", "095425.490000", "095427.490000", "095429.490000", "095431.490000", "095433.490000", "095435.490000", "095437.490000", "095439.490000", "095441.490000", "095443.490000", "095445.490000", "095447.490000", "095449.490000", "095451.490000", "095453.490000", "095455.490000", "095457.490000", "095459.490000", "095501.490000", "095503.490000", "095505.490000", "095507.490000", "095509.490000", "095511.490000", "095513.490000", "095515.490000", "095517.490000", "095519.490000", "095521.490000", "095523.490000", "095525.490000", "095527.490000", "095529.490000", "095531.490000", "095533.490000", "095535.490000", "095537.490000", "095539.490000", "095541.490000", "095543.490000", "095545.490000", "095547.490000", "095549.490000", "095551.490000", "095553.490000", "095555.490000", "095557.490000", "095559.490000", "095601.490000", "095603.490000", "095605.490000", "095607.490000", "095609.490000", "095611.490000", "095613.490000", "095615.490000", "095617.490000", "095619.490000", "095621.490000", "095623.490000", "095625.490000", "095627.490000", "095629.490000", "095631.490000", "095633.490000", "095635.490000", "095637.490000", "095639.490000", "095641.490000", "095643.490000", "095645.490000", "095647.490000", "095649.490000", "095651.490000", "095653.490000", "095655.490000", "095657.490000", "095659.490000", "095701.490000", "095703.490000", "095705.490000", "095707.490000", "095709.490000", "095711.490000", "095713.490000", "095715.490000", "095717.490000", "095719.490000", "095721.490000", "095723.490000", "095725.490000", "095727.490000", "095729.490000", "095731.490000", "095733.490000", "095735.490000", "095737.490000", "095739.490000", "095741.490000", "095743.490000", "095745.490000", "095747.490000", "095749.490000", "095751.490000", "095753.490000"],
      "ContentTime": ["095159.920000", "095159.923000", "095159.925000", "095159.927000", "095159.929000", "095159.941000", "095159.943000", "095159.946000", "095159.948000", "095159.950000", "095159.953000", "095159.955000", "095159.957000", "095159.959000", "095159.962000", "095159.969000", "095159.972000", "095159.974000", "095159.976000", "095159.978000", "095159.981000", "095159.983000", "095239.914000", "095239.917000", "095239.919000", "095239.922000", "095239.924000", "095239.926000", "095239.929000", "095239.931000", "095239.933000", "095239.935000", "095239.938000", "095239.940000", "095239.942000", "095239.944000", "095239.947000", "095239.949000", "095239.951000", "095239.954000", "095239.956000", "095239.958000", "095319.914000", "095319.917000", "095319.919000", "095319.922000", "095319.924000", "095319.926000", "095319.928000", "095319.931000", "095319.933000", "095319.935000", "095319.938000", "095319.940000", "095319.942000", "095319.944000", "095319.947000", "095319.949000", "095319.951000", "095319.953000", "095319.956000", "095319.958000", "095359.914000", "095359.917000", "095359.919000", "095359.921000", "095359.924000", "095359.926000", "095359.928000", "095359.930000", "095359.933000", "095359.935000", "095359.937000", "095359.940000", "095359.942000", "095359.944000", "095359.946000", "095359.949000", "095359.951000", "095359.953000", "095359.955000", "095359.958000", "095439.915000", "095439.918000", "095439.920000", "095439.922000", "095439.925000", "095439.927000", "095439.929000", "095439.932000", "095439.934000", "095439.936000", "095439.939000", "095439.941000", "095439.943000", "095439.946000", "095439.948000", "095439.950000", "095439.952000", "095439.955000", "095439.957000", "095439.959000", "095519.914000", "095519.917000", "095519.919000", "095519.922000", "095519.924000", "095519.926000", "095519.928000", "095519.931000", "095519.933000", "095519.935000", "095519.938000", "095519.940000", "095519.942000", "095519.944000", "095519.947000", "095519.949000", "095519.951000", "095519.954000", "095519.956000", "095519.958000", "095559.914000", "095559.917000", "095559.919000", "095559.921000", "095559.924000", "095559.926000", "095559.928000", "095559.931000", "095559.933000", "095559.935000", "095559.937000", "095559.940000", "095559.942000", "095559.944000", "095559.947000", "095559.949000", "095559.951000", "095559.953000", "095559.956000", "095559.958000", "095639.915000", "095639.918000", "095639.920000", "095639.922000", "095639.925000", "095639.927000", "095639.929000", "095639.932000", "095639.934000", "095639.936000", "095639.938000", "095639.941000", "095639.943000", "095639.945000", "095639.948000", "095639.950000", "095639.952000", "095639.954000", "095639.957000", "095639.959000", "095719.914000", "095719.917000", "095719.919000", "095719.922000", "095719.924000", "095719.926000", "095719.928000", "095719.931000", "095719.933000", "095719.935000", "095719.937000", "095719.940000", "095719.942000", "095719.944000", "095719.947000", "095719.949000", "095719.951000", "095719.953000", "095719.956000", "095719.958000", "095755.385000", "095755.388000", "095755.390000", "095755.392000", "095755.395000", "095755.397000", "095755.399000", "095755.402000", "095755.404000", "095755.406000", "095755.409000", "095755.411000", "095755.414000", "095755.416000", "095755.418000", "095755.421000", "095755.423000", "095755.425000"],
      "InstanceCreationTime": ["095159.920000", "095159.923000", "095159.925000", "095159.927000", "095159.929000", "095159.941000", "095159.943000", "095159.946000", "095159.948000", "095159.950000", "095159.953000", "095159.955000", "095159.957000", "095159.959000", "095159.962000", "095159.969000", "095159.972000", "095159.974000", "095159.976000", "095159.978000", "095159.981000", "095159.983000", "095239.914000", "095239.917000", "095239.919000", "095239.922000", "095239.924000", "095239.926000", "095239.929000", "095239.931000", "095239.933000", "095239.935000", "095239.938000", "095239.940000", "095239.942000", "095239.944000", "095239.947000", "095239.949000", "095239.951000", "095239.954000", "095239.956000", "095239.958000", "095319.914000", "095319.917000", "095319.919000", "095319.922000", "095319.924000", "095319.926000", "095319.928000", "095319.931000", "095319.933000", "095319.935000", "095319.938000", "095319.940000", "095319.942000", "095319.944000", "095319.947000", "095319.949000", "095319.951000", "095319.953000", "095319.956000", "095319.958000", "095359.914000", "095359.917000", "095359.919000", "095359.921000", "095359.924000", "095359.926000", "095359.928000", "095359.930000", "095359.933000", "095359.935000", "095359.937000", "095359.940000", "095359.942000", "095359.944000", "095359.946000", "095359.949000", "095359.951000", "095359.953000", "095359.955000", "095359.958000", "095439.915000", "095439.918000", "095439.920000", "095439.922000", "095439.925000", "095439.927000", "095439.929000", "095439.932000", "095439.934000", "095439.936000", "095439.939000", "095439.941000", "095439.943000", "095439.946000", "095439.948000", "095439.950000", "095439.952000", "095439.955000", "095439.957000", "095439.959000", "095519.914000", "095519.917000", "095519.919000", "095519.922000", "095519.924000", "095519.926000", "095519.928000", "095519.931000", "095519.933000", "095519.935000", "095519.938000", "095519.940000", "095519.942000", "095519.944000", "095519.947000", "095519.949000", "095519.951000", "095519.954000", "095519.956000", "095519.958000", "095559.914000", "095559.917000", "095559.919000", "095559.921000", "095559.924000", "095559.926000", "095559.928000", "095559.931000", "095559.933000", "095559.935000", "095559.937000", "095559.940000", "095559.942000", "095559.944000", "095559.947000", "095559.949000", "095559.951000", "095559.953000", "095559.956000", "095559.958000", "095639.915000", "095639.918000", "095639.920000", "095639.922000", "095639.925000", "095639.927000", "095639.929000", "095639.932000", "095639.934000", "095639.936000", "095639.938000", "095639.941000", "095639.943000", "095639.945000", "095639.948000", "095639.950000", "095639.952000", "095639.954000", "095639.957000", "095639.959000", "095719.914000", "095719.917000", "095719.919000", "095719.922000", "095719.924000", "095719.926000", "095719.928000", "095719.931000", "095719.933000", "095719.935000", "095719.937000", "095719.940000", "095719.942000", "095719.944000", "095719.947000", "095719.949000", "095719.951000", "095719.953000", "095719.956000", "095719.958000", "095755.385000", "095755.388000", "095755.390000", "095755.392000", "095755.395000", "095755.397000", "095755.399000", "095755.402000", "095755.404000", "095755.406000", "095755.409000", "095755.411000", "095755.414000", "095755.416000", "095755.418000", "095755.421000", "095755.423000", "095755.425000"],
      "InstanceNumber": [1, 2, 3, 4, 5, 6, 7, 8, 9, 10, 11, 12, 13, 14, 15, 16, 17, 18, 19, 20, 21, 22, 23, 24, 25, 26, 27, 28, 29, 30, 31, 32, 33, 34, 35, 36, 37, 38, 39, 40, 41, 42, 43, 44, 45, 46, 47, 48, 49, 50, 51, 52, 53, 54, 55, 56, 57, 58, 59, 60, 61, 62, 63, 64, 65, 66, 67, 68, 69, 70, 71, 72, 73, 74, 75, 76, 77, 78, 79, 80, 81, 82, 83, 84, 85, 86, 87, 88, 89, 90, 91, 92, 93, 94, 95, 96, 97, 98, 99, 100, 101, 102, 103, 104, 105, 106, 107, 108, 109, 110, 111, 112, 113, 114, 115, 116, 117, 118, 119, 120, 121, 122, 123, 124, 125, 126, 127, 128, 129, 130, 131, 132, 133, 134, 135, 136, 137, 138, 139, 140, 141, 142, 143, 144, 145, 146, 147, 148, 149, 150, 151, 152, 153, 154, 155, 156, 157, 158, 159, 160, 161, 162, 163, 164, 165, 166, 167, 168, 169, 170, 171, 172, 173, 174, 175, 176, 177, 178, 179, 180, 181, 182, 183, 184, 185, 186, 187, 188, 189, 190, 191, 192, 193, 194, 195, 196, 197, 198, 199, 200],
      "LargestImagePixelValue": [368, 366, 369, 368, 366, 369, 367, 369, 366, 368, 366, 368, 368, 366, 367, 369, 367, 368, 367, 368, 369, 368, 368, 366, 366, 369, 368, 366, 365, 368, 366, 365, 367, 368, 367, 367, 369, 366, 366, 366, 369, 365, 368, 366, 368, 369, 368, 367, 367, 367, 369, 370, 368, 367, 366, 366, 366, 367, 370, 366, 368, 369, 367, 366, 367, 366, 366, 365, 366, 365, 367, 367, 366, 367, 366, 367, 370, 368, 367, 369, 367, 370, 367, 366, 365, 367, 368, 367, 366, 370, 366, 367, 365, 371, 368, 367, 368, 367, 367, 364, 367, 368, 366, 368, 368, 366, 367, 367, 366, 365, 369, 366, 366, 368, 368, 368, 366, 367, 366, 367, 366, 367, 366, 369, 367, 369, 368, 365, 368, 367, 366, 368, 367, 366, 369, 367, 365, 368, 367, 367, 369, 369, 367, 366, 366, 367, 366, 368, 369, 367, 366, 367, 368, 367, 366, 366, 370, 367, 367, 366, 366, 365, 366, 368, 367, 367, 369, 364, 366, 372, 366, 365, 367, 367, 367, 367, 364, 367, 366, 366, 366, 367, 364, 365, 367, 365, 365, 366, 367, 367, 368, 366, 365, 366, 366, 367, 365, 367, 367, 366],
      "WindowCenter": [302.0, 302.0, 302.0, 302.0, 302.0, 302.0, 302.0, 302.0, 302.0, 302.0, 302.0, 302.0, 302.0, 302.0, 302.0, 302.0, 302.0, 302.0, 302.0, 302.0, 302.0, 302.0, 302.0, 302.0, 302.0, 302.0, 302.0, 302.0, 302.0, 302.0, 302.0, 302.0, 302.0, 302.0, 302.0, 302.0, 302.0, 302.0, 302.0, 302.0, 302.0, 302.0, 302.0, 302.0, 302.0, 302.0, 302.0, 302.0, 302.0, 302.0, 302.0, 303.0, 302.0, 302.0, 302.0, 302.0, 302.0, 302.0, 302.0, 302.0, 302.0, 302.0, 302.0, 302.0, 302.0, 302.0, 302.0, 302.0, 302.0, 302.0, 302.0, 302.0, 302.0, 302.0, 302.0, 302.0, 303.0, 302.0, 302.0, 302.0, 302.0, 303.0, 302.0, 302.0, 302.0, 302.0, 302.0, 302.0, 302.0, 302.0, 302.0, 302.0, 302.0, 303.0, 302.0, 302.0, 302.0, 302.0, 302.0, 302.0, 302.0, 302.0, 302.0, 302.0, 302.0, 302.0, 302.0, 302.0, 302.0, 302.0, 302.0, 302.0, 302.0, 302.0, 302.0, 302.0, 302.0, 302.0, 302.0, 302.0, 302.0, 302.0, 302.0, 302.0, 302.0, 302.0, 302.0, 302.0, 302.0, 302.0, 302.0, 302.0, 301.0, 302.0, 302.0, 302.0, 302.0, 302.0, 302.0, 302.0, 302.0, 302.0, 302.0, 302.0, 302.0, 302.0, 302.0, 302.0, 302.0, 302.0, 302.0, 302.0, 302.0, 302.0, 302.0, 302.0, 302.0, 301.0, 302.0, 302.0, 301.0, 302.0, 301.0, 301.0, 302.0, 302.0, 301.0, 302.0, 302.0, 302.0, 302.0, 302.0, 302.0, 302.0, 302.0, 301.0, 302.0, 301.0, 301.0, 302.0, 302.0, 301.0, 302.0, 301.0, 301.0, 301.0, 301.0, 301.0, 301.0, 302.0, 301.0, 301.0, 302.0, 301.0, 301.0, 302.0, 301.0, 302.0, 302.0, 301.0],
      "WindowWidth": [654.0, 654.0, 654.0, 654.0, 654.0, 654.0, 654.0, 654.0, 654.0, 654.0, 654.0, 654.0, 654.0, 654.0, 654.0, 654.0, 654.0, 654.0, 654.0, 655.0, 654.0, 654.0, 654.0, 654.0, 654.0, 654.0, 654.0, 654.0, 654.0, 654.0, 654.0, 654.0, 654.0, 654.0, 654.0, 654.0, 654.0, 654.0, 654.0, 654.0, 654.0, 654.0, 654.0, 654.0, 654.0, 654.0, 654.0, 654.0, 654.0, 654.0, 654.0, 655.0, 654.0, 654.0, 654.0, 654.0, 654.0, 654.0, 654.0, 654.0, 654.0, 654.0, 654.0, 654.0, 654.0, 654.0, 654.0, 654.0, 654.0, 654.0, 654.0, 654.0, 654.0, 653.0, 654.0, 654.0, 655.0, 654.0, 654.0, 654.0, 654.0, 655.0, 654.0, 654.0, 654.0, 654.0, 654.0, 654.0, 654.0, 655.0, 653.0, 654.0, 654.0, 655.0, 654.0, 654.0, 654.0, 654.0, 654.0, 654.0, 654.0, 654.0, 654.0, 654.0, 654.0, 654.0, 654.0, 653.0, 654.0, 654.0, 654.0, 654.0, 654.0, 654.0, 654.0, 654.0, 654.0, 654.0, 654.0, 654.0, 654.0, 654.0, 654.0, 654.0, 654.0, 654.0, 653.0, 653.0, 654.0, 654.0, 654.0, 654.0, 652.0, 654.0, 654.0, 654.0, 654.0, 654.0, 653.0, 654.0, 654.0, 654.0, 654.0, 653.0, 654.0, 654.0, 654.0, 654.0, 653.0, 654.0, 654.0, 654.0, 654.0, 654.0, 654.0, 654.0, 654.0, 652.0, 654.0, 654.0, 653.0, 654.0, 653.0, 652.0, 654.0, 653.0, 653.0, 654.0, 653.0, 654.0, 653.0, 654.0, 653.0, 654.0, 654.0, 653.0, 654.0, 653.0, 652.0, 654.0, 654.0, 652.0, 653.0, 653.0, 652.0, 653.0, 653.0, 653.0, 653.0, 654.0, 653.0, 653.0, 654.0, 653.0, 652.0, 654.0, 653.0, 654.0, 653.0, 652.0]
    },
    "slices": {}
  }
}