{
  "AcquisitionMatrixPE": 80,
  "AcquisitionNumber": 1,
  "AcquisitionTime": "09:30:45.802500",
  "BandwidthPerPixelPhaseEncode": 48.077,
  "BaseResolution": 80,
  "BodyPartExamined": "BRAIN",
  "CoilCombinationMethod": "Sum of Squares",
  "ConsistencyInfo": "N4_VE11E_LATEST_20181129",
  "ConversionSoftware": "dcm2niix",
  "ConversionSoftwareVersion": "v1.0.20220720",
  "DerivedVendorReportedEchoSpacing": 0.000519999,
  "DeviceSerialNumber": "66112",
  "DwellTime": 2.7e-06,
  "EchoTime": 0.035,
  "EchoTrainLength": 39,
  "EffectiveEchoSpacing": 0.00026,
  "FlipAngle": 90,
  "HeudiconvVersion": "0.13.1",
  "ImageOrientationPatientDICOM": [0.990833, -0.135055, 0.00331164, 0.127808, 0.945041, 0.300937],
  "ImageOrientationText": "Tra>Cor(17.3)>Sag(2.5)",
  "ImageType": [
    "ORIGINAL",
    "PRIMARY",
    "M",
    "ND",
    "NORM",
    "MOSAIC"
],
  "ImagingFrequency": 123.259,
  "InPlanePhaseEncodingDirectionDICOM": "COL",
  "InstitutionAddress": "Maynard 3,Hanover,NH,US,03755",
  "InstitutionName": "Dartmouth College - PBS",
  "InstitutionalDepartmentName": "Department",
  "MRAcquisitionType": "2D",
  "MagneticFieldStrength": 3,
  "Manufacturer": "Siemens",
  "ManufacturersModelName": "Prisma",
  "MatrixCoilMode": "GRAPPA",
  "Modality": "MR",
  "NonlinearGradientCorrection": false,
  "ParallelReductionFactorInPlane": 2,
  "PartialFourier": 1,
  "PatientPosition": "HFS",
  "PercentPhaseFOV": 100,
  "PercentSampling": 100,
  "PhaseEncodingDirection": "j-",
  "PhaseEncodingSteps": 79,
  "PhaseResolution": 1,
  "PixelBandwidth": 2315,
  "ProcedureStepDescription": "dbic^QA",
  "ProtocolName": "func-bold_task-rest_acq-p2",
  "PulseSequenceDetails": "%SiemensSeq%\\ep2d_bold",
  "ReceiveCoilActiveElements": "HEA;HEP",
  "ReceiveCoilName": "Head_32",
  "ReconMatrixPE": 80,
  "RefLinesPE": 24,
  "RepetitionTime": 2,
  "SAR": 0.0718426,
  "ScanOptions": "FS",
  "ScanningSequence": "EP",
  "SequenceName": "*epfid2d1_80",
  "SequenceVariant": "SK",
  "SeriesDescription": "func-bold_task-rest_acq-p2",
  "SeriesNumber": 5,
  "ShimSetting": [4225, -7739, -7490, -39, -120, -16, 18, 76],
  "SliceThickness": 3.5,
  "SliceTiming": [0.99, 0, 1.055, 0.065, 1.12, 0.13, 1.1875, 0.1975, 1.2525, 0.2625, 1.32, 0.33, 1.385, 0.395, 1.45, 0.46, 1.5175, 0.5275, 1.5825, 0.5925, 1.65, 0.66, 1.715, 0.725, 1.78, 0.79, 1.8475, 0.8575, 1.9125, 0.9225],
  "SoftwareVersions": "syngo MR E11",
  "SpacingBetweenSlices": 3.99,
  "StationName": "AWP66112",
  "TaskName": "rest",
  "TotalReadoutTime": 0.02054,
  "TxRefAmp": 221.753,
  "dcmmeta_affine": [
    [-2.9724977016448975, 0.3834225535392761, 0.174653097987175, 100.82540130615234],
    [0.405164897441864, 2.8351221084594727, 1.188043236732483, -143.87960815429688],
    [0.009934911504387856, -0.9028118252754211, 3.805016279220581, -16.032188415527344],
    [0.0, 0.0, 0.0, 1.0]
],
  "dcmmeta_reorient_transform": [
    [0.0, -1.0, 0.0, 79.0],
    [1.0, 0.0, 0.0, 0.0],
    [0.0, 0.0, 1.0, 0.0],
    [0.0, 0.0, 0.0, 1.0]
],
  "dcmmeta_shape": [80, 80, 30, 200],
  "dcmmeta_slice_dim": 2,
  "dcmmeta_version": 0.6,
  "global": {
    "const": {
      "AccessionNumber": "qa",
      "AcquisitionMatrix": [80, 0, 0, 80],
      "AngioFlag": "N",
      "BitsAllocated": 16,
      "BitsStored": 12,
      "BodyPartExamined": "BRAIN",
      "Columns": 480,
      "EchoNumbers": 1,
      "EchoTime": 35.0,
      "EchoTrainLength": 39,
      "FlipAngle": 90.0,
      "HighBit": 11,
      "ImageOrientationPatient": [0.99083257362882, -0.1350549669384, 0.00331163726463, 0.12780751663043, 0.94504073864113, 0.3009372708745],
      "ImagePositionPatient": [-802.29983489442, -566.0865070298, -269.90366576447],
      "ImageType": [
        "ORIGINAL",
        "PRIMARY",
        "M",
        "ND",
        "NORM",
        "MOSAIC"
],
      "ImagedNucleus": "1H",
      "ImagingFrequency": 123.259234,
      "InPlanePhaseEncodingDirection": "COL",
      "MRAcquisitionType": "2D",
      "MagneticFieldStrength": 3.0,
      "Manufacturer": "SIEMENS",
      "ManufacturerModelName": "Prisma",
      "Modality": "MR",
      "NumberOfAverages": 1.0,
      "NumberOfPhaseEncodingSteps": 79,
      "PercentPhaseFieldOfView": 100.0,
      "PercentSampling": 100.0,
      "PerformedProcedureStepStartTime": "092627.339000",
      "PhotometricInterpretation": "MONOCHROME2",
      "PixelBandwidth": 2315.0,
      "PixelRepresentation": 0,
      "PixelSpacing": [3.0, 3.0],
      "ProtocolName": "func-bold_task-rest_acq-p2",
      "RepetitionTime": 2000.0,
      "Rows": 480,
      "SAR": 0.07184265049594,
      "SamplesPerPixel": 1,
      "ScanOptions": "FS",
      "ScanningSequence": "EP",
      "SequenceName": "*epfid2d1_80",
      "SequenceVariant": "SK",
      "SeriesDescription": "func-bold_task-rest_acq-p2",
      "SeriesNumber": 5,
      "SeriesTime": "093059.916000",
      "SliceLocation": -53.71640805305,
      "SliceThickness": 3.5,
      "SmallestImagePixelValue": 0,
      "SoftwareVersions": "syngo MR E11",
      "SpacingBetweenSlices": 3.9899999938441,
      "SpecificCharacterSet": "ISO_IR 100",
      "StudyID": "14",
      "StudyTime": "092627.299000",
      "TransmitCoilName": "Body",
      "VariableFlipAngleFlag": "N",
      "WindowCenterWidthExplanation": "Algo1"
    },
    "slices": {}
  },
  "time": {
    "samples": {
      "AcquisitionNumber": [1, 2, 3, 4, 5, 6, 7, 8, 9, 10, 11, 12, 13, 14, 15, 16, 17, 18, 19, 20, 21, 22, 23, 24, 25, 26, 27, 28, 29, 30, 31, 32, 33, 34, 35, 36, 37, 38, 39, 40, 41, 42, 43, 44, 45, 46, 47, 48, 49, 50, 51, 52, 53, 54, 55, 56, 57, 58, 59, 60, 61, 62, 63, 64, 65, 66, 67, 68, 69, 70, 71, 72, 73, 74, 75, 76, 77, 78, 79, 80, 81, 82, 83, 84, 85, 86, 87, 88, 89, 90, 91, 92, 93, 94, 95, 96, 97, 98, 99, 100, 101, 102, 103, 104, 105, 106, 107, 108, 109, 110, 111, 112, 113, 114, 115, 116, 117, 118, 119, 120, 121, 122, 123, 124, 125, 126, 127, 128, 129, 130, 131, 132, 133, 134, 135, 136, 137, 138, 139, 140, 141, 142, 143, 144, 145, 146, 147, 148, 149, 150, 151, 152, 153, 154, 155, 156, 157, 158, 159, 160, 161, 162, 163, 164, 165, 166, 167, 168, 169, 170, 171, 172, 173, 174, 175, 176, 177, 178, 179, 180, 181, 182, 183, 184, 185, 186, 187, 188, 189, 190, 191, 192, 193, 194, 195, 196, 197, 198, 199, 200],
      "AcquisitionTime": ["093045.802500", "093047.802500", "093049.802500", "093051.802500", "093053.802500", "093055.802500", "093057.802500", "093059.802500", "093101.802500", "093103.802500", "093105.802500", "093107.802500", "093109.802500", "093111.802500", "093113.802500", "093115.802500", "093117.802500", "093119.802500", "093121.802500", "093123.802500", "093125.802500", "093127.802500", "093129.802500", "093131.802500", "093133.802500", "093135.802500", "093137.802500", "093139.802500", "093141.802500", "093143.802500", "093145.802500", "093147.802500", "093149.802500", "093151.802500", "093153.802500", "093155.802500", "093157.802500", "093159.802500", "093201.802500", "093203.802500", "093205.802500", "093207.802500", "093209.802500", "093211.802500", "093213.802500", "093215.802500", "093217.802500", "093219.802500", "093221.802500", "093223.802500", "093225.802500", "093227.802500", "093229.802500", "093231.802500", "093233.802500", "093235.802500", "093237.802500", "093239.802500", "093241.802500", "093243.802500", "093245.802500", "093247.802500", "093249.802500", "093251.802500", "093253.802500", "093255.802500", "093257.802500", "093259.802500", "093301.802500", "093303.802500", "093305.802500", "093307.802500", "093309.802500", "093311.802500", "093313.802500", "093315.802500", "093317.802500", "093319.802500", "093321.802500", "093323.802500", "093325.802500", "093327.802500", "093329.802500", "093331.802500", "093333.802500", "093335.802500", "093337.802500", "093339.802500", "093341.802500", "093343.802500", "093345.802500", "093347.802500", "093349.802500", "093351.802500", "093353.802500", "093355.802500", "093357.802500", "093359.802500", "093401.802500", "093403.802500", "093405.802500", "093407.802500", "093409.802500", "093411.802500", "093413.802500", "093415.802500", "093417.802500", "093419.802500", "093421.802500", "093423.802500", "093425.802500", "093427.802500", "093429.802500", "093431.802500", "093433.802500", "093435.802500", "093437.802500", "093439.802500", "093441.802500", "093443.802500", "093445.802500", "093447.802500", "093449.802500", "093451.802500", "093453.802500", "093455.802500", "093457.802500", "093459.802500", "093501.802500", "093503.802500", "093505.802500", "093507.802500", "093509.802500", "093511.802500", "093513.802500", "093515.802500", "093517.802500", "093519.802500", "093521.802500", "093523.802500", "093525.802500", "093527.802500", "093529.802500", "093531.802500", "093533.802500", "093535.802500", "093537.802500", "093539.802500", "093541.802500", "093543.802500", "093545.802500", "093547.802500", "093549.802500", "093551.802500", "093553.802500", "093555.802500", "093557.802500", "093559.802500", "093601.802500", "093603.802500", "093605.802500", "093607.802500", "093609.802500", "093611.802500", "093613.802500", "093615.802500", "093617.802500", "093619.802500", "093621.802500", "093623.802500", "093625.802500", "093627.802500", "093629.802500", "093631.802500", "093633.802500", "093635.802500", "093637.802500", "093639.802500", "093641.802500", "093643.802500", "093645.802500", "093647.802500", "093649.802500", "093651.802500", "093653.802500", "093655.802500", "093657.802500", "093659.802500", "093701.802500", "093703.802500", "093705.802500", "093707.802500", "093709.802500", "093711.802500", "093713.802500", "093715.802500", "093717.802500", "093719.802500", "093721.802500", "093723.802500"],
      "ContentTime": ["093059.919000", "093059.922000", "093059.925000", "093059.927000", "093059.929000", "093059.932000", "093059.934000", "093139.914000", "093139.926000", "093139.929000", "093139.931000", "093139.933000", "093139.936000", "093139.938000", "093139.940000", "093139.943000", "093139.953000", "093139.955000", "093139.957000", "093139.960000", "093139.962000", "093139.964000", "093139.972000", "093139.974000", "093139.977000", "093139.979000", "093139.981000", "093219.914000", "093219.917000", "093219.919000", "093219.922000", "093219.930000", "093219.932000", "093219.934000", "093219.937000", "093219.939000", "093219.941000", "093219.943000", "093219.946000", "093219.948000", "093219.950000", "093219.953000", "093219.955000", "093219.957000", "093219.960000", "093219.962000", "093219.975000", "093259.914000", "093259.917000", "093259.919000", "093259.921000", "093259.924000", "093259.926000", "093259.928000", "093259.931000", "093259.933000", "093259.935000", "093259.938000", "093259.940000", "093259.942000", "093259.944000", "093259.947000", "093259.949000", "093259.951000", "093259.954000", "093259.956000", "093259.958000", "093339.915000", "093339.918000", "093339.920000", "093339.922000", "093339.925000", "093339.927000", "093339.929000", "093339.932000", "093339.934000", "093339.936000", "093339.939000", "093339.941000", "093339.943000", "093339.945000", "093339.948000", "093339.950000", "093339.952000", "093339.955000", "093339.957000", "093339.959000", "093419.914000", "093419.917000", "093419.919000", "093419.921000", "093419.924000", "093419.926000", "093419.928000", "093419.931000", "093419.933000", "093419.935000", "093419.937000", "093419.940000", "093419.942000", "093419.944000", "093419.947000", "093419.949000", "093419.951000", "093419.954000", "093419.956000", "093419.958000", "093459.914000", "093459.917000", "093459.919000", "093459.922000", "093459.924000", "093459.926000", "093459.928000", "093459.931000", "093459.933000", "093459.935000", "093459.938000", "093459.940000", "093459.942000", "093459.945000", "093459.947000", "093459.950000", "093459.952000", "093459.954000", "093459.957000", "093459.959000", "093539.915000", "093539.918000", "093539.920000", "093539.923000", "093539.925000", "093539.927000", "093539.929000", "093539.932000", "093539.934000", "093539.936000", "093539.939000", "093539.941000", "093539.943000", "093539.945000", "093539.948000", "093539.950000", "093539.952000", "093539.955000", "093539.957000", "093539.959000", "093619.914000", "093619.917000", "093619.919000", "093619.922000", "093619.924000", "093619.926000", "093619.928000", "093619.931000", "093619.933000", "093619.935000", "093619.938000", "093619.940000", "093619.942000", "093619.945000", "093619.947000", "093619.949000", "093619.951000", "093619.954000", "093619.956000", "093619.958000", "093659.914000", "093659.917000", "093659.919000", "093659.921000", "093659.924000", "093659.926000", "093659.928000", "093659.931000", "093659.933000", "093659.935000", "093659.938000", "093659.940000", "093659.942000", "093659.945000", "093659.947000", "093659.949000", "093659.952000", "093659.954000", "093659.956000", "093659.959000", "093725.137000", "093725.140000", "093725.142000", "093725.145000", "093725.147000", "093725.149000", "093725.152000", "093725.154000", "093725.157000", "093725.159000", "093725.161000", "093725.168000", "093725.171000"],
      "InstanceCreationTime": ["093059.919000", "093059.922000", "093059.925000", "093059.927000", "093059.929000", "093059.932000", "093059.934000", "093139.914000", "093139.926000", "093139.929000", "093139.931000", "093139.933000", "093139.936000", "093139.938000", "093139.940000", "093139.943000", "093139.953000", "093139.955000", "093139.957000", "093139.960000", "093139.962000", "093139.964000", "093139.972000", "093139.974000", "093139.977000", "093139.979000", "093139.981000", "093219.914000", "093219.917000", "093219.919000", "093219.922000", "093219.930000", "093219.932000", "093219.934000", "093219.937000", "093219.939000", "093219.941000", "093219.943000", "093219.946000", "093219.948000", "093219.950000", "093219.953000", "093219.955000", "093219.957000", "093219.960000", "093219.962000", "093219.975000", "093259.914000", "093259.917000", "093259.919000", "093259.921000", "093259.924000", "093259.926000", "093259.928000", "093259.931000", "093259.933000", "093259.935000", "093259.938000", "093259.940000", "093259.942000", "093259.944000", "093259.947000", "093259.949000", "093259.951000", "093259.954000", "093259.956000", "093259.958000", "093339.915000", "093339.918000", "093339.920000", "093339.922000", "093339.925000", "093339.927000", "093339.929000", "093339.932000", "093339.934000", "093339.936000", "093339.939000", "093339.941000", "093339.943000", "093339.945000", "093339.948000", "093339.950000", "093339.952000", "093339.955000", "093339.957000", "093339.959000", "093419.914000", "093419.917000", "093419.919000", "093419.921000", "093419.924000", "093419.926000", "093419.928000", "093419.931000", "093419.933000", "093419.935000", "093419.937000", "093419.940000", "093419.942000", "093419.944000", "093419.947000", "093419.949000", "093419.951000", "093419.954000", "093419.956000", "093419.958000", "093459.914000", "093459.917000", "093459.919000", "093459.922000", "093459.924000", "093459.926000", "093459.928000", "093459.931000", "093459.933000", "093459.935000", "093459.938000", "093459.940000", "093459.942000", "093459.945000", "093459.947000", "093459.950000", "093459.952000", "093459.954000", "093459.957000", "093459.959000", "093539.915000", "093539.918000", "093539.920000", "093539.923000", "093539.925000", "093539.927000", "093539.929000", "093539.932000", "093539.934000", "093539.936000", "093539.939000", "093539.941000", "093539.943000", "093539.945000", "093539.948000", "093539.950000", "093539.952000", "093539.955000", "093539.957000", "093539.959000", "093619.914000", "093619.917000", "093619.919000", "093619.922000", "093619.924000", "093619.926000", "093619.928000", "093619.931000", "093619.933000", "093619.935000", "093619.938000", "093619.940000", "093619.942000", "093619.945000", "093619.947000", "093619.949000", "093619.951000", "093619.954000", "093619.956000", "093619.958000", "093659.914000", "093659.917000", "093659.919000", "093659.921000", "093659.924000", "093659.926000", "093659.928000", "093659.931000", "093659.933000", "093659.935000", "093659.938000", "093659.940000", "093659.942000", "093659.945000", "093659.947000", "093659.949000", "093659.952000", "093659.954000", "093659.956000", "093659.959000", "093725.137000", "093725.140000", "093725.142000", "093725.145000", "093725.147000", "093725.149000", "093725.152000", "093725.154000", "093725.157000", "093725.159000", "093725.161000", "093725.168000", "093725.171000"],
      "InstanceNumber": [1, 2, 3, 4, 5, 6, 7, 8, 9, 10, 11, 12, 13, 14, 15, 16, 17, 18, 19, 20, 21, 22, 23, 24, 25, 26, 27, 28, 29, 30, 31, 32, 33, 34, 35, 36, 37, 38, 39, 40, 41, 42, 43, 44, 45, 46, 47, 48, 49, 50, 51, 52, 53, 54, 55, 56, 57, 58, 59, 60, 61, 62, 63, 64, 65, 66, 67, 68, 69, 70, 71, 72, 73, 74, 75, 76, 77, 78, 79, 80, 81, 82, 83, 84, 85, 86, 87, 88, 89, 90, 91, 92, 93, 94, 95, 96, 97, 98, 99, 100, 101, 102, 103, 104, 105, 106, 107, 108, 109, 110, 111, 112, 113, 114, 115, 116, 117, 118, 119, 120, 121, 122, 123, 124, 125, 126, 127, 128, 129, 130, 131, 132, 133, 134, 135, 136, 137, 138, 139, 140, 141, 142, 143, 144, 145, 146, 147, 148, 149, 150, 151, 152, 153, 154, 155, 156, 157, 158, 159, 160, 161, 162, 163, 164, 165, 166, 167, 168, 169, 170, 171, 172, 173, 174, 175, 176, 177, 178, 179, 180, 181, 182, 183, 184, 185, 186, 187, 188, 189, 190, 191, 192, 193, 194, 195, 196, 197, 198, 199, 200],
      "LargestImagePixelValue": [2170, 2171, 2173, 2172, 2175, 2175, 2175, 2169, 2166, 2168, 2168, 2170, 2168, 2163, 2174, 2172, 2167, 2172, 2166, 2167, 2167, 2168, 2170, 2173, 2174, 2173, 2167, 2164, 2168, 2170, 2169, 2170, 2164, 2168, 2168, 2166, 2173, 2174, 2172, 2173, 2171, 2172, 2165, 2173, 2169, 2164, 2167, 2164, 2168, 2167, 2169, 2167, 2176, 2172, 2167, 2170, 2170, 2173, 2170, 2169, 2168, 2173, 2174, 2166, 2169, 2169, 2167, 2166, 2168, 2171, 2166, 2170, 2175, 2177, 2179, 2173, 2177, 2167, 2167, 2166, 2165, 2163, 2168, 2164, 2163, 2164, 2164, 2162, 2167, 2165, 2160, 2161, 2167, 2162, 2164, 2166, 2165, 2165, 2164, 2164, 2168, 2165, 2165, 2163, 2165, 2165, 2164, 2166, 2170, 2169, 2169, 2168, 2171, 2169, 2172, 2171, 2174, 2169, 2170, 2170, 2163, 2169, 2167, 2165, 2167, 2173, 2165, 2173, 2169, 2174, 2175, 2171, 2169, 2169, 2171, 2169, 2171, 2173, 2174, 2169, 2169, 2168, 2168, 2170, 2172, 2173, 2172, 2168, 2172, 2175, 2172, 2168, 2173, 2175, 2174, 2168, 2173, 2171, 2171, 2170, 2173, 2175, 2169, 2171, 2172, 2173, 2174, 2177, 2175, 2178, 2176, 2176, 2175, 2175, 2174, 2176, 2170, 2172, 2171, 2175, 2169, 2172, 2168, 2170, 2171, 2176, 2174, 2173, 2173, 2174, 2171, 2173, 2175, 2173, 2173, 2175, 2171, 2168, 2170, 2175],
      "WindowCenter": [1038.0, 1038.0, 1038.0, 1038.0, 1038.0, 1038.0, 1038.0, 1038.0, 1038.0, 1038.0, 1038.0, 1038.0, 1038.0, 1038.0, 1038.0, 1037.0, 1037.0, 1037.0, 1037.0, 1037.0, 1037.0, 1038.0, 1037.0, 1038.0, 1037.0, 1037.0, 1037.0, 1037.0, 1037.0, 1037.0, 1037.0, 1037.0, 1037.0, 1037.0, 1037.0, 1037.0, 1037.0, 1037.0, 1037.0, 1037.0, 1037.0, 1037.0, 1037.0, 1037.0, 1037.0, 1037.0, 1037.0, 1037.0, 1037.0, 1037.0, 1037.0, 1037.0, 1037.0, 1037.0, 1037.0, 1037.0, 1037.0, 1037.0, 1037.0, 1037.0, 1037.0, 1037.0, 1037.0, 1037.0, 1037.0, 1037.0, 1037.0, 1037.0, 1037.0, 1037.0, 1037.0, 1037.0, 1037.0, 1037.0, 1037.0, 1037.0, 1037.0, 1037.0, 1037.0, 1037.0, 1037.0, 1037.0, 1037.0, 1037.0, 1037.0, 1037.0, 1037.0, 1037.0, 1037.0, 1037.0, 1037.0, 1037.0, 1037.0, 1037.0, 1037.0, 1037.0, 1037.0, 1037.0, 1037.0, 1037.0, 1037.0, 1037.0, 1037.0, 1037.0, 1037.0, 1037.0, 1037.0, 1037.0, 1037.0, 1037.0, 1037.0, 1037.0, 1037.0, 1037.0, 1037.0, 1037.0, 1037.0, 1037.0, 1037.0, 1037.0, 1038.0, 1037.0, 1037.0, 1036.0, 1037.0, 1037.0, 1037.0, 1036.0, 1036.0, 1036.0, 1037.0, 1037.0, 1036.0, 1036.0, 1037.0, 1037.0, 1037.0, 1037.0, 1037.0, 1037.0, 1037.0, 1037.0, 1037.0, 1037.0, 1036.0, 1037.0, 1037.0, 1036.0, 1036.0, 1037.0, 1037.0, 1036.0, 1037.0, 1037.0, 1036.0, 1037.0, 1037.0, 1037.0, 1037.0, 1037.0, 1037.0, 1037.0, 1037.0, 1037.0, 1036.0, 1036.0, 1036.0, 1036.0, 1036.0, 1036.0, 1036.0, 1036.0, 1036.0, 1036.0, 1036.0, 1036.0, 1036.0, 1036.0, 1036.0, 1036.0, 1036.0, 1036.0, 1036.0, 1036.0, 1036.0, 1036.0, 1036.0, 1036.0, 1036.0, 1036.0, 1036.0, 1036.0, 1036.0, 1036.0, 1036.0, 1036.0, 1036.0, 1036.0, 1036.0, 1036.0],
      "WindowWidth": [2320.0, 2320.0, 2319.0, 2319.0, 2319.0, 2320.0, 2319.0, 2319.0, 2319.0, 2319.0, 2320.0, 2319.0, 2319.0, 2319.0, 2319.0, 2319.0, 2319.0, 2319.0, 2319.0, 2319.0, 2319.0, 2318.0, 2319.0, 2318.0, 2318.0, 2318.0, 2318.0, 2319.0, 2318.0, 2318.0, 2318.0, 2318.0, 2318.0, 2318.0, 2318.0, 2318.0, 2318.0, 2318.0, 2318.0, 2318.0, 2318.0, 2318.0, 2318.0, 2318.0, 2318.0, 2318.0, 2318.0, 2318.0, 2318.0, 2317.0, 2317.0, 2318.0, 2318.0, 2318.0, 2318.0, 2318.0, 2318.0, 2318.0, 2317.0, 2318.0, 2317.0, 2317.0, 2317.0, 2317.0, 2317.0, 2317.0, 2317.0, 2317.0, 2317.0, 2317.0, 2317.0, 2318.0, 2317.0, 2317.0, 2317.0, 2317.0, 2317.0, 2317.0, 2317.0, 2317.0, 2317.0, 2317.0, 2317.0, 2317.0, 2317.0, 2317.0, 2317.0, 2317.0, 2316.0, 2317.0, 2317.0, 2317.0, 2317.0, 2316.0, 2317.0, 2317.0, 2317.0, 2316.0, 2317.0, 2317.0, 2316.0, 2316.0, 2316.0, 2316.0, 2316.0, 2316.0, 2316.0, 2316.0, 2316.0, 2316.0, 2316.0, 2316.0, 2316.0, 2316.0, 2316.0, 2316.0, 2316.0, 2316.0, 2316.0, 2316.0, 2317.0, 2316.0, 2316.0, 2316.0, 2316.0, 2316.0, 2316.0, 2316.0, 2316.0, 2316.0, 2316.0, 2316.0, 2316.0, 2316.0, 2316.0, 2316.0, 2316.0, 2316.0, 2315.0, 2316.0, 2315.0, 2316.0, 2316.0, 2316.0, 2316.0, 2315.0, 2316.0, 2315.0, 2315.0, 2316.0, 2316.0, 2315.0, 2315.0, 2315.0, 2316.0, 2315.0, 2315.0, 2315.0, 2315.0, 2315.0, 2315.0, 2315.0, 2315.0, 2315.0, 2315.0, 2315.0, 2315.0, 2315.0, 2315.0, 2315.0, 2315.0, 2315.0, 2315.0, 2315.0, 2315.0, 2315.0, 2315.0, 2315.0, 2315.0, 2315.0, 2315.0, 2315.0, 2315.0, 2315.0, 2315.0, 2315.0, 2315.0, 2315.0, 2315.0, 2315.0, 2315.0, 2315.0, 2315.0, 2315.0, 2315.0, 2315.0, 2315.0, 2315.0, 2315.0, 2315.0]
    },
    "slices": {}
  }
}