{
  "AcquisitionMatrixPE": 80,
  "AcquisitionNumber": 1,
  "AcquisitionTime": "09:37:40.050000",
  "BandwidthPerPixelPhaseEncode": 46.296,
  "BaseResolution": 80,
  "BodyPartExamined": "BRAIN",
  "CoilCombinationMethod": "Sum of Squares",
  "ConsistencyInfo": "N4_VE11E_LATEST_20181129",
  "ConversionSoftware": "dcm2niix",
  "ConversionSoftwareVersion": "v1.0.20220720",
  "DerivedVendorReportedEchoSpacing": 0.000540003,
  "DeviceSerialNumber": "66112",
  "DwellTime": 2.7e-06,
  "EchoTime": 0.035,
  "EchoTrainLength": 39,
  "EffectiveEchoSpacing": 0.000270002,
  "FlipAngle": 90,
  "HeudiconvVersion": "0.13.1",
  "ImageOrientationPatientDICOM": [0.990833, -0.135055, 0.00331164, 0.127808, 0.945041, 0.300937],
  "ImageOrientationText": "Tra>Cor(17.3)>Sag(2.5)",
  "ImageType": [
    "ORIGINAL",
    "PRIMARY",
    "M",
    "ND",
    "NORM",
    "MOSAIC"
],
  "ImagingFrequency": 123.259,
  "InPlanePhaseEncodingDirectionDICOM": "COL",
  "InstitutionAddress": "Maynard 3,Hanover,NH,US,03755",
  "InstitutionName": "Dartmouth College - PBS",
  "InstitutionalDepartmentName": "Department",
  "MRAcquisitionType": "2D",
  "MagneticFieldStrength": 3,
  "Manufacturer": "Siemens",
  "ManufacturersModelName": "Prisma",
  "Modality": "MR",
  "MultibandAccelerationFactor": 4,
  "NonlinearGradientCorrection": false,
  "ParallelReductionFactorInPlane": 2,
  "PartialFourier": 1,
  "PatientPosition": "HFS",
  "PercentPhaseFOV": 100,
  "PercentSampling": 100,
  "PhaseEncodingDirection": "j-",
  "PhaseEncodingSteps": 79,
  "PhaseResolution": 1,
  "PixelBandwidth": 2315,
  "ProcedureStepDescription": "dbic^QA",
  "ProtocolName": "func-bold_task-rest_acq-p2-s4-3.5mm",
  "PulseSequenceDetails": "%SiemensSeq%\\ep2d_bold",
  "ReceiveCoilActiveElements": "HEA;HEP",
  "ReceiveCoilName": "Head_32",
  "ReconMatrixPE": 80,
  "RefLinesPE": 24,
  "RepetitionTime": 2,
  "SAR": 0.0270167,
  "ScanOptions": "FS",
  "ScanningSequence": "EP",
  "SequenceName": "*epfid2d1_80",
  "SequenceVariant": "SK",
  "SeriesDescription": "func-bold_task-rest_acq-p2-s4-3.5mm",
  "SeriesNumber": 6,
  "ShimSetting": [4225, -7740, -7490, -34, -121, -18, 19, 77],
  "SliceThickness": 3.5,
  "SliceTiming": [1.485, 0, 0.99, 0.2475, 1.2375, 0.7425, 1.7325, 0.495, 1.485, 0, 0.99, 0.2475, 1.2375, 0.7425, 1.7325, 0.495, 1.485, 0, 0.99, 0.2475, 1.2375, 0.7425, 1.7325, 0.495, 1.485, 0, 0.99, 0.2475, 1.2375, 0.7425, 1.7325, 0.495],
  "SoftwareVersions": "syngo MR E11",
  "SpacingBetweenSlices": 3.99,
  "StationName": "AWP66112",
  "TaskName": "rest",
  "TotalReadoutTime": 0.0213301,
  "TxRefAmp": 221.753,
  "dcmmeta_affine": [
    [-2.9724977016448975, 0.3834225535392761, 0.174653097987175, 100.65074920654297],
    [0.405164897441864, 2.8351221084594727, 1.188043236732483, -145.06765747070312],
    [0.009934911504387856, -0.9028118252754211, 3.805016279220581, -19.837203979492188],
    [0.0, 0.0, 0.0, 1.0]
],
  "dcmmeta_reorient_transform": [
    [0.0, -1.0, 0.0, 79.0],
    [1.0, 0.0, 0.0, 0.0],
    [0.0, 0.0, 1.0, 0.0],
    [0.0, 0.0, 0.0, 1.0]
],
  "dcmmeta_shape": [80, 80, 32, 200],
  "dcmmeta_slice_dim": 2,
  "dcmmeta_version": 0.6,
  "global": {
    "const": {
      "AccessionNumber": "qa",
      "AcquisitionMatrix": [80, 0, 0, 80],
      "AngioFlag": "N",
      "BitsAllocated": 16,
      "BitsStored": 12,
      "BodyPartExamined": "BRAIN",
      "Columns": 480,
      "EchoNumbers": 1,
      "EchoTime": 35.0,
      "EchoTrainLength": 39,
      "FlipAngle": 90.0,
      "HighBit": 11,
      "ImageOrientationPatient": [0.99083257362882, -0.1350549669384, 0.00331163726463, 0.12780751663043, 0.94504073864113, 0.3009372708745],
      "ImagePositionPatient": [-802.12518184114, -564.89846343544, -273.70868132843],
      "ImageType": [
        "ORIGINAL",
        "PRIMARY",
        "M",
        "ND",
        "NORM",
        "MOSAIC"
],
      "ImagedNucleus": "1H",
      "ImagingFrequency": 123.259234,
      "InPlanePhaseEncodingDirection": "COL",
      "MRAcquisitionType": "2D",
      "MagneticFieldStrength": 3.0,
      "Manufacturer": "SIEMENS",
      "ManufacturerModelName": "Prisma",
      "Modality": "MR",
      "NumberOfAverages": 1.0,
      "NumberOfPhaseEncodingSteps": 79,
      "PercentPhaseFieldOfView": 100.0,
      "PercentSampling": 100.0,
      "PerformedProcedureStepStartTime": "092627.339000",
      "PhotometricInterpretation": "MONOCHROME2",
      "PixelBandwidth": 2315.0,
      "PixelRepresentation": 0,
      "PixelSpacing": [3.0, 3.0],
      "ProtocolName": "func-bold_task-rest_acq-p2-s4-3.5mm",
      "RepetitionTime": 2000.0,
      "Rows": 480,
      "SAR": 0.02701666729785,
      "SamplesPerPixel": 1,
      "ScanOptions": "FS",
      "ScanningSequence": "EP",
      "SequenceName": "*epfid2d1_80",
      "SequenceVariant": "SK",
      "SeriesDescription": "func-bold_task-rest_acq-p2-s4-3.5mm",
      "SeriesNumber": 6,
      "SeriesTime": "093819.740000",
      "SliceLocation": -57.706407390536,
      "SliceThickness": 3.5,
      "SmallestImagePixelValue": 0,
      "SoftwareVersions": "syngo MR E11",
      "SpacingBetweenSlices": 3.9899999516667,
      "SpecificCharacterSet": "ISO_IR 100",
      "StudyID": "14",
      "StudyTime": "092627.299000",
      "TransmitCoilName": "Body",
      "VariableFlipAngleFlag": "N",
      "WindowCenterWidthExplanation": "Algo1"
    },
    "slices": {}
  },
  "time": {
    "samples": {
      "AcquisitionNumber": [1, 2, 3, 4, 5, 6, 7, 8, 9, 10, 11, 12, 13, 14, 15, 16, 17, 18, 19, 20, 21, 22, 23, 24, 25, 26, 27, 28, 29, 30, 31, 32, 33, 34, 35, 36, 37, 38, 39, 40, 41, 42, 43, 44, 45, 46, 47, 48, 49, 50, 51, 52, 53, 54, 55, 56, 57, 58, 59, 60, 61, 62, 63, 64, 65, 66, 67, 68, 69, 70, 71, 72, 73, 74, 75, 76, 77, 78, 79, 80, 81, 82, 83, 84, 85, 86, 87, 88, 89, 90, 91, 92, 93, 94, 95, 96, 97, 98, 99, 100, 101, 102, 103, 104, 105, 106, 107, 108, 109, 110, 111, 112, 113, 114, 115, 116, 117, 118, 119, 120, 121, 122, 123, 124, 125, 126, 127, 128, 129, 130, 131, 132, 133, 134, 135, 136, 137, 138, 139, 140, 141, 142, 143, 144, 145, 146, 147, 148, 149, 150, 151, 152, 153, 154, 155, 156, 157, 158, 159, 160, 161, 162, 163, 164, 165, 166, 167, 168, 169, 170, 171, 172, 173, 174, 175, 176, 177, 178, 179, 180, 181, 182, 183, 184, 185, 186, 187, 188, 189, 190, 191, 192, 193, 194, 195, 196, 197, 198, 199, 200],
      "AcquisitionTime": ["093740.050000", "093742.050000", "093744.050000", "093746.050000", "093748.050000", "093750.050000", "093752.050000", "093754.050000", "093756.050000", "093758.050000", "093800.050000", "093802.050000", "093804.050000", "093806.050000", "093808.050000", "093810.050000", "093812.050000", "093814.050000", "093816.050000", "093818.050000", "093820.050000", "093822.050000", "093824.050000", "093826.050000", "093828.050000", "093830.050000", "093832.050000", "093834.050000", "093836.050000", "093838.050000", "093840.050000", "093842.050000", "093844.050000", "093846.050000", "093848.050000", "093850.050000", "093852.050000", "093854.050000", "093856.050000", "093858.050000", "093900.050000", "093902.050000", "093904.050000", "093906.050000", "093908.050000", "093910.050000", "093912.050000", "093914.050000", "093916.050000", "093918.050000", "093920.050000", "093922.050000", "093924.050000", "093926.050000", "093928.050000", "093930.050000", "093932.050000", "093934.050000", "093936.050000", "093938.050000", "093940.050000", "093942.050000", "093944.050000", "093946.050000", "093948.050000", "093950.050000", "093952.050000", "093954.050000", "093956.050000", "093958.050000", "094000.050000", "094002.050000", "094004.050000", "094006.050000", "094008.050000", "094010.050000", "094012.050000", "094014.050000", "094016.050000", "094018.050000", "094020.050000", "094022.050000", "094024.050000", "094026.050000", "094028.050000", "094030.050000", "094032.050000", "094034.050000", "094036.050000", "094038.050000", "094040.050000", "094042.050000", "094044.050000", "094046.050000", "094048.050000", "094050.050000", "094052.050000", "094054.050000", "094056.050000", "094058.050000", "094100.050000", "094102.050000", "094104.050000", "094106.050000", "094108.050000", "094110.050000", "094112.050000", "094114.050000", "094116.050000", "094118.050000", "094120.050000", "094122.050000", "094124.050000", "094126.050000", "094128.050000", "094130.050000", "094132.050000", "094134.050000", "094136.050000", "094138.050000", "094140.050000", "094142.050000", "094144.050000", "094146.050000", "094148.050000", "094150.050000", "094152.050000", "094154.050000", "094156.050000", "094158.050000", "094200.050000", "094202.050000", "094204.050000", "094206.050000", "094208.050000", "094210.050000", "094212.050000", "094214.050000", "094216.050000", "094218.050000", "094220.050000", "094222.050000", "094224.050000", "094226.050000", "094228.050000", "094230.050000", "094232.050000", "094234.050000", "094236.050000", "094238.050000", "094240.050000", "094242.050000", "094244.050000", "094246.050000", "094248.050000", "094250.050000", "094252.050000", "094254.050000", "094256.050000", "094258.050000", "094300.050000", "094302.050000", "094304.050000", "094306.050000", "094308.050000", "094310.050000", "094312.050000", "094314.050000", "094316.050000", "094318.050000", "094320.050000", "094322.050000", "094324.050000", "094326.050000", "094328.050000", "094330.050000", "094332.050000", "094334.050000", "094336.050000", "094338.050000", "094340.050000", "094342.050000", "094344.050000", "094346.050000", "094348.050000", "094350.050000", "094352.050000", "094354.050000", "094356.050000", "094358.050000", "094400.050000", "094402.050000", "094404.050000", "094406.050000", "094408.050000", "094410.050000", "094412.050000", "094414.050000", "094416.050000", "094418.050000"],
      "ContentTime": ["093819.743000", "093819.746000", "093819.748000", "093819.751000", "093819.753000", "093819.755000", "093819.758000", "093819.760000", "093819.762000", "093819.765000", "093819.767000", "093819.769000", "093819.779000", "093819.781000", "093819.784000", "093819.786000", "093819.788000", "093819.790000", "093819.793000", "093819.795000", "093859.737000", "093859.740000", "093859.742000", "093859.744000", "093859.747000", "093859.749000", "093859.751000", "093859.754000", "093859.756000", "093859.758000", "093859.761000", "093859.763000", "093859.765000", "093859.768000", "093859.770000", "093859.772000", "093859.774000", "093859.777000", "093859.779000", "093859.781000", "093939.737000", "093939.740000", "093939.755000", "093939.757000", "093939.759000", "093939.762000", "093939.764000", "093939.766000", "093939.769000", "093939.771000", "093939.773000", "093939.776000", "093939.778000", "093939.780000", "093939.782000", "093939.785000", "093939.787000", "093939.789000", "093939.792000", "093939.794000", "094019.738000", "094019.741000", "094019.743000", "094019.746000", "094019.748000", "094019.750000", "094019.752000", "094019.755000", "094019.757000", "094019.759000", "094019.762000", "094019.764000", "094019.766000", "094019.769000", "094019.771000", "094019.773000", "094019.776000", "094019.778000", "094019.780000", "094019.782000", "094039.738000", "094039.741000", "094039.743000", "094039.745000", "094039.748000", "094039.750000", "094039.752000", "094039.755000", "094039.757000", "094039.770000", "094119.737000", "094119.740000", "094119.742000", "094119.744000", "094119.746000", "094119.749000", "094119.751000", "094119.753000", "094119.756000", "094119.758000", "094119.760000", "094119.763000", "094119.765000", "094119.767000", "094119.770000", "094119.772000", "094119.774000", "094119.777000", "094119.779000", "094119.781000", "094159.737000", "094159.740000", "094159.742000", "094159.744000", "094159.747000", "094159.749000", "094159.751000", "094159.754000", "094159.756000", "094159.758000", "094159.760000", "094159.763000", "094159.765000", "094159.767000", "094159.770000", "094159.772000", "094159.775000", "094159.777000", "094159.779000", "094159.782000", "094239.738000", "094239.741000", "094239.743000", "094239.745000", "094239.748000", "094239.750000", "094239.752000", "094239.755000", "094239.757000", "094239.759000", "094239.762000", "094239.764000", "094239.766000", "094239.769000", "094239.771000", "094239.773000", "094239.775000", "094239.778000", "094239.780000", "094239.782000", "094319.737000", "094319.740000", "094319.742000", "094319.745000", "094319.747000", "094319.749000", "094319.752000", "094319.754000", "094319.756000", "094319.759000", "094319.761000", "094319.763000", "094319.766000", "094319.768000", "094319.770000", "094319.772000", "094319.775000", "094319.777000", "094319.779000", "094319.782000", "094359.737000", "094359.740000", "094359.742000", "094359.744000", "094359.747000", "094359.749000", "094359.751000", "094359.754000", "094359.756000", "094359.758000", "094359.761000", "094359.763000", "094359.765000", "094359.767000", "094359.770000", "094359.772000", "094359.775000", "094359.777000", "094359.779000", "094359.782000", "094418.936000", "094418.938000", "094418.941000", "094418.943000", "094418.946000", "094418.948000", "094418.950000", "094418.953000", "094418.955000", "094418.957000"],
      "InstanceCreationTime": ["093819.743000", "093819.746000", "093819.748000", "093819.751000", "093819.753000", "093819.755000", "093819.758000", "093819.760000", "093819.762000", "093819.765000", "093819.767000", "093819.769000", "093819.779000", "093819.781000", "093819.784000", "093819.786000", "093819.788000", "093819.790000", "093819.793000", "093819.795000", "093859.737000", "093859.740000", "093859.742000", "093859.744000", "093859.747000", "093859.749000", "093859.751000", "093859.754000", "093859.756000", "093859.758000", "093859.761000", "093859.763000", "093859.765000", "093859.768000", "093859.770000", "093859.772000", "093859.774000", "093859.777000", "093859.779000", "093859.781000", "093939.737000", "093939.740000", "093939.755000", "093939.757000", "093939.759000", "093939.762000", "093939.764000", "093939.766000", "093939.769000", "093939.771000", "093939.773000", "093939.776000", "093939.778000", "093939.780000", "093939.782000", "093939.785000", "093939.787000", "093939.789000", "093939.792000", "093939.794000", "094019.738000", "094019.741000", "094019.743000", "094019.746000", "094019.748000", "094019.750000", "094019.752000", "094019.755000", "094019.757000", "094019.759000", "094019.762000", "094019.764000", "094019.766000", "094019.769000", "094019.771000", "094019.773000", "094019.776000", "094019.778000", "094019.780000", "094019.782000", "094039.738000", "094039.741000", "094039.743000", "094039.745000", "094039.748000", "094039.750000", "094039.752000", "094039.755000", "094039.757000", "094039.770000", "094119.737000", "094119.740000", "094119.742000", "094119.744000", "094119.746000", "094119.749000", "094119.751000", "094119.753000", "094119.756000", "094119.758000", "094119.760000", "094119.763000", "094119.765000", "094119.767000", "094119.770000", "094119.772000", "094119.774000", "094119.777000", "094119.779000", "094119.781000", "094159.737000", "094159.740000", "094159.742000", "094159.744000", "094159.747000", "094159.749000", "094159.751000", "094159.754000", "094159.756000", "094159.758000", "094159.760000", "094159.763000", "094159.765000", "094159.767000", "094159.770000", "094159.772000", "094159.775000", "094159.777000", "094159.779000", "094159.782000", "094239.738000", "094239.741000", "094239.743000", "094239.745000", "094239.748000", "094239.750000", "094239.752000", "094239.755000", "094239.757000", "094239.759000", "094239.762000", "094239.764000", "094239.766000", "094239.769000", "094239.771000", "094239.773000", "094239.775000", "094239.778000", "094239.780000", "094239.782000", "094319.737000", "094319.740000", "094319.742000", "094319.745000", "094319.747000", "094319.749000", "094319.752000", "094319.754000", "094319.756000", "094319.759000", "094319.761000", "094319.763000", "094319.766000", "094319.768000", "094319.770000", "094319.772000", "094319.775000", "094319.777000", "094319.779000", "094319.782000", "094359.737000", "094359.740000", "094359.742000", "094359.744000", "094359.747000", "094359.749000", "094359.751000", "094359.754000", "094359.756000", "094359.758000", "094359.761000", "094359.763000", "094359.765000", "094359.767000", "094359.770000", "094359.772000", "094359.775000", "094359.777000", "094359.779000", "094359.782000", "094418.936000", "094418.938000", "094418.941000", "094418.943000", "094418.946000", "094418.948000", "094418.950000", "094418.953000", "094418.955000", "094418.957000"],
      "InstanceNumber": [1, 2, 3, 4, 5, 6, 7, 8, 9, 10, 11, 12, 13, 14, 15, 16, 17, 18, 19, 20, 21, 22, 23, 24, 25, 26, 27, 28, 29, 30, 31, 32, 33, 34, 35, 36, 37, 38, 39, 40, 41, 42, 43, 44, 45, 46, 47, 48, 49, 50, 51, 52, 53, 54, 55, 56, 57, 58, 59, 60, 61, 62, 63, 64, 65, 66, 67, 68, 69, 70, 71, 72, 73, 74, 75, 76, 77, 78, 79, 80, 81, 82, 83, 84, 85, 86, 87, 88, 89, 90, 91, 92, 93, 94, 95, 96, 97, 98, 99, 100, 101, 102, 103, 104, 105, 106, 107, 108, 109, 110, 111, 112, 113, 114, 115, 116, 117, 118, 119, 120, 121, 122, 123, 124, 125, 126, 127, 128, 129, 130, 131, 132, 133, 134, 135, 136, 137, 138, 139, 140, 141, 142, 143, 144, 145, 146, 147, 148, 149, 150, 151, 152, 153, 154, 155, 156, 157, 158, 159, 160, 161, 162, 163, 164, 165, 166, 167, 168, 169, 170, 171, 172, 173, 174, 175, 176, 177, 178, 179, 180, 181, 182, 183, 184, 185, 186, 187, 188, 189, 190, 191, 192, 193, 194, 195, 196, 197, 198, 199, 200],
      "LargestImagePixelValue": [2217, 2211, 2214, 2216, 2216, 2214, 2215, 2217, 2215, 2215, 2212, 2219, 2216, 2217, 2217, 2216, 2216, 2215, 2219, 2215, 2216, 2215, 2216, 2219, 2216, 2215, 2218, 2218, 2217, 2220, 2219, 2218, 2221, 2219, 2215, 2218, 2218, 2213, 2216, 2218, 2220, 2218, 2217, 2215, 2219, 2215, 2214, 2215, 2217, 2217, 2218, 2215, 2216, 2214, 2218, 2216, 2214, 2218, 2217, 2217, 2216, 2216, 2219, 2215, 2217, 2213, 2213, 2218, 2215, 2214, 2218, 2216, 2220, 2215, 2216, 2217, 2216, 2211, 2217, 2214, 2216, 2215, 2212, 2213, 2217, 2217, 2215, 2214, 2221, 2220, 2212, 2213, 2217, 2217, 2215, 2215, 2215, 2217, 2218, 2216, 2222, 2213, 2214, 2215, 2215, 2213, 2216, 2219, 2215, 2214, 2218, 2214, 2215, 2220, 2218, 2219, 2217, 2219, 2217, 2216, 2221, 2218, 2216, 2210, 2217, 2219, 2212, 2212, 2212, 2218, 2216, 2216, 2219, 2218, 2220, 2215, 2217, 2212, 2214, 2214, 2216, 2216, 2217, 2214, 2220, 2217, 2216, 2213, 2212, 2212, 2210, 2216, 2216, 2211, 2217, 2215, 2220, 2217, 2219, 2218, 2218, 2216, 2218, 2217, 2215, 2214, 2216, 2214, 2219, 2217, 2214, 2216, 2218, 2215, 2218, 2211, 2215, 2214, 2215, 2215, 2214, 2217, 2214, 2217, 2213, 2218, 2217, 2217, 2216, 2216, 2213, 2213, 2214, 2212, 2211, 2212, 2210, 2210, 2211, 2212],
      "WindowCenter": [973.0, 972.0, 973.0, 972.0, 972.0, 973.0, 971.0, 971.0, 971.0, 972.0, 972.0, 973.0, 972.0, 971.0, 972.0, 972.0, 972.0, 971.0, 971.0, 972.0, 973.0, 972.0, 972.0, 971.0, 972.0, 972.0, 972.0, 972.0, 972.0, 973.0, 971.0, 971.0, 971.0, 973.0, 972.0, 972.0, 972.0, 972.0, 972.0, 972.0, 973.0, 972.0, 972.0, 972.0, 972.0, 972.0, 973.0, 971.0, 973.0, 972.0, 972.0, 973.0, 972.0, 971.0, 972.0, 972.0, 972.0, 971.0, 973.0, 973.0, 972.0, 972.0, 972.0, 972.0, 972.0, 971.0, 973.0, 972.0, 972.0, 972.0, 971.0, 971.0, 972.0, 972.0, 972.0, 972.0, 972.0, 971.0, 972.0, 972.0, 972.0, 973.0, 972.0, 973.0, 972.0, 972.0, 973.0, 972.0, 971.0, 972.0, 972.0, 972.0, 973.0, 972.0, 973.0, 971.0, 973.0, 971.0, 972.0, 972.0, 971.0, 973.0, 971.0, 972.0, 973.0, 972.0, 972.0, 971.0, 972.0, 972.0, 972.0, 973.0, 972.0, 971.0, 972.0, 972.0, 972.0, 971.0, 971.0, 972.0, 972.0, 971.0, 972.0, 972.0, 971.0, 972.0, 973.0, 972.0, 972.0, 972.0, 973.0, 972.0, 971.0, 972.0, 973.0, 972.0, 972.0, 971.0, 973.0, 971.0, 972.0, 971.0, 973.0, 972.0, 972.0, 973.0, 972.0, 972.0, 971.0, 973.0, 972.0, 971.0, 973.0, 973.0, 971.0, 971.0, 972.0, 973.0, 973.0, 972.0, 972.0, 973.0, 971.0, 972.0, 973.0, 972.0, 973.0, 973.0, 972.0, 972.0, 973.0, 972.0, 972.0, 971.0, 971.0, 971.0, 973.0, 971.0, 973.0, 972.0, 973.0, 972.0, 972.0, 972.0, 972.0, 972.0, 972.0, 972.0, 972.0, 973.0, 972.0, 972.0, 973.0, 973.0, 972.0, 972.0, 972.0, 971.0, 972.0, 973.0],
      "WindowWidth": [2297.0, 2297.0, 2297.0, 2297.0, 2296.0, 2297.0, 2296.0, 2296.0, 2296.0, 2296.0, 2297.0, 2298.0, 2297.0, 2296.0, 2297.0, 2297.0, 2297.0, 2295.0, 2296.0, 2297.0, 2298.0, 2296.0, 2297.0, 2296.0, 2296.0, 2296.0, 2296.0, 2297.0, 2296.0, 2298.0, 2295.0, 2296.0, 2296.0, 2298.0, 2296.0, 2297.0, 2296.0, 2297.0, 2297.0, 2297.0, 2298.0, 2296.0, 2296.0, 2297.0, 2297.0, 2297.0, 2298.0, 2295.0, 2298.0, 2296.0, 2297.0, 2297.0, 2296.0, 2296.0, 2296.0, 2297.0, 2297.0, 2296.0, 2297.0, 2297.0, 2296.0, 2297.0, 2297.0, 2296.0, 2296.0, 2296.0, 2297.0, 2297.0, 2296.0, 2297.0, 2296.0, 2296.0, 2297.0, 2297.0, 2297.0, 2296.0, 2297.0, 2296.0, 2297.0, 2296.0, 2297.0, 2297.0, 2297.0, 2297.0, 2297.0, 2296.0, 2298.0, 2296.0, 2296.0, 2297.0, 2296.0, 2297.0, 2298.0, 2297.0, 2297.0, 2296.0, 2297.0, 2296.0, 2296.0, 2296.0, 2296.0, 2297.0, 2296.0, 2297.0, 2297.0, 2297.0, 2297.0, 2296.0, 2296.0, 2296.0, 2297.0, 2297.0, 2296.0, 2296.0, 2297.0, 2296.0, 2297.0, 2296.0, 2296.0, 2296.0, 2296.0, 2296.0, 2297.0, 2297.0, 2296.0, 2297.0, 2297.0, 2297.0, 2296.0, 2297.0, 2297.0, 2297.0, 2295.0, 2296.0, 2297.0, 2297.0, 2296.0, 2296.0, 2297.0, 2296.0, 2297.0, 2295.0, 2297.0, 2296.0, 2296.0, 2297.0, 2297.0, 2296.0, 2296.0, 2297.0, 2297.0, 2295.0, 2298.0, 2296.0, 2296.0, 2296.0, 2296.0, 2297.0, 2297.0, 2296.0, 2296.0, 2298.0, 2296.0, 2296.0, 2297.0, 2296.0, 2297.0, 2297.0, 2296.0, 2297.0, 2297.0, 2297.0, 2296.0, 2296.0, 2296.0, 2296.0, 2297.0, 2296.0, 2297.0, 2296.0, 2297.0, 2296.0, 2297.0, 2296.0, 2297.0, 2296.0, 2296.0, 2296.0, 2296.0, 2297.0, 2296.0, 2296.0, 2297.0, 2297.0, 2296.0, 2297.0, 2296.0, 2296.0, 2296.0, 2298.0]
    },
    "slices": {}
  }
}