{
  "AcquisitionMatrixPE": 80,
  "AcquisitionNumber": 1,
  "AcquisitionTime": "11:18:58.557500",
  "BandwidthPerPixelPhaseEncode": 25,
  "BaseResolution": 80,
  "BodyPartExamined": "BRAIN",
  "CoilCombinationMethod": "Sum of Squares",
  "ConsistencyInfo": "N4_VE11C_LATEST_20160120",
  "ConversionSoftware": "dcm2niix",
  "ConversionSoftwareVersion": "v1.0.20220720",
  "DerivedVendorReportedEchoSpacing": 0.0005,
  "DeviceSerialNumber": "66112",
  "DwellTime": 2.7e-06,
  "EchoTime": 0.03,
  "EchoTrainLength": 80,
  "EffectiveEchoSpacing": 0.0005,
  "FlipAngle": 10,
  "HeudiconvVersion": "0.13.1",
  "ImageOrientationPatientDICOM": [0.997478, -0.0704929, 0.00832542, 0.0641543, 0.945493, 0.319261],
  "ImageOrientationText": "Tra>Cor(18.5)>Sag(1.7)",
  "ImageType": [
    "ORIGINAL",
    "PRIMARY",
    "M",
    "ND",
    "NORM",
    "MOSAIC"
],
  "ImagingFrequency": 123.252,
  "InPlanePhaseEncodingDirectionDICOM": "COL",
  "InstitutionAddress": "Maynard 3,Hanover,NH,US,03755",
  "InstitutionName": "Dartmouth College - PBS",
  "InstitutionalDepartmentName": "Department",
  "MRAcquisitionType": "2D",
  "MagneticFieldStrength": 3,
  "Manufacturer": "Siemens",
  "ManufacturersModelName": "Prisma",
  "MatrixCoilMode": "SENSE",
  "Modality": "MR",
  "NonlinearGradientCorrection": false,
  "PartialFourier": 1,
  "PatientPosition": "HFS",
  "PercentPhaseFOV": 100,
  "PercentSampling": 100,
  "PhaseEncodingDirection": "j-",
  "PhaseEncodingSteps": 80,
  "PhaseResolution": 1,
  "PixelBandwidth": 2315,
  "ProcedureStepDescription": "dbic^QA",
  "ProtocolName": "func-bold_fa-10",
  "PulseSequenceDetails": "%SiemensSeq%\\ep2d_bold",
  "ReceiveCoilActiveElements": "HC1-7;NC1,2",
  "ReceiveCoilName": "HeadNeck_64",
  "ReconMatrixPE": 80,
  "RepetitionTime": 2,
  "SAR": 0.00756659,
  "ScanOptions": "FS",
  "ScanningSequence": "EP",
  "SequenceName": "*epfid2d1_80",
  "SequenceVariant": "SK",
  "SeriesDescription": "func-bold_fa-10",
  "SeriesNumber": 9,
  "ShimSetting": [4140, -7683, -7518, 215, -71, -319, -95, 68],
  "SliceThickness": 3.5,
  "SliceTiming": [0.99, 0, 1.055, 0.065, 1.1225, 0.1325, 1.1875, 0.1975, 1.255, 0.265, 1.32, 0.33, 1.385, 0.395, 1.4525, 0.4625, 1.5175, 0.5275, 1.585, 0.595, 1.65, 0.66, 1.715, 0.725, 1.7825, 0.7925, 1.8475, 0.8575, 1.9125, 0.925],
  "SoftwareVersions": "syngo MR E11",
  "SpacingBetweenSlices": 3.99,
  "StationName": "AWP66112",
  "TotalReadoutTime": 0.0395,
  "TxRefAmp": 211.815,
  "dcmmeta_affine": [
    [-2.9924325942993164, 0.19246304035186768, 0.12120508402585983, 114.00680541992188],
    [0.2114785611629486, 2.8364787101745605, 1.268505334854126, -135.18624877929688],
    [0.024976253509521484, -0.9577817320823669, 3.7810451984405518, -39.62284851074219],
    [0.0, 0.0, 0.0, 1.0]
],
  "dcmmeta_reorient_transform": [
    [0.0, -1.0, 0.0, 79.0],
    [1.0, 0.0, 0.0, 0.0],
    [0.0, 0.0, 1.0, 0.0],
    [0.0, 0.0, 0.0, 1.0]
],
  "dcmmeta_shape": [80, 80, 30, 200],
  "dcmmeta_slice_dim": 2,
  "dcmmeta_version": 0.6,
  "global": {
    "const": {
      "AccessionNumber": "qa64",
      "AcquisitionMatrix": [80, 0, 0, 80],
      "AngioFlag": "N",
      "BitsAllocated": 16,
      "BitsStored": 12,
      "BodyPartExamined": "BRAIN",
      "Columns": 480,
      "EchoNumbers": 1,
      "EchoTime": 30.0,
      "EchoTrainLength": 80,
      "FlipAngle": 10.0,
      "HighBit": 11,
      "ImageOrientationPatient": [0.99747754110746, -0.0704928535389, 0.00832541807638, 0.06415434433851, 0.94549294144969, 0.31926057973277],
      "ImagePositionPatient": [-766.19051666989, -613.89563786544, -311.83920571507],
      "ImageType": [
        "ORIGINAL",
        "PRIMARY",
        "M",
        "ND",
        "NORM",
        "MOSAIC"
],
      "ImagedNucleus": "1H",
      "ImagingFrequency": 123.252376,
      "InPlanePhaseEncodingDirection": "COL",
      "MRAcquisitionType": "2D",
      "MagneticFieldStrength": 3.0,
      "Manufacturer": "SIEMENS",
      "ManufacturerModelName": "Prisma",
      "Modality": "MR",
      "NumberOfAverages": 1.0,
      "NumberOfPhaseEncodingSteps": 80,
      "PercentPhaseFieldOfView": 100.0,
      "PercentSampling": 100.0,
      "PerformedProcedureStepStartTime": "110021.215000",
      "PhotometricInterpretation": "MONOCHROME2",
      "PixelBandwidth": 2315.0,
      "PixelRepresentation": 0,
      "PixelSpacing": [3.0, 3.0],
      "ProtocolName": "func-bold_fa-10",
      "RepetitionTime": 2000.0,
      "Rows": 480,
      "SAR": 0.00756659288083,
      "SamplesPerPixel": 1,
      "ScanOptions": "FS",
      "ScanningSequence": "EP",
      "SequenceName": "*epfid2d1_80",
      "SequenceVariant": "SK",
      "SeriesDescription": "func-bold_fa-10",
      "SeriesNumber": 9,
      "SeriesTime": "111927.989000",
      "SliceLocation": -77.063172698811,
      "SliceThickness": 3.5,
      "SmallestImagePixelValue": 0,
      "SoftwareVersions": "syngo MR E11",
      "SpacingBetweenSlices": 3.9900000313933,
      "SpecificCharacterSet": "ISO_IR 100",
      "StudyID": "33",
      "StudyTime": "110021.139000",
      "TransmitCoilName": "Body",
      "VariableFlipAngleFlag": "N",
      "WindowCenterWidthExplanation": "Algo1",
      "dBdt": 0.0},
    "slices": {}
  },
  "time": {
    "samples": {
      "AcquisitionNumber": [1, 2, 3, 4, 5, 6, 7, 8, 9, 10, 11, 12, 13, 14, 15, 16, 17, 18, 19, 20, 21, 22, 23, 24, 25, 26, 27, 28, 29, 30, 31, 32, 33, 34, 35, 36, 37, 38, 39, 40, 41, 42, 43, 44, 45, 46, 47, 48, 49, 50, 51, 52, 53, 54, 55, 56, 57, 58, 59, 60, 61, 62, 63, 64, 65, 66, 67, 68, 69, 70, 71, 72, 73, 74, 75, 76, 77, 78, 79, 80, 81, 82, 83, 84, 85, 86, 87, 88, 89, 90, 91, 92, 93, 94, 95, 96, 97, 98, 99, 100, 101, 102, 103, 104, 105, 106, 107, 108, 109, 110, 111, 112, 113, 114, 115, 116, 117, 118, 119, 120, 121, 122, 123, 124, 125, 126, 127, 128, 129, 130, 131, 132, 133, 134, 135, 136, 137, 138, 139, 140, 141, 142, 143, 144, 145, 146, 147, 148, 149, 150, 151, 152, 153, 154, 155, 156, 157, 158, 159, 160, 161, 162, 163, 164, 165, 166, 167, 168, 169, 170, 171, 172, 173, 174, 175, 176, 177, 178, 179, 180, 181, 182, 183, 184, 185, 186, 187, 188, 189, 190, 191, 192, 193, 194, 195, 196, 197, 198, 199, 200],
      "AcquisitionTime": ["111858.557500", "111900.557500", "111902.557500", "111904.557500", "111906.557500", "111908.557500", "111910.557500", "111912.557500", "111914.557500", "111916.557500", "111918.557500", "111920.557500", "111922.557500", "111924.557500", "111926.557500", "111928.557500", "111930.557500", "111932.557500", "111934.557500", "111936.557500", "111938.557500", "111940.557500", "111942.557500", "111944.557500", "111946.557500", "111948.557500", "111950.557500", "111952.557500", "111954.557500", "111956.557500", "111958.557500", "112000.557500", "112002.557500", "112004.557500", "112006.557500", "112008.557500", "112010.557500", "112012.557500", "112014.557500", "112016.557500", "112018.557500", "112020.557500", "112022.557500", "112024.557500", "112026.557500", "112028.557500", "112030.557500", "112032.557500", "112034.557500", "112036.557500", "112038.557500", "112040.557500", "112042.557500", "112044.557500", "112046.557500", "112048.557500", "112050.557500", "112052.557500", "112054.557500", "112056.557500", "112058.557500", "112100.557500", "112102.557500", "112104.557500", "112106.557500", "112108.557500", "112110.557500", "112112.557500", "112114.557500", "112116.557500", "112118.557500", "112120.557500", "112122.557500", "112124.557500", "112126.557500", "112128.557500", "112130.557500", "112132.557500", "112134.557500", "112136.557500", "112138.557500", "112140.557500", "112142.557500", "112144.557500", "112146.557500", "112148.557500", "112150.557500", "112152.557500", "112154.557500", "112156.557500", "112158.557500", "112200.557500", "112202.557500", "112204.557500", "112206.557500", "112208.557500", "112210.557500", "112212.557500", "112214.557500", "112216.557500", "112218.557500", "112220.557500", "112222.557500", "112224.557500", "112226.557500", "112228.557500", "112230.557500", "112232.557500", "112234.557500", "112236.557500", "112238.557500", "112240.557500", "112242.557500", "112244.557500", "112246.557500", "112248.557500", "112250.557500", "112252.557500", "112254.557500", "112256.557500", "112258.557500", "112300.557500", "112302.557500", "112304.557500", "112306.557500", "112308.557500", "112310.557500", "112312.557500", "112314.557500", "112316.557500", "112318.557500", "112320.557500", "112322.557500", "112324.557500", "112326.557500", "112328.557500", "112330.557500", "112332.557500", "112334.557500", "112336.557500", "112338.557500", "112340.557500", "112342.557500", "112344.557500", "112346.557500", "112348.557500", "112350.557500", "112352.557500", "112354.557500", "112356.557500", "112358.557500", "112400.557500", "112402.557500", "112404.557500", "112406.557500", "112408.557500", "112410.557500", "112412.557500", "112414.557500", "112416.557500", "112418.557500", "112420.557500", "112422.557500", "112424.557500", "112426.557500", "112428.557500", "112430.557500", "112432.557500", "112434.557500", "112436.557500", "112438.557500", "112440.557500", "112442.557500", "112444.557500", "112446.557500", "112448.557500", "112450.557500", "112452.557500", "112454.557500", "112456.557500", "112458.557500", "112500.557500", "112502.557500", "112504.557500", "112506.557500", "112508.557500", "112510.557500", "112512.557500", "112514.557500", "112516.557500", "112518.557500", "112520.557500", "112522.557500", "112524.557500", "112526.557500", "112528.557500", "112530.557500", "112532.557500", "112534.557500", "112536.557500"],
      "ContentTime": ["111927.992000", "111927.996000", "111927.999000", "111928.001000", "111928.004000", "111928.006000", "111928.009000", "111928.011000", "111928.014000", "111928.021000", "111928.024000", "111928.031000", "111928.034000", "111928.036000", "112007.987000", "112007.990000", "112007.993000", "112007.995000", "112007.998000", "112008.002000", "112008.004000", "112008.007000", "112008.009000", "112008.012000", "112008.015000", "112008.017000", "112008.020000", "112008.022000", "112008.025000", "112008.027000", "112008.030000", "112008.032000", "112008.035000", "112008.038000", "112047.987000", "112047.990000", "112047.993000", "112047.995000", "112047.998000", "112048.002000", "112048.004000", "112048.007000", "112048.009000", "112048.012000", "112048.014000", "112048.017000", "112048.020000", "112048.022000", "112048.025000", "112048.027000", "112048.030000", "112048.033000", "112048.035000", "112048.038000", "112127.987000", "112127.990000", "112127.993000", "112127.995000", "112127.998000", "112128.002000", "112128.004000", "112128.007000", "112128.009000", "112128.012000", "112128.015000", "112128.017000", "112128.020000", "112128.022000", "112128.025000", "112128.027000", "112128.030000", "112128.033000", "112128.035000", "112128.038000", "112207.987000", "112207.990000", "112207.993000", "112207.995000", "112207.998000", "112208.001000", "112208.004000", "112208.007000", "112208.014000", "112208.016000", "112208.019000", "112208.021000", "112208.024000", "112208.027000", "112208.029000", "112208.032000", "112208.034000", "112208.037000", "112208.039000", "112208.042000", "112247.987000", "112247.990000", "112247.993000", "112247.995000", "112247.998000", "112248.002000", "112248.004000", "112248.007000", "112248.009000", "112248.012000", "112248.015000", "112248.017000", "112248.020000", "112248.022000", "112248.025000", "112248.027000", "112248.030000", "112248.033000", "112248.035000", "112248.038000", "112327.987000", "112327.990000", "112327.993000", "112327.995000", "112327.998000", "112328.002000", "112328.011000", "112328.013000", "112328.016000", "112328.019000", "112328.021000", "112328.024000", "112328.026000", "112328.029000", "112328.032000", "112328.034000", "112328.037000", "112328.039000", "112328.042000", "112328.044000", "112407.988000", "112407.990000", "112407.993000", "112407.996000", "112407.998000", "112408.001000", "112408.004000", "112408.006000", "112408.009000", "112408.011000", "112408.014000", "112408.017000", "112408.019000", "112408.022000", "112408.024000", "112408.027000", "112408.030000", "112408.032000", "112408.035000", "112408.037000", "112447.987000", "112447.990000", "112447.993000", "112447.996000", "112447.998000", "112448.002000", "112448.004000", "112448.007000", "112448.010000", "112448.012000", "112448.015000", "112448.018000", "112448.020000", "112448.023000", "112448.025000", "112448.028000", "112448.031000", "112448.033000", "112448.036000", "112448.038000", "112527.987000", "112527.990000", "112527.993000", "112527.995000", "112527.998000", "112528.002000", "112528.005000", "112528.007000", "112528.010000", "112528.012000", "112528.015000", "112528.017000", "112528.020000", "112528.023000", "112528.025000", "112528.028000", "112528.030000", "112528.033000", "112528.036000", "112528.038000", "112538.168000", "112538.171000", "112538.174000", "112538.176000", "112538.179000", "112538.182000"],
      "InstanceCreationTime": ["111927.992000", "111927.996000", "111927.999000", "111928.001000", "111928.004000", "111928.006000", "111928.009000", "111928.011000", "111928.014000", "111928.021000", "111928.024000", "111928.031000", "111928.034000", "111928.036000", "112007.987000", "112007.990000", "112007.993000", "112007.995000", "112007.998000", "112008.002000", "112008.004000", "112008.007000", "112008.009000", "112008.012000", "112008.015000", "112008.017000", "112008.020000", "112008.022000", "112008.025000", "112008.027000", "112008.030000", "112008.032000", "112008.035000", "112008.038000", "112047.987000", "112047.990000", "112047.993000", "112047.995000", "112047.998000", "112048.002000", "112048.004000", "112048.007000", "112048.009000", "112048.012000", "112048.014000", "112048.017000", "112048.020000", "112048.022000", "112048.025000", "112048.027000", "112048.030000", "112048.033000", "112048.035000", "112048.038000", "112127.987000", "112127.990000", "112127.993000", "112127.995000", "112127.998000", "112128.002000", "112128.004000", "112128.007000", "112128.009000", "112128.012000", "112128.015000", "112128.017000", "112128.020000", "112128.022000", "112128.025000", "112128.027000", "112128.030000", "112128.033000", "112128.035000", "112128.038000", "112207.987000", "112207.990000", "112207.993000", "112207.995000", "112207.998000", "112208.001000", "112208.004000", "112208.007000", "112208.014000", "112208.016000", "112208.019000", "112208.021000", "112208.024000", "112208.027000", "112208.029000", "112208.032000", "112208.034000", "112208.037000", "112208.039000", "112208.042000", "112247.987000", "112247.990000", "112247.993000", "112247.995000", "112247.998000", "112248.002000", "112248.004000", "112248.007000", "112248.009000", "112248.012000", "112248.015000", "112248.017000", "112248.020000", "112248.022000", "112248.025000", "112248.027000", "112248.030000", "112248.033000", "112248.035000", "112248.038000", "112327.987000", "112327.990000", "112327.993000", "112327.995000", "112327.998000", "112328.002000", "112328.011000", "112328.013000", "112328.016000", "112328.019000", "112328.021000", "112328.024000", "112328.026000", "112328.029000", "112328.032000", "112328.034000", "112328.037000", "112328.039000", "112328.042000", "112328.044000", "112407.988000", "112407.990000", "112407.993000", "112407.996000", "112407.998000", "112408.001000", "112408.004000", "112408.006000", "112408.009000", "112408.011000", "112408.014000", "112408.017000", "112408.019000", "112408.022000", "112408.024000", "112408.027000", "112408.030000", "112408.032000", "112408.035000", "112408.037000", "112447.987000", "112447.990000", "112447.993000", "112447.996000", "112447.998000", "112448.002000", "112448.004000", "112448.007000", "112448.010000", "112448.012000", "112448.015000", "112448.018000", "112448.020000", "112448.023000", "112448.025000", "112448.028000", "112448.031000", "112448.033000", "112448.036000", "112448.038000", "112527.987000", "112527.990000", "112527.993000", "112527.995000", "112527.998000", "112528.002000", "112528.005000", "112528.007000", "112528.010000", "112528.012000", "112528.015000", "112528.017000", "112528.020000", "112528.023000", "112528.025000", "112528.028000", "112528.030000", "112528.033000", "112528.036000", "112528.038000", "112538.168000", "112538.171000", "112538.174000", "112538.176000", "112538.179000", "112538.182000"],
      "InstanceNumber": [1, 2, 3, 4, 5, 6, 7, 8, 9, 10, 11, 12, 13, 14, 15, 16, 17, 18, 19, 20, 21, 22, 23, 24, 25, 26, 27, 28, 29, 30, 31, 32, 33, 34, 35, 36, 37, 38, 39, 40, 41, 42, 43, 44, 45, 46, 47, 48, 49, 50, 51, 52, 53, 54, 55, 56, 57, 58, 59, 60, 61, 62, 63, 64, 65, 66, 67, 68, 69, 70, 71, 72, 73, 74, 75, 76, 77, 78, 79, 80, 81, 82, 83, 84, 85, 86, 87, 88, 89, 90, 91, 92, 93, 94, 95, 96, 97, 98, 99, 100, 101, 102, 103, 104, 105, 106, 107, 108, 109, 110, 111, 112, 113, 114, 115, 116, 117, 118, 119, 120, 121, 122, 123, 124, 125, 126, 127, 128, 129, 130, 131, 132, 133, 134, 135, 136, 137, 138, 139, 140, 141, 142, 143, 144, 145, 146, 147, 148, 149, 150, 151, 152, 153, 154, 155, 156, 157, 158, 159, 160, 161, 162, 163, 164, 165, 166, 167, 168, 169, 170, 171, 172, 173, 174, 175, 176, 177, 178, 179, 180, 181, 182, 183, 184, 185, 186, 187, 188, 189, 190, 191, 192, 193, 194, 195, 196, 197, 198, 199, 200],
      "LargestImagePixelValue": [704, 704, 702, 704, 705, 707, 700, 704, 705, 703, 705, 705, 700, 707, 706, 703, 703, 703, 706, 704, 703, 705, 702, 705, 713, 701, 706, 707, 701, 703, 706, 704, 703, 704, 704, 703, 705, 702, 703, 708, 704, 704, 703, 701, 700, 704, 704, 702, 706, 707, 702, 704, 701, 702, 703, 703, 704, 706, 702, 700, 704, 706, 703, 702, 705, 701, 700, 703, 705, 699, 705, 702, 701, 702, 704, 703, 701, 703, 702, 703, 699, 702, 704, 701, 700, 702, 700, 701, 702, 702, 704, 704, 704, 705, 704, 702, 707, 699, 698, 704, 702, 705, 701, 704, 705, 703, 703, 703, 703, 701, 701, 700, 706, 702, 706, 704, 705, 703, 701, 703, 704, 702, 704, 702, 701, 706, 706, 701, 702, 700, 704, 701, 702, 702, 704, 703, 705, 702, 703, 704, 705, 701, 702, 706, 702, 705, 704, 704, 704, 704, 702, 701, 703, 702, 699, 703, 701, 704, 702, 703, 701, 703, 704, 701, 703, 702, 704, 701, 705, 702, 701, 703, 706, 701, 703, 705, 700, 702, 702, 703, 703, 703, 703, 705, 703, 705, 701, 702, 702, 703, 700, 704, 699, 699, 703, 704, 700, 703, 703, 701],
      "WindowCenter": [473.0, 474.0, 473.0, 473.0, 473.0, 473.0, 473.0, 473.0, 473.0, 473.0, 474.0, 473.0, 473.0, 473.0, 473.0, 473.0, 473.0, 473.0, 473.0, 473.0, 473.0, 473.0, 474.0, 473.0, 475.0, 474.0, 473.0, 473.0, 473.0, 473.0, 475.0, 473.0, 473.0, 474.0, 473.0, 473.0, 473.0, 473.0, 473.0, 473.0, 474.0, 473.0, 473.0, 473.0, 473.0, 473.0, 473.0, 474.0, 473.0, 473.0, 473.0, 473.0, 473.0, 473.0, 473.0, 473.0, 473.0, 473.0, 473.0, 473.0, 473.0, 473.0, 473.0, 473.0, 473.0, 473.0, 473.0, 473.0, 473.0, 473.0, 473.0, 473.0, 473.0, 473.0, 473.0, 473.0, 473.0, 473.0, 473.0, 473.0, 473.0, 473.0, 473.0, 473.0, 473.0, 473.0, 473.0, 473.0, 473.0, 473.0, 473.0, 473.0, 473.0, 473.0, 473.0, 473.0, 473.0, 473.0, 473.0, 473.0, 473.0, 474.0, 473.0, 472.0, 473.0, 473.0, 473.0, 473.0, 473.0, 472.0, 473.0, 473.0, 473.0, 473.0, 472.0, 473.0, 473.0, 473.0, 473.0, 473.0, 473.0, 472.0, 473.0, 473.0, 473.0, 472.0, 473.0, 473.0, 473.0, 473.0, 473.0, 473.0, 474.0, 472.0, 473.0, 472.0, 473.0, 472.0, 472.0, 473.0, 472.0, 472.0, 472.0, 473.0, 473.0, 472.0, 472.0, 472.0, 473.0, 472.0, 473.0, 472.0, 472.0, 473.0, 472.0, 472.0, 472.0, 472.0, 472.0, 472.0, 472.0, 472.0, 472.0, 472.0, 472.0, 472.0, 473.0, 472.0, 472.0, 472.0, 472.0, 472.0, 472.0, 473.0, 472.0, 472.0, 472.0, 472.0, 472.0, 472.0, 472.0, 472.0, 472.0, 472.0, 472.0, 473.0, 472.0, 472.0, 472.0, 472.0, 472.0, 472.0, 472.0, 472.0, 472.0, 472.0, 472.0, 472.0, 472.0, 472.0],
      "WindowWidth": [982.0, 982.0, 982.0, 982.0, 982.0, 982.0, 982.0, 982.0, 982.0, 982.0, 983.0, 982.0, 982.0, 982.0, 982.0, 982.0, 982.0, 982.0, 982.0, 982.0, 982.0, 982.0, 982.0, 982.0, 984.0, 982.0, 982.0, 982.0, 981.0, 982.0, 984.0, 982.0, 982.0, 982.0, 981.0, 981.0, 981.0, 981.0, 981.0, 981.0, 983.0, 981.0, 981.0, 981.0, 981.0, 981.0, 981.0, 983.0, 981.0, 982.0, 981.0, 981.0, 981.0, 981.0, 981.0, 981.0, 981.0, 981.0, 981.0, 981.0, 981.0, 981.0, 981.0, 981.0, 981.0, 981.0, 981.0, 981.0, 981.0, 981.0, 981.0, 981.0, 981.0, 981.0, 981.0, 981.0, 981.0, 981.0, 981.0, 981.0, 981.0, 981.0, 981.0, 981.0, 981.0, 981.0, 981.0, 981.0, 981.0, 981.0, 981.0, 981.0, 981.0, 981.0, 981.0, 981.0, 981.0, 981.0, 981.0, 981.0, 981.0, 983.0, 981.0, 980.0, 981.0, 981.0, 981.0, 981.0, 981.0, 980.0, 981.0, 981.0, 981.0, 981.0, 980.0, 981.0, 981.0, 981.0, 981.0, 981.0, 981.0, 980.0, 981.0, 981.0, 981.0, 980.0, 981.0, 981.0, 981.0, 981.0, 981.0, 981.0, 984.0, 980.0, 981.0, 980.0, 981.0, 980.0, 980.0, 981.0, 980.0, 980.0, 980.0, 981.0, 981.0, 980.0, 980.0, 980.0, 981.0, 980.0, 981.0, 980.0, 980.0, 981.0, 980.0, 980.0, 980.0, 980.0, 980.0, 980.0, 980.0, 980.0, 980.0, 980.0, 980.0, 980.0, 981.0, 980.0, 980.0, 980.0, 980.0, 980.0, 980.0, 981.0, 980.0, 980.0, 980.0, 980.0, 980.0, 980.0, 980.0, 980.0, 980.0, 980.0, 980.0, 981.0, 980.0, 980.0, 980.0, 980.0, 980.0, 980.0, 980.0, 980.0, 980.0, 980.0, 980.0, 980.0, 980.0, 980.0]
    },
    "slices": {}
  }
}