{
  "AcquisitionMatrixPE": 80,
  "AcquisitionNumber": 1,
  "AcquisitionTime": "11:12:12.530000",
  "BandwidthPerPixelPhaseEncode": 25,
  "BaseResolution": 80,
  "BodyPartExamined": "BRAIN",
  "CoilCombinationMethod": "Sum of Squares",
  "ConsistencyInfo": "N4_VE11C_LATEST_20160120",
  "ConversionSoftware": "dcm2niix",
  "ConversionSoftwareVersion": "v1.0.20220720",
  "DerivedVendorReportedEchoSpacing": 0.0005,
  "DeviceSerialNumber": "66112",
  "DwellTime": 2.7e-06,
  "EchoTime": 0.03,
  "EchoTrainLength": 80,
  "EffectiveEchoSpacing": 0.0005,
  "FlipAngle": 77,
  "HeudiconvVersion": "0.13.1",
  "ImageOrientationPatientDICOM": [0.997478, -0.0704929, 0.00832542, 0.0641543, 0.945493, 0.319261],
  "ImageOrientationText": "Tra>Cor(18.5)>Sag(1.7)",
  "ImageType": [
    "ORIGINAL",
    "PRIMARY",
    "M",
    "ND",
    "NORM",
    "MOSAIC"
],
  "ImagingFrequency": 123.252,
  "InPlanePhaseEncodingDirectionDICOM": "COL",
  "InstitutionAddress": "Maynard 3,Hanover,NH,US,03755",
  "InstitutionName": "Dartmouth College - PBS",
  "InstitutionalDepartmentName": "Department",
  "MRAcquisitionType": "2D",
  "MagneticFieldStrength": 3,
  "Manufacturer": "Siemens",
  "ManufacturersModelName": "Prisma",
  "MatrixCoilMode": "SENSE",
  "Modality": "MR",
  "NonlinearGradientCorrection": false,
  "PartialFourier": 1,
  "PatientPosition": "HFS",
  "PercentPhaseFOV": 100,
  "PercentSampling": 100,
  "PhaseEncodingDirection": "j-",
  "PhaseEncodingSteps": 80,
  "PhaseResolution": 1,
  "PixelBandwidth": 2315,
  "ProcedureStepDescription": "dbic^QA",
  "ProtocolName": "func-bold_fa-77",
  "PulseSequenceDetails": "%SiemensSeq%\\ep2d_bold",
  "ReceiveCoilActiveElements": "HC1-7;NC1,2",
  "ReceiveCoilName": "HeadNeck_64",
  "ReconMatrixPE": 80,
  "RepetitionTime": 2,
  "SAR": 0.0282073,
  "ScanOptions": "FS",
  "ScanningSequence": "EP",
  "SequenceName": "*epfid2d1_80",
  "SequenceVariant": "SK",
  "SeriesDescription": "func-bold_fa-77",
  "SeriesNumber": 7,
  "ShimSetting": [4140, -7683, -7518, 215, -71, -319, -95, 68],
  "SliceThickness": 3.5,
  "SliceTiming": [0.99, 0, 1.055, 0.065, 1.12, 0.13, 1.1875, 0.1975, 1.2525, 0.2625, 1.32, 0.33, 1.385, 0.395, 1.45, 0.46, 1.5175, 0.5275, 1.5825, 0.5925, 1.65, 0.66, 1.715, 0.725, 1.78, 0.79, 1.8475, 0.8575, 1.9125, 0.9225],
  "SoftwareVersions": "syngo MR E11",
  "SpacingBetweenSlices": 3.99,
  "StationName": "AWP66112",
  "TotalReadoutTime": 0.0395,
  "TxRefAmp": 211.815,
  "dcmmeta_affine": [
    [-2.9924325942993164, 0.19246304035186768, 0.12120508402585983, 114.00680541992188],
    [0.2114785611629486, 2.8364787101745605, 1.268505334854126, -135.18624877929688],
    [0.024976253509521484, -0.9577817320823669, 3.7810451984405518, -39.62284851074219],
    [0.0, 0.0, 0.0, 1.0]
],
  "dcmmeta_reorient_transform": [
    [0.0, -1.0, 0.0, 79.0],
    [1.0, 0.0, 0.0, 0.0],
    [0.0, 0.0, 1.0, 0.0],
    [0.0, 0.0, 0.0, 1.0]
],
  "dcmmeta_shape": [80, 80, 30, 200],
  "dcmmeta_slice_dim": 2,
  "dcmmeta_version": 0.6,
  "global": {
    "const": {
      "AccessionNumber": "qa64",
      "AcquisitionMatrix": [80, 0, 0, 80],
      "AngioFlag": "N",
      "BitsAllocated": 16,
      "BitsStored": 12,
      "BodyPartExamined": "BRAIN",
      "Columns": 480,
      "EchoNumbers": 1,
      "EchoTime": 30.0,
      "EchoTrainLength": 80,
      "FlipAngle": 77.0,
      "HighBit": 11,
      "ImageOrientationPatient": [0.99747754110746, -0.0704928535389, 0.00832541807638, 0.06415434433851, 0.94549294144969, 0.31926057973277],
      "ImagePositionPatient": [-766.19051666989, -613.89563786544, -311.83920571507],
      "ImageType": [
        "ORIGINAL",
        "PRIMARY",
        "M",
        "ND",
        "NORM",
        "MOSAIC"
],
      "ImagedNucleus": "1H",
      "ImagingFrequency": 123.252376,
      "InPlanePhaseEncodingDirection": "COL",
      "LargestImagePixelValue": 4095,
      "MRAcquisitionType": "2D",
      "MagneticFieldStrength": 3.0,
      "Manufacturer": "SIEMENS",
      "ManufacturerModelName": "Prisma",
      "Modality": "MR",
      "NumberOfAverages": 1.0,
      "NumberOfPhaseEncodingSteps": 80,
      "PercentPhaseFieldOfView": 100.0,
      "PercentSampling": 100.0,
      "PerformedProcedureStepStartTime": "110021.215000",
      "PhotometricInterpretation": "MONOCHROME2",
      "PixelBandwidth": 2315.0,
      "PixelRepresentation": 0,
      "PixelSpacing": [3.0, 3.0],
      "ProtocolName": "func-bold_fa-77",
      "RepetitionTime": 2000.0,
      "Rows": 480,
      "SAR": 0.02820733586311,
      "SamplesPerPixel": 1,
      "ScanOptions": "FS",
      "ScanningSequence": "EP",
      "SequenceName": "*epfid2d1_80",
      "SequenceVariant": "SK",
      "SeriesDescription": "func-bold_fa-77",
      "SeriesNumber": 7,
      "SeriesTime": "111308.143000",
      "SliceLocation": -77.063172698811,
      "SliceThickness": 3.5,
      "SmallestImagePixelValue": 0,
      "SoftwareVersions": "syngo MR E11",
      "SpacingBetweenSlices": 3.9900000313933,
      "SpecificCharacterSet": "ISO_IR 100",
      "StudyID": "33",
      "StudyTime": "110021.139000",
      "TransmitCoilName": "Body",
      "VariableFlipAngleFlag": "N",
      "WindowCenterWidthExplanation": "Algo1",
      "dBdt": 0.0},
    "slices": {}
  },
  "time": {
    "samples": {
      "AcquisitionNumber": [1, 2, 3, 4, 5, 6, 7, 8, 9, 10, 11, 12, 13, 14, 15, 16, 17, 18, 19, 20, 21, 22, 23, 24, 25, 26, 27, 28, 29, 30, 31, 32, 33, 34, 35, 36, 37, 38, 39, 40, 41, 42, 43, 44, 45, 46, 47, 48, 49, 50, 51, 52, 53, 54, 55, 56, 57, 58, 59, 60, 61, 62, 63, 64, 65, 66, 67, 68, 69, 70, 71, 72, 73, 74, 75, 76, 77, 78, 79, 80, 81, 82, 83, 84, 85, 86, 87, 88, 89, 90, 91, 92, 93, 94, 95, 96, 97, 98, 99, 100, 101, 102, 103, 104, 105, 106, 107, 108, 109, 110, 111, 112, 113, 114, 115, 116, 117, 118, 119, 120, 121, 122, 123, 124, 125, 126, 127, 128, 129, 130, 131, 132, 133, 134, 135, 136, 137, 138, 139, 140, 141, 142, 143, 144, 145, 146, 147, 148, 149, 150, 151, 152, 153, 154, 155, 156, 157, 158, 159, 160, 161, 162, 163, 164, 165, 166, 167, 168, 169, 170, 171, 172, 173, 174, 175, 176, 177, 178, 179, 180, 181, 182, 183, 184, 185, 186, 187, 188, 189, 190, 191, 192, 193, 194, 195, 196, 197, 198, 199, 200],
      "AcquisitionTime": ["111212.530000", "111214.530000", "111216.530000", "111218.530000", "111220.530000", "111222.530000", "111224.530000", "111226.530000", "111228.530000", "111230.530000", "111232.530000", "111234.530000", "111236.530000", "111238.530000", "111240.530000", "111242.530000", "111244.530000", "111246.530000", "111248.530000", "111250.530000", "111252.530000", "111254.530000", "111256.530000", "111258.530000", "111300.530000", "111302.530000", "111304.530000", "111306.530000", "111308.530000", "111310.530000", "111312.530000", "111314.530000", "111316.530000", "111318.530000", "111320.530000", "111322.530000", "111324.530000", "111326.530000", "111328.530000", "111330.530000", "111332.530000", "111334.530000", "111336.530000", "111338.530000", "111340.530000", "111342.530000", "111344.530000", "111346.530000", "111348.530000", "111350.530000", "111352.530000", "111354.530000", "111356.530000", "111358.530000", "111400.530000", "111402.530000", "111404.530000", "111406.530000", "111408.530000", "111410.530000", "111412.530000", "111414.530000", "111416.530000", "111418.530000", "111420.530000", "111422.530000", "111424.530000", "111426.530000", "111428.530000", "111430.530000", "111432.530000", "111434.530000", "111436.530000", "111438.530000", "111440.530000", "111442.530000", "111444.530000", "111446.530000", "111448.530000", "111450.530000", "111452.530000", "111454.530000", "111456.530000", "111458.530000", "111500.530000", "111502.530000", "111504.530000", "111506.530000", "111508.530000", "111510.530000", "111512.530000", "111514.530000", "111516.530000", "111518.530000", "111520.530000", "111522.530000", "111524.530000", "111526.530000", "111528.530000", "111530.530000", "111532.530000", "111534.530000", "111536.530000", "111538.530000", "111540.530000", "111542.530000", "111544.530000", "111546.530000", "111548.530000", "111550.530000", "111552.530000", "111554.530000", "111556.530000", "111558.530000", "111600.530000", "111602.530000", "111604.530000", "111606.530000", "111608.530000", "111610.530000", "111612.530000", "111614.530000", "111616.530000", "111618.530000", "111620.530000", "111622.530000", "111624.530000", "111626.530000", "111628.530000", "111630.530000", "111632.530000", "111634.530000", "111636.530000", "111638.530000", "111640.530000", "111642.530000", "111644.530000", "111646.530000", "111648.530000", "111650.530000", "111652.530000", "111654.530000", "111656.530000", "111658.530000", "111700.530000", "111702.530000", "111704.530000", "111706.530000", "111708.530000", "111710.530000", "111712.530000", "111714.530000", "111716.530000", "111718.530000", "111720.530000", "111722.530000", "111724.530000", "111726.530000", "111728.530000", "111730.530000", "111732.530000", "111734.530000", "111736.530000", "111738.530000", "111740.530000", "111742.530000", "111744.530000", "111746.530000", "111748.530000", "111750.530000", "111752.530000", "111754.530000", "111756.530000", "111758.530000", "111800.530000", "111802.530000", "111804.530000", "111806.530000", "111808.530000", "111810.530000", "111812.530000", "111814.530000", "111816.530000", "111818.530000", "111820.530000", "111822.530000", "111824.530000", "111826.530000", "111828.530000", "111830.530000", "111832.530000", "111834.530000", "111836.530000", "111838.530000", "111840.530000", "111842.530000", "111844.530000", "111846.530000", "111848.530000", "111850.530000"],
      "ContentTime": ["111308.146000", "111308.150000", "111308.153000", "111308.155000", "111308.158000", "111308.160000", "111308.163000", "111308.166000", "111308.168000", "111308.171000", "111308.173000", "111308.176000", "111308.179000", "111308.181000", "111308.184000", "111308.186000", "111308.189000", "111308.192000", "111308.194000", "111308.197000", "111308.199000", "111308.202000", "111308.205000", "111308.207000", "111308.210000", "111308.220000", "111308.222000", "111308.225000", "111348.128000", "111348.133000", "111348.136000", "111348.138000", "111348.141000", "111348.144000", "111348.146000", "111348.149000", "111348.152000", "111348.154000", "111348.157000", "111348.159000", "111348.162000", "111348.164000", "111348.167000", "111348.170000", "111348.172000", "111348.175000", "111348.177000", "111348.180000", "111428.129000", "111428.131000", "111428.134000", "111428.136000", "111428.139000", "111428.142000", "111428.144000", "111428.147000", "111428.150000", "111428.152000", "111428.155000", "111428.157000", "111428.160000", "111428.162000", "111428.165000", "111428.168000", "111428.170000", "111428.173000", "111428.175000", "111428.178000", "111508.128000", "111508.131000", "111508.134000", "111508.136000", "111508.139000", "111508.142000", "111508.144000", "111508.147000", "111508.150000", "111508.152000", "111508.155000", "111508.157000", "111508.160000", "111508.163000", "111508.165000", "111508.170000", "111508.173000", "111508.176000", "111508.178000", "111508.181000", "111548.128000", "111548.131000", "111548.134000", "111548.136000", "111548.139000", "111548.142000", "111548.144000", "111548.147000", "111548.150000", "111548.152000", "111548.155000", "111548.157000", "111548.160000", "111548.163000", "111548.165000", "111548.168000", "111548.171000", "111548.173000", "111548.176000", "111548.178000", "111628.128000", "111628.131000", "111628.134000", "111628.136000", "111628.139000", "111628.142000", "111628.144000", "111628.147000", "111628.150000", "111628.152000", "111628.155000", "111628.157000", "111628.160000", "111628.163000", "111628.165000", "111628.168000", "111628.170000", "111628.173000", "111628.176000", "111628.178000", "111708.128000", "111708.131000", "111708.134000", "111708.137000", "111708.139000", "111708.142000", "111708.144000", "111708.147000", "111708.150000", "111708.152000", "111708.155000", "111708.157000", "111708.160000", "111708.163000", "111708.165000", "111708.168000", "111708.170000", "111708.173000", "111708.175000", "111708.178000", "111748.129000", "111748.131000", "111748.134000", "111748.137000", "111748.139000", "111748.142000", "111748.144000", "111748.147000", "111748.150000", "111748.152000", "111748.155000", "111748.158000", "111748.160000", "111748.163000", "111748.165000", "111748.168000", "111748.171000", "111748.173000", "111748.176000", "111748.178000", "111828.129000", "111828.131000", "111828.134000", "111828.137000", "111828.139000", "111828.142000", "111828.144000", "111828.147000", "111828.150000", "111828.152000", "111828.155000", "111828.158000", "111828.160000", "111828.163000", "111828.165000", "111828.168000", "111828.171000", "111828.173000", "111828.176000", "111828.178000", "111851.619000", "111851.622000", "111851.624000", "111851.632000", "111851.635000", "111851.637000", "111851.640000", "111851.643000", "111851.645000", "111851.650000", "111851.654000", "111851.658000"],
      "InstanceCreationTime": ["111308.146000", "111308.150000", "111308.153000", "111308.155000", "111308.158000", "111308.160000", "111308.163000", "111308.166000", "111308.168000", "111308.171000", "111308.173000", "111308.176000", "111308.179000", "111308.181000", "111308.184000", "111308.186000", "111308.189000", "111308.192000", "111308.194000", "111308.197000", "111308.199000", "111308.202000", "111308.205000", "111308.207000", "111308.210000", "111308.220000", "111308.222000", "111308.225000", "111348.128000", "111348.133000", "111348.136000", "111348.138000", "111348.141000", "111348.144000", "111348.146000", "111348.149000", "111348.152000", "111348.154000", "111348.157000", "111348.159000", "111348.162000", "111348.164000", "111348.167000", "111348.170000", "111348.172000", "111348.175000", "111348.177000", "111348.180000", "111428.129000", "111428.131000", "111428.134000", "111428.136000", "111428.139000", "111428.142000", "111428.144000", "111428.147000", "111428.150000", "111428.152000", "111428.155000", "111428.157000", "111428.160000", "111428.162000", "111428.165000", "111428.168000", "111428.170000", "111428.173000", "111428.175000", "111428.178000", "111508.128000", "111508.131000", "111508.134000", "111508.136000", "111508.139000", "111508.142000", "111508.144000", "111508.147000", "111508.150000", "111508.152000", "111508.155000", "111508.157000", "111508.160000", "111508.163000", "111508.165000", "111508.170000", "111508.173000", "111508.176000", "111508.178000", "111508.181000", "111548.128000", "111548.131000", "111548.134000", "111548.136000", "111548.139000", "111548.142000", "111548.144000", "111548.147000", "111548.150000", "111548.152000", "111548.155000", "111548.157000", "111548.160000", "111548.163000", "111548.165000", "111548.168000", "111548.171000", "111548.173000", "111548.176000", "111548.178000", "111628.128000", "111628.131000", "111628.134000", "111628.136000", "111628.139000", "111628.142000", "111628.144000", "111628.147000", "111628.150000", "111628.152000", "111628.155000", "111628.157000", "111628.160000", "111628.163000", "111628.165000", "111628.168000", "111628.170000", "111628.173000", "111628.176000", "111628.178000", "111708.128000", "111708.131000", "111708.134000", "111708.137000", "111708.139000", "111708.142000", "111708.144000", "111708.147000", "111708.150000", "111708.152000", "111708.155000", "111708.157000", "111708.160000", "111708.163000", "111708.165000", "111708.168000", "111708.170000", "111708.173000", "111708.175000", "111708.178000", "111748.129000", "111748.131000", "111748.134000", "111748.137000", "111748.139000", "111748.142000", "111748.144000", "111748.147000", "111748.150000", "111748.152000", "111748.155000", "111748.158000", "111748.160000", "111748.163000", "111748.165000", "111748.168000", "111748.171000", "111748.173000", "111748.176000", "111748.178000", "111828.129000", "111828.131000", "111828.134000", "111828.137000", "111828.139000", "111828.142000", "111828.144000", "111828.147000", "111828.150000", "111828.152000", "111828.155000", "111828.158000", "111828.160000", "111828.163000", "111828.165000", "111828.168000", "111828.171000", "111828.173000", "111828.176000", "111828.178000", "111851.619000", "111851.622000", "111851.624000", "111851.632000", "111851.635000", "111851.637000", "111851.640000", "111851.643000", "111851.645000", "111851.650000", "111851.654000", "111851.658000"],
      "InstanceNumber": [1, 2, 3, 4, 5, 6, 7, 8, 9, 10, 11, 12, 13, 14, 15, 16, 17, 18, 19, 20, 21, 22, 23, 24, 25, 26, 27, 28, 29, 30, 31, 32, 33, 34, 35, 36, 37, 38, 39, 40, 41, 42, 43, 44, 45, 46, 47, 48, 49, 50, 51, 52, 53, 54, 55, 56, 57, 58, 59, 60, 61, 62, 63, 64, 65, 66, 67, 68, 69, 70, 71, 72, 73, 74, 75, 76, 77, 78, 79, 80, 81, 82, 83, 84, 85, 86, 87, 88, 89, 90, 91, 92, 93, 94, 95, 96, 97, 98, 99, 100, 101, 102, 103, 104, 105, 106, 107, 108, 109, 110, 111, 112, 113, 114, 115, 116, 117, 118, 119, 120, 121, 122, 123, 124, 125, 126, 127, 128, 129, 130, 131, 132, 133, 134, 135, 136, 137, 138, 139, 140, 141, 142, 143, 144, 145, 146, 147, 148, 149, 150, 151, 152, 153, 154, 155, 156, 157, 158, 159, 160, 161, 162, 163, 164, 165, 166, 167, 168, 169, 170, 171, 172, 173, 174, 175, 176, 177, 178, 179, 180, 181, 182, 183, 184, 185, 186, 187, 188, 189, 190, 191, 192, 193, 194, 195, 196, 197, 198, 199, 200],
      "WindowCenter": [1448.0, 1449.0, 1450.0, 1448.0, 1448.0, 1448.0, 1447.0, 1447.0, 1447.0, 1448.0, 1448.0, 1447.0, 1448.0, 1448.0, 1448.0, 1447.0, 1447.0, 1447.0, 1447.0, 1447.0, 1447.0, 1447.0, 1447.0, 1446.0, 1446.0, 1446.0, 1446.0, 1447.0, 1447.0, 1446.0, 1447.0, 1447.0, 1447.0, 1446.0, 1446.0, 1446.0, 1446.0, 1446.0, 1446.0, 1445.0, 1446.0, 1446.0, 1446.0, 1446.0, 1446.0, 1445.0, 1446.0, 1445.0, 1445.0, 1445.0, 1446.0, 1446.0, 1445.0, 1446.0, 1446.0, 1445.0, 1445.0, 1445.0, 1445.0, 1446.0, 1445.0, 1445.0, 1445.0, 1445.0, 1445.0, 1444.0, 1446.0, 1446.0, 1444.0, 1444.0, 1443.0, 1444.0, 1444.0, 1444.0, 1445.0, 1443.0, 1445.0, 1445.0, 1445.0, 1445.0, 1444.0, 1444.0, 1445.0, 1444.0, 1445.0, 1445.0, 1445.0, 1444.0, 1444.0, 1444.0, 1444.0, 1445.0, 1445.0, 1446.0, 1443.0, 1444.0, 1444.0, 1444.0, 1443.0, 1443.0, 1443.0, 1443.0, 1443.0, 1444.0, 1443.0, 1443.0, 1444.0, 1445.0, 1444.0, 1443.0, 1443.0, 1443.0, 1444.0, 1444.0, 1443.0, 1444.0, 1444.0, 1444.0, 1444.0, 1444.0, 1443.0, 1442.0, 1443.0, 1443.0, 1443.0, 1443.0, 1443.0, 1443.0, 1443.0, 1443.0, 1443.0, 1443.0, 1442.0, 1443.0, 1442.0, 1443.0, 1441.0, 1442.0, 1442.0, 1442.0, 1442.0, 1443.0, 1442.0, 1442.0, 1442.0, 1442.0, 1441.0, 1442.0, 1441.0, 1441.0, 1441.0, 1441.0, 1441.0, 1441.0, 1441.0, 1441.0, 1442.0, 1442.0, 1442.0, 1442.0, 1442.0, 1441.0, 1441.0, 1441.0, 1440.0, 1441.0, 1441.0, 1441.0, 1440.0, 1440.0, 1441.0, 1441.0, 1441.0, 1441.0, 1441.0, 1441.0, 1441.0, 1441.0, 1441.0, 1440.0, 1441.0, 1440.0, 1441.0, 1440.0, 1440.0, 1441.0, 1441.0, 1440.0, 1440.0, 1441.0, 1440.0, 1440.0, 1441.0, 1441.0, 1441.0, 1440.0, 1440.0, 1440.0, 1440.0, 1441.0],
      "WindowWidth": [3404.0, 3405.0, 3405.0, 3404.0, 3404.0, 3404.0, 3404.0, 3404.0, 3404.0, 3404.0, 3404.0, 3404.0, 3404.0, 3404.0, 3404.0, 3404.0, 3404.0, 3404.0, 3403.0, 3403.0, 3403.0, 3403.0, 3403.0, 3403.0, 3403.0, 3403.0, 3403.0, 3403.0, 3403.0, 3403.0, 3403.0, 3403.0, 3403.0, 3403.0, 3403.0, 3403.0, 3403.0, 3403.0, 3403.0, 3403.0, 3403.0, 3403.0, 3403.0, 3403.0, 3403.0, 3402.0, 3402.0, 3402.0, 3402.0, 3402.0, 3402.0, 3402.0, 3402.0, 3402.0, 3402.0, 3402.0, 3402.0, 3402.0, 3402.0, 3401.0, 3402.0, 3401.0, 3402.0, 3401.0, 3402.0, 3402.0, 3402.0, 3402.0, 3401.0, 3400.0, 3399.0, 3401.0, 3401.0, 3401.0, 3402.0, 3399.0, 3402.0, 3401.0, 3402.0, 3402.0, 3401.0, 3401.0, 3402.0, 3401.0, 3402.0, 3402.0, 3401.0, 3400.0, 3401.0, 3401.0, 3401.0, 3402.0, 3402.0, 3402.0, 3401.0, 3402.0, 3401.0, 3399.0, 3399.0, 3399.0, 3401.0, 3399.0, 3399.0, 3401.0, 3400.0, 3400.0, 3400.0, 3402.0, 3402.0, 3400.0, 3399.0, 3400.0, 3401.0, 3401.0, 3400.0, 3401.0, 3400.0, 3401.0, 3401.0, 3401.0, 3399.0, 3399.0, 3400.0, 3400.0, 3400.0, 3399.0, 3400.0, 3400.0, 3399.0, 3400.0, 3399.0, 3399.0, 3399.0, 3399.0, 3399.0, 3399.0, 3399.0, 3398.0, 3399.0, 3399.0, 3399.0, 3399.0, 3399.0, 3399.0, 3399.0, 3399.0, 3399.0, 3399.0, 3399.0, 3399.0, 3399.0, 3399.0, 3399.0, 3399.0, 3399.0, 3399.0, 3399.0, 3398.0, 3398.0, 3398.0, 3398.0, 3399.0, 3398.0, 3398.0, 3399.0, 3398.0, 3398.0, 3398.0, 3399.0, 3398.0, 3398.0, 3398.0, 3398.0, 3399.0, 3398.0, 3398.0, 3398.0, 3398.0, 3398.0, 3398.0, 3398.0, 3398.0, 3397.0, 3398.0, 3398.0, 3398.0, 3397.0, 3398.0, 3398.0, 3398.0, 3398.0, 3398.0, 3398.0, 3398.0, 3397.0, 3398.0, 3398.0, 3398.0, 3398.0, 3397.0]
    },
    "slices": {}
  }
}