{
  "AcquisitionMatrixPE": 80,
  "AcquisitionNumber": 1,
  "AcquisitionTime": "12:54:12.200000",
  "BandwidthPerPixelPhaseEncode": 44.643,
  "BaseResolution": 80,
  "BodyPartExamined": "BRAIN",
  "CoilCombinationMethod": "Sum of Squares",
  "ConsistencyInfo": "N4_VE11C_LATEST_20160120",
  "ConversionSoftware": "dcm2niix",
  "ConversionSoftwareVersion": "v1.0.20220720",
  "DerivedVendorReportedEchoSpacing": 0.000559998,
  "DeviceSerialNumber": "66112",
  "DwellTime": 2.7e-06,
  "EchoTime": 0.035,
  "EchoTrainLength": 39,
  "EffectiveEchoSpacing": 0.000279999,
  "FlipAngle": 90,
  "HeudiconvVersion": "0.13.1",
  "ImageOrientationPatientDICOM": [0.98148, 0.191449, 0.00660503, -0.184211, 0.933788, 0.306767],
  "ImageOrientationText": "Tra>Cor(17.6)>Sag(-3.0)",
  "ImageType": [
    "ORIGINAL",
    "PRIMARY",
    "M",
    "ND",
    "NORM",
    "MOSAIC"
],
  "ImagingFrequency": 123.252,
  "InPlanePhaseEncodingDirectionDICOM": "COL",
  "InstitutionAddress": "Maynard 3,Hanover,NH,US,03755",
  "InstitutionName": "Dartmouth College - PBS",
  "InstitutionalDepartmentName": "Department",
  "MRAcquisitionType": "2D",
  "MagneticFieldStrength": 3,
  "Manufacturer": "Siemens",
  "ManufacturersModelName": "Prisma",
  "Modality": "MR",
  "MultibandAccelerationFactor": 4,
  "NonlinearGradientCorrection": false,
  "ParallelReductionFactorInPlane": 2,
  "PartialFourier": 1,
  "PatientPosition": "HFS",
  "PercentPhaseFOV": 100,
  "PercentSampling": 100,
  "PhaseEncodingDirection": "j-",
  "PhaseEncodingSteps": 79,
  "PhaseResolution": 1,
  "PixelBandwidth": 2315,
  "ProcedureStepDescription": "dbic^QA",
  "ProtocolName": "func-bold_task-rest_acq-p2-s4-3.5mm",
  "PulseSequenceDetails": "%SiemensSeq%\\ep2d_bold",
  "ReceiveCoilActiveElements": "HEA;HEP",
  "ReceiveCoilName": "Head_32",
  "ReconMatrixPE": 80,
  "RefLinesPE": 24,
  "RepetitionTime": 2,
  "SAR": 0.0209584,
  "ScanOptions": "FS",
  "ScanningSequence": "EP",
  "SequenceName": "*epfid2d1_80",
  "SequenceVariant": "SK",
  "SeriesDescription": "func-bold_task-rest_acq-p2-s4-3.5mm",
  "SeriesNumber": 7,
  "ShimSetting": [4153, -7717, -7511, 285, -73, -22, 86, 85],
  "SliceThickness": 3.5,
  "SliceTiming": [1.485, 0, 0.99, 0.2475, 1.2375, 0.7425, 1.7325, 0.495, 1.485, 0, 0.99, 0.2475, 1.2375, 0.7425, 1.7325, 0.495, 1.485, 0, 0.99, 0.2475, 1.2375, 0.7425, 1.7325, 0.495, 1.485, 0, 0.99, 0.2475, 1.2375, 0.7425, 1.7325, 0.495],
  "SoftwareVersions": "syngo MR E11",
  "SpacingBetweenSlices": 3.99,
  "StationName": "AWP66112",
  "TaskName": "rest",
  "TotalReadoutTime": 0.0221199,
  "TxRefAmp": 228.116,
  "dcmmeta_affine": [
    [-2.9444408416748047, -0.5526328086853027, -0.2097248136997223, 143.53921508789062],
    [-0.5743482112884521, 2.8013646602630615, 1.2061858177185059, -98.87223815917969],
    [0.019815079867839813, -0.9203002452850342, 3.797529458999634, -15.68642807006836],
    [0.0, 0.0, 0.0, 1.0]
],
  "dcmmeta_reorient_transform": [
    [0.0, -1.0, 0.0, 79.0],
    [1.0, 0.0, 0.0, 0.0],
    [0.0, 0.0, 1.0, 0.0],
    [0.0, 0.0, 0.0, 1.0]
],
  "dcmmeta_shape": [80, 80, 32, 200],
  "dcmmeta_slice_dim": 2,
  "dcmmeta_version": 0.6,
  "global": {
    "const": {
      "AccessionNumber": "qa",
      "AcquisitionMatrix": [80, 0, 0, 80],
      "AngioFlag": "N",
      "BitsAllocated": 16,
      "BitsStored": 12,
      "BodyPartExamined": "BRAIN",
      "Columns": 480,
      "EchoNumbers": 1,
      "EchoTime": 35.0,
      "EchoTrainLength": 39,
      "FlipAngle": 90.0,
      "HighBit": 11,
      "ImageOrientationPatient": [0.98148025988059, 0.19144940085517, 0.00660502664096, -0.184210942144, 0.93378824934645, 0.30676674229272],
      "ImagePositionPatient": [-578.24281780504, -797.57816972201, -276.41320753728],
      "ImageType": [
        "ORIGINAL",
        "PRIMARY",
        "M",
        "ND",
        "NORM",
        "MOSAIC"
],
      "ImagedNucleus": "1H",
      "ImagingFrequency": 123.252304,
      "InPlanePhaseEncodingDirection": "COL",
      "MRAcquisitionType": "2D",
      "MagneticFieldStrength": 3.0,
      "Manufacturer": "SIEMENS",
      "ManufacturerModelName": "Prisma",
      "Modality": "MR",
      "NumberOfAverages": 1.0,
      "NumberOfPhaseEncodingSteps": 79,
      "PercentPhaseFieldOfView": 100.0,
      "PercentSampling": 100.0,
      "PerformedProcedureStepStartTime": "124500.619000",
      "PhotometricInterpretation": "MONOCHROME2",
      "PixelBandwidth": 2315.0,
      "PixelRepresentation": 0,
      "PixelSpacing": [3.0, 3.0],
      "ProtocolName": "func-bold_task-rest_acq-p2-s4-3.5mm",
      "RepetitionTime": 2000.0,
      "Rows": 480,
      "SAR": 0.02095843108173,
      "SamplesPerPixel": 1,
      "ScanOptions": "FS",
      "ScanningSequence": "EP",
      "SequenceName": "*epfid2d1_80",
      "SequenceVariant": "SK",
      "SeriesDescription": "func-bold_task-rest_acq-p2-s4-3.5mm",
      "SeriesNumber": 7,
      "SeriesTime": "125504.172000",
      "SliceLocation": -52.36383607609,
      "SliceThickness": 3.5,
      "SmallestImagePixelValue": 0,
      "SoftwareVersions": "syngo MR E11",
      "SpacingBetweenSlices": 3.9899999107279,
      "SpecificCharacterSet": "ISO_IR 100",
      "StudyID": "1",
      "StudyTime": "124500.559000",
      "TransmitCoilName": "Body",
      "VariableFlipAngleFlag": "N",
      "WindowCenterWidthExplanation": "Algo1",
      "dBdt": 0.0},
    "slices": {}
  },
  "time": {
    "samples": {
      "AcquisitionNumber": [1, 2, 3, 4, 5, 6, 7, 8, 9, 10, 11, 12, 13, 14, 15, 16, 17, 18, 19, 20, 21, 22, 23, 24, 25, 26, 27, 28, 29, 30, 31, 32, 33, 34, 35, 36, 37, 38, 39, 40, 41, 42, 43, 44, 45, 46, 47, 48, 49, 50, 51, 52, 53, 54, 55, 56, 57, 58, 59, 60, 61, 62, 63, 64, 65, 66, 67, 68, 69, 70, 71, 72, 73, 74, 75, 76, 77, 78, 79, 80, 81, 82, 83, 84, 85, 86, 87, 88, 89, 90, 91, 92, 93, 94, 95, 96, 97, 98, 99, 100, 101, 102, 103, 104, 105, 106, 107, 108, 109, 110, 111, 112, 113, 114, 115, 116, 117, 118, 119, 120, 121, 122, 123, 124, 125, 126, 127, 128, 129, 130, 131, 132, 133, 134, 135, 136, 137, 138, 139, 140, 141, 142, 143, 144, 145, 146, 147, 148, 149, 150, 151, 152, 153, 154, 155, 156, 157, 158, 159, 160, 161, 162, 163, 164, 165, 166, 167, 168, 169, 170, 171, 172, 173, 174, 175, 176, 177, 178, 179, 180, 181, 182, 183, 184, 185, 186, 187, 188, 189, 190, 191, 192, 193, 194, 195, 196, 197, 198, 199, 200],
      "AcquisitionTime": ["125412.200000", "125414.200000", "125416.200000", "125418.200000", "125420.200000", "125422.200000", "125424.200000", "125426.200000", "125428.200000", "125430.200000", "125432.200000", "125434.200000", "125436.200000", "125438.200000", "125440.200000", "125442.200000", "125444.200000", "125446.200000", "125448.200000", "125450.200000", "125452.200000", "125454.200000", "125456.200000", "125458.200000", "125500.200000", "125502.200000", "125504.200000", "125506.200000", "125508.200000", "125510.200000", "125512.200000", "125514.200000", "125516.200000", "125518.200000", "125520.200000", "125522.200000", "125524.200000", "125526.200000", "125528.200000", "125530.200000", "125532.200000", "125534.200000", "125536.200000", "125538.200000", "125540.200000", "125542.200000", "125544.200000", "125546.200000", "125548.200000", "125550.200000", "125552.200000", "125554.200000", "125556.200000", "125558.200000", "125600.200000", "125602.200000", "125604.200000", "125606.200000", "125608.200000", "125610.200000", "125612.200000", "125614.200000", "125616.200000", "125618.200000", "125620.200000", "125622.200000", "125624.200000", "125626.200000", "125628.200000", "125630.200000", "125632.200000", "125634.200000", "125636.200000", "125638.200000", "125640.200000", "125642.200000", "125644.200000", "125646.200000", "125648.200000", "125650.200000", "125652.200000", "125654.200000", "125656.200000", "125658.200000", "125700.200000", "125702.200000", "125704.200000", "125706.200000", "125708.200000", "125710.200000", "125712.200000", "125714.200000", "125716.200000", "125718.200000", "125720.200000", "125722.200000", "125724.200000", "125726.200000", "125728.200000", "125730.200000", "125732.200000", "125734.200000", "125736.200000", "125738.200000", "125740.200000", "125742.200000", "125744.200000", "125746.200000", "125748.200000", "125750.200000", "125752.200000", "125754.200000", "125756.200000", "125758.200000", "125800.200000", "125802.200000", "125804.200000", "125806.200000", "125808.200000", "125810.200000", "125812.200000", "125814.200000", "125816.200000", "125818.200000", "125820.200000", "125822.200000", "125824.200000", "125826.200000", "125828.200000", "125830.200000", "125832.200000", "125834.200000", "125836.200000", "125838.200000", "125840.200000", "125842.200000", "125844.200000", "125846.200000", "125848.200000", "125850.200000", "125852.200000", "125854.200000", "125856.200000", "125858.200000", "125900.200000", "125902.200000", "125904.200000", "125906.200000", "125908.200000", "125910.200000", "125912.200000", "125914.200000", "125916.200000", "125918.200000", "125920.200000", "125922.200000", "125924.200000", "125926.200000", "125928.200000", "125930.200000", "125932.200000", "125934.200000", "125936.200000", "125938.200000", "125940.200000", "125942.200000", "125944.200000", "125946.200000", "125948.200000", "125950.200000", "125952.200000", "125954.200000", "125956.200000", "125958.200000", "130000.200000", "130002.200000", "130004.200000", "130006.200000", "130008.200000", "130010.200000", "130012.200000", "130014.200000", "130016.200000", "130018.200000", "130020.200000", "130022.200000", "130024.200000", "130026.200000", "130028.200000", "130030.200000", "130032.200000", "130034.200000", "130036.200000", "130038.200000", "130040.200000", "130042.200000", "130044.200000", "130046.200000", "130048.200000", "130050.200000"],
      "ContentTime": ["125504.175000", "125504.178000", "125504.187000", "125504.190000", "125504.192000", "125504.195000", "125504.199000", "125504.201000", "125504.204000", "125504.206000", "125504.209000", "125504.211000", "125504.214000", "125504.225000", "125504.227000", "125504.230000", "125504.232000", "125504.235000", "125504.237000", "125504.240000", "125504.242000", "125504.245000", "125504.248000", "125504.250000", "125504.252000", "125504.255000", "125524.170000", "125524.173000", "125524.176000", "125524.178000", "125524.181000", "125524.189000", "125524.192000", "125524.194000", "125524.197000", "125524.199000", "125604.170000", "125604.173000", "125604.176000", "125604.178000", "125604.181000", "125604.194000", "125604.197000", "125604.199000", "125604.202000", "125604.204000", "125604.207000", "125604.209000", "125604.212000", "125604.214000", "125604.217000", "125604.219000", "125604.222000", "125604.224000", "125604.227000", "125604.229000", "125644.171000", "125644.174000", "125644.177000", "125644.179000", "125644.182000", "125644.184000", "125644.187000", "125644.189000", "125644.192000", "125644.194000", "125644.197000", "125644.199000", "125644.202000", "125644.204000", "125644.207000", "125644.209000", "125644.212000", "125644.214000", "125644.217000", "125644.219000", "125724.170000", "125724.173000", "125724.176000", "125724.178000", "125724.181000", "125724.183000", "125724.186000", "125724.188000", "125724.191000", "125724.193000", "125724.196000", "125724.198000", "125724.201000", "125724.203000", "125724.206000", "125724.208000", "125724.211000", "125724.213000", "125724.216000", "125724.218000", "125804.170000", "125804.173000", "125804.176000", "125804.178000", "125804.181000", "125804.183000", "125804.186000", "125804.188000", "125804.195000", "125804.198000", "125804.213000", "125804.216000", "125804.218000", "125804.221000", "125804.223000", "125804.226000", "125804.228000", "125804.231000", "125804.233000", "125804.235000", "125844.171000", "125844.174000", "125844.177000", "125844.179000", "125844.182000", "125844.184000", "125844.187000", "125844.189000", "125844.192000", "125844.194000", "125844.197000", "125844.199000", "125844.202000", "125844.204000", "125844.207000", "125844.209000", "125844.212000", "125844.214000", "125844.217000", "125844.219000", "125924.171000", "125924.174000", "125924.177000", "125924.179000", "125924.182000", "125924.184000", "125924.187000", "125924.189000", "125924.192000", "125924.194000", "125924.197000", "125924.199000", "125924.202000", "125924.204000", "125924.207000", "125924.209000", "125924.212000", "125924.214000", "125924.217000", "125924.219000", "130004.170000", "130004.173000", "130004.176000", "130004.178000", "130004.181000", "130004.184000", "130004.186000", "130004.189000", "130004.191000", "130004.194000", "130004.196000", "130004.199000", "130004.201000", "130004.204000", "130004.206000", "130004.209000", "130004.211000", "130004.214000", "130004.216000", "130004.219000", "130044.171000", "130044.173000", "130044.176000", "130044.178000", "130044.181000", "130044.184000", "130044.186000", "130044.189000", "130044.191000", "130044.194000", "130044.196000", "130044.199000", "130044.201000", "130044.203000", "130044.206000", "130044.208000", "130044.211000", "130044.214000", "130044.216000", "130044.219000", "130051.098000", "130051.100000", "130051.103000", "130051.106000"],
      "InstanceCreationTime": ["125504.175000", "125504.178000", "125504.187000", "125504.190000", "125504.192000", "125504.195000", "125504.199000", "125504.201000", "125504.204000", "125504.206000", "125504.209000", "125504.211000", "125504.214000", "125504.225000", "125504.227000", "125504.230000", "125504.232000", "125504.235000", "125504.237000", "125504.240000", "125504.242000", "125504.245000", "125504.248000", "125504.250000", "125504.252000", "125504.255000", "125524.170000", "125524.173000", "125524.176000", "125524.178000", "125524.181000", "125524.189000", "125524.192000", "125524.194000", "125524.197000", "125524.199000", "125604.170000", "125604.173000", "125604.176000", "125604.178000", "125604.181000", "125604.194000", "125604.197000", "125604.199000", "125604.202000", "125604.204000", "125604.207000", "125604.209000", "125604.212000", "125604.214000", "125604.217000", "125604.219000", "125604.222000", "125604.224000", "125604.227000", "125604.229000", "125644.171000", "125644.174000", "125644.177000", "125644.179000", "125644.182000", "125644.184000", "125644.187000", "125644.189000", "125644.192000", "125644.194000", "125644.197000", "125644.199000", "125644.202000", "125644.204000", "125644.207000", "125644.209000", "125644.212000", "125644.214000", "125644.217000", "125644.219000", "125724.170000", "125724.173000", "125724.176000", "125724.178000", "125724.181000", "125724.183000", "125724.186000", "125724.188000", "125724.191000", "125724.193000", "125724.196000", "125724.198000", "125724.201000", "125724.203000", "125724.206000", "125724.208000", "125724.211000", "125724.213000", "125724.216000", "125724.218000", "125804.170000", "125804.173000", "125804.176000", "125804.178000", "125804.181000", "125804.183000", "125804.186000", "125804.188000", "125804.195000", "125804.198000", "125804.213000", "125804.216000", "125804.218000", "125804.221000", "125804.223000", "125804.226000", "125804.228000", "125804.231000", "125804.233000", "125804.235000", "125844.171000", "125844.174000", "125844.177000", "125844.179000", "125844.182000", "125844.184000", "125844.187000", "125844.189000", "125844.192000", "125844.194000", "125844.197000", "125844.199000", "125844.202000", "125844.204000", "125844.207000", "125844.209000", "125844.212000", "125844.214000", "125844.217000", "125844.219000", "125924.171000", "125924.174000", "125924.177000", "125924.179000", "125924.182000", "125924.184000", "125924.187000", "125924.189000", "125924.192000", "125924.194000", "125924.197000", "125924.199000", "125924.202000", "125924.204000", "125924.207000", "125924.209000", "125924.212000", "125924.214000", "125924.217000", "125924.219000", "130004.170000", "130004.173000", "130004.176000", "130004.178000", "130004.181000", "130004.184000", "130004.186000", "130004.189000", "130004.191000", "130004.194000", "130004.196000", "130004.199000", "130004.201000", "130004.204000", "130004.206000", "130004.209000", "130004.211000", "130004.214000", "130004.216000", "130004.219000", "130044.171000", "130044.173000", "130044.176000", "130044.178000", "130044.181000", "130044.184000", "130044.186000", "130044.189000", "130044.191000", "130044.194000", "130044.196000", "130044.199000", "130044.201000", "130044.203000", "130044.206000", "130044.208000", "130044.211000", "130044.214000", "130044.216000", "130044.219000", "130051.098000", "130051.100000", "130051.103000", "130051.106000"],
      "InstanceNumber": [1, 2, 3, 4, 5, 6, 7, 8, 9, 10, 11, 12, 13, 14, 15, 16, 17, 18, 19, 20, 21, 22, 23, 24, 25, 26, 27, 28, 29, 30, 31, 32, 33, 34, 35, 36, 37, 38, 39, 40, 41, 42, 43, 44, 45, 46, 47, 48, 49, 50, 51, 52, 53, 54, 55, 56, 57, 58, 59, 60, 61, 62, 63, 64, 65, 66, 67, 68, 69, 70, 71, 72, 73, 74, 75, 76, 77, 78, 79, 80, 81, 82, 83, 84, 85, 86, 87, 88, 89, 90, 91, 92, 93, 94, 95, 96, 97, 98, 99, 100, 101, 102, 103, 104, 105, 106, 107, 108, 109, 110, 111, 112, 113, 114, 115, 116, 117, 118, 119, 120, 121, 122, 123, 124, 125, 126, 127, 128, 129, 130, 131, 132, 133, 134, 135, 136, 137, 138, 139, 140, 141, 142, 143, 144, 145, 146, 147, 148, 149, 150, 151, 152, 153, 154, 155, 156, 157, 158, 159, 160, 161, 162, 163, 164, 165, 166, 167, 168, 169, 170, 171, 172, 173, 174, 175, 176, 177, 178, 179, 180, 181, 182, 183, 184, 185, 186, 187, 188, 189, 190, 191, 192, 193, 194, 195, 196, 197, 198, 199, 200],
      "LargestImagePixelValue": [2056, 2062, 2054, 2056, 2061, 2060, 2057, 2059, 2058, 2056, 2061, 2066, 2061, 2061, 2063, 2066, 2065, 2054, 2060, 2066, 2065, 2061, 2060, 2064, 2065, 2066, 2058, 2061, 2065, 2068, 2060, 2059, 2063, 2062, 2062, 2065, 2063, 2065, 2064, 2063, 2066, 2062, 2065, 2060, 2060, 2060, 2067, 2069, 2067, 2064, 2066, 2056, 2068, 2061, 2065, 2065, 2062, 2065, 2062, 2067, 2068, 2067, 2062, 2063, 2065, 2069, 2064, 2070, 2061, 2062, 2064, 2061, 2066, 2059, 2065, 2066, 2057, 2064, 2066, 2057, 2060, 2065, 2058, 2066, 2066, 2069, 2068, 2065, 2063, 2061, 2069, 2068, 2066, 2068, 2067, 2059, 2065, 2071, 2056, 2056, 2062, 2068, 2067, 2065, 2070, 2065, 2070, 2062, 2069, 2069, 2071, 2069, 2067, 2072, 2067, 2076, 2063, 2063, 2072, 2064, 2058, 2065, 2068, 2068, 2059, 2063, 2062, 2068, 2065, 2066, 2067, 2064, 2062, 2068, 2069, 2067, 2058, 2064, 2068, 2064, 2067, 2064, 2065, 2070, 2063, 2061, 2063, 2066, 2062, 2070, 2067, 2068, 2063, 2064, 2068, 2072, 2067, 2071, 2064, 2065, 2063, 2069, 2071, 2071, 2060, 2065, 2063, 2065, 2060, 2062, 2063, 2063, 2067, 2068, 2062, 2062, 2062, 2062, 2062, 2064, 2055, 2057, 2056, 2062, 2053, 2050, 2052, 2056, 2053, 2059, 2060, 2054, 2057, 2059, 2057, 2065, 2064, 2056, 2064, 2054],
      "WindowCenter": [918.0, 920.0, 920.0, 920.0, 920.0, 920.0, 920.0, 920.0, 920.0, 920.0, 920.0, 920.0, 920.0, 920.0, 920.0, 920.0, 920.0, 920.0, 920.0, 920.0, 920.0, 920.0, 920.0, 920.0, 920.0, 920.0, 920.0, 920.0, 920.0, 920.0, 920.0, 920.0, 920.0, 920.0, 920.0, 920.0, 920.0, 918.0, 920.0, 920.0, 918.0, 920.0, 920.0, 920.0, 920.0, 920.0, 920.0, 920.0, 920.0, 920.0, 920.0, 918.0, 920.0, 920.0, 920.0, 920.0, 920.0, 920.0, 920.0, 920.0, 920.0, 920.0, 920.0, 920.0, 920.0, 920.0, 920.0, 920.0, 918.0, 920.0, 920.0, 920.0, 920.0, 920.0, 920.0, 920.0, 920.0, 920.0, 920.0, 920.0, 920.0, 920.0, 920.0, 920.0, 920.0, 920.0, 920.0, 920.0, 920.0, 920.0, 920.0, 920.0, 920.0, 918.0, 920.0, 920.0, 920.0, 920.0, 920.0, 920.0, 920.0, 920.0, 920.0, 920.0, 920.0, 920.0, 920.0, 920.0, 920.0, 920.0, 920.0, 920.0, 920.0, 920.0, 920.0, 920.0, 920.0, 920.0, 920.0, 920.0, 920.0, 920.0, 920.0, 920.0, 920.0, 920.0, 920.0, 920.0, 920.0, 920.0, 920.0, 920.0, 920.0, 920.0, 920.0, 920.0, 920.0, 920.0, 920.0, 920.0, 920.0, 920.0, 920.0, 920.0, 920.0, 920.0, 920.0, 920.0, 920.0, 920.0, 920.0, 920.0, 920.0, 920.0, 920.0, 920.0, 920.0, 920.0, 920.0, 920.0, 920.0, 920.0, 920.0, 920.0, 920.0, 920.0, 920.0, 920.0, 919.0, 920.0, 920.0, 920.0, 920.0, 920.0, 920.0, 920.0, 920.0, 920.0, 920.0, 920.0, 920.0, 920.0, 920.0, 918.0, 920.0, 920.0, 918.0, 920.0, 920.0, 920.0, 920.0, 920.0, 920.0, 920.0, 920.0, 920.0, 921.0, 920.0, 920.0, 918.0],
      "WindowWidth": [2088.0, 2090.0, 2090.0, 2090.0, 2089.0, 2090.0, 2089.0, 2090.0, 2089.0, 2089.0, 2089.0, 2089.0, 2089.0, 2089.0, 2089.0, 2089.0, 2090.0, 2090.0, 2090.0, 2089.0, 2089.0, 2089.0, 2089.0, 2090.0, 2089.0, 2089.0, 2090.0, 2090.0, 2089.0, 2089.0, 2089.0, 2089.0, 2089.0, 2089.0, 2089.0, 2089.0, 2089.0, 2088.0, 2089.0, 2090.0, 2088.0, 2089.0, 2090.0, 2089.0, 2089.0, 2089.0, 2089.0, 2089.0, 2089.0, 2089.0, 2089.0, 2088.0, 2089.0, 2089.0, 2089.0, 2090.0, 2090.0, 2090.0, 2089.0, 2089.0, 2089.0, 2089.0, 2089.0, 2090.0, 2089.0, 2089.0, 2089.0, 2089.0, 2088.0, 2089.0, 2089.0, 2089.0, 2089.0, 2089.0, 2089.0, 2089.0, 2089.0, 2089.0, 2089.0, 2089.0, 2089.0, 2089.0, 2089.0, 2089.0, 2089.0, 2089.0, 2089.0, 2089.0, 2089.0, 2088.0, 2089.0, 2089.0, 2089.0, 2087.0, 2089.0, 2089.0, 2089.0, 2089.0, 2089.0, 2089.0, 2088.0, 2089.0, 2089.0, 2089.0, 2089.0, 2089.0, 2088.0, 2089.0, 2089.0, 2088.0, 2089.0, 2088.0, 2088.0, 2089.0, 2089.0, 2089.0, 2088.0, 2089.0, 2088.0, 2089.0, 2089.0, 2089.0, 2088.0, 2088.0, 2088.0, 2088.0, 2089.0, 2088.0, 2089.0, 2089.0, 2088.0, 2089.0, 2088.0, 2088.0, 2088.0, 2089.0, 2089.0, 2089.0, 2088.0, 2088.0, 2088.0, 2089.0, 2089.0, 2088.0, 2088.0, 2089.0, 2088.0, 2088.0, 2088.0, 2089.0, 2088.0, 2089.0, 2089.0, 2088.0, 2088.0, 2088.0, 2088.0, 2088.0, 2088.0, 2089.0, 2088.0, 2088.0, 2089.0, 2089.0, 2088.0, 2089.0, 2089.0, 2088.0, 2088.0, 2088.0, 2089.0, 2088.0, 2088.0, 2089.0, 2088.0, 2088.0, 2088.0, 2088.0, 2088.0, 2088.0, 2088.0, 2088.0, 2088.0, 2087.0, 2088.0, 2089.0, 2087.0, 2089.0, 2088.0, 2089.0, 2088.0, 2088.0, 2088.0, 2089.0, 2089.0, 2088.0, 2089.0, 2089.0, 2089.0, 2087.0]
    },
    "slices": {}
  }
}