{
  "AcquisitionMatrixPE": 80,
  "AcquisitionNumber": 1,
  "AcquisitionTime": "13:07:48.492500",
  "BandwidthPerPixelPhaseEncode": 25,
  "BaseResolution": 80,
  "BodyPartExamined": "BRAIN",
  "CoilCombinationMethod": "Sum of Squares",
  "ConsistencyInfo": "N4_VE11C_LATEST_20160120",
  "ConversionSoftware": "dcm2niix",
  "ConversionSoftwareVersion": "v1.0.20220720",
  "DerivedVendorReportedEchoSpacing": 0.0005,
  "DeviceSerialNumber": "66112",
  "DwellTime": 2.7e-06,
  "EchoTime": 0.03,
  "EchoTrainLength": 80,
  "EffectiveEchoSpacing": 0.0005,
  "FlipAngle": 10,
  "HeudiconvVersion": "0.13.1",
  "ImageOrientationPatientDICOM": [0.98148, 0.191449, 0.00660503, -0.184211, 0.933788, 0.306767],
  "ImageOrientationText": "Tra>Cor(17.6)>Sag(-3.0)",
  "ImageType": [
    "ORIGINAL",
    "PRIMARY",
    "M",
    "ND",
    "NORM",
    "MOSAIC"
],
  "ImagingFrequency": 123.252,
  "InPlanePhaseEncodingDirectionDICOM": "COL",
  "InstitutionAddress": "Maynard 3,Hanover,NH,US,03755",
  "InstitutionName": "Dartmouth College - PBS",
  "InstitutionalDepartmentName": "Department",
  "MRAcquisitionType": "2D",
  "MagneticFieldStrength": 3,
  "Manufacturer": "Siemens",
  "ManufacturersModelName": "Prisma",
  "MatrixCoilMode": "SENSE",
  "Modality": "MR",
  "NonlinearGradientCorrection": false,
  "PartialFourier": 1,
  "PatientPosition": "HFS",
  "PercentPhaseFOV": 100,
  "PercentSampling": 100,
  "PhaseEncodingDirection": "j-",
  "PhaseEncodingSteps": 80,
  "PhaseResolution": 1,
  "PixelBandwidth": 2315,
  "ProcedureStepDescription": "dbic^QA",
  "ProtocolName": "func-bold_fa-10",
  "PulseSequenceDetails": "%SiemensSeq%\\ep2d_bold",
  "ReceiveCoilActiveElements": "HEA;HEP",
  "ReceiveCoilName": "Head_32",
  "ReconMatrixPE": 80,
  "RepetitionTime": 2,
  "SAR": 0.0117494,
  "ScanOptions": "FS",
  "ScanningSequence": "EP",
  "SequenceName": "*epfid2d1_80",
  "SequenceVariant": "SK",
  "SeriesDescription": "func-bold_fa-10",
  "SeriesNumber": 10,
  "ShimSetting": [4153, -7716, -7511, 292, -75, -15, 89, 87],
  "SliceThickness": 3.5,
  "SliceTiming": [0.99, 0, 1.055, 0.065, 1.1225, 0.1325, 1.1875, 0.1975, 1.2525, 0.2625, 1.32, 0.33, 1.385, 0.395, 1.4525, 0.4625, 1.5175, 0.5275, 1.5825, 0.5925, 1.65, 0.66, 1.715, 0.725, 1.7825, 0.7925, 1.8475, 0.8575, 1.9125, 0.9225],
  "SoftwareVersions": "syngo MR E11",
  "SpacingBetweenSlices": 3.99,
  "StationName": "AWP66112",
  "TotalReadoutTime": 0.0395,
  "TxRefAmp": 228.116,
  "dcmmeta_affine": [
    [-2.9444408416748047, -0.5526328086853027, -0.20972482860088348, 143.00831604003906],
    [-0.5743482112884521, 2.8013646602630615, 1.2061859369277954, -99.31342315673828],
    [0.019815079867839813, -0.9203002452850342, 3.797529697418213, -10.496097564697266],
    [0.0, 0.0, 0.0, 1.0]
],
  "dcmmeta_reorient_transform": [
    [0.0, -1.0, 0.0, 79.0],
    [1.0, 0.0, 0.0, 0.0],
    [0.0, 0.0, 1.0, 0.0],
    [0.0, 0.0, 0.0, 1.0]
],
  "dcmmeta_shape": [80, 80, 30, 200],
  "dcmmeta_slice_dim": 2,
  "dcmmeta_version": 0.6,
  "global": {
    "const": {
      "AccessionNumber": "qa",
      "AcquisitionMatrix": [80, 0, 0, 80],
      "AngioFlag": "N",
      "BitsAllocated": 16,
      "BitsStored": 12,
      "BodyPartExamined": "BRAIN",
      "Columns": 480,
      "EchoNumbers": 1,
      "EchoTime": 30.0,
      "EchoTrainLength": 80,
      "FlipAngle": 10.0,
      "HighBit": 11,
      "ImageOrientationPatient": [0.98148025988059, 0.19144940085517, 0.00660502664096, -0.184210942144, 0.93378824934645, 0.30676674229272],
      "ImagePositionPatient": [-577.71190945887, -797.13698090975, -271.2228770319],
      "ImageType": [
        "ORIGINAL",
        "PRIMARY",
        "M",
        "ND",
        "NORM",
        "MOSAIC"
],
      "ImagedNucleus": "1H",
      "ImagingFrequency": 123.252308,
      "InPlanePhaseEncodingDirection": "COL",
      "MRAcquisitionType": "2D",
      "MagneticFieldStrength": 3.0,
      "Manufacturer": "SIEMENS",
      "ManufacturerModelName": "Prisma",
      "Modality": "MR",
      "NumberOfAverages": 1.0,
      "NumberOfPhaseEncodingSteps": 80,
      "PercentPhaseFieldOfView": 100.0,
      "PercentSampling": 100.0,
      "PerformedProcedureStepStartTime": "124500.619000",
      "PhotometricInterpretation": "MONOCHROME2",
      "PixelBandwidth": 2315.0,
      "PixelRepresentation": 0,
      "PixelSpacing": [3.0, 3.0],
      "ProtocolName": "func-bold_fa-10",
      "RepetitionTime": 2000.0,
      "Rows": 480,
      "SAR": 0.01174938531428,
      "SamplesPerPixel": 1,
      "ScanOptions": "FS",
      "ScanningSequence": "EP",
      "SequenceName": "*epfid2d1_80",
      "SequenceVariant": "SK",
      "SeriesDescription": "func-bold_fa-10",
      "SeriesNumber": 10,
      "SeriesTime": "130844.313000",
      "SliceLocation": -47.529344157055,
      "SliceThickness": 3.5,
      "SmallestImagePixelValue": 0,
      "SoftwareVersions": "syngo MR E11",
      "SpacingBetweenSlices": 3.9900000656957,
      "SpecificCharacterSet": "ISO_IR 100",
      "StudyID": "1",
      "StudyTime": "124500.559000",
      "TransmitCoilName": "Body",
      "VariableFlipAngleFlag": "N",
      "WindowCenterWidthExplanation": "Algo1",
      "dBdt": 0.0},
    "slices": {}
  },
  "time": {
    "samples": {
      "AcquisitionNumber": [1, 2, 3, 4, 5, 6, 7, 8, 9, 10, 11, 12, 13, 14, 15, 16, 17, 18, 19, 20, 21, 22, 23, 24, 25, 26, 27, 28, 29, 30, 31, 32, 33, 34, 35, 36, 37, 38, 39, 40, 41, 42, 43, 44, 45, 46, 47, 48, 49, 50, 51, 52, 53, 54, 55, 56, 57, 58, 59, 60, 61, 62, 63, 64, 65, 66, 67, 68, 69, 70, 71, 72, 73, 74, 75, 76, 77, 78, 79, 80, 81, 82, 83, 84, 85, 86, 87, 88, 89, 90, 91, 92, 93, 94, 95, 96, 97, 98, 99, 100, 101, 102, 103, 104, 105, 106, 107, 108, 109, 110, 111, 112, 113, 114, 115, 116, 117, 118, 119, 120, 121, 122, 123, 124, 125, 126, 127, 128, 129, 130, 131, 132, 133, 134, 135, 136, 137, 138, 139, 140, 141, 142, 143, 144, 145, 146, 147, 148, 149, 150, 151, 152, 153, 154, 155, 156, 157, 158, 159, 160, 161, 162, 163, 164, 165, 166, 167, 168, 169, 170, 171, 172, 173, 174, 175, 176, 177, 178, 179, 180, 181, 182, 183, 184, 185, 186, 187, 188, 189, 190, 191, 192, 193, 194, 195, 196, 197, 198, 199, 200],
      "AcquisitionTime": ["130748.492500", "130750.492500", "130752.492500", "130754.492500", "130756.492500", "130758.492500", "130800.492500", "130802.492500", "130804.492500", "130806.492500", "130808.492500", "130810.492500", "130812.492500", "130814.492500", "130816.492500", "130818.492500", "130820.492500", "130822.492500", "130824.492500", "130826.492500", "130828.492500", "130830.492500", "130832.492500", "130834.492500", "130836.492500", "130838.492500", "130840.492500", "130842.492500", "130844.492500", "130846.492500", "130848.492500", "130850.492500", "130852.492500", "130854.492500", "130856.492500", "130858.492500", "130900.492500", "130902.492500", "130904.492500", "130906.492500", "130908.492500", "130910.492500", "130912.492500", "130914.492500", "130916.492500", "130918.492500", "130920.492500", "130922.492500", "130924.492500", "130926.492500", "130928.492500", "130930.492500", "130932.492500", "130934.492500", "130936.492500", "130938.492500", "130940.492500", "130942.492500", "130944.492500", "130946.492500", "130948.492500", "130950.492500", "130952.492500", "130954.492500", "130956.492500", "130958.492500", "131000.492500", "131002.492500", "131004.492500", "131006.492500", "131008.492500", "131010.492500", "131012.492500", "131014.492500", "131016.492500", "131018.492500", "131020.492500", "131022.492500", "131024.492500", "131026.492500", "131028.492500", "131030.492500", "131032.492500", "131034.492500", "131036.492500", "131038.492500", "131040.492500", "131042.492500", "131044.492500", "131046.492500", "131048.492500", "131050.492500", "131052.492500", "131054.492500", "131056.492500", "131058.492500", "131100.492500", "131102.492500", "131104.492500", "131106.492500", "131108.492500", "131110.492500", "131112.492500", "131114.492500", "131116.492500", "131118.492500", "131120.492500", "131122.492500", "131124.492500", "131126.492500", "131128.492500", "131130.492500", "131132.492500", "131134.492500", "131136.492500", "131138.492500", "131140.492500", "131142.492500", "131144.492500", "131146.492500", "131148.492500", "131150.492500", "131152.492500", "131154.492500", "131156.492500", "131158.492500", "131200.492500", "131202.492500", "131204.492500", "131206.492500", "131208.492500", "131210.492500", "131212.492500", "131214.492500", "131216.492500", "131218.492500", "131220.492500", "131222.492500", "131224.492500", "131226.492500", "131228.492500", "131230.492500", "131232.492500", "131234.492500", "131236.492500", "131238.492500", "131240.492500", "131242.492500", "131244.492500", "131246.492500", "131248.492500", "131250.492500", "131252.492500", "131254.492500", "131256.492500", "131258.492500", "131300.492500", "131302.492500", "131304.492500", "131306.492500", "131308.492500", "131310.492500", "131312.492500", "131314.492500", "131316.492500", "131318.492500", "131320.492500", "131322.492500", "131324.492500", "131326.492500", "131328.492500", "131330.492500", "131332.492500", "131334.492500", "131336.492500", "131338.492500", "131340.492500", "131342.492500", "131344.492500", "131346.492500", "131348.492500", "131350.492500", "131352.492500", "131354.492500", "131356.492500", "131358.492500", "131400.492500", "131402.492500", "131404.492500", "131406.492500", "131408.492500", "131410.492500", "131412.492500", "131414.492500", "131416.492500", "131418.492500", "131420.492500", "131422.492500", "131424.492500", "131426.492500"],
      "ContentTime": ["130844.316000", "130844.320000", "130844.322000", "130844.325000", "130844.327000", "130844.329000", "130844.332000", "130844.341000", "130844.343000", "130844.346000", "130844.348000", "130844.350000", "130844.353000", "130844.355000", "130844.358000", "130844.360000", "130844.363000", "130844.365000", "130844.367000", "130844.370000", "130844.372000", "130844.375000", "130844.378000", "130844.380000", "130844.382000", "130844.386000", "130844.388000", "130844.391000", "130924.310000", "130924.319000", "130924.321000", "130924.324000", "130924.326000", "130924.329000", "130924.331000", "130924.334000", "130924.336000", "130924.339000", "130924.341000", "130924.344000", "130924.346000", "130924.348000", "130924.351000", "130924.353000", "130924.356000", "130924.358000", "130924.361000", "130924.363000", "131004.311000", "131004.314000", "131004.317000", "131004.319000", "131004.321000", "131004.324000", "131004.326000", "131004.329000", "131004.331000", "131004.334000", "131004.336000", "131004.339000", "131004.341000", "131004.343000", "131004.346000", "131004.348000", "131004.351000", "131004.353000", "131004.356000", "131004.359000", "131044.311000", "131044.314000", "131044.317000", "131044.319000", "131044.322000", "131044.324000", "131044.327000", "131044.329000", "131044.332000", "131044.334000", "131044.337000", "131044.339000", "131044.342000", "131044.344000", "131044.347000", "131044.349000", "131044.351000", "131044.354000", "131044.356000", "131044.359000", "131124.310000", "131124.313000", "131124.316000", "131124.318000", "131124.321000", "131124.323000", "131124.326000", "131124.328000", "131124.331000", "131124.333000", "131124.336000", "131124.338000", "131124.341000", "131124.343000", "131124.346000", "131124.348000", "131124.351000", "131124.353000", "131124.355000", "131124.358000", "131204.310000", "131204.313000", "131204.316000", "131204.318000", "131204.321000", "131204.333000", "131204.336000", "131204.338000", "131204.341000", "131204.343000", "131204.345000", "131204.348000", "131204.350000", "131204.353000", "131204.355000", "131204.358000", "131204.360000", "131204.363000", "131204.365000", "131204.368000", "131244.311000", "131244.314000", "131244.317000", "131244.319000", "131244.322000", "131244.324000", "131244.326000", "131244.329000", "131244.331000", "131244.334000", "131244.336000", "131244.339000", "131244.342000", "131244.344000", "131244.346000", "131244.349000", "131244.351000", "131244.354000", "131244.356000", "131244.359000", "131324.311000", "131324.314000", "131324.316000", "131324.319000", "131324.321000", "131324.324000", "131324.326000", "131324.329000", "131324.331000", "131324.334000", "131324.336000", "131324.339000", "131324.342000", "131324.344000", "131324.347000", "131324.349000", "131324.352000", "131324.354000", "131324.357000", "131324.359000", "131404.310000", "131404.313000", "131404.316000", "131404.318000", "131404.321000", "131404.323000", "131404.326000", "131404.328000", "131404.331000", "131404.333000", "131404.335000", "131404.338000", "131404.340000", "131404.343000", "131404.345000", "131404.348000", "131404.350000", "131404.353000", "131404.355000", "131404.358000", "131427.850000", "131427.853000", "131427.855000", "131427.858000", "131427.860000", "131427.863000", "131427.866000", "131427.868000", "131427.871000", "131427.873000", "131427.875000", "131427.878000"],
      "InstanceCreationTime": ["130844.316000", "130844.320000", "130844.322000", "130844.325000", "130844.327000", "130844.329000", "130844.332000", "130844.341000", "130844.343000", "130844.346000", "130844.348000", "130844.350000", "130844.353000", "130844.355000", "130844.358000", "130844.360000", "130844.363000", "130844.365000", "130844.367000", "130844.370000", "130844.372000", "130844.375000", "130844.378000", "130844.380000", "130844.382000", "130844.386000", "130844.388000", "130844.391000", "130924.310000", "130924.319000", "130924.321000", "130924.324000", "130924.326000", "130924.329000", "130924.331000", "130924.334000", "130924.336000", "130924.339000", "130924.341000", "130924.344000", "130924.346000", "130924.348000", "130924.351000", "130924.353000", "130924.356000", "130924.358000", "130924.361000", "130924.363000", "131004.311000", "131004.314000", "131004.317000", "131004.319000", "131004.321000", "131004.324000", "131004.326000", "131004.329000", "131004.331000", "131004.334000", "131004.336000", "131004.339000", "131004.341000", "131004.343000", "131004.346000", "131004.348000", "131004.351000", "131004.353000", "131004.356000", "131004.359000", "131044.311000", "131044.314000", "131044.317000", "131044.319000", "131044.322000", "131044.324000", "131044.327000", "131044.329000", "131044.332000", "131044.334000", "131044.337000", "131044.339000", "131044.342000", "131044.344000", "131044.347000", "131044.349000", "131044.351000", "131044.354000", "131044.356000", "131044.359000", "131124.310000", "131124.313000", "131124.316000", "131124.318000", "131124.321000", "131124.323000", "131124.326000", "131124.328000", "131124.331000", "131124.333000", "131124.336000", "131124.338000", "131124.341000", "131124.343000", "131124.346000", "131124.348000", "131124.351000", "131124.353000", "131124.355000", "131124.358000", "131204.310000", "131204.313000", "131204.316000", "131204.318000", "131204.321000", "131204.333000", "131204.336000", "131204.338000", "131204.341000", "131204.343000", "131204.345000", "131204.348000", "131204.350000", "131204.353000", "131204.355000", "131204.358000", "131204.360000", "131204.363000", "131204.365000", "131204.368000", "131244.311000", "131244.314000", "131244.317000", "131244.319000", "131244.322000", "131244.324000", "131244.326000", "131244.329000", "131244.331000", "131244.334000", "131244.336000", "131244.339000", "131244.342000", "131244.344000", "131244.346000", "131244.349000", "131244.351000", "131244.354000", "131244.356000", "131244.359000", "131324.311000", "131324.314000", "131324.316000", "131324.319000", "131324.321000", "131324.324000", "131324.326000", "131324.329000", "131324.331000", "131324.334000", "131324.336000", "131324.339000", "131324.342000", "131324.344000", "131324.347000", "131324.349000", "131324.352000", "131324.354000", "131324.357000", "131324.359000", "131404.310000", "131404.313000", "131404.316000", "131404.318000", "131404.321000", "131404.323000", "131404.326000", "131404.328000", "131404.331000", "131404.333000", "131404.335000", "131404.338000", "131404.340000", "131404.343000", "131404.345000", "131404.348000", "131404.350000", "131404.353000", "131404.355000", "131404.358000", "131427.850000", "131427.853000", "131427.855000", "131427.858000", "131427.860000", "131427.863000", "131427.866000", "131427.868000", "131427.871000", "131427.873000", "131427.875000", "131427.878000"],
      "InstanceNumber": [1, 2, 3, 4, 5, 6, 7, 8, 9, 10, 11, 12, 13, 14, 15, 16, 17, 18, 19, 20, 21, 22, 23, 24, 25, 26, 27, 28, 29, 30, 31, 32, 33, 34, 35, 36, 37, 38, 39, 40, 41, 42, 43, 44, 45, 46, 47, 48, 49, 50, 51, 52, 53, 54, 55, 56, 57, 58, 59, 60, 61, 62, 63, 64, 65, 66, 67, 68, 69, 70, 71, 72, 73, 74, 75, 76, 77, 78, 79, 80, 81, 82, 83, 84, 85, 86, 87, 88, 89, 90, 91, 92, 93, 94, 95, 96, 97, 98, 99, 100, 101, 102, 103, 104, 105, 106, 107, 108, 109, 110, 111, 112, 113, 114, 115, 116, 117, 118, 119, 120, 121, 122, 123, 124, 125, 126, 127, 128, 129, 130, 131, 132, 133, 134, 135, 136, 137, 138, 139, 140, 141, 142, 143, 144, 145, 146, 147, 148, 149, 150, 151, 152, 153, 154, 155, 156, 157, 158, 159, 160, 161, 162, 163, 164, 165, 166, 167, 168, 169, 170, 171, 172, 173, 174, 175, 176, 177, 178, 179, 180, 181, 182, 183, 184, 185, 186, 187, 188, 189, 190, 191, 192, 193, 194, 195, 196, 197, 198, 199, 200],
      "LargestImagePixelValue": [338, 338, 337, 337, 338, 337, 338, 339, 338, 337, 338, 338, 339, 338, 338, 338, 337, 338, 339, 338, 337, 338, 340, 338, 339, 338, 340, 338, 338, 339, 339, 338, 338, 338, 339, 340, 338, 337, 339, 339, 340, 337, 338, 340, 339, 338, 338, 338, 338, 339, 339, 339, 338, 339, 339, 339, 340, 339, 337, 339, 338, 340, 339, 337, 337, 339, 339, 340, 339, 338, 338, 337, 337, 337, 338, 338, 337, 337, 338, 337, 339, 338, 338, 337, 338, 339, 338, 338, 338, 338, 339, 338, 338, 338, 338, 337, 337, 338, 337, 338, 338, 338, 338, 339, 338, 338, 338, 337, 338, 338, 337, 339, 339, 338, 338, 339, 338, 337, 339, 338, 338, 339, 337, 339, 337, 338, 337, 337, 339, 339, 338, 336, 339, 338, 337, 337, 338, 338, 338, 338, 338, 338, 338, 338, 338, 338, 338, 337, 339, 339, 339, 340, 339, 338, 337, 338, 339, 338, 339, 336, 337, 337, 338, 338, 337, 339, 338, 339, 339, 339, 337, 339, 339, 338, 338, 339, 338, 337, 338, 337, 337, 340, 338, 337, 338, 337, 337, 336, 339, 338, 338, 338, 337, 337, 337, 338, 338, 339, 337, 338],
      "WindowCenter": [275.0, 276.0, 276.0, 276.0, 276.0, 276.0, 276.0, 276.0, 276.0, 275.0, 276.0, 276.0, 276.0, 276.0, 276.0, 276.0, 276.0, 276.0, 276.0, 276.0, 276.0, 276.0, 276.0, 276.0, 276.0, 276.0, 276.0, 276.0, 276.0, 276.0, 276.0, 276.0, 276.0, 276.0, 276.0, 276.0, 276.0, 276.0, 276.0, 276.0, 276.0, 275.0, 276.0, 276.0, 276.0, 275.0, 276.0, 276.0, 276.0, 276.0, 276.0, 276.0, 276.0, 276.0, 276.0, 275.0, 276.0, 275.0, 276.0, 276.0, 276.0, 276.0, 276.0, 276.0, 276.0, 276.0, 276.0, 276.0, 275.0, 276.0, 275.0, 275.0, 276.0, 276.0, 276.0, 276.0, 276.0, 276.0, 276.0, 276.0, 276.0, 276.0, 276.0, 276.0, 276.0, 276.0, 276.0, 276.0, 276.0, 276.0, 276.0, 276.0, 276.0, 276.0, 275.0, 276.0, 276.0, 276.0, 276.0, 276.0, 275.0, 276.0, 276.0, 276.0, 276.0, 276.0, 276.0, 276.0, 275.0, 276.0, 276.0, 275.0, 276.0, 276.0, 276.0, 276.0, 276.0, 276.0, 276.0, 276.0, 276.0, 276.0, 276.0, 276.0, 276.0, 276.0, 276.0, 276.0, 276.0, 276.0, 275.0, 275.0, 276.0, 276.0, 276.0, 276.0, 276.0, 276.0, 276.0, 275.0, 276.0, 276.0, 276.0, 276.0, 276.0, 276.0, 276.0, 275.0, 275.0, 275.0, 276.0, 276.0, 276.0, 276.0, 276.0, 275.0, 276.0, 276.0, 276.0, 275.0, 276.0, 276.0, 276.0, 275.0, 276.0, 276.0, 275.0, 276.0, 275.0, 276.0, 276.0, 276.0, 275.0, 276.0, 275.0, 276.0, 276.0, 276.0, 276.0, 275.0, 276.0, 276.0, 276.0, 276.0, 275.0, 275.0, 276.0, 276.0, 276.0, 275.0, 276.0, 276.0, 275.0, 276.0, 276.0, 275.0, 276.0, 276.0, 276.0, 275.0],
      "WindowWidth": [603.0, 604.0, 604.0, 604.0, 604.0, 604.0, 604.0, 604.0, 604.0, 603.0, 604.0, 604.0, 604.0, 604.0, 604.0, 604.0, 604.0, 604.0, 604.0, 604.0, 604.0, 604.0, 604.0, 604.0, 604.0, 604.0, 604.0, 604.0, 604.0, 604.0, 603.0, 604.0, 604.0, 604.0, 604.0, 603.0, 604.0, 603.0, 603.0, 604.0, 604.0, 603.0, 604.0, 604.0, 604.0, 603.0, 604.0, 604.0, 604.0, 604.0, 604.0, 604.0, 604.0, 604.0, 604.0, 603.0, 604.0, 603.0, 603.0, 603.0, 604.0, 603.0, 603.0, 603.0, 604.0, 603.0, 604.0, 603.0, 603.0, 603.0, 603.0, 603.0, 603.0, 604.0, 604.0, 603.0, 604.0, 603.0, 603.0, 604.0, 603.0, 603.0, 603.0, 603.0, 603.0, 603.0, 604.0, 603.0, 603.0, 603.0, 603.0, 603.0, 603.0, 603.0, 603.0, 603.0, 604.0, 604.0, 604.0, 604.0, 603.0, 603.0, 603.0, 603.0, 603.0, 603.0, 603.0, 603.0, 603.0, 603.0, 603.0, 603.0, 603.0, 603.0, 603.0, 603.0, 603.0, 603.0, 603.0, 603.0, 603.0, 603.0, 603.0, 603.0, 603.0, 603.0, 603.0, 603.0, 604.0, 603.0, 603.0, 603.0, 603.0, 603.0, 603.0, 603.0, 603.0, 603.0, 604.0, 603.0, 603.0, 603.0, 603.0, 603.0, 603.0, 603.0, 603.0, 603.0, 603.0, 603.0, 603.0, 603.0, 603.0, 603.0, 603.0, 603.0, 603.0, 603.0, 603.0, 603.0, 603.0, 603.0, 603.0, 603.0, 603.0, 603.0, 603.0, 603.0, 603.0, 603.0, 603.0, 603.0, 603.0, 603.0, 603.0, 603.0, 603.0, 603.0, 603.0, 603.0, 603.0, 603.0, 603.0, 603.0, 603.0, 603.0, 603.0, 603.0, 603.0, 603.0, 603.0, 603.0, 603.0, 603.0, 603.0, 603.0, 603.0, 603.0, 603.0, 603.0]
    },
    "slices": {}
  }
}