{
  "AcquisitionMatrixPE": 80,
  "AcquisitionNumber": 1,
  "AcquisitionTime": "12:47:17.487500",
  "BandwidthPerPixelPhaseEncode": 48.077,
  "BaseResolution": 80,
  "BodyPartExamined": "BRAIN",
  "CoilCombinationMethod": "Sum of Squares",
  "ConsistencyInfo": "N4_VE11C_LATEST_20160120",
  "ConversionSoftware": "dcm2niix",
  "ConversionSoftwareVersion": "v1.0.20220720",
  "DerivedVendorReportedEchoSpacing": 0.000519999,
  "DeviceSerialNumber": "66112",
  "DwellTime": 2.7e-06,
  "EchoTime": 0.035,
  "EchoTrainLength": 39,
  "EffectiveEchoSpacing": 0.00026,
  "FlipAngle": 90,
  "HeudiconvVersion": "0.13.1",
  "ImageOrientationPatientDICOM": [0.98148, 0.191449, 0.00660503, -0.184211, 0.933788, 0.306767],
  "ImageOrientationText": "Tra>Cor(17.6)>Sag(-3.0)",
  "ImageType": [
    "ORIGINAL",
    "PRIMARY",
    "M",
    "ND",
    "NORM",
    "MOSAIC"
],
  "ImagingFrequency": 123.252,
  "InPlanePhaseEncodingDirectionDICOM": "COL",
  "InstitutionAddress": "Maynard 3,Hanover,NH,US,03755",
  "InstitutionName": "Dartmouth College - PBS",
  "InstitutionalDepartmentName": "Department",
  "MRAcquisitionType": "2D",
  "MagneticFieldStrength": 3,
  "Manufacturer": "Siemens",
  "ManufacturersModelName": "Prisma",
  "MatrixCoilMode": "GRAPPA",
  "Modality": "MR",
  "NonlinearGradientCorrection": false,
  "ParallelReductionFactorInPlane": 2,
  "PartialFourier": 1,
  "PatientPosition": "HFS",
  "PercentPhaseFOV": 100,
  "PercentSampling": 100,
  "PhaseEncodingDirection": "j-",
  "PhaseEncodingSteps": 79,
  "PhaseResolution": 1,
  "PixelBandwidth": 2315,
  "ProcedureStepDescription": "dbic^QA",
  "ProtocolName": "func-bold_task-rest_acq-p2",
  "PulseSequenceDetails": "%SiemensSeq%\\ep2d_bold",
  "ReceiveCoilActiveElements": "HEA;HEP",
  "ReceiveCoilName": "Head_32",
  "ReconMatrixPE": 80,
  "RefLinesPE": 24,
  "RepetitionTime": 2,
  "SAR": 0.0557362,
  "ScanOptions": "FS",
  "ScanningSequence": "EP",
  "SequenceName": "*epfid2d1_80",
  "SequenceVariant": "SK",
  "SeriesDescription": "func-bold_task-rest_acq-p2",
  "SeriesNumber": 5,
  "ShimSetting": [4152, -7716, -7511, 295, -77, -14, 89, 88],
  "SliceThickness": 3.5,
  "SliceTiming": [0.99, 0, 1.055, 0.0675, 1.1225, 0.1325, 1.1875, 0.1975, 1.255, 0.265, 1.32, 0.33, 1.385, 0.3975, 1.4525, 0.4625, 1.5175, 0.5275, 1.585, 0.595, 1.65, 0.66, 1.715, 0.7275, 1.7825, 0.7925, 1.8475, 0.8575, 1.915, 0.925],
  "SoftwareVersions": "syngo MR E11",
  "SpacingBetweenSlices": 3.99,
  "StationName": "AWP66112",
  "TaskName": "rest",
  "TotalReadoutTime": 0.02054,
  "TxRefAmp": 228.116,
  "dcmmeta_affine": [
    [-2.9444408416748047, -0.5526328086853027, -0.20972482860088348, 143.32949829101562],
    [-0.5743482112884521, 2.8013646602630615, 1.2061858177185059, -97.66604614257812],
    [0.019815079867839813, -0.9203002452850342, 3.797529458999634, -11.888896942138672],
    [0.0, 0.0, 0.0, 1.0]
],
  "dcmmeta_reorient_transform": [
    [0.0, -1.0, 0.0, 79.0],
    [1.0, 0.0, 0.0, 0.0],
    [0.0, 0.0, 1.0, 0.0],
    [0.0, 0.0, 0.0, 1.0]
],
  "dcmmeta_shape": [80, 80, 30, 200],
  "dcmmeta_slice_dim": 2,
  "dcmmeta_version": 0.6,
  "global": {
    "const": {
      "AccessionNumber": "qa",
      "AcquisitionMatrix": [80, 0, 0, 80],
      "AngioFlag": "N",
      "BitsAllocated": 16,
      "BitsStored": 12,
      "BodyPartExamined": "BRAIN",
      "Columns": 480,
      "EchoNumbers": 1,
      "EchoTime": 35.0,
      "EchoTrainLength": 39,
      "FlipAngle": 90.0,
      "HighBit": 11,
      "ImageOrientationPatient": [0.98148025988059, 0.19144940085517, 0.00660502664096, -0.184210942144, 0.93378824934645, 0.30676674229272],
      "ImagePositionPatient": [-578.03309290194, -798.78435601657, -272.61567640935],
      "ImageType": [
        "ORIGINAL",
        "PRIMARY",
        "M",
        "ND",
        "NORM",
        "MOSAIC"
],
      "ImagedNucleus": "1H",
      "ImagingFrequency": 123.252303,
      "InPlanePhaseEncodingDirection": "COL",
      "MRAcquisitionType": "2D",
      "MagneticFieldStrength": 3.0,
      "Manufacturer": "SIEMENS",
      "ManufacturerModelName": "Prisma",
      "Modality": "MR",
      "NumberOfAverages": 1.0,
      "NumberOfPhaseEncodingSteps": 79,
      "PercentPhaseFieldOfView": 100.0,
      "PercentSampling": 100.0,
      "PerformedProcedureStepStartTime": "124500.619000",
      "PhotometricInterpretation": "MONOCHROME2",
      "PixelBandwidth": 2315.0,
      "PixelRepresentation": 0,
      "PixelSpacing": [3.0, 3.0],
      "ProtocolName": "func-bold_task-rest_acq-p2",
      "RepetitionTime": 2000.0,
      "Rows": 480,
      "SAR": 0.05573618550746,
      "SamplesPerPixel": 1,
      "ScanOptions": "FS",
      "ScanningSequence": "EP",
      "SequenceName": "*epfid2d1_80",
      "SequenceVariant": "SK",
      "SeriesDescription": "func-bold_task-rest_acq-p2",
      "SeriesNumber": 5,
      "SeriesTime": "124804.320000",
      "SliceLocation": -48.37383449968,
      "SliceThickness": 3.5,
      "SmallestImagePixelValue": 0,
      "SoftwareVersions": "syngo MR E11",
      "SpacingBetweenSlices": 3.9899999409319,
      "SpecificCharacterSet": "ISO_IR 100",
      "StudyID": "1",
      "StudyTime": "124500.559000",
      "TransmitCoilName": "Body",
      "VariableFlipAngleFlag": "N",
      "WindowCenterWidthExplanation": "Algo1",
      "dBdt": 0.0},
    "slices": {}
  },
  "time": {
    "samples": {
      "AcquisitionNumber": [1, 2, 3, 4, 5, 6, 7, 8, 9, 10, 11, 12, 13, 14, 15, 16, 17, 18, 19, 20, 21, 22, 23, 24, 25, 26, 27, 28, 29, 30, 31, 32, 33, 34, 35, 36, 37, 38, 39, 40, 41, 42, 43, 44, 45, 46, 47, 48, 49, 50, 51, 52, 53, 54, 55, 56, 57, 58, 59, 60, 61, 62, 63, 64, 65, 66, 67, 68, 69, 70, 71, 72, 73, 74, 75, 76, 77, 78, 79, 80, 81, 82, 83, 84, 85, 86, 87, 88, 89, 90, 91, 92, 93, 94, 95, 96, 97, 98, 99, 100, 101, 102, 103, 104, 105, 106, 107, 108, 109, 110, 111, 112, 113, 114, 115, 116, 117, 118, 119, 120, 121, 122, 123, 124, 125, 126, 127, 128, 129, 130, 131, 132, 133, 134, 135, 136, 137, 138, 139, 140, 141, 142, 143, 144, 145, 146, 147, 148, 149, 150, 151, 152, 153, 154, 155, 156, 157, 158, 159, 160, 161, 162, 163, 164, 165, 166, 167, 168, 169, 170, 171, 172, 173, 174, 175, 176, 177, 178, 179, 180, 181, 182, 183, 184, 185, 186, 187, 188, 189, 190, 191, 192, 193, 194, 195, 196, 197, 198, 199, 200],
      "AcquisitionTime": ["124717.487500", "124719.487500", "124721.487500", "124723.487500", "124725.487500", "124727.487500", "124729.487500", "124731.487500", "124733.487500", "124735.487500", "124737.487500", "124739.487500", "124741.487500", "124743.487500", "124745.487500", "124747.487500", "124749.487500", "124751.487500", "124753.487500", "124755.487500", "124757.487500", "124759.487500", "124801.487500", "124803.487500", "124805.487500", "124807.487500", "124809.487500", "124811.487500", "124813.487500", "124815.487500", "124817.487500", "124819.487500", "124821.487500", "124823.487500", "124825.487500", "124827.487500", "124829.487500", "124831.487500", "124833.487500", "124835.487500", "124837.487500", "124839.487500", "124841.487500", "124843.487500", "124845.487500", "124847.487500", "124849.487500", "124851.487500", "124853.487500", "124855.487500", "124857.487500", "124859.487500", "124901.487500", "124903.487500", "124905.487500", "124907.487500", "124909.487500", "124911.487500", "124913.487500", "124915.487500", "124917.487500", "124919.487500", "124921.487500", "124923.487500", "124925.487500", "124927.487500", "124929.487500", "124931.487500", "124933.487500", "124935.487500", "124937.487500", "124939.487500", "124941.487500", "124943.487500", "124945.487500", "124947.487500", "124949.487500", "124951.487500", "124953.487500", "124955.487500", "124957.487500", "124959.487500", "125001.487500", "125003.487500", "125005.487500", "125007.487500", "125009.487500", "125011.487500", "125013.487500", "125015.487500", "125017.487500", "125019.487500", "125021.487500", "125023.487500", "125025.487500", "125027.487500", "125029.487500", "125031.487500", "125033.487500", "125035.487500", "125037.487500", "125039.487500", "125041.487500", "125043.487500", "125045.487500", "125047.487500", "125049.487500", "125051.487500", "125053.487500", "125055.487500", "125057.487500", "125059.487500", "125101.487500", "125103.487500", "125105.487500", "125107.487500", "125109.487500", "125111.487500", "125113.487500", "125115.487500", "125117.487500", "125119.487500", "125121.487500", "125123.487500", "125125.487500", "125127.487500", "125129.487500", "125131.487500", "125133.487500", "125135.487500", "125137.487500", "125139.487500", "125141.487500", "125143.487500", "125145.487500", "125147.487500", "125149.487500", "125151.487500", "125153.487500", "125155.487500", "125157.487500", "125159.487500", "125201.487500", "125203.487500", "125205.487500", "125207.487500", "125209.487500", "125211.487500", "125213.487500", "125215.487500", "125217.487500", "125219.487500", "125221.487500", "125223.487500", "125225.487500", "125227.487500", "125229.487500", "125231.487500", "125233.487500", "125235.487500", "125237.487500", "125239.487500", "125241.487500", "125243.487500", "125245.487500", "125247.487500", "125249.487500", "125251.487500", "125253.487500", "125255.487500", "125257.487500", "125259.487500", "125301.487500", "125303.487500", "125305.487500", "125307.487500", "125309.487500", "125311.487500", "125313.487500", "125315.487500", "125317.487500", "125319.487500", "125321.487500", "125323.487500", "125325.487500", "125327.487500", "125329.487500", "125331.487500", "125333.487500", "125335.487500", "125337.487500", "125339.487500", "125341.487500", "125343.487500", "125345.487500", "125347.487500", "125349.487500", "125351.487500", "125353.487500", "125355.487500"],
      "ContentTime": ["124804.324000", "124804.327000", "124804.330000", "124804.332000", "124804.334000", "124804.337000", "124804.339000", "124804.342000", "124804.344000", "124804.347000", "124804.349000", "124804.361000", "124804.363000", "124804.366000", "124804.368000", "124804.371000", "124804.373000", "124804.376000", "124804.378000", "124804.381000", "124804.383000", "124804.386000", "124804.388000", "124844.310000", "124844.313000", "124844.316000", "124844.318000", "124844.321000", "124844.323000", "124844.326000", "124844.328000", "124844.331000", "124844.333000", "124844.336000", "124844.338000", "124844.341000", "124844.343000", "124844.346000", "124844.348000", "124844.351000", "124844.353000", "124844.356000", "124844.358000", "124924.311000", "124924.314000", "124924.317000", "124924.319000", "124924.322000", "124924.324000", "124924.327000", "124924.329000", "124924.332000", "124924.334000", "124924.337000", "124924.339000", "124924.342000", "124924.344000", "124924.347000", "124924.349000", "124924.352000", "124924.354000", "124924.357000", "124924.359000", "125004.311000", "125004.314000", "125004.317000", "125004.319000", "125004.322000", "125004.324000", "125004.327000", "125004.329000", "125004.332000", "125004.334000", "125004.337000", "125004.339000", "125004.342000", "125004.344000", "125004.347000", "125004.349000", "125004.352000", "125004.354000", "125004.357000", "125004.359000", "125044.311000", "125044.313000", "125044.316000", "125044.319000", "125044.321000", "125044.324000", "125044.326000", "125044.328000", "125044.331000", "125044.333000", "125044.336000", "125044.339000", "125044.341000", "125044.344000", "125044.346000", "125044.349000", "125044.351000", "125044.354000", "125044.356000", "125044.359000", "125124.310000", "125124.313000", "125124.316000", "125124.318000", "125124.321000", "125124.323000", "125124.326000", "125124.328000", "125124.331000", "125124.333000", "125124.336000", "125124.338000", "125124.341000", "125124.343000", "125124.346000", "125124.348000", "125124.351000", "125124.353000", "125124.356000", "125124.358000", "125204.311000", "125204.314000", "125204.317000", "125204.319000", "125204.322000", "125204.324000", "125204.327000", "125204.329000", "125204.332000", "125204.335000", "125204.337000", "125204.339000", "125204.342000", "125204.344000", "125204.347000", "125204.350000", "125204.352000", "125204.355000", "125204.357000", "125204.360000", "125244.310000", "125244.313000", "125244.316000", "125244.318000", "125244.321000", "125244.323000", "125244.326000", "125244.328000", "125244.331000", "125244.333000", "125244.336000", "125244.351000", "125244.354000", "125244.356000", "125244.359000", "125244.361000", "125244.364000", "125244.366000", "125244.369000", "125244.371000", "125324.310000", "125324.313000", "125324.316000", "125324.318000", "125324.321000", "125324.323000", "125324.326000", "125324.328000", "125324.331000", "125324.333000", "125324.336000", "125324.338000", "125324.341000", "125324.343000", "125324.346000", "125324.349000", "125324.351000", "125324.354000", "125324.356000", "125324.359000", "125357.003000", "125357.006000", "125357.009000", "125357.011000", "125357.014000", "125357.017000", "125357.019000", "125357.022000", "125357.024000", "125357.027000", "125357.029000", "125357.032000", "125357.035000", "125357.038000", "125357.041000", "125357.044000", "125357.049000"],
      "InstanceCreationTime": ["124804.324000", "124804.327000", "124804.330000", "124804.332000", "124804.334000", "124804.337000", "124804.339000", "124804.342000", "124804.344000", "124804.347000", "124804.349000", "124804.361000", "124804.363000", "124804.366000", "124804.368000", "124804.371000", "124804.373000", "124804.376000", "124804.378000", "124804.381000", "124804.383000", "124804.386000", "124804.388000", "124844.310000", "124844.313000", "124844.316000", "124844.318000", "124844.321000", "124844.323000", "124844.326000", "124844.328000", "124844.331000", "124844.333000", "124844.336000", "124844.338000", "124844.341000", "124844.343000", "124844.346000", "124844.348000", "124844.351000", "124844.353000", "124844.356000", "124844.358000", "124924.311000", "124924.314000", "124924.317000", "124924.319000", "124924.322000", "124924.324000", "124924.327000", "124924.329000", "124924.332000", "124924.334000", "124924.337000", "124924.339000", "124924.342000", "124924.344000", "124924.347000", "124924.349000", "124924.352000", "124924.354000", "124924.357000", "124924.359000", "125004.311000", "125004.314000", "125004.317000", "125004.319000", "125004.322000", "125004.324000", "125004.327000", "125004.329000", "125004.332000", "125004.334000", "125004.337000", "125004.339000", "125004.342000", "125004.344000", "125004.347000", "125004.349000", "125004.352000", "125004.354000", "125004.357000", "125004.359000", "125044.311000", "125044.313000", "125044.316000", "125044.319000", "125044.321000", "125044.324000", "125044.326000", "125044.328000", "125044.331000", "125044.333000", "125044.336000", "125044.339000", "125044.341000", "125044.344000", "125044.346000", "125044.349000", "125044.351000", "125044.354000", "125044.356000", "125044.359000", "125124.310000", "125124.313000", "125124.316000", "125124.318000", "125124.321000", "125124.323000", "125124.326000", "125124.328000", "125124.331000", "125124.333000", "125124.336000", "125124.338000", "125124.341000", "125124.343000", "125124.346000", "125124.348000", "125124.351000", "125124.353000", "125124.356000", "125124.358000", "125204.311000", "125204.314000", "125204.317000", "125204.319000", "125204.322000", "125204.324000", "125204.327000", "125204.329000", "125204.332000", "125204.335000", "125204.337000", "125204.339000", "125204.342000", "125204.344000", "125204.347000", "125204.350000", "125204.352000", "125204.355000", "125204.357000", "125204.360000", "125244.310000", "125244.313000", "125244.316000", "125244.318000", "125244.321000", "125244.323000", "125244.326000", "125244.328000", "125244.331000", "125244.333000", "125244.336000", "125244.351000", "125244.354000", "125244.356000", "125244.359000", "125244.361000", "125244.364000", "125244.366000", "125244.369000", "125244.371000", "125324.310000", "125324.313000", "125324.316000", "125324.318000", "125324.321000", "125324.323000", "125324.326000", "125324.328000", "125324.331000", "125324.333000", "125324.336000", "125324.338000", "125324.341000", "125324.343000", "125324.346000", "125324.349000", "125324.351000", "125324.354000", "125324.356000", "125324.359000", "125357.003000", "125357.006000", "125357.009000", "125357.011000", "125357.014000", "125357.017000", "125357.019000", "125357.022000", "125357.024000", "125357.027000", "125357.029000", "125357.032000", "125357.035000", "125357.038000", "125357.041000", "125357.044000", "125357.049000"],
      "InstanceNumber": [1, 2, 3, 4, 5, 6, 7, 8, 9, 10, 11, 12, 13, 14, 15, 16, 17, 18, 19, 20, 21, 22, 23, 24, 25, 26, 27, 28, 29, 30, 31, 32, 33, 34, 35, 36, 37, 38, 39, 40, 41, 42, 43, 44, 45, 46, 47, 48, 49, 50, 51, 52, 53, 54, 55, 56, 57, 58, 59, 60, 61, 62, 63, 64, 65, 66, 67, 68, 69, 70, 71, 72, 73, 74, 75, 76, 77, 78, 79, 80, 81, 82, 83, 84, 85, 86, 87, 88, 89, 90, 91, 92, 93, 94, 95, 96, 97, 98, 99, 100, 101, 102, 103, 104, 105, 106, 107, 108, 109, 110, 111, 112, 113, 114, 115, 116, 117, 118, 119, 120, 121, 122, 123, 124, 125, 126, 127, 128, 129, 130, 131, 132, 133, 134, 135, 136, 137, 138, 139, 140, 141, 142, 143, 144, 145, 146, 147, 148, 149, 150, 151, 152, 153, 154, 155, 156, 157, 158, 159, 160, 161, 162, 163, 164, 165, 166, 167, 168, 169, 170, 171, 172, 173, 174, 175, 176, 177, 178, 179, 180, 181, 182, 183, 184, 185, 186, 187, 188, 189, 190, 191, 192, 193, 194, 195, 196, 197, 198, 199, 200],
      "LargestImagePixelValue": [2091, 2088, 2083, 2088, 2087, 2088, 2083, 2091, 2086, 2083, 2079, 2080, 2084, 2080, 2088, 2088, 2085, 2077, 2088, 2083, 2079, 2086, 2085, 2084, 2087, 2088, 2087, 2086, 2083, 2083, 2083, 2078, 2079, 2084, 2080, 2090, 2078, 2086, 2086, 2078, 2080, 2080, 2079, 2076, 2078, 2085, 2081, 2076, 2080, 2080, 2071, 2078, 2075, 2078, 2078, 2071, 2067, 2072, 2077, 2073, 2064, 2070, 2069, 2072, 2076, 2066, 2073, 2081, 2076, 2076, 2080, 2089, 2079, 2082, 2083, 2074, 2073, 2073, 2080, 2075, 2077, 2079, 2075, 2077, 2073, 2069, 2071, 2077, 2075, 2063, 2071, 2071, 2071, 2077, 2068, 2071, 2074, 2071, 2073, 2076, 2073, 2078, 2075, 2079, 2084, 2075, 2066, 2082, 2071, 2076, 2076, 2077, 2084, 2071, 2075, 2085, 2085, 2088, 2080, 2087, 2088, 2096, 2090, 2088, 2084, 2088, 2076, 2077, 2083, 2085, 2072, 2081, 2082, 2087, 2084, 2081, 2073, 2087, 2078, 2083, 2081, 2084, 2080, 2075, 2085, 2081, 2074, 2083, 2089, 2072, 2077, 2084, 2073, 2069, 2084, 2070, 2072, 2076, 2072, 2073, 2072, 2063, 2072, 2071, 2067, 2070, 2068, 2074, 2067, 2070, 2081, 2073, 2084, 2073, 2077, 2081, 2083, 2076, 2073, 2086, 2091, 2090, 2089, 2093, 2089, 2095, 2092, 2097, 2092, 2094, 2095, 2094, 2092, 2091, 2086, 2085, 2086, 2087, 2095, 2082],
      "WindowCenter": [984.0, 984.0, 984.0, 984.0, 984.0, 984.0, 984.0, 984.0, 984.0, 984.0, 984.0, 984.0, 985.0, 984.0, 984.0, 984.0, 984.0, 984.0, 984.0, 984.0, 984.0, 984.0, 984.0, 983.0, 983.0, 984.0, 983.0, 983.0, 983.0, 983.0, 984.0, 983.0, 983.0, 983.0, 983.0, 983.0, 983.0, 983.0, 983.0, 983.0, 983.0, 983.0, 984.0, 983.0, 983.0, 985.0, 983.0, 983.0, 983.0, 983.0, 984.0, 983.0, 983.0, 983.0, 983.0, 983.0, 983.0, 983.0, 983.0, 983.0, 983.0, 984.0, 983.0, 983.0, 984.0, 983.0, 983.0, 983.0, 983.0, 983.0, 983.0, 983.0, 983.0, 983.0, 983.0, 983.0, 984.0, 983.0, 983.0, 983.0, 984.0, 983.0, 983.0, 983.0, 983.0, 983.0, 983.0, 983.0, 983.0, 983.0, 983.0, 983.0, 983.0, 983.0, 983.0, 983.0, 983.0, 983.0, 983.0, 983.0, 983.0, 982.0, 982.0, 982.0, 983.0, 982.0, 982.0, 982.0, 982.0, 982.0, 982.0, 982.0, 982.0, 982.0, 982.0, 982.0, 982.0, 982.0, 982.0, 982.0, 983.0, 983.0, 982.0, 982.0, 982.0, 982.0, 982.0, 982.0, 983.0, 982.0, 982.0, 982.0, 982.0, 983.0, 982.0, 982.0, 982.0, 982.0, 982.0, 982.0, 983.0, 982.0, 983.0, 982.0, 983.0, 982.0, 982.0, 982.0, 982.0, 982.0, 982.0, 983.0, 982.0, 982.0, 982.0, 982.0, 982.0, 982.0, 983.0, 982.0, 983.0, 982.0, 982.0, 982.0, 982.0, 983.0, 982.0, 982.0, 982.0, 983.0, 982.0, 982.0, 983.0, 982.0, 982.0, 982.0, 982.0, 982.0, 982.0, 983.0, 982.0, 982.0, 982.0, 983.0, 982.0, 982.0, 982.0, 982.0, 982.0, 983.0, 982.0, 983.0, 982.0, 983.0, 983.0, 983.0, 982.0, 982.0, 982.0, 982.0],
      "WindowWidth": [2154.0, 2154.0, 2154.0, 2154.0, 2153.0, 2154.0, 2154.0, 2154.0, 2154.0, 2154.0, 2154.0, 2154.0, 2154.0, 2154.0, 2154.0, 2154.0, 2154.0, 2154.0, 2154.0, 2154.0, 2154.0, 2154.0, 2153.0, 2153.0, 2153.0, 2154.0, 2153.0, 2153.0, 2153.0, 2153.0, 2153.0, 2153.0, 2153.0, 2152.0, 2152.0, 2153.0, 2152.0, 2153.0, 2153.0, 2153.0, 2153.0, 2152.0, 2153.0, 2152.0, 2152.0, 2153.0, 2152.0, 2152.0, 2152.0, 2152.0, 2152.0, 2152.0, 2152.0, 2152.0, 2151.0, 2152.0, 2151.0, 2151.0, 2151.0, 2151.0, 2152.0, 2152.0, 2152.0, 2152.0, 2152.0, 2151.0, 2151.0, 2151.0, 2151.0, 2151.0, 2151.0, 2151.0, 2151.0, 2151.0, 2151.0, 2151.0, 2151.0, 2151.0, 2151.0, 2151.0, 2151.0, 2151.0, 2151.0, 2151.0, 2151.0, 2150.0, 2150.0, 2150.0, 2150.0, 2150.0, 2150.0, 2150.0, 2150.0, 2150.0, 2150.0, 2150.0, 2151.0, 2150.0, 2150.0, 2150.0, 2150.0, 2150.0, 2150.0, 2150.0, 2150.0, 2149.0, 2150.0, 2150.0, 2150.0, 2149.0, 2150.0, 2149.0, 2150.0, 2150.0, 2149.0, 2150.0, 2149.0, 2149.0, 2150.0, 2149.0, 2150.0, 2150.0, 2149.0, 2149.0, 2149.0, 2149.0, 2149.0, 2149.0, 2149.0, 2149.0, 2149.0, 2149.0, 2148.0, 2149.0, 2149.0, 2149.0, 2149.0, 2148.0, 2148.0, 2148.0, 2149.0, 2148.0, 2149.0, 2148.0, 2149.0, 2148.0, 2148.0, 2148.0, 2148.0, 2148.0, 2148.0, 2149.0, 2148.0, 2148.0, 2148.0, 2148.0, 2148.0, 2147.0, 2148.0, 2148.0, 2148.0, 2148.0, 2148.0, 2148.0, 2148.0, 2148.0, 2148.0, 2147.0, 2148.0, 2148.0, 2148.0, 2148.0, 2148.0, 2148.0, 2147.0, 2148.0, 2148.0, 2148.0, 2148.0, 2148.0, 2147.0, 2147.0, 2147.0, 2148.0, 2147.0, 2147.0, 2148.0, 2148.0, 2148.0, 2148.0, 2148.0, 2148.0, 2148.0, 2148.0, 2148.0, 2148.0, 2147.0, 2147.0, 2147.0, 2147.0]
    },
    "slices": {}
  }
}