{
  "AcquisitionMatrixPE": 80,
  "AcquisitionNumber": 1,
  "AcquisitionTime": "09:13:7.420000",
  "BandwidthPerPixelPhaseEncode": 25,
  "BaseResolution": 80,
  "BodyPartExamined": "BRAIN",
  "CoilCombinationMethod": "Sum of Squares",
  "ConsistencyInfo": "N4_VE11E_LATEST_20181129",
  "ConversionSoftware": "dcm2niix",
  "ConversionSoftwareVersion": "v1.0.20220720",
  "DerivedVendorReportedEchoSpacing": 0.0005,
  "DeviceSerialNumber": "66112",
  "DwellTime": 2.7e-06,
  "EchoTime": 0.03,
  "EchoTrainLength": 80,
  "EffectiveEchoSpacing": 0.0005,
  "FlipAngle": 77,
  "HeudiconvVersion": "0.13.1",
  "ImageOrientationPatientDICOM": [0.989921, 0.141472, 0.00648577, -0.136659, 0.942217, 0.305861],
  "ImageOrientationText": "Tra>Cor(17.7)>Sag(-2.1)",
  "ImageType": [
    "ORIGINAL",
    "PRIMARY",
    "M",
    "ND",
    "NORM",
    "MOSAIC"
],
  "ImagingFrequency": 123.259,
  "InPlanePhaseEncodingDirectionDICOM": "COL",
  "InstitutionAddress": "Maynard 3,Hanover,NH,US,03755",
  "InstitutionName": "Dartmouth College - PBS",
  "InstitutionalDepartmentName": "Department",
  "MRAcquisitionType": "2D",
  "MagneticFieldStrength": 3,
  "Manufacturer": "Siemens",
  "ManufacturersModelName": "Prisma",
  "MatrixCoilMode": "SENSE",
  "Modality": "MR",
  "NonlinearGradientCorrection": false,
  "PartialFourier": 1,
  "PatientPosition": "HFS",
  "PercentPhaseFOV": 100,
  "PercentSampling": 100,
  "PhaseEncodingDirection": "j-",
  "PhaseEncodingSteps": 80,
  "PhaseResolution": 1,
  "PixelBandwidth": 2315,
  "ProcedureStepDescription": "dbic^QA",
  "ProtocolName": "func-bold_fa-77",
  "PulseSequenceDetails": "%SiemensSeq%\\ep2d_bold",
  "ReceiveCoilActiveElements": "HEA;HEP",
  "ReceiveCoilName": "Head_32",
  "ReconMatrixPE": 80,
  "RepetitionTime": 2,
  "SAR": 0.0370123,
  "ScanOptions": "FS",
  "ScanningSequence": "EP",
  "SequenceName": "*epfid2d1_80",
  "SequenceVariant": "SK",
  "SeriesDescription": "func-bold_fa-77",
  "SeriesNumber": 7,
  "ShimSetting": [4220, -7736, -7501, -35, -135, -28, 13, 72],
  "SliceThickness": 3.5,
  "SliceTiming": [0.99, 0, 1.055, 0.0675, 1.1225, 0.1325, 1.1875, 0.1975, 1.255, 0.265, 1.32, 0.33, 1.385, 0.3975, 1.4525, 0.4625, 1.5175, 0.5275, 1.585, 0.595, 1.65, 0.66, 1.715, 0.725, 1.7825, 0.7925, 1.8475, 0.8575, 1.915, 0.925],
  "SoftwareVersions": "syngo MR E11",
  "SpacingBetweenSlices": 3.99,
  "StationName": "AWP66112",
  "TotalReadoutTime": 0.0395,
  "TxRefAmp": 222.152,
  "dcmmeta_affine": [
    [-2.9697630405426025, -0.4099755585193634, -0.14826732873916626, 138.645263671875],
    [-0.42441603541374207, 2.8266522884368896, 1.2116206884384155, -105.82401275634766],
    [0.019457321614027023, -0.9175823330879211, 3.7986960411071777, -19.551565170288086],
    [0.0, 0.0, 0.0, 1.0]
],
  "dcmmeta_reorient_transform": [
    [0.0, -1.0, 0.0, 79.0],
    [1.0, 0.0, 0.0, 0.0],
    [0.0, 0.0, 1.0, 0.0],
    [0.0, 0.0, 0.0, 1.0]
],
  "dcmmeta_shape": [80, 80, 30, 200],
  "dcmmeta_slice_dim": 2,
  "dcmmeta_version": 0.6,
  "global": {
    "const": {
      "AccessionNumber": "qa",
      "AcquisitionMatrix": [80, 0, 0, 80],
      "AngioFlag": "N",
      "BitsAllocated": 16,
      "BitsStored": 12,
      "BodyPartExamined": "BRAIN",
      "Columns": 480,
      "EchoNumbers": 1,
      "EchoTime": 30.0,
      "EchoTrainLength": 80,
      "FlipAngle": 77.0,
      "HighBit": 11,
      "ImageOrientationPatient": [0.98992100922941, 0.14147201216766, 0.00648577362116, -0.1366585158634, 0.94221740526913, 0.30586077102159],
      "ImagePositionPatient": [-618.21468426279, -767.6951613391, -279.4484949919],
      "ImageType": [
        "ORIGINAL",
        "PRIMARY",
        "M",
        "ND",
        "NORM",
        "MOSAIC"
],
      "ImagedNucleus": "1H",
      "ImagingFrequency": 123.259146,
      "InPlanePhaseEncodingDirection": "COL",
      "MRAcquisitionType": "2D",
      "MagneticFieldStrength": 3.0,
      "Manufacturer": "SIEMENS",
      "ManufacturerModelName": "Prisma",
      "Modality": "MR",
      "NumberOfAverages": 1.0,
      "NumberOfPhaseEncodingSteps": 80,
      "PercentPhaseFieldOfView": 100.0,
      "PercentSampling": 100.0,
      "PerformedProcedureStepStartTime": "085247.420000",
      "PhotometricInterpretation": "MONOCHROME2",
      "PixelBandwidth": 2315.0,
      "PixelRepresentation": 0,
      "PixelSpacing": [3.0, 3.0],
      "ProtocolName": "func-bold_fa-77",
      "RepetitionTime": 2000.0,
      "Rows": 480,
      "SAR": 0.03701233091883,
      "SamplesPerPixel": 1,
      "ScanOptions": "FS",
      "ScanningSequence": "EP",
      "SequenceName": "*epfid2d1_80",
      "SequenceVariant": "SK",
      "SeriesDescription": "func-bold_fa-77",
      "SeriesNumber": 7,
      "SeriesTime": "091347.562000",
      "SliceLocation": -55.901148879415,
      "SliceThickness": 3.5,
      "SmallestImagePixelValue": 0,
      "SoftwareVersions": "syngo MR E11",
      "SpacingBetweenSlices": 3.9899999747975,
      "SpecificCharacterSet": "ISO_IR 100",
      "StudyID": "3",
      "StudyTime": "085247.340000",
      "TransmitCoilName": "Body",
      "VariableFlipAngleFlag": "N",
      "WindowCenterWidthExplanation": "Algo1"
    },
    "slices": {}
  },
  "time": {
    "samples": {
      "AcquisitionNumber": [1, 2, 3, 4, 5, 6, 7, 8, 9, 10, 11, 12, 13, 14, 15, 16, 17, 18, 19, 20, 21, 22, 23, 24, 25, 26, 27, 28, 29, 30, 31, 32, 33, 34, 35, 36, 37, 38, 39, 40, 41, 42, 43, 44, 45, 46, 47, 48, 49, 50, 51, 52, 53, 54, 55, 56, 57, 58, 59, 60, 61, 62, 63, 64, 65, 66, 67, 68, 69, 70, 71, 72, 73, 74, 75, 76, 77, 78, 79, 80, 81, 82, 83, 84, 85, 86, 87, 88, 89, 90, 91, 92, 93, 94, 95, 96, 97, 98, 99, 100, 101, 102, 103, 104, 105, 106, 107, 108, 109, 110, 111, 112, 113, 114, 115, 116, 117, 118, 119, 120, 121, 122, 123, 124, 125, 126, 127, 128, 129, 130, 131, 132, 133, 134, 135, 136, 137, 138, 139, 140, 141, 142, 143, 144, 145, 146, 147, 148, 149, 150, 151, 152, 153, 154, 155, 156, 157, 158, 159, 160, 161, 162, 163, 164, 165, 166, 167, 168, 169, 170, 171, 172, 173, 174, 175, 176, 177, 178, 179, 180, 181, 182, 183, 184, 185, 186, 187, 188, 189, 190, 191, 192, 193, 194, 195, 196, 197, 198, 199, 200],
      "AcquisitionTime": ["091307.420000", "091309.420000", "091311.420000", "091313.420000", "091315.420000", "091317.420000", "091319.420000", "091321.420000", "091323.420000", "091325.420000", "091327.420000", "091329.420000", "091331.420000", "091333.420000", "091335.420000", "091337.420000", "091339.420000", "091341.420000", "091343.420000", "091345.420000", "091347.420000", "091349.420000", "091351.420000", "091353.420000", "091355.420000", "091357.420000", "091359.420000", "091401.420000", "091403.420000", "091405.420000", "091407.420000", "091409.420000", "091411.420000", "091413.420000", "091415.420000", "091417.420000", "091419.420000", "091421.420000", "091423.420000", "091425.420000", "091427.420000", "091429.420000", "091431.420000", "091433.420000", "091435.420000", "091437.420000", "091439.420000", "091441.420000", "091443.420000", "091445.420000", "091447.420000", "091449.420000", "091451.420000", "091453.420000", "091455.420000", "091457.420000", "091459.420000", "091501.420000", "091503.420000", "091505.420000", "091507.420000", "091509.420000", "091511.420000", "091513.420000", "091515.420000", "091517.420000", "091519.420000", "091521.420000", "091523.420000", "091525.420000", "091527.420000", "091529.420000", "091531.420000", "091533.420000", "091535.420000", "091537.420000", "091539.420000", "091541.420000", "091543.420000", "091545.420000", "091547.420000", "091549.420000", "091551.420000", "091553.420000", "091555.420000", "091557.420000", "091559.420000", "091601.420000", "091603.420000", "091605.420000", "091607.420000", "091609.420000", "091611.420000", "091613.420000", "091615.420000", "091617.420000", "091619.420000", "091621.420000", "091623.420000", "091625.420000", "091627.420000", "091629.420000", "091631.420000", "091633.420000", "091635.420000", "091637.420000", "091639.420000", "091641.420000", "091643.420000", "091645.420000", "091647.420000", "091649.420000", "091651.420000", "091653.420000", "091655.420000", "091657.420000", "091659.420000", "091701.420000", "091703.420000", "091705.420000", "091707.420000", "091709.420000", "091711.420000", "091713.420000", "091715.420000", "091717.420000", "091719.420000", "091721.420000", "091723.420000", "091725.420000", "091727.420000", "091729.420000", "091731.420000", "091733.420000", "091735.420000", "091737.420000", "091739.420000", "091741.420000", "091743.420000", "091745.420000", "091747.420000", "091749.420000", "091751.420000", "091753.420000", "091755.420000", "091757.420000", "091759.420000", "091801.420000", "091803.420000", "091805.420000", "091807.420000", "091809.420000", "091811.420000", "091813.420000", "091815.420000", "091817.420000", "091819.420000", "091821.420000", "091823.420000", "091825.420000", "091827.420000", "091829.420000", "091831.420000", "091833.420000", "091835.420000", "091837.420000", "091839.420000", "091841.420000", "091843.420000", "091845.420000", "091847.420000", "091849.420000", "091851.420000", "091853.420000", "091855.420000", "091857.420000", "091859.420000", "091901.420000", "091903.420000", "091905.420000", "091907.420000", "091909.420000", "091911.420000", "091913.420000", "091915.420000", "091917.420000", "091919.420000", "091921.420000", "091923.420000", "091925.420000", "091927.420000", "091929.420000", "091931.420000", "091933.420000", "091935.420000", "091937.420000", "091939.420000", "091941.420000", "091943.420000", "091945.420000"],
      "ContentTime": ["091347.565000", "091347.568000", "091347.570000", "091347.573000", "091347.575000", "091347.577000", "091347.579000", "091347.582000", "091347.584000", "091347.586000", "091347.589000", "091347.591000", "091347.602000", "091347.604000", "091347.607000", "091347.613000", "091347.615000", "091347.617000", "091347.619000", "091347.622000", "091427.560000", "091427.563000", "091427.565000", "091427.568000", "091427.570000", "091427.572000", "091427.574000", "091427.577000", "091427.579000", "091427.581000", "091427.584000", "091427.586000", "091427.588000", "091427.590000", "091427.593000", "091427.595000", "091427.608000", "091427.610000", "091427.612000", "091427.615000", "091507.559000", "091507.562000", "091507.564000", "091507.566000", "091507.573000", "091507.575000", "091507.577000", "091507.579000", "091507.582000", "091507.584000", "091507.586000", "091507.589000", "091507.591000", "091507.593000", "091507.596000", "091507.598000", "091507.601000", "091507.603000", "091507.605000", "091507.607000", "091547.560000", "091547.563000", "091547.565000", "091547.567000", "091547.570000", "091547.572000", "091547.574000", "091547.577000", "091547.579000", "091547.581000", "091547.583000", "091547.586000", "091547.588000", "091547.590000", "091547.593000", "091547.595000", "091547.597000", "091547.600000", "091547.602000", "091547.604000", "091627.560000", "091627.563000", "091627.565000", "091627.567000", "091627.570000", "091627.625000", "091627.628000", "091627.630000", "091627.632000", "091627.634000", "091627.637000", "091627.639000", "091627.641000", "091627.644000", "091627.646000", "091627.648000", "091627.650000", "091627.653000", "091627.655000", "091627.657000", "091707.560000", "091707.563000", "091707.565000", "091707.567000", "091707.570000", "091707.572000", "091707.574000", "091707.576000", "091707.579000", "091707.581000", "091707.583000", "091707.586000", "091707.588000", "091707.590000", "091707.592000", "091707.595000", "091707.597000", "091707.600000", "091707.602000", "091707.604000", "091747.560000", "091747.563000", "091747.565000", "091747.567000", "091747.570000", "091747.572000", "091747.574000", "091747.577000", "091747.579000", "091747.590000", "091747.592000", "091747.594000", "091747.596000", "091747.599000", "091747.601000", "091747.603000", "091747.606000", "091747.608000", "091747.610000", "091747.612000", "091827.560000", "091827.563000", "091827.565000", "091827.568000", "091827.570000", "091827.572000", "091827.574000", "091827.577000", "091827.579000", "091827.581000", "091827.584000", "091827.586000", "091827.588000", "091827.591000", "091827.593000", "091827.595000", "091827.597000", "091827.600000", "091827.602000", "091827.604000", "091907.560000", "091907.563000", "091907.565000", "091907.567000", "091907.570000", "091907.572000", "091907.574000", "091907.577000", "091907.579000", "091907.581000", "091907.583000", "091907.586000", "091907.588000", "091907.590000", "091907.592000", "091907.595000", "091907.597000", "091907.600000", "091907.602000", "091907.604000", "091947.123000", "091947.125000", "091947.128000", "091947.130000", "091947.132000", "091947.135000", "091947.137000", "091947.140000", "091947.142000", "091947.145000", "091947.147000", "091947.149000", "091947.152000", "091947.154000", "091947.156000", "091947.158000", "091947.161000", "091947.163000", "091947.165000", "091947.167000"],
      "InstanceCreationTime": ["091347.565000", "091347.568000", "091347.570000", "091347.573000", "091347.575000", "091347.577000", "091347.579000", "091347.582000", "091347.584000", "091347.586000", "091347.589000", "091347.591000", "091347.602000", "091347.604000", "091347.607000", "091347.613000", "091347.615000", "091347.617000", "091347.619000", "091347.622000", "091427.560000", "091427.563000", "091427.565000", "091427.568000", "091427.570000", "091427.572000", "091427.574000", "091427.577000", "091427.579000", "091427.581000", "091427.584000", "091427.586000", "091427.588000", "091427.590000", "091427.593000", "091427.595000", "091427.608000", "091427.610000", "091427.612000", "091427.615000", "091507.559000", "091507.562000", "091507.564000", "091507.566000", "091507.573000", "091507.575000", "091507.577000", "091507.579000", "091507.582000", "091507.584000", "091507.586000", "091507.589000", "091507.591000", "091507.593000", "091507.596000", "091507.598000", "091507.601000", "091507.603000", "091507.605000", "091507.607000", "091547.560000", "091547.563000", "091547.565000", "091547.567000", "091547.570000", "091547.572000", "091547.574000", "091547.577000", "091547.579000", "091547.581000", "091547.583000", "091547.586000", "091547.588000", "091547.590000", "091547.593000", "091547.595000", "091547.597000", "091547.600000", "091547.602000", "091547.604000", "091627.560000", "091627.563000", "091627.565000", "091627.567000", "091627.570000", "091627.625000", "091627.628000", "091627.630000", "091627.632000", "091627.634000", "091627.637000", "091627.639000", "091627.641000", "091627.644000", "091627.646000", "091627.648000", "091627.650000", "091627.653000", "091627.655000", "091627.657000", "091707.560000", "091707.563000", "091707.565000", "091707.567000", "091707.570000", "091707.572000", "091707.574000", "091707.576000", "091707.579000", "091707.581000", "091707.583000", "091707.586000", "091707.588000", "091707.590000", "091707.592000", "091707.595000", "091707.597000", "091707.600000", "091707.602000", "091707.604000", "091747.560000", "091747.563000", "091747.565000", "091747.567000", "091747.570000", "091747.572000", "091747.574000", "091747.577000", "091747.579000", "091747.590000", "091747.592000", "091747.594000", "091747.596000", "091747.599000", "091747.601000", "091747.603000", "091747.606000", "091747.608000", "091747.610000", "091747.612000", "091827.560000", "091827.563000", "091827.565000", "091827.568000", "091827.570000", "091827.572000", "091827.574000", "091827.577000", "091827.579000", "091827.581000", "091827.584000", "091827.586000", "091827.588000", "091827.591000", "091827.593000", "091827.595000", "091827.597000", "091827.600000", "091827.602000", "091827.604000", "091907.560000", "091907.563000", "091907.565000", "091907.567000", "091907.570000", "091907.572000", "091907.574000", "091907.577000", "091907.579000", "091907.581000", "091907.583000", "091907.586000", "091907.588000", "091907.590000", "091907.592000", "091907.595000", "091907.597000", "091907.600000", "091907.602000", "091907.604000", "091947.123000", "091947.125000", "091947.128000", "091947.130000", "091947.132000", "091947.135000", "091947.137000", "091947.140000", "091947.142000", "091947.145000", "091947.147000", "091947.149000", "091947.152000", "091947.154000", "091947.156000", "091947.158000", "091947.161000", "091947.163000", "091947.165000", "091947.167000"],
      "InstanceNumber": [1, 2, 3, 4, 5, 6, 7, 8, 9, 10, 11, 12, 13, 14, 15, 16, 17, 18, 19, 20, 21, 22, 23, 24, 25, 26, 27, 28, 29, 30, 31, 32, 33, 34, 35, 36, 37, 38, 39, 40, 41, 42, 43, 44, 45, 46, 47, 48, 49, 50, 51, 52, 53, 54, 55, 56, 57, 58, 59, 60, 61, 62, 63, 64, 65, 66, 67, 68, 69, 70, 71, 72, 73, 74, 75, 76, 77, 78, 79, 80, 81, 82, 83, 84, 85, 86, 87, 88, 89, 90, 91, 92, 93, 94, 95, 96, 97, 98, 99, 100, 101, 102, 103, 104, 105, 106, 107, 108, 109, 110, 111, 112, 113, 114, 115, 116, 117, 118, 119, 120, 121, 122, 123, 124, 125, 126, 127, 128, 129, 130, 131, 132, 133, 134, 135, 136, 137, 138, 139, 140, 141, 142, 143, 144, 145, 146, 147, 148, 149, 150, 151, 152, 153, 154, 155, 156, 157, 158, 159, 160, 161, 162, 163, 164, 165, 166, 167, 168, 169, 170, 171, 172, 173, 174, 175, 176, 177, 178, 179, 180, 181, 182, 183, 184, 185, 186, 187, 188, 189, 190, 191, 192, 193, 194, 195, 196, 197, 198, 199, 200],
      "LargestImagePixelValue": [2201, 2199, 2200, 2201, 2203, 2202, 2203, 2205, 2200, 2201, 2204, 2206, 2203, 2203, 2202, 2202, 2200, 2204, 2201, 2201, 2200, 2202, 2202, 2201, 2202, 2199, 2202, 2203, 2203, 2205, 2201, 2202, 2200, 2201, 2199, 2199, 2197, 2200, 2196, 2199, 2201, 2203, 2202, 2198, 2199, 2201, 2201, 2201, 2199, 2201, 2200, 2198, 2199, 2198, 2198, 2198, 2201, 2201, 2200, 2203, 2202, 2200, 2200, 2198, 2199, 2199, 2199, 2197, 2198, 2197, 2197, 2196, 2196, 2197, 2197, 2197, 2199, 2197, 2197, 2199, 2200, 2195, 2198, 2199, 2199, 2200, 2197, 2196, 2199, 2200, 2198, 2196, 2198, 2197, 2199, 2198, 2198, 2200, 2197, 2199, 2198, 2200, 2197, 2196, 2196, 2196, 2197, 2198, 2198, 2197, 2197, 2195, 2198, 2197, 2196, 2197, 2198, 2199, 2194, 2196, 2193, 2195, 2195, 2199, 2198, 2197, 2196, 2196, 2196, 2197, 2195, 2196, 2197, 2194, 2195, 2196, 2197, 2190, 2195, 2197, 2196, 2195, 2193, 2195, 2198, 2198, 2197, 2197, 2197, 2198, 2196, 2196, 2194, 2197, 2196, 2198, 2197, 2196, 2195, 2196, 2198, 2199, 2198, 2195, 2198, 2197, 2196, 2198, 2197, 2197, 2198, 2198, 2198, 2197, 2199, 2196, 2197, 2193, 2195, 2196, 2197, 2195, 2194, 2192, 2196, 2194, 2195, 2194, 2193, 2195, 2194, 2196, 2197, 2196, 2196, 2195, 2194, 2196, 2195, 2193],
      "WindowCenter": [1029.0, 1029.0, 1028.0, 1028.0, 1028.0, 1027.0, 1028.0, 1029.0, 1030.0, 1029.0, 1028.0, 1029.0, 1029.0, 1028.0, 1029.0, 1027.0, 1029.0, 1028.0, 1028.0, 1029.0, 1029.0, 1029.0, 1029.0, 1031.0, 1028.0, 1028.0, 1029.0, 1028.0, 1029.0, 1029.0, 1028.0, 1029.0, 1029.0, 1029.0, 1029.0, 1028.0, 1027.0, 1029.0, 1028.0, 1028.0, 1029.0, 1029.0, 1029.0, 1028.0, 1027.0, 1028.0, 1027.0, 1027.0, 1029.0, 1028.0, 1028.0, 1027.0, 1028.0, 1028.0, 1026.0, 1030.0, 1027.0, 1029.0, 1027.0, 1028.0, 1028.0, 1028.0, 1028.0, 1028.0, 1029.0, 1029.0, 1028.0, 1026.0, 1028.0, 1029.0, 1027.0, 1028.0, 1028.0, 1028.0, 1028.0, 1026.0, 1027.0, 1028.0, 1026.0, 1026.0, 1028.0, 1029.0, 1027.0, 1027.0, 1029.0, 1026.0, 1027.0, 1027.0, 1028.0, 1027.0, 1028.0, 1028.0, 1029.0, 1028.0, 1027.0, 1027.0, 1028.0, 1027.0, 1027.0, 1027.0, 1029.0, 1028.0, 1030.0, 1028.0, 1027.0, 1026.0, 1026.0, 1028.0, 1027.0, 1028.0, 1028.0, 1028.0, 1028.0, 1028.0, 1028.0, 1027.0, 1028.0, 1028.0, 1027.0, 1028.0, 1028.0, 1027.0, 1029.0, 1028.0, 1028.0, 1029.0, 1029.0, 1028.0, 1028.0, 1028.0, 1028.0, 1028.0, 1029.0, 1028.0, 1028.0, 1027.0, 1027.0, 1027.0, 1027.0, 1027.0, 1028.0, 1027.0, 1027.0, 1027.0, 1029.0, 1027.0, 1027.0, 1027.0, 1025.0, 1027.0, 1027.0, 1026.0, 1028.0, 1027.0, 1027.0, 1028.0, 1027.0, 1028.0, 1027.0, 1027.0, 1026.0, 1029.0, 1026.0, 1027.0, 1026.0, 1027.0, 1026.0, 1027.0, 1028.0, 1026.0, 1026.0, 1027.0, 1026.0, 1027.0, 1028.0, 1027.0, 1026.0, 1027.0, 1027.0, 1028.0, 1026.0, 1027.0, 1026.0, 1027.0, 1026.0, 1028.0, 1026.0, 1028.0, 1027.0, 1027.0, 1028.0, 1027.0, 1026.0, 1026.0, 1027.0, 1027.0, 1026.0, 1027.0, 1027.0, 1027.0],
      "WindowWidth": [2309.0, 2309.0, 2309.0, 2309.0, 2309.0, 2308.0, 2309.0, 2310.0, 2310.0, 2310.0, 2309.0, 2310.0, 2309.0, 2308.0, 2309.0, 2308.0, 2309.0, 2308.0, 2308.0, 2309.0, 2309.0, 2309.0, 2309.0, 2310.0, 2308.0, 2308.0, 2309.0, 2308.0, 2309.0, 2309.0, 2308.0, 2309.0, 2309.0, 2309.0, 2309.0, 2308.0, 2307.0, 2309.0, 2308.0, 2308.0, 2309.0, 2309.0, 2309.0, 2309.0, 2308.0, 2307.0, 2308.0, 2308.0, 2309.0, 2309.0, 2309.0, 2308.0, 2308.0, 2308.0, 2307.0, 2309.0, 2308.0, 2309.0, 2308.0, 2308.0, 2308.0, 2308.0, 2308.0, 2308.0, 2308.0, 2309.0, 2308.0, 2306.0, 2308.0, 2308.0, 2307.0, 2308.0, 2308.0, 2308.0, 2308.0, 2306.0, 2307.0, 2308.0, 2306.0, 2306.0, 2308.0, 2308.0, 2307.0, 2307.0, 2308.0, 2306.0, 2307.0, 2307.0, 2307.0, 2307.0, 2307.0, 2307.0, 2308.0, 2307.0, 2307.0, 2307.0, 2307.0, 2307.0, 2307.0, 2307.0, 2308.0, 2307.0, 2309.0, 2307.0, 2306.0, 2305.0, 2306.0, 2307.0, 2306.0, 2307.0, 2307.0, 2307.0, 2307.0, 2307.0, 2307.0, 2306.0, 2307.0, 2307.0, 2306.0, 2307.0, 2307.0, 2306.0, 2307.0, 2306.0, 2307.0, 2307.0, 2307.0, 2306.0, 2306.0, 2306.0, 2306.0, 2306.0, 2307.0, 2307.0, 2306.0, 2306.0, 2306.0, 2306.0, 2306.0, 2306.0, 2307.0, 2306.0, 2306.0, 2306.0, 2308.0, 2306.0, 2306.0, 2306.0, 2305.0, 2306.0, 2306.0, 2305.0, 2307.0, 2306.0, 2306.0, 2307.0, 2306.0, 2307.0, 2306.0, 2306.0, 2305.0, 2308.0, 2305.0, 2306.0, 2305.0, 2306.0, 2305.0, 2306.0, 2307.0, 2305.0, 2305.0, 2306.0, 2305.0, 2306.0, 2306.0, 2306.0, 2305.0, 2306.0, 2305.0, 2306.0, 2305.0, 2305.0, 2305.0, 2305.0, 2305.0, 2307.0, 2305.0, 2306.0, 2305.0, 2305.0, 2306.0, 2305.0, 2305.0, 2305.0, 2305.0, 2305.0, 2305.0, 2305.0, 2305.0, 2306.0]
    },
    "slices": {}
  }
}