{
  "AcquisitionMatrixPE": 80,
  "AcquisitionNumber": 1,
  "AcquisitionTime": "09:19:53.467500",
  "BandwidthPerPixelPhaseEncode": 25,
  "BaseResolution": 80,
  "BodyPartExamined": "BRAIN",
  "CoilCombinationMethod": "Sum of Squares",
  "ConsistencyInfo": "N4_VE11E_LATEST_20181129",
  "ConversionSoftware": "dcm2niix",
  "ConversionSoftwareVersion": "v1.0.20220720",
  "DerivedVendorReportedEchoSpacing": 0.0005,
  "DeviceSerialNumber": "66112",
  "DwellTime": 2.7e-06,
  "EchoTime": 0.03,
  "EchoTrainLength": 80,
  "EffectiveEchoSpacing": 0.0005,
  "FlipAngle": 10,
  "HeudiconvVersion": "0.13.1",
  "ImageOrientationPatientDICOM": [0.989921, 0.141472, 0.00648577, -0.136659, 0.942217, 0.305861],
  "ImageOrientationText": "Tra>Cor(17.7)>Sag(-2.1)",
  "ImageType": [
    "ORIGINAL",
    "PRIMARY",
    "M",
    "ND",
    "NORM",
    "MOSAIC"
],
  "ImagingFrequency": 123.259,
  "InPlanePhaseEncodingDirectionDICOM": "COL",
  "InstitutionAddress": "Maynard 3,Hanover,NH,US,03755",
  "InstitutionName": "Dartmouth College - PBS",
  "InstitutionalDepartmentName": "Department",
  "MRAcquisitionType": "2D",
  "MagneticFieldStrength": 3,
  "Manufacturer": "Siemens",
  "ManufacturersModelName": "Prisma",
  "MatrixCoilMode": "SENSE",
  "Modality": "MR",
  "NonlinearGradientCorrection": false,
  "PartialFourier": 1,
  "PatientPosition": "HFS",
  "PercentPhaseFOV": 100,
  "PercentSampling": 100,
  "PhaseEncodingDirection": "j-",
  "PhaseEncodingSteps": 80,
  "PhaseResolution": 1,
  "PixelBandwidth": 2315,
  "ProcedureStepDescription": "dbic^QA",
  "ProtocolName": "func-bold_fa-10",
  "PulseSequenceDetails": "%SiemensSeq%\\ep2d_bold",
  "ReceiveCoilActiveElements": "HEA;HEP",
  "ReceiveCoilName": "Head_32",
  "ReconMatrixPE": 80,
  "RepetitionTime": 2,
  "SAR": 0.00992853,
  "ScanOptions": "FS",
  "ScanningSequence": "EP",
  "SequenceName": "*epfid2d1_80",
  "SequenceVariant": "SK",
  "SeriesDescription": "func-bold_fa-10",
  "SeriesNumber": 8,
  "ShimSetting": [4220, -7736, -7501, -35, -135, -28, 13, 72],
  "SliceThickness": 3.5,
  "SliceTiming": [0.99, 0, 1.055, 0.065, 1.12, 0.13, 1.1875, 0.1975, 1.2525, 0.2625, 1.32, 0.33, 1.385, 0.395, 1.45, 0.46, 1.5175, 0.5275, 1.5825, 0.5925, 1.6475, 0.66, 1.715, 0.725, 1.78, 0.79, 1.8475, 0.8575, 1.9125, 0.9225],
  "SoftwareVersions": "syngo MR E11",
  "SpacingBetweenSlices": 3.99,
  "StationName": "AWP66112",
  "TotalReadoutTime": 0.0395,
  "TxRefAmp": 222.152,
  "dcmmeta_affine": [
    [-2.9697630405426025, -0.4099755585193634, -0.14826732873916626, 138.645263671875],
    [-0.42441603541374207, 2.8266522884368896, 1.2116206884384155, -105.82401275634766],
    [0.019457321614027023, -0.9175823330879211, 3.7986960411071777, -19.551565170288086],
    [0.0, 0.0, 0.0, 1.0]
],
  "dcmmeta_reorient_transform": [
    [0.0, -1.0, 0.0, 79.0],
    [1.0, 0.0, 0.0, 0.0],
    [0.0, 0.0, 1.0, 0.0],
    [0.0, 0.0, 0.0, 1.0]
],
  "dcmmeta_shape": [80, 80, 30, 200],
  "dcmmeta_slice_dim": 2,
  "dcmmeta_version": 0.6,
  "global": {
    "const": {
      "AccessionNumber": "qa",
      "AcquisitionMatrix": [80, 0, 0, 80],
      "AngioFlag": "N",
      "BitsAllocated": 16,
      "BitsStored": 12,
      "BodyPartExamined": "BRAIN",
      "Columns": 480,
      "EchoNumbers": 1,
      "EchoTime": 30.0,
      "EchoTrainLength": 80,
      "FlipAngle": 10.0,
      "HighBit": 11,
      "ImageOrientationPatient": [0.98992100922941, 0.14147201216766, 0.00648577362116, -0.1366585158634, 0.94221740526913, 0.30586077102159],
      "ImagePositionPatient": [-618.21468426279, -767.6951613391, -279.4484949919],
      "ImageType": [
        "ORIGINAL",
        "PRIMARY",
        "M",
        "ND",
        "NORM",
        "MOSAIC"
],
      "ImagedNucleus": "1H",
      "ImagingFrequency": 123.259147,
      "InPlanePhaseEncodingDirection": "COL",
      "MRAcquisitionType": "2D",
      "MagneticFieldStrength": 3.0,
      "Manufacturer": "SIEMENS",
      "ManufacturerModelName": "Prisma",
      "Modality": "MR",
      "NumberOfAverages": 1.0,
      "NumberOfPhaseEncodingSteps": 80,
      "PercentPhaseFieldOfView": 100.0,
      "PercentSampling": 100.0,
      "PerformedProcedureStepStartTime": "085247.420000",
      "PhotometricInterpretation": "MONOCHROME2",
      "PixelBandwidth": 2315.0,
      "PixelRepresentation": 0,
      "PixelSpacing": [3.0, 3.0],
      "ProtocolName": "func-bold_fa-10",
      "RepetitionTime": 2000.0,
      "Rows": 480,
      "SAR": 0.00992852536929,
      "SamplesPerPixel": 1,
      "ScanOptions": "FS",
      "ScanningSequence": "EP",
      "SequenceName": "*epfid2d1_80",
      "SequenceVariant": "SK",
      "SeriesDescription": "func-bold_fa-10",
      "SeriesNumber": 8,
      "SeriesTime": "092027.646000",
      "SliceLocation": -55.901148879415,
      "SliceThickness": 3.5,
      "SmallestImagePixelValue": 0,
      "SoftwareVersions": "syngo MR E11",
      "SpacingBetweenSlices": 3.9899999747975,
      "SpecificCharacterSet": "ISO_IR 100",
      "StudyID": "3",
      "StudyTime": "085247.340000",
      "TransmitCoilName": "Body",
      "VariableFlipAngleFlag": "N",
      "WindowCenterWidthExplanation": "Algo1"
    },
    "slices": {}
  },
  "time": {
    "samples": {
      "AcquisitionNumber": [1, 2, 3, 4, 5, 6, 7, 8, 9, 10, 11, 12, 13, 14, 15, 16, 17, 18, 19, 20, 21, 22, 23, 24, 25, 26, 27, 28, 29, 30, 31, 32, 33, 34, 35, 36, 37, 38, 39, 40, 41, 42, 43, 44, 45, 46, 47, 48, 49, 50, 51, 52, 53, 54, 55, 56, 57, 58, 59, 60, 61, 62, 63, 64, 65, 66, 67, 68, 69, 70, 71, 72, 73, 74, 75, 76, 77, 78, 79, 80, 81, 82, 83, 84, 85, 86, 87, 88, 89, 90, 91, 92, 93, 94, 95, 96, 97, 98, 99, 100, 101, 102, 103, 104, 105, 106, 107, 108, 109, 110, 111, 112, 113, 114, 115, 116, 117, 118, 119, 120, 121, 122, 123, 124, 125, 126, 127, 128, 129, 130, 131, 132, 133, 134, 135, 136, 137, 138, 139, 140, 141, 142, 143, 144, 145, 146, 147, 148, 149, 150, 151, 152, 153, 154, 155, 156, 157, 158, 159, 160, 161, 162, 163, 164, 165, 166, 167, 168, 169, 170, 171, 172, 173, 174, 175, 176, 177, 178, 179, 180, 181, 182, 183, 184, 185, 186, 187, 188, 189, 190, 191, 192, 193, 194, 195, 196, 197, 198, 199, 200],
      "AcquisitionTime": ["091953.467500", "091955.467500", "091957.467500", "091959.467500", "092001.467500", "092003.467500", "092005.467500", "092007.467500", "092009.467500", "092011.467500", "092013.467500", "092015.467500", "092017.467500", "092019.467500", "092021.467500", "092023.467500", "092025.467500", "092027.467500", "092029.467500", "092031.467500", "092033.467500", "092035.467500", "092037.467500", "092039.467500", "092041.467500", "092043.467500", "092045.467500", "092047.467500", "092049.467500", "092051.467500", "092053.467500", "092055.467500", "092057.467500", "092059.467500", "092101.467500", "092103.467500", "092105.467500", "092107.467500", "092109.467500", "092111.467500", "092113.467500", "092115.467500", "092117.467500", "092119.467500", "092121.467500", "092123.467500", "092125.467500", "092127.467500", "092129.467500", "092131.467500", "092133.467500", "092135.467500", "092137.467500", "092139.467500", "092141.467500", "092143.467500", "092145.467500", "092147.467500", "092149.467500", "092151.467500", "092153.467500", "092155.467500", "092157.467500", "092159.467500", "092201.467500", "092203.467500", "092205.467500", "092207.467500", "092209.467500", "092211.467500", "092213.467500", "092215.467500", "092217.467500", "092219.467500", "092221.467500", "092223.467500", "092225.467500", "092227.467500", "092229.467500", "092231.467500", "092233.467500", "092235.467500", "092237.467500", "092239.467500", "092241.467500", "092243.467500", "092245.467500", "092247.467500", "092249.467500", "092251.467500", "092253.467500", "092255.467500", "092257.467500", "092259.467500", "092301.467500", "092303.467500", "092305.467500", "092307.467500", "092309.467500", "092311.467500", "092313.467500", "092315.467500", "092317.467500", "092319.467500", "092321.467500", "092323.467500", "092325.467500", "092327.467500", "092329.467500", "092331.467500", "092333.467500", "092335.467500", "092337.467500", "092339.467500", "092341.467500", "092343.467500", "092345.467500", "092347.467500", "092349.467500", "092351.467500", "092353.467500", "092355.467500", "092357.467500", "092359.467500", "092401.467500", "092403.467500", "092405.467500", "092407.467500", "092409.467500", "092411.467500", "092413.467500", "092415.467500", "092417.467500", "092419.467500", "092421.467500", "092423.467500", "092425.467500", "092427.467500", "092429.467500", "092431.467500", "092433.467500", "092435.467500", "092437.467500", "092439.467500", "092441.467500", "092443.467500", "092445.467500", "092447.467500", "092449.467500", "092451.467500", "092453.467500", "092455.467500", "092457.467500", "092459.467500", "092501.467500", "092503.467500", "092505.467500", "092507.467500", "092509.467500", "092511.467500", "092513.467500", "092515.467500", "092517.467500", "092519.467500", "092521.467500", "092523.467500", "092525.467500", "092527.467500", "092529.467500", "092531.467500", "092533.467500", "092535.467500", "092537.467500", "092539.467500", "092541.467500", "092543.467500", "092545.467500", "092547.467500", "092549.467500", "092551.467500", "092553.467500", "092555.467500", "092557.467500", "092559.467500", "092601.467500", "092603.467500", "092605.467500", "092607.467500", "092609.467500", "092611.467500", "092613.467500", "092615.467500", "092617.467500", "092619.467500", "092621.467500", "092623.467500", "092625.467500", "092627.467500", "092629.467500", "092631.467500"],
      "ContentTime": ["092027.650000", "092027.653000", "092027.655000", "092027.657000", "092027.660000", "092027.662000", "092027.664000", "092027.667000", "092027.669000", "092027.671000", "092027.673000", "092027.676000", "092027.678000", "092027.680000", "092027.682000", "092027.685000", "092027.687000", "092107.645000", "092107.648000", "092107.650000", "092107.652000", "092107.655000", "092107.657000", "092107.659000", "092107.662000", "092107.664000", "092107.666000", "092107.668000", "092107.671000", "092107.673000", "092107.675000", "092107.678000", "092107.680000", "092107.682000", "092107.685000", "092107.687000", "092107.689000", "092147.645000", "092147.648000", "092147.650000", "092147.652000", "092147.655000", "092147.657000", "092147.659000", "092147.662000", "092147.664000", "092147.666000", "092147.668000", "092147.671000", "092147.673000", "092147.675000", "092147.678000", "092147.680000", "092147.682000", "092147.684000", "092147.687000", "092147.689000", "092227.645000", "092227.648000", "092227.650000", "092227.652000", "092227.654000", "092227.657000", "092227.659000", "092227.661000", "092227.664000", "092227.666000", "092227.669000", "092227.671000", "092227.673000", "092227.675000", "092227.678000", "092227.680000", "092227.682000", "092227.685000", "092227.687000", "092227.689000", "092307.645000", "092307.648000", "092307.650000", "092307.652000", "092307.655000", "092307.657000", "092307.659000", "092307.662000", "092307.664000", "092307.666000", "092307.668000", "092307.671000", "092307.673000", "092307.675000", "092307.678000", "092307.680000", "092307.682000", "092307.684000", "092307.687000", "092307.689000", "092347.645000", "092347.648000", "092347.650000", "092347.652000", "092347.655000", "092347.657000", "092347.659000", "092347.661000", "092347.664000", "092347.666000", "092347.668000", "092347.671000", "092347.673000", "092347.675000", "092347.677000", "092347.680000", "092347.682000", "092347.684000", "092347.686000", "092347.689000", "092427.644000", "092427.647000", "092427.649000", "092427.651000", "092427.653000", "092427.656000", "092427.658000", "092427.660000", "092427.663000", "092427.665000", "092427.667000", "092427.670000", "092427.672000", "092427.674000", "092427.677000", "092427.679000", "092427.681000", "092427.683000", "092427.686000", "092427.688000", "092507.645000", "092507.648000", "092507.650000", "092507.652000", "092507.654000", "092507.657000", "092507.659000", "092507.661000", "092507.664000", "092507.666000", "092507.668000", "092507.670000", "092507.673000", "092507.675000", "092507.677000", "092507.680000", "092507.682000", "092507.684000", "092507.686000", "092507.689000", "092547.645000", "092547.648000", "092547.650000", "092547.652000", "092547.655000", "092547.657000", "092547.659000", "092547.662000", "092547.664000", "092547.666000", "092547.668000", "092547.671000", "092547.673000", "092547.675000", "092547.677000", "092547.680000", "092547.682000", "092547.684000", "092547.686000", "092547.689000", "092627.645000", "092627.648000", "092627.650000", "092627.652000", "092627.655000", "092627.657000", "092627.659000", "092627.661000", "092627.664000", "092627.666000", "092627.668000", "092627.671000", "092627.673000", "092627.675000", "092627.678000", "092627.680000", "092627.682000", "092627.684000", "092627.687000", "092627.689000", "092633.451000", "092633.454000", "092633.456000"],
      "InstanceCreationTime": ["092027.650000", "092027.653000", "092027.655000", "092027.657000", "092027.660000", "092027.662000", "092027.664000", "092027.667000", "092027.669000", "092027.671000", "092027.673000", "092027.676000", "092027.678000", "092027.680000", "092027.682000", "092027.685000", "092027.687000", "092107.645000", "092107.648000", "092107.650000", "092107.652000", "092107.655000", "092107.657000", "092107.659000", "092107.662000", "092107.664000", "092107.666000", "092107.668000", "092107.671000", "092107.673000", "092107.675000", "092107.678000", "092107.680000", "092107.682000", "092107.685000", "092107.687000", "092107.689000", "092147.645000", "092147.648000", "092147.650000", "092147.652000", "092147.655000", "092147.657000", "092147.659000", "092147.662000", "092147.664000", "092147.666000", "092147.668000", "092147.671000", "092147.673000", "092147.675000", "092147.678000", "092147.680000", "092147.682000", "092147.684000", "092147.687000", "092147.689000", "092227.645000", "092227.648000", "092227.650000", "092227.652000", "092227.654000", "092227.657000", "092227.659000", "092227.661000", "092227.664000", "092227.666000", "092227.669000", "092227.671000", "092227.673000", "092227.675000", "092227.678000", "092227.680000", "092227.682000", "092227.685000", "092227.687000", "092227.689000", "092307.645000", "092307.648000", "092307.650000", "092307.652000", "092307.655000", "092307.657000", "092307.659000", "092307.662000", "092307.664000", "092307.666000", "092307.668000", "092307.671000", "092307.673000", "092307.675000", "092307.678000", "092307.680000", "092307.682000", "092307.684000", "092307.687000", "092307.689000", "092347.645000", "092347.648000", "092347.650000", "092347.652000", "092347.655000", "092347.657000", "092347.659000", "092347.661000", "092347.664000", "092347.666000", "092347.668000", "092347.671000", "092347.673000", "092347.675000", "092347.677000", "092347.680000", "092347.682000", "092347.684000", "092347.686000", "092347.689000", "092427.644000", "092427.647000", "092427.649000", "092427.651000", "092427.653000", "092427.656000", "092427.658000", "092427.660000", "092427.663000", "092427.665000", "092427.667000", "092427.670000", "092427.672000", "092427.674000", "092427.677000", "092427.679000", "092427.681000", "092427.683000", "092427.686000", "092427.688000", "092507.645000", "092507.648000", "092507.650000", "092507.652000", "092507.654000", "092507.657000", "092507.659000", "092507.661000", "092507.664000", "092507.666000", "092507.668000", "092507.670000", "092507.673000", "092507.675000", "092507.677000", "092507.680000", "092507.682000", "092507.684000", "092507.686000", "092507.689000", "092547.645000", "092547.648000", "092547.650000", "092547.652000", "092547.655000", "092547.657000", "092547.659000", "092547.662000", "092547.664000", "092547.666000", "092547.668000", "092547.671000", "092547.673000", "092547.675000", "092547.677000", "092547.680000", "092547.682000", "092547.684000", "092547.686000", "092547.689000", "092627.645000", "092627.648000", "092627.650000", "092627.652000", "092627.655000", "092627.657000", "092627.659000", "092627.661000", "092627.664000", "092627.666000", "092627.668000", "092627.671000", "092627.673000", "092627.675000", "092627.678000", "092627.680000", "092627.682000", "092627.684000", "092627.687000", "092627.689000", "092633.451000", "092633.454000", "092633.456000"],
      "InstanceNumber": [1, 2, 3, 4, 5, 6, 7, 8, 9, 10, 11, 12, 13, 14, 15, 16, 17, 18, 19, 20, 21, 22, 23, 24, 25, 26, 27, 28, 29, 30, 31, 32, 33, 34, 35, 36, 37, 38, 39, 40, 41, 42, 43, 44, 45, 46, 47, 48, 49, 50, 51, 52, 53, 54, 55, 56, 57, 58, 59, 60, 61, 62, 63, 64, 65, 66, 67, 68, 69, 70, 71, 72, 73, 74, 75, 76, 77, 78, 79, 80, 81, 82, 83, 84, 85, 86, 87, 88, 89, 90, 91, 92, 93, 94, 95, 96, 97, 98, 99, 100, 101, 102, 103, 104, 105, 106, 107, 108, 109, 110, 111, 112, 113, 114, 115, 116, 117, 118, 119, 120, 121, 122, 123, 124, 125, 126, 127, 128, 129, 130, 131, 132, 133, 134, 135, 136, 137, 138, 139, 140, 141, 142, 143, 144, 145, 146, 147, 148, 149, 150, 151, 152, 153, 154, 155, 156, 157, 158, 159, 160, 161, 162, 163, 164, 165, 166, 167, 168, 169, 170, 171, 172, 173, 174, 175, 176, 177, 178, 179, 180, 181, 182, 183, 184, 185, 186, 187, 188, 189, 190, 191, 192, 193, 194, 195, 196, 197, 198, 199, 200],
      "LargestImagePixelValue": [366, 368, 368, 367, 371, 370, 370, 371, 368, 368, 367, 367, 371, 367, 368, 366, 366, 369, 371, 368, 370, 371, 368, 367, 367, 366, 367, 372, 368, 366, 367, 372, 366, 369, 368, 366, 369, 368, 367, 373, 366, 367, 367, 366, 372, 366, 370, 368, 367, 367, 368, 369, 367, 370, 367, 368, 366, 365, 367, 367, 368, 366, 369, 369, 368, 369, 370, 366, 366, 366, 366, 368, 368, 371, 368, 367, 366, 366, 368, 365, 367, 368, 365, 366, 367, 366, 367, 367, 366, 367, 367, 369, 366, 368, 366, 366, 366, 366, 370, 368, 370, 365, 367, 367, 367, 369, 366, 366, 365, 367, 367, 368, 367, 367, 369, 366, 371, 366, 366, 368, 368, 365, 369, 367, 367, 366, 365, 366, 366, 370, 366, 366, 366, 364, 366, 365, 368, 366, 368, 365, 366, 367, 366, 367, 365, 366, 366, 367, 366, 367, 365, 369, 371, 368, 367, 365, 366, 366, 365, 367, 366, 369, 369, 364, 367, 366, 369, 369, 366, 366, 369, 366, 365, 372, 366, 366, 368, 369, 367, 368, 366, 366, 369, 369, 368, 365, 367, 366, 370, 367, 366, 365, 366, 369, 364, 366, 368, 366, 365, 366],
      "WindowCenter": [304.0, 304.0, 304.0, 303.0, 304.0, 304.0, 304.0, 304.0, 303.0, 304.0, 303.0, 303.0, 304.0, 304.0, 304.0, 303.0, 303.0, 304.0, 304.0, 304.0, 304.0, 304.0, 304.0, 304.0, 303.0, 303.0, 304.0, 304.0, 303.0, 304.0, 303.0, 304.0, 303.0, 303.0, 304.0, 303.0, 303.0, 303.0, 303.0, 304.0, 304.0, 304.0, 303.0, 304.0, 304.0, 303.0, 304.0, 303.0, 304.0, 303.0, 304.0, 304.0, 303.0, 304.0, 303.0, 304.0, 304.0, 303.0, 304.0, 303.0, 303.0, 303.0, 303.0, 303.0, 304.0, 303.0, 304.0, 303.0, 303.0, 303.0, 304.0, 304.0, 303.0, 303.0, 303.0, 303.0, 303.0, 303.0, 304.0, 303.0, 303.0, 304.0, 304.0, 303.0, 303.0, 303.0, 304.0, 303.0, 303.0, 303.0, 303.0, 303.0, 303.0, 303.0, 303.0, 303.0, 303.0, 303.0, 303.0, 303.0, 303.0, 303.0, 303.0, 303.0, 303.0, 303.0, 303.0, 303.0, 303.0, 303.0, 303.0, 303.0, 303.0, 303.0, 303.0, 303.0, 303.0, 303.0, 303.0, 303.0, 303.0, 303.0, 303.0, 303.0, 303.0, 303.0, 303.0, 303.0, 303.0, 303.0, 303.0, 303.0, 303.0, 303.0, 303.0, 303.0, 303.0, 303.0, 303.0, 303.0, 303.0, 302.0, 303.0, 303.0, 303.0, 303.0, 303.0, 303.0, 303.0, 303.0, 303.0, 303.0, 303.0, 303.0, 303.0, 303.0, 302.0, 303.0, 302.0, 303.0, 303.0, 303.0, 303.0, 303.0, 303.0, 303.0, 302.0, 303.0, 303.0, 302.0, 303.0, 302.0, 303.0, 303.0, 303.0, 302.0, 303.0, 303.0, 303.0, 303.0, 303.0, 302.0, 302.0, 303.0, 302.0, 303.0, 303.0, 302.0, 303.0, 303.0, 302.0, 303.0, 303.0, 303.0, 302.0, 303.0, 303.0, 303.0, 302.0, 302.0],
      "WindowWidth": [657.0, 657.0, 657.0, 657.0, 658.0, 658.0, 658.0, 658.0, 657.0, 657.0, 657.0, 657.0, 658.0, 657.0, 657.0, 657.0, 657.0, 657.0, 658.0, 657.0, 658.0, 658.0, 657.0, 657.0, 657.0, 657.0, 657.0, 658.0, 657.0, 657.0, 657.0, 658.0, 657.0, 657.0, 657.0, 657.0, 657.0, 657.0, 657.0, 658.0, 657.0, 657.0, 657.0, 657.0, 658.0, 657.0, 658.0, 657.0, 657.0, 657.0, 657.0, 657.0, 657.0, 657.0, 657.0, 657.0, 657.0, 656.0, 657.0, 657.0, 657.0, 657.0, 657.0, 657.0, 657.0, 657.0, 658.0, 657.0, 657.0, 656.0, 657.0, 657.0, 657.0, 656.0, 657.0, 657.0, 656.0, 657.0, 657.0, 657.0, 657.0, 657.0, 657.0, 657.0, 657.0, 656.0, 657.0, 657.0, 657.0, 656.0, 656.0, 657.0, 656.0, 656.0, 656.0, 657.0, 656.0, 656.0, 656.0, 656.0, 657.0, 656.0, 656.0, 657.0, 656.0, 656.0, 655.0, 656.0, 656.0, 656.0, 655.0, 656.0, 657.0, 655.0, 656.0, 656.0, 656.0, 656.0, 656.0, 656.0, 657.0, 656.0, 656.0, 656.0, 656.0, 656.0, 656.0, 656.0, 656.0, 656.0, 656.0, 656.0, 656.0, 656.0, 655.0, 656.0, 655.0, 656.0, 655.0, 655.0, 656.0, 655.0, 655.0, 656.0, 656.0, 656.0, 656.0, 656.0, 656.0, 655.0, 655.0, 655.0, 657.0, 655.0, 655.0, 655.0, 655.0, 655.0, 655.0, 656.0, 655.0, 655.0, 656.0, 655.0, 655.0, 655.0, 655.0, 655.0, 656.0, 655.0, 655.0, 655.0, 655.0, 656.0, 655.0, 655.0, 656.0, 655.0, 655.0, 655.0, 655.0, 655.0, 655.0, 655.0, 655.0, 655.0, 655.0, 655.0, 656.0, 655.0, 655.0, 655.0, 655.0, 655.0, 655.0, 655.0, 656.0, 655.0, 655.0, 655.0]
    },
    "slices": {}
  }
}