{
  "AcquisitionMatrixPE": 122,
  "AcquisitionNumber": 1,
  "AcquisitionTime": "09:39:0.207500",
  "BandwidthPerPixelPhaseEncode": 28.76,
  "BaseResolution": 122,
  "BodyPartExamined": "BRAIN",
  "CoilCombinationMethod": "Adaptive Combine",
  "ConsistencyInfo": "N4_VE11C_LATEST_20160120",
  "ConversionSoftware": "dcm2niix",
  "ConversionSoftwareVersion": "v1.0.20220720",
  "DerivedVendorReportedEchoSpacing": 0.000570008,
  "DeviceSerialNumber": "66112",
  "DiffusionScheme": "Monopolar",
  "DwellTime": 2e-06,
  "EchoTime": 0.075,
  "EchoTrainLength": 61,
  "EffectiveEchoSpacing": 0.000285004,
  "FlipAngle": 90,
  "HeudiconvVersion": "0.13.1",
  "ImageOrientationPatientDICOM": [0.98021, -0.197952, 0.00171403, 0.188049, 0.933812, 0.304357],
  "ImageOrientationText": "Tra>Cor(17.4)>Sag(3.5)",
  "ImageType": [
    "ORIGINAL",
    "PRIMARY",
    "DIFFUSION",
    "NONE",
    "ND",
    "NORM"
],
  "ImagingFrequency": 123.252,
  "InPlanePhaseEncodingDirectionDICOM": "COL",
  "InstitutionAddress": "Maynard 3,Hanover,NH,US,03755",
  "InstitutionName": "Dartmouth College - PBS",
  "InstitutionalDepartmentName": "Department",
  "MRAcquisitionType": "2D",
  "MagneticFieldStrength": 3,
  "Manufacturer": "Siemens",
  "ManufacturersModelName": "Prisma",
  "MatrixCoilMode": "GRAPPA",
  "Modality": "MR",
  "NonlinearGradientCorrection": false,
  "ParallelReductionFactorInPlane": 2,
  "PartialFourier": 1,
  "PatientPosition": "HFS",
  "PercentPhaseFOV": 100,
  "PercentSampling": 100,
  "PhaseEncodingDirection": "j-",
  "PhaseEncodingSteps": 122,
  "PhaseResolution": 1,
  "PixelBandwidth": 2050,
  "ProcedureStepDescription": "dbic^QA",
  "ProtocolName": "dwi_acq-DTI-30-p2",
  "PulseSequenceDetails": "%SiemensSeq%\\ep2d_diff",
  "ReceiveCoilActiveElements": "HEA;HEP",
  "ReceiveCoilName": "Head_32",
  "ReconMatrixPE": 122,
  "RefLinesPE": 38,
  "RepetitionTime": 7.7,
  "SAR": 0.101492,
  "ScanOptions": "FS",
  "ScanningSequence": "EP",
  "SequenceName": "*ep_b0",
  "SequenceVariant": "SK\\SP",
  "SeriesDescription": "dwi_acq-DTI-30-p2",
  "SeriesNumber": 8,
  "ShimSetting": [4164, -7706, -7514, 290, -80, -115, -106, 211],
  "SliceThickness": 2,
  "SliceTiming": [3.84375, 0, 3.95312, 0.10938, 4.05469, 0.21875, 4.16406, 0.32812, 4.28125, 0.4375, 4.39062, 0.54688, 4.5, 0.65625, 4.60938, 0.76562, 4.71875, 0.875, 4.82812, 0.98438, 4.9375, 1.10156, 5.04688, 1.20312, 5.15625, 1.3125, 5.26562, 1.42188, 5.375, 1.53906, 5.48438, 1.64844, 5.59375, 1.75781, 5.70312, 1.86719, 5.8125, 1.97656, 5.92188, 2.08594, 6.03125, 2.19531, 6.14062, 2.30469, 6.25, 2.41406, 6.35938, 2.52344, 6.47656, 2.63281, 6.58594, 2.74219, 6.69531, 2.85156, 6.80469, 2.96094, 6.91406, 3.07031, 7.02344, 3.17969, 7.13281, 3.28906, 7.24219, 3.39844, 7.35156, 3.50781, 7.46094, 3.61719, 7.57031, 3.72656],
  "SoftwareVersions": "syngo MR E11",
  "SpacingBetweenSlices": 2,
  "SpoilingState": true,
  "StationName": "AWP66112",
  "TotalReadoutTime": 0.0344855,
  "TxRefAmp": 223.066,
  "dcmmeta_affine": [
    [-1.928282618522644, 0.3699328601360321, 0.12369704246520996, 86.49746704101562],
    [0.3894128203392029, 1.8370065689086914, 0.5960235595703125, -148.09385681152344],
    [0.003371862694621086, -0.5987352728843689, 1.9051132202148438, -34.826438903808594],
    [0.0, 0.0, 0.0, 1.0]
],
  "dcmmeta_reorient_transform": [
    [0.0, -1.0, 0.0, 121.0],
    [1.0, 0.0, 0.0, 0.0],
    [0.0, 0.0, -1.0, 69.0],
    [0.0, 0.0, 0.0, 1.0]
],
  "dcmmeta_shape": [122, 122, 70, 31],
  "dcmmeta_slice_dim": 2,
  "dcmmeta_version": 0.6,
  "global": {
    "const": {
      "AccessionNumber": "qa",
      "AcquisitionMatrix": [122, 0, 0, 122],
      "AngioFlag": "N",
      "BitsAllocated": 16,
      "BitsStored": 12,
      "BodyPartExamined": "BRAIN",
      "Columns": 122,
      "EchoNumbers": 1,
      "EchoTime": 75.0,
      "EchoTrainLength": 61,
      "FlipAngle": 90.0,
      "HighBit": 11,
      "ImageOrientationPatient": [0.98021031440403, -0.1979515133471, 0.00171403020297, 0.18804919287093, 0.93381168246378, 0.30435709742793],
      "ImageType": [
        "ORIGINAL",
        "PRIMARY",
        "DIFFUSION",
        "NONE",
        "ND",
        "NORM"
],
      "ImagedNucleus": "1H",
      "ImagingFrequency": 123.252498,
      "InPlanePhaseEncodingDirection": "COL",
      "MRAcquisitionType": "2D",
      "MagneticFieldStrength": 3.0,
      "Manufacturer": "SIEMENS",
      "ManufacturerModelName": "Prisma",
      "Modality": "MR",
      "NumberOfAverages": 1.0,
      "NumberOfPhaseEncodingSteps": 122,
      "PercentPhaseFieldOfView": 100.0,
      "PercentSampling": 100.0,
      "PerformedProcedureStepStartTime": "092143.629000",
      "PhotometricInterpretation": "MONOCHROME2",
      "PixelBandwidth": 2050.0,
      "PixelRepresentation": 0,
      "PixelSpacing": [1.9672131538391, 1.9672131538391],
      "ProtocolName": "dwi_acq-DTI-30-p2",
      "RepetitionTime": 7700.0,
      "Rows": 122,
      "SAR": 0.1014918288645,
      "SamplesPerPixel": 1,
      "ScanOptions": "FS",
      "ScanningSequence": "EP",
      "SequenceVariant": [
        "SK",
        "SP"
],
      "SeriesDescription": "dwi_acq-DTI-30-p2",
      "SeriesNumber": 8,
      "SeriesTime": "093902.878000",
      "SliceThickness": 2.0,
      "SmallestImagePixelValue": 0,
      "SoftwareVersions": "syngo MR E11",
      "SpacingBetweenSlices": 2.0,
      "SpecificCharacterSet": "ISO_IR 100",
      "StudyID": "80",
      "StudyTime": "092143.451000",
      "TransmitCoilName": "Body",
      "VariableFlipAngleFlag": "N",
      "WindowCenterWidthExplanation": "Algo1",
      "dBdt": 0.0},
    "slices": {
      "AcquisitionTime": ["093900.207500", "093856.367500", "093900.317500", "093856.477500", "093900.425000", "093856.587500", "093900.535000", "093856.695000", "093900.645000", "093856.805000", "093900.755000", "093856.915000", "093900.865000", "093857.025000", "093900.975000", "093857.135000", "093901.085000", "093857.245000", "093901.195000", "093857.355000", "093901.305000", "093857.465000", "093901.412500", "093857.572500", "093901.522500", "093857.682500", "093901.632500", "093857.792500", "093901.742500", "093857.902500", "093901.852500", "093858.012500", "093901.962500", "093858.122500", "093902.072500", "093858.232500", "093902.182500", "093858.342500", "093902.290000", "093858.452500", "093902.400000", "093858.560000", "093902.510000", "093858.670000", "093902.620000", "093858.780000", "093902.730000", "093858.890000", "093902.840000", "093859.000000", "093902.950000", "093859.110000", "093903.060000", "093859.220000", "093903.170000", "093859.330000", "093903.277500", "093859.440000", "093903.387500", "093859.547500", "093903.497500", "093859.657500", "093903.607500", "093859.767500", "093903.717500", "093859.877500", "093903.827500", "093859.987500", "093903.937500", "093900.097500", "093907.907500", "093904.067500", "093908.017500", "093904.177500", "093908.125000", "093904.287500", "093908.235000", "093904.395000", "093908.345000", "093904.505000", "093908.455000", "093904.615000", "093908.565000", "093904.725000", "093908.675000", "093904.835000", "093908.785000", "093904.945000", "093908.895000", "093905.055000", "093909.005000", "093905.165000", "093909.112500", "093905.272500", "093909.222500", "093905.382500", "093909.332500", "093905.492500", "093909.442500", "093905.602500", "093909.552500", "093905.712500", "093909.662500", "093905.822500", "093909.772500", "093905.932500", "093909.882500", "093906.042500", "093909.990000", "093906.152500", "093910.100000", "093906.260000", "093910.210000", "093906.370000", "093910.320000", "093906.480000", "093910.430000", "093906.590000", "093910.540000", "093906.700000", "093910.650000", "093906.810000", "093910.760000", "093906.920000", "093910.870000", "093907.030000", "093910.977500", "093907.140000", "093911.087500", "093907.247500", "093911.197500", "093907.357500", "093911.307500", "093907.467500", "093911.417500", "093907.577500", "093911.527500", "093907.687500", "093911.637500", "093907.797500", "093915.607500", "093911.767500", "093915.717500", "093911.877500", "093915.825000", "093911.987500", "093915.935000", "093912.095000", "093916.045000", "093912.205000", "093916.155000", "093912.315000", "093916.265000", "093912.425000", "093916.375000", "093912.535000", "093916.485000", "093912.645000", "093916.595000", "093912.755000", "093916.705000", "093912.865000", "093916.812500", "093912.972500", "093916.922500", "093913.082500", "093917.032500", "093913.192500", "093917.142500", "093913.302500", "093917.252500", "093913.412500", "093917.362500", "093913.522500", "093917.472500", "093913.632500", "093917.582500", "093913.742500", "093917.690000", "093913.852500", "093917.800000", "093913.960000", "093917.910000", "093914.070000", "093918.020000", "093914.180000", "093918.130000", "093914.290000", "093918.240000", "093914.400000", "093918.350000", "093914.510000", "093918.460000", "093914.620000", "093918.570000", "093914.730000", "093918.677500", "093914.840000", "093918.787500", "093914.947500", "093918.897500", "093915.057500", "093919.007500", "093915.167500", "093919.117500", "093915.277500", "093919.227500", "093915.387500", "093919.337500", "093915.497500", "093923.307500", "093919.467500", "093923.417500", "093919.577500", "093923.525000", "093919.687500", "093923.635000", "093919.795000", "093923.745000", "093919.905000", "093923.855000", "093920.015000", "093923.965000", "093920.125000", "093924.075000", "093920.235000", "093924.185000", "093920.345000", "093924.295000", "093920.455000", "093924.405000", "093920.565000", "093924.512500", "093920.672500", "093924.622500", "093920.782500", "093924.732500", "093920.892500", "093924.842500", "093921.002500", "093924.952500", "093921.112500", "093925.062500", "093921.222500", "093925.172500", "093921.332500", "093925.282500", "093921.442500", "093925.390000", "093921.552500", "093925.500000", "093921.660000", "093925.610000", "093921.770000", "093925.720000", "093921.880000", "093925.830000", "093921.990000", "093925.940000", "093922.100000", "093926.050000", "093922.210000", "093926.160000", "093922.320000", "093926.270000", "093922.430000", "093926.377500", "093922.540000", "093926.487500", "093922.647500", "093926.597500", "093922.757500", "093926.707500", "093922.867500", "093926.817500", "093922.977500", "093926.927500", "093923.087500", "093927.037500", "093923.197500", "093931.007500", "093927.167500", "093931.117500", "093927.277500", "093931.225000", "093927.387500", "093931.335000", "093927.495000", "093931.445000", "093927.605000", "093931.555000", "093927.715000", "093931.665000", "093927.825000", "093931.775000", "093927.935000", "093931.885000", "093928.045000", "093931.995000", "093928.155000", "093932.105000", "093928.265000", "093932.212500", "093928.372500", "093932.322500", "093928.482500", "093932.432500", "093928.592500", "093932.542500", "093928.702500", "093932.652500", "093928.812500", "093932.762500", "093928.922500", "093932.872500", "093929.032500", "093932.982500", "093929.142500", "093933.090000", "093929.252500", "093933.200000", "093929.360000", "093933.310000", "093929.470000", "093933.420000", "093929.580000", "093933.530000", "093929.690000", "093933.640000", "093929.800000", "093933.750000", "093929.910000", "093933.860000", "093930.020000", "093933.970000", "093930.130000", "093934.077500", "093930.240000", "093934.187500", "093930.347500", "093934.297500", "093930.457500", "093934.407500", "093930.567500", "093934.517500", "093930.677500", "093934.627500", "093930.787500", "093934.737500", "093930.897500", "093938.707500", "093934.867500", "093938.817500", "093934.977500", "093938.925000", "093935.087500", "093939.035000", "093935.195000", "093939.145000", "093935.305000", "093939.255000", "093935.415000", "093939.365000", "093935.525000", "093939.475000", "093935.635000", "093939.585000", "093935.745000", "093939.695000", "093935.855000", "093939.805000", "093935.965000", "093939.912500", "093936.072500", "093940.022500", "093936.182500", "093940.132500", "093936.292500", "093940.242500", "093936.402500", "093940.352500", "093936.512500", "093940.462500", "093936.622500", "093940.572500", "093936.732500", "093940.682500", "093936.842500", "093940.790000", "093936.952500", "093940.900000", "093937.060000", "093941.010000", "093937.170000", "093941.120000", "093937.280000", "093941.230000", "093937.390000", "093941.340000", "093937.500000", "093941.450000", "093937.610000", "093941.560000", "093937.720000", "093941.670000", "093937.830000", "093941.777500", "093937.940000", "093941.887500", "093938.047500", "093941.997500", "093938.157500", "093942.107500", "093938.267500", "093942.217500", "093938.377500", "093942.327500", "093938.487500", "093942.437500", "093938.597500", "093946.407500", "093942.567500", "093946.517500", "093942.677500", "093946.625000", "093942.787500", "093946.735000", "093942.895000", "093946.845000", "093943.005000", "093946.955000", "093943.115000", "093947.065000", "093943.225000", "093947.175000", "093943.335000", "093947.285000", "093943.445000", "093947.395000", "093943.555000", "093947.505000", "093943.665000", "093947.612500", "093943.772500", "093947.722500", "093943.882500", "093947.832500", "093943.992500", "093947.942500", "093944.102500", "093948.052500", "093944.212500", "093948.162500", "093944.322500", "093948.272500", "093944.432500", "093948.382500", "093944.542500", "093948.490000", "093944.652500", "093948.600000", "093944.760000", "093948.710000", "093944.870000", "093948.820000", "093944.980000", "093948.930000", "093945.090000", "093949.040000", "093945.200000", "093949.150000", "093945.310000", "093949.260000", "093945.420000", "093949.370000", "093945.530000", "093949.477500", "093945.640000", "093949.587500", "093945.747500", "093949.697500", "093945.857500", "093949.807500", "093945.967500", "093949.917500", "093946.077500", "093950.027500", "093946.187500", "093950.137500", "093946.297500", "093954.107500", "093950.267500", "093954.217500", "093950.377500", "093954.325000", "093950.487500", "093954.435000", "093950.595000", "093954.545000", "093950.705000", "093954.655000", "093950.815000", "093954.765000", "093950.925000", "093954.875000", "093951.035000", "093954.985000", "093951.145000", "093955.095000", "093951.255000", "093955.205000", "093951.365000", "093955.312500", "093951.472500", "093955.422500", "093951.582500", "093955.532500", "093951.692500", "093955.642500", "093951.802500", "093955.752500", "093951.912500", "093955.862500", "093952.022500", "093955.972500", "093952.132500", "093956.082500", "093952.242500", "093956.190000", "093952.352500", "093956.300000", "093952.460000", "093956.410000", "093952.570000", "093956.520000", "093952.680000", "093956.630000", "093952.790000", "093956.740000", "093952.900000", "093956.850000", "093953.010000", "093956.960000", "093953.120000", "093957.070000", "093953.230000", "093957.177500", "093953.340000", "093957.287500", "093953.447500", "093957.397500", "093953.557500", "093957.507500", "093953.667500", "093957.617500", "093953.777500", "093957.727500", "093953.887500", "093957.837500", "093953.997500", "094001.807500", "093957.967500", "094001.917500", "093958.077500", "094002.025000", "093958.187500", "094002.135000", "093958.295000", "094002.245000", "093958.405000", "094002.355000", "093958.515000", "094002.465000", "093958.625000", "094002.575000", "093958.735000", "094002.685000", "093958.845000", "094002.795000", "093958.955000", "094002.905000", "093959.065000", "094003.012500", "093959.172500", "094003.122500", "093959.282500", "094003.232500", "093959.392500", "094003.342500", "093959.502500", "094003.452500", "093959.612500", "094003.562500", "093959.722500", "094003.672500", "093959.832500", "094003.782500", "093959.942500", "094003.890000", "094000.052500", "094004.000000", "094000.160000", "094004.110000", "094000.270000", "094004.220000", "094000.380000", "094004.330000", "094000.490000", "094004.440000", "094000.600000", "094004.550000", "094000.710000", "094004.660000", "094000.820000", "094004.770000", "094000.930000", "094004.877500", "094001.040000", "094004.987500", "094001.147500", "094005.097500", "094001.257500", "094005.207500", "094001.367500", "094005.317500", "094001.477500", "094005.427500", "094001.587500", "094005.537500", "094001.697500", "094009.507500", "094005.667500", "094009.617500", "094005.777500", "094009.725000", "094005.887500", "094009.835000", "094005.995000", "094009.945000", "094006.105000", "094010.055000", "094006.215000", "094010.165000", "094006.325000", "094010.275000", "094006.435000", "094010.385000", "094006.545000", "094010.495000", "094006.655000", "094010.605000", "094006.765000", "094010.712500", "094006.872500", "094010.822500", "094006.982500", "094010.932500", "094007.092500", "094011.042500", "094007.202500", "094011.152500", "094007.312500", "094011.262500", "094007.422500", "094011.372500", "094007.532500", "094011.482500", "094007.642500", "094011.590000", "094007.752500", "094011.700000", "094007.860000", "094011.810000", "094007.970000", "094011.920000", "094008.080000", "094012.030000", "094008.190000", "094012.140000", "094008.300000", "094012.250000", "094008.410000", "094012.360000", "094008.520000", "094012.470000", "094008.630000", "094012.577500", "094008.740000", "094012.687500", "094008.847500", "094012.797500", "094008.957500", "094012.907500", "094009.067500", "094013.017500", "094009.177500", "094013.127500", "094009.287500", "094013.237500", "094009.397500", "094017.207500", "094013.367500", "094017.317500", "094013.477500", "094017.425000", "094013.587500", "094017.535000", "094013.695000", "094017.645000", "094013.805000", "094017.755000", "094013.915000", "094017.865000", "094014.025000", "094017.975000", "094014.135000", "094018.085000", "094014.245000", "094018.195000", "094014.355000", "094018.305000", "094014.465000", "094018.412500", "094014.572500", "094018.522500", "094014.682500", "094018.632500", "094014.792500", "094018.742500", "094014.902500", "094018.852500", "094015.012500", "094018.962500", "094015.122500", "094019.072500", "094015.232500", "094019.182500", "094015.342500", "094019.290000", "094015.452500", "094019.400000", "094015.560000", "094019.510000", "094015.670000", "094019.620000", "094015.780000", "094019.730000", "094015.890000", "094019.840000", "094016.000000", "094019.950000", "094016.110000", "094020.060000", "094016.220000", "094020.170000", "094016.330000", "094020.277500", "094016.440000", "094020.387500", "094016.547500", "094020.497500", "094016.657500", "094020.607500", "094016.767500", "094020.717500", "094016.877500", "094020.827500", "094016.987500", "094020.937500", "094017.097500", "094024.907500", "094021.067500", "094025.017500", "094021.177500", "094025.125000", "094021.287500", "094025.235000", "094021.395000", "094025.345000", "094021.505000", "094025.455000", "094021.615000", "094025.565000", "094021.725000", "094025.675000", "094021.835000", "094025.785000", "094021.945000", "094025.895000", "094022.055000", "094026.005000", "094022.165000", "094026.112500", "094022.272500", "094026.222500", "094022.382500", "094026.332500", "094022.492500", "094026.442500", "094022.602500", "094026.552500", "094022.712500", "094026.662500", "094022.822500", "094026.772500", "094022.932500", "094026.882500", "094023.042500", "094026.990000", "094023.152500", "094027.100000", "094023.260000", "094027.210000", "094023.370000", "094027.320000", "094023.480000", "094027.430000", "094023.590000", "094027.540000", "094023.700000", "094027.650000", "094023.810000", "094027.760000", "094023.920000", "094027.870000", "094024.030000", "094027.977500", "094024.140000", "094028.087500", "094024.247500", "094028.197500", "094024.357500", "094028.307500", "094024.467500", "094028.417500", "094024.577500", "094028.527500", "094024.687500", "094028.637500", "094024.797500", "094032.607500", "094028.767500", "094032.717500", "094028.877500", "094032.825000", "094028.987500", "094032.935000", "094029.095000", "094033.045000", "094029.205000", "094033.155000", "094029.315000", "094033.265000", "094029.425000", "094033.375000", "094029.535000", "094033.485000", "094029.645000", "094033.595000", "094029.755000", "094033.705000", "094029.865000", "094033.812500", "094029.972500", "094033.922500", "094030.082500", "094034.032500", "094030.192500", "094034.142500", "094030.302500", "094034.252500", "094030.412500", "094034.362500", "094030.522500", "094034.472500", "094030.632500", "094034.582500", "094030.742500", "094034.690000", "094030.852500", "094034.800000", "094030.960000", "094034.910000", "094031.070000", "094035.020000", "094031.180000", "094035.130000", "094031.290000", "094035.240000", "094031.400000", "094035.350000", "094031.510000", "094035.460000", "094031.620000", "094035.570000", "094031.730000", "094035.677500", "094031.840000", "094035.787500", "094031.947500", "094035.897500", "094032.057500", "094036.007500", "094032.167500", "094036.117500", "094032.277500", "094036.227500", "094032.387500", "094036.337500", "094032.497500", "094040.307500", "094036.467500", "094040.417500", "094036.577500", "094040.525000", "094036.687500", "094040.635000", "094036.795000", "094040.745000", "094036.905000", "094040.855000", "094037.015000", "094040.965000", "094037.125000", "094041.075000", "094037.235000", "094041.185000", "094037.345000", "094041.295000", "094037.455000", "094041.405000", "094037.565000", "094041.512500", "094037.672500", "094041.622500", "094037.782500", "094041.732500", "094037.892500", "094041.842500", "094038.002500", "094041.952500", "094038.112500", "094042.062500", "094038.222500", "094042.172500", "094038.332500", "094042.282500", "094038.442500", "094042.390000", "094038.552500", "094042.500000", "094038.660000", "094042.610000", "094038.770000", "094042.720000", "094038.880000", "094042.830000", "094038.990000", "094042.940000", "094039.100000", "094043.050000", "094039.210000", "094043.160000", "094039.320000", "094043.270000", "094039.430000", "094043.377500", "094039.540000", "094043.487500", "094039.647500", "094043.597500", "094039.757500", "094043.707500", "094039.867500", "094043.817500", "094039.977500", "094043.927500", "094040.087500", "094044.037500", "094040.197500", "094048.007500", "094044.167500", "094048.117500", "094044.277500", "094048.225000", "094044.387500", "094048.335000", "094044.495000", "094048.445000", "094044.605000", "094048.555000", "094044.715000", "094048.665000", "094044.825000", "094048.775000", "094044.935000", "094048.885000", "094045.045000", "094048.995000", "094045.155000", "094049.105000", "094045.265000", "094049.212500", "094045.372500", "094049.322500", "094045.482500", "094049.432500", "094045.592500", "094049.542500", "094045.702500", "094049.652500", "094045.812500", "094049.762500", "094045.922500", "094049.872500", "094046.032500", "094049.982500", "094046.142500", "094050.090000", "094046.252500", "094050.200000", "094046.360000", "094050.310000", "094046.470000", "094050.420000", "094046.580000", "094050.530000", "094046.690000", "094050.640000", "094046.800000", "094050.750000", "094046.910000", "094050.860000", "094047.020000", "094050.970000", "094047.130000", "094051.077500", "094047.240000", "094051.187500", "094047.347500", "094051.297500", "094047.457500", "094051.407500", "094047.567500", "094051.517500", "094047.677500", "094051.627500", "094047.787500", "094051.737500", "094047.897500", "094055.707500", "094051.867500", "094055.817500", "094051.977500", "094055.925000", "094052.087500", "094056.035000", "094052.195000", "094056.145000", "094052.305000", "094056.255000", "094052.415000", "094056.365000", "094052.525000", "094056.475000", "094052.635000", "094056.585000", "094052.745000", "094056.695000", "094052.855000", "094056.805000", "094052.965000", "094056.912500", "094053.072500", "094057.022500", "094053.182500", "094057.132500", "094053.292500", "094057.242500", "094053.402500", "094057.352500", "094053.512500", "094057.462500", "094053.622500", "094057.572500", "094053.732500", "094057.682500", "094053.842500", "094057.790000", "094053.952500", "094057.900000", "094054.060000", "094058.010000", "094054.170000", "094058.120000", "094054.280000", "094058.230000", "094054.390000", "094058.340000", "094054.500000", "094058.450000", "094054.610000", "094058.560000", "094054.720000", "094058.670000", "094054.830000", "094058.777500", "094054.940000", "094058.887500", "094055.047500", "094058.997500", "094055.157500", "094059.107500", "094055.267500", "094059.217500", "094055.377500", "094059.327500", "094055.487500", "094059.437500", "094055.597500", "094103.407500", "094059.567500", "094103.517500", "094059.677500", "094103.625000", "094059.787500", "094103.735000", "094059.895000", "094103.845000", "094100.005000", "094103.955000", "094100.115000", "094104.065000", "094100.225000", "094104.175000", "094100.335000", "094104.285000", "094100.445000", "094104.395000", "094100.555000", "094104.505000", "094100.665000", "094104.612500", "094100.772500", "094104.722500", "094100.882500", "094104.832500", "094100.992500", "094104.942500", "094101.102500", "094105.052500", "094101.212500", "094105.162500", "094101.322500", "094105.272500", "094101.432500", "094105.382500", "094101.542500", "094105.490000", "094101.652500", "094105.600000", "094101.760000", "094105.710000", "094101.870000", "094105.820000", "094101.980000", "094105.930000", "094102.090000", "094106.040000", "094102.200000", "094106.150000", "094102.310000", "094106.260000", "094102.420000", "094106.370000", "094102.530000", "094106.477500", "094102.640000", "094106.587500", "094102.747500", "094106.697500", "094102.857500", "094106.807500", "094102.967500", "094106.917500", "094103.077500", "094107.027500", "094103.187500", "094107.137500", "094103.297500", "094111.107500", "094107.267500", "094111.217500", "094107.377500", "094111.325000", "094107.487500", "094111.435000", "094107.595000", "094111.545000", "094107.705000", "094111.655000", "094107.815000", "094111.765000", "094107.925000", "094111.875000", "094108.035000", "094111.985000", "094108.145000", "094112.095000", "094108.255000", "094112.205000", "094108.365000", "094112.312500", "094108.472500", "094112.422500", "094108.582500", "094112.532500", "094108.692500", "094112.642500", "094108.802500", "094112.752500", "094108.912500", "094112.862500", "094109.022500", "094112.972500", "094109.132500", "094113.082500", "094109.242500", "094113.190000", "094109.352500", "094113.300000", "094109.460000", "094113.410000", "094109.570000", "094113.520000", "094109.680000", "094113.630000", "094109.790000", "094113.740000", "094109.900000", "094113.850000", "094110.010000", "094113.960000", "094110.120000", "094114.070000", "094110.230000", "094114.177500", "094110.340000", "094114.287500", "094110.447500", "094114.397500", "094110.557500", "094114.507500", "094110.667500", "094114.617500", "094110.777500", "094114.727500", "094110.887500", "094114.837500", "094110.997500", "094118.807500", "094114.967500", "094118.917500", "094115.077500", "094119.025000", "094115.187500", "094119.135000", "094115.295000", "094119.245000", "094115.405000", "094119.355000", "094115.515000", "094119.465000", "094115.625000", "094119.575000", "094115.735000", "094119.685000", "094115.845000", "094119.795000", "094115.955000", "094119.905000", "094116.065000", "094120.012500", "094116.172500", "094120.122500", "094116.282500", "094120.232500", "094116.392500", "094120.342500", "094116.502500", "094120.452500", "094116.612500", "094120.562500", "094116.722500", "094120.672500", "094116.832500", "094120.782500", "094116.942500", "094120.890000", "094117.052500", "094121.000000", "094117.160000", "094121.110000", "094117.270000", "094121.220000", "094117.380000", "094121.330000", "094117.490000", "094121.440000", "094117.600000", "094121.550000", "094117.710000", "094121.660000", "094117.820000", "094121.770000", "094117.930000", "094121.877500", "094118.040000", "094121.987500", "094118.147500", "094122.097500", "094118.257500", "094122.207500", "094118.367500", "094122.317500", "094118.477500", "094122.427500", "094118.587500", "094122.537500", "094118.697500", "094126.507500", "094122.667500", "094126.617500", "094122.777500", "094126.725000", "094122.887500", "094126.835000", "094122.995000", "094126.945000", "094123.105000", "094127.055000", "094123.215000", "094127.165000", "094123.325000", "094127.275000", "094123.435000", "094127.385000", "094123.545000", "094127.495000", "094123.655000", "094127.605000", "094123.765000", "094127.712500", "094123.872500", "094127.822500", "094123.982500", "094127.932500", "094124.092500", "094128.042500", "094124.202500", "094128.152500", "094124.312500", "094128.262500", "094124.422500", "094128.372500", "094124.532500", "094128.482500", "094124.642500", "094128.590000", "094124.752500", "094128.700000", "094124.860000", "094128.810000", "094124.970000", "094128.920000", "094125.080000", "094129.030000", "094125.190000", "094129.140000", "094125.300000", "094129.250000", "094125.410000", "094129.360000", "094125.520000", "094129.470000", "094125.630000", "094129.577500", "094125.740000", "094129.687500", "094125.847500", "094129.797500", "094125.957500", "094129.907500", "094126.067500", "094130.017500", "094126.177500", "094130.127500", "094126.287500", "094130.237500", "094126.397500", "094134.207500", "094130.367500", "094134.317500", "094130.477500", "094134.425000", "094130.587500", "094134.535000", "094130.695000", "094134.645000", "094130.805000", "094134.755000", "094130.915000", "094134.865000", "094131.025000", "094134.975000", "094131.135000", "094135.085000", "094131.245000", "094135.195000", "094131.355000", "094135.305000", "094131.465000", "094135.412500", "094131.572500", "094135.522500", "094131.682500", "094135.632500", "094131.792500", "094135.742500", "094131.902500", "094135.852500", "094132.012500", "094135.962500", "094132.122500", "094136.072500", "0