{
  "AcquisitionMatrixPE": 80,
  "AcquisitionNumber": 1,
  "AcquisitionTime": "09:53:31.132500",
  "BandwidthPerPixelPhaseEncode": 44.643,
  "BaseResolution": 80,
  "BodyPartExamined": "BRAIN",
  "CoilCombinationMethod": "Sum of Squares",
  "ConsistencyInfo": "N4_VE11C_LATEST_20160120",
  "ConversionSoftware": "dcm2niix",
  "ConversionSoftwareVersion": "v1.0.20220720",
  "DerivedVendorReportedEchoSpacing": 0.000559998,
  "DeviceSerialNumber": "66112",
  "DwellTime": 2.7e-06,
  "EchoTime": 0.035,
  "EchoTrainLength": 39,
  "EffectiveEchoSpacing": 0.000279999,
  "FlipAngle": 90,
  "HeudiconvVersion": "0.13.1",
  "ImageOrientationPatientDICOM": [0.976858, 0.213625, 0.010632, -0.206569, 0.929365, 0.305957],
  "ImageOrientationText": "Tra>Cor(17.5)>Sag(-3.2)",
  "ImageType": [
    "ORIGINAL",
    "PRIMARY",
    "M",
    "ND",
    "NORM",
    "MOSAIC"
],
  "ImagingFrequency": 123.252,
  "InPlanePhaseEncodingDirectionDICOM": "COL",
  "InstitutionAddress": "Maynard 3,Hanover,NH,US,03755",
  "InstitutionName": "Dartmouth College - PBS",
  "InstitutionalDepartmentName": "Department",
  "MRAcquisitionType": "2D",
  "MagneticFieldStrength": 3,
  "Manufacturer": "Siemens",
  "ManufacturersModelName": "Prisma",
  "Modality": "MR",
  "MultibandAccelerationFactor": 4,
  "NonlinearGradientCorrection": false,
  "ParallelReductionFactorInPlane": 2,
  "PartialFourier": 1,
  "PatientPosition": "HFS",
  "PercentPhaseFOV": 100,
  "PercentSampling": 100,
  "PhaseEncodingDirection": "j-",
  "PhaseEncodingSteps": 79,
  "PhaseResolution": 1,
  "PixelBandwidth": 2315,
  "ProcedureStepDescription": "dbic^QA",
  "ProtocolName": "func-bold_task-rest_acq-p2-s4-3.5mm",
  "PulseSequenceDetails": "%SiemensSeq%\\ep2d_bold",
  "ReceiveCoilActiveElements": "HEA;HEP",
  "ReceiveCoilName": "Head_32",
  "ReconMatrixPE": 80,
  "RefLinesPE": 24,
  "RepetitionTime": 2,
  "SAR": 0.0209039,
  "ScanOptions": "FS",
  "ScanningSequence": "EP",
  "SequenceName": "*epfid2d1_80",
  "SequenceVariant": "SK",
  "SeriesDescription": "func-bold_task-rest_acq-p2-s4-3.5mm",
  "SeriesNumber": 7,
  "ShimSetting": [4146, -7695, -7511, 289, -30, -170, -51, 47],
  "SliceThickness": 3.5,
  "SliceTiming": [1.485, 0, 0.99, 0.2475, 1.2375, 0.7425, 1.7325, 0.495, 1.485, 0, 0.99, 0.2475, 1.2375, 0.7425, 1.7325, 0.495, 1.485, 0, 0.99, 0.2475, 1.2375, 0.7425, 1.7325, 0.495, 1.485, 0, 0.99, 0.2475, 1.2375, 0.7425, 1.7325, 0.495],
  "SoftwareVersions": "syngo MR E11",
  "SpacingBetweenSlices": 3.99,
  "StationName": "AWP66112",
  "TaskName": "rest",
  "TotalReadoutTime": 0.0221199,
  "TxRefAmp": 231.722,
  "dcmmeta_affine": [
    [-2.9305739402770996, -0.6197059750556946, -0.2213611751794815, 146.693115234375],
    [-0.640873908996582, 2.788095474243164, 1.2012814283370972, -93.68354034423828],
    [0.03189602866768837, -0.9178717732429504, 3.7984237670898438, -21.77974510192871],
    [0.0, 0.0, 0.0, 1.0]
],
  "dcmmeta_reorient_transform": [
    [0.0, -1.0, 0.0, 79.0],
    [1.0, 0.0, 0.0, 0.0],
    [0.0, 0.0, 1.0, 0.0],
    [0.0, 0.0, 0.0, 1.0]
],
  "dcmmeta_shape": [80, 80, 32, 200],
  "dcmmeta_slice_dim": 2,
  "dcmmeta_version": 0.6,
  "global": {
    "const": {
      "AccessionNumber": "qa",
      "AcquisitionMatrix": [80, 0, 0, 80],
      "AngioFlag": "N",
      "BitsAllocated": 16,
      "BitsStored": 12,
      "BodyPartExamined": "BRAIN",
      "Columns": 480,
      "EchoNumbers": 1,
      "EchoTime": 35.0,
      "EchoTrainLength": 39,
      "FlipAngle": 90.0,
      "HighBit": 11,
      "ImageOrientationPatient": [0.97685795908021, 0.21362464315129, 0.01063200922393, -0.2065686547667, 0.92936512902388, 0.3059572646993],
      "ImagePositionPatient": [-559.90993007951, -812.36985703546, -284.24518054504],
      "ImageType": [
        "ORIGINAL",
        "PRIMARY",
        "M",
        "ND",
        "NORM",
        "MOSAIC"
],
      "ImagedNucleus": "1H",
      "ImagingFrequency": 123.252434,
      "InPlanePhaseEncodingDirection": "COL",
      "MRAcquisitionType": "2D",
      "MagneticFieldStrength": 3.0,
      "Manufacturer": "SIEMENS",
      "ManufacturerModelName": "Prisma",
      "Modality": "MR",
      "NumberOfAverages": 1.0,
      "NumberOfPhaseEncodingSteps": 79,
      "PercentPhaseFieldOfView": 100.0,
      "PercentSampling": 100.0,
      "PerformedProcedureStepStartTime": "094012.078000",
      "PhotometricInterpretation": "MONOCHROME2",
      "PixelBandwidth": 2315.0,
      "PixelRepresentation": 0,
      "PixelSpacing": [3.0, 3.0],
      "ProtocolName": "func-bold_task-rest_acq-p2-s4-3.5mm",
      "RepetitionTime": 2000.0,
      "Rows": 480,
      "SAR": 0.02090385205679,
      "SamplesPerPixel": 1,
      "ScanOptions": "FS",
      "ScanningSequence": "EP",
      "SequenceName": "*epfid2d1_80",
      "SequenceVariant": "SK",
      "SeriesDescription": "func-bold_task-rest_acq-p2-s4-3.5mm",
      "SeriesNumber": 7,
      "SeriesTime": "095411.496000",
      "SliceLocation": -57.077983353588,
      "SliceThickness": 3.5,
      "SmallestImagePixelValue": 0,
      "SoftwareVersions": "syngo MR E11",
      "SpacingBetweenSlices": 3.9899999931183,
      "SpecificCharacterSet": "ISO_IR 100",
      "StudyID": "77",
      "StudyTime": "094011.953000",
      "TransmitCoilName": "Body",
      "VariableFlipAngleFlag": "N",
      "WindowCenterWidthExplanation": "Algo1",
      "dBdt": 0.0},
    "slices": {}
  },
  "time": {
    "samples": {
      "AcquisitionNumber": [1, 2, 3, 4, 5, 6, 7, 8, 9, 10, 11, 12, 13, 14, 15, 16, 17, 18, 19, 20, 21, 22, 23, 24, 25, 26, 27, 28, 29, 30, 31, 32, 33, 34, 35, 36, 37, 38, 39, 40, 41, 42, 43, 44, 45, 46, 47, 48, 49, 50, 51, 52, 53, 54, 55, 56, 57, 58, 59, 60, 61, 62, 63, 64, 65, 66, 67, 68, 69, 70, 71, 72, 73, 74, 75, 76, 77, 78, 79, 80, 81, 82, 83, 84, 85, 86, 87, 88, 89, 90, 91, 92, 93, 94, 95, 96, 97, 98, 99, 100, 101, 102, 103, 104, 105, 106, 107, 108, 109, 110, 111, 112, 113, 114, 115, 116, 117, 118, 119, 120, 121, 122, 123, 124, 125, 126, 127, 128, 129, 130, 131, 132, 133, 134, 135, 136, 137, 138, 139, 140, 141, 142, 143, 144, 145, 146, 147, 148, 149, 150, 151, 152, 153, 154, 155, 156, 157, 158, 159, 160, 161, 162, 163, 164, 165, 166, 167, 168, 169, 170, 171, 172, 173, 174, 175, 176, 177, 178, 179, 180, 181, 182, 183, 184, 185, 186, 187, 188, 189, 190, 191, 192, 193, 194, 195, 196, 197, 198, 199, 200],
      "AcquisitionTime": ["095331.132500", "095333.132500", "095335.132500", "095337.132500", "095339.132500", "095341.132500", "095343.132500", "095345.132500", "095347.132500", "095349.132500", "095351.132500", "095353.132500", "095355.132500", "095357.132500", "095359.132500", "095401.132500", "095403.132500", "095405.132500", "095407.132500", "095409.132500", "095411.132500", "095413.132500", "095415.132500", "095417.132500", "095419.132500", "095421.132500", "095423.132500", "095425.132500", "095427.132500", "095429.132500", "095431.132500", "095433.132500", "095435.132500", "095437.132500", "095439.132500", "095441.132500", "095443.132500", "095445.132500", "095447.132500", "095449.132500", "095451.132500", "095453.132500", "095455.132500", "095457.132500", "095459.132500", "095501.132500", "095503.132500", "095505.132500", "095507.132500", "095509.132500", "095511.132500", "095513.132500", "095515.132500", "095517.132500", "095519.132500", "095521.132500", "095523.132500", "095525.132500", "095527.132500", "095529.132500", "095531.132500", "095533.132500", "095535.132500", "095537.132500", "095539.132500", "095541.132500", "095543.132500", "095545.132500", "095547.132500", "095549.132500", "095551.132500", "095553.132500", "095555.132500", "095557.132500", "095559.132500", "095601.132500", "095603.132500", "095605.132500", "095607.132500", "095609.132500", "095611.132500", "095613.132500", "095615.132500", "095617.132500", "095619.132500", "095621.132500", "095623.132500", "095625.132500", "095627.132500", "095629.132500", "095631.132500", "095633.132500", "095635.132500", "095637.132500", "095639.132500", "095641.132500", "095643.132500", "095645.132500", "095647.132500", "095649.132500", "095651.132500", "095653.132500", "095655.132500", "095657.132500", "095659.132500", "095701.132500", "095703.132500", "095705.132500", "095707.132500", "095709.132500", "095711.132500", "095713.132500", "095715.132500", "095717.132500", "095719.132500", "095721.132500", "095723.132500", "095725.132500", "095727.132500", "095729.132500", "095731.132500", "095733.132500", "095735.132500", "095737.132500", "095739.132500", "095741.132500", "095743.132500", "095745.132500", "095747.132500", "095749.132500", "095751.132500", "095753.132500", "095755.132500", "095757.132500", "095759.132500", "095801.132500", "095803.132500", "095805.132500", "095807.132500", "095809.132500", "095811.132500", "095813.132500", "095815.132500", "095817.132500", "095819.132500", "095821.132500", "095823.132500", "095825.132500", "095827.132500", "095829.132500", "095831.132500", "095833.132500", "095835.132500", "095837.132500", "095839.132500", "095841.132500", "095843.132500", "095845.132500", "095847.132500", "095849.132500", "095851.132500", "095853.132500", "095855.132500", "095857.132500", "095859.132500", "095901.132500", "095903.132500", "095905.132500", "095907.132500", "095909.132500", "095911.132500", "095913.132500", "095915.132500", "095917.132500", "095919.132500", "095921.132500", "095923.132500", "095925.132500", "095927.132500", "095929.132500", "095931.132500", "095933.132500", "095935.132500", "095937.132500", "095939.132500", "095941.132500", "095943.132500", "095945.132500", "095947.132500", "095949.132500", "095951.132500", "095953.132500", "095955.132500", "095957.132500", "095959.132500", "100001.132500", "100003.132500", "100005.132500", "100007.132500", "100009.132500"],
      "ContentTime": ["095411.499000", "095411.512000", "095411.514000", "095411.517000", "095411.519000", "095411.522000", "095411.525000", "095411.527000", "095411.530000", "095411.532000", "095411.535000", "095411.538000", "095411.540000", "095411.547000", "095411.554000", "095411.556000", "095411.559000", "095411.561000", "095411.564000", "095411.567000", "095451.494000", "095451.497000", "095451.500000", "095451.502000", "095451.505000", "095451.508000", "095451.510000", "095451.513000", "095451.515000", "095451.518000", "095451.520000", "095451.523000", "095451.525000", "095451.528000", "095451.530000", "095451.533000", "095451.536000", "095451.538000", "095451.541000", "095451.543000", "095531.494000", "095531.497000", "095531.500000", "095531.502000", "095531.505000", "095531.507000", "095531.510000", "095531.512000", "095531.515000", "095531.518000", "095531.532000", "095531.534000", "095531.537000", "095531.539000", "095531.542000", "095531.544000", "095531.547000", "095531.549000", "095531.552000", "095531.554000", "095611.494000", "095611.497000", "095611.500000", "095611.502000", "095611.505000", "095611.507000", "095611.510000", "095611.512000", "095611.515000", "095611.518000", "095611.520000", "095611.523000", "095611.525000", "095611.528000", "095611.530000", "095611.533000", "095611.536000", "095611.538000", "095611.541000", "095611.552000", "095651.494000", "095651.497000", "095651.500000", "095651.502000", "095651.505000", "095651.507000", "095651.510000", "095651.512000", "095651.515000", "095651.518000", "095651.520000", "095651.523000", "095651.525000", "095651.528000", "095651.530000", "095651.533000", "095651.535000", "095651.538000", "095651.540000", "095651.543000", "095731.495000", "095731.497000", "095731.500000", "095731.502000", "095731.505000", "095731.508000", "095731.510000", "095731.512000", "095731.515000", "095731.518000", "095731.520000", "095731.523000", "095731.525000", "095731.528000", "095731.530000", "095731.533000", "095731.535000", "095731.538000", "095731.540000", "095731.543000", "095811.493000", "095811.496000", "095811.499000", "095811.501000", "095811.504000", "095811.507000", "095811.509000", "095811.511000", "095811.514000", "095811.517000", "095811.519000", "095811.522000", "095811.524000", "095811.527000", "095811.529000", "095811.532000", "095811.535000", "095811.537000", "095811.540000", "095811.542000", "095851.494000", "095851.497000", "095851.500000", "095851.502000", "095851.505000", "095851.507000", "095851.510000", "095851.513000", "095851.515000", "095851.518000", "095851.520000", "095851.523000", "095851.525000", "095851.528000", "095851.530000", "095851.533000", "095851.536000", "095851.538000", "095851.541000", "095851.543000", "095931.494000", "095931.497000", "095931.500000", "095931.502000", "095931.505000", "095931.507000", "095931.510000", "095931.512000", "095931.515000", "095931.518000", "095931.520000", "095931.523000", "095931.525000", "095931.528000", "095931.530000", "095931.533000", "095931.536000", "095931.538000", "095931.541000", "095931.543000", "100010.604000", "100010.607000", "100010.609000", "100010.612000", "100010.615000", "100010.617000", "100010.620000", "100010.623000", "100010.625000", "100010.628000", "100010.630000", "100010.635000", "100010.643000", "100010.647000", "100010.654000", "100010.657000", "100010.660000", "100010.663000", "100010.665000", "100010.668000"],
      "InstanceCreationTime": ["095411.499000", "095411.512000", "095411.514000", "095411.517000", "095411.519000", "095411.522000", "095411.525000", "095411.527000", "095411.530000", "095411.532000", "095411.535000", "095411.538000", "095411.540000", "095411.547000", "095411.554000", "095411.556000", "095411.559000", "095411.561000", "095411.564000", "095411.567000", "095451.494000", "095451.497000", "095451.500000", "095451.502000", "095451.505000", "095451.508000", "095451.510000", "095451.513000", "095451.515000", "095451.518000", "095451.520000", "095451.523000", "095451.525000", "095451.528000", "095451.530000", "095451.533000", "095451.536000", "095451.538000", "095451.541000", "095451.543000", "095531.494000", "095531.497000", "095531.500000", "095531.502000", "095531.505000", "095531.507000", "095531.510000", "095531.512000", "095531.515000", "095531.518000", "095531.532000", "095531.534000", "095531.537000", "095531.539000", "095531.542000", "095531.544000", "095531.547000", "095531.549000", "095531.552000", "095531.554000", "095611.494000", "095611.497000", "095611.500000", "095611.502000", "095611.505000", "095611.507000", "095611.510000", "095611.512000", "095611.515000", "095611.518000", "095611.520000", "095611.523000", "095611.525000", "095611.528000", "095611.530000", "095611.533000", "095611.536000", "095611.538000", "095611.541000", "095611.552000", "095651.494000", "095651.497000", "095651.500000", "095651.502000", "095651.505000", "095651.507000", "095651.510000", "095651.512000", "095651.515000", "095651.518000", "095651.520000", "095651.523000", "095651.525000", "095651.528000", "095651.530000", "095651.533000", "095651.535000", "095651.538000", "095651.540000", "095651.543000", "095731.495000", "095731.497000", "095731.500000", "095731.502000", "095731.505000", "095731.508000", "095731.510000", "095731.512000", "095731.515000", "095731.518000", "095731.520000", "095731.523000", "095731.525000", "095731.528000", "095731.530000", "095731.533000", "095731.535000", "095731.538000", "095731.540000", "095731.543000", "095811.493000", "095811.496000", "095811.499000", "095811.501000", "095811.504000", "095811.507000", "095811.509000", "095811.511000", "095811.514000", "095811.517000", "095811.519000", "095811.522000", "095811.524000", "095811.527000", "095811.529000", "095811.532000", "095811.535000", "095811.537000", "095811.540000", "095811.542000", "095851.494000", "095851.497000", "095851.500000", "095851.502000", "095851.505000", "095851.507000", "095851.510000", "095851.513000", "095851.515000", "095851.518000", "095851.520000", "095851.523000", "095851.525000", "095851.528000", "095851.530000", "095851.533000", "095851.536000", "095851.538000", "095851.541000", "095851.543000", "095931.494000", "095931.497000", "095931.500000", "095931.502000", "095931.505000", "095931.507000", "095931.510000", "095931.512000", "095931.515000", "095931.518000", "095931.520000", "095931.523000", "095931.525000", "095931.528000", "095931.530000", "095931.533000", "095931.536000", "095931.538000", "095931.541000", "095931.543000", "100010.604000", "100010.607000", "100010.609000", "100010.612000", "100010.615000", "100010.617000", "100010.620000", "100010.623000", "100010.625000", "100010.628000", "100010.630000", "100010.635000", "100010.643000", "100010.647000", "100010.654000", "100010.657000", "100010.660000", "100010.663000", "100010.665000", "100010.668000"],
      "InstanceNumber": [1, 2, 3, 4, 5, 6, 7, 8, 9, 10, 11, 12, 13, 14, 15, 16, 17, 18, 19, 20, 21, 22, 23, 24, 25, 26, 27, 28, 29, 30, 31, 32, 33, 34, 35, 36, 37, 38, 39, 40, 41, 42, 43, 44, 45, 46, 47, 48, 49, 50, 51, 52, 53, 54, 55, 56, 57, 58, 59, 60, 61, 62, 63, 64, 65, 66, 67, 68, 69, 70, 71, 72, 73, 74, 75, 76, 77, 78, 79, 80, 81, 82, 83, 84, 85, 86, 87, 88, 89, 90, 91, 92, 93, 94, 95, 96, 97, 98, 99, 100, 101, 102, 103, 104, 105, 106, 107, 108, 109, 110, 111, 112, 113, 114, 115, 116, 117, 118, 119, 120, 121, 122, 123, 124, 125, 126, 127, 128, 129, 130, 131, 132, 133, 134, 135, 136, 137, 138, 139, 140, 141, 142, 143, 144, 145, 146, 147, 148, 149, 150, 151, 152, 153, 154, 155, 156, 157, 158, 159, 160, 161, 162, 163, 164, 165, 166, 167, 168, 169, 170, 171, 172, 173, 174, 175, 176, 177, 178, 179, 180, 181, 182, 183, 184, 185, 186, 187, 188, 189, 190, 191, 192, 193, 194, 195, 196, 197, 198, 199, 200],
      "LargestImagePixelValue": [1956, 1957, 1955, 1953, 1954, 1954, 1955, 1952, 1957, 1957, 1955, 1953, 1960, 1958, 1953, 1956, 1958, 1956, 1960, 1957, 1957, 1956, 1958, 1957, 1959, 1957, 1956, 1961, 1957, 1960, 1957, 1953, 1954, 1953, 1956, 1955, 1956, 1958, 1956, 1960, 1958, 1958, 1955, 1955, 1959, 1959, 1959, 1961, 1956, 1953, 1957, 1958, 1955, 1960, 1955, 1957, 1956, 1955, 1958, 1958, 1956, 1955, 1958, 1957, 1956, 1956, 1956, 1956, 1958, 1956, 1957, 1954, 1960, 1958, 1959, 1956, 1958, 1958, 1957, 1957, 1958, 1955, 1956, 1959, 1959, 1955, 1957, 1956, 1954, 1958, 1955, 1958, 1958, 1960, 1956, 1956, 1962, 1957, 1956, 1957, 1957, 1957, 1958, 1959, 1955, 1960, 1958, 1960, 1955, 1957, 1961, 1955, 1960, 1957, 1957, 1962, 1960, 1957, 1961, 1959, 1960, 1960, 1956, 1959, 1959, 1956, 1958, 1955, 1956, 1960, 1961, 1960, 1958, 1961, 1958, 1962, 1959, 1957, 1958, 1956, 1962, 1960, 1961, 1957, 1958, 1957, 1957, 1961, 1960, 1960, 1962, 1957, 1959, 1960, 1963, 1960, 1962, 1957, 1958, 1962, 1959, 1959, 1961, 1961, 1964, 1961, 1961, 1958, 1959, 1963, 1959, 1959, 1960, 1961, 1956, 1960, 1959, 1963, 1959, 1962, 1962, 1964, 1962, 1961, 1961, 1958, 1961, 1959, 1958, 1960, 1961, 1959, 1959, 1959, 1962, 1960, 1960, 1961, 1958, 1961],
      "WindowCenter": [905.0, 905.0, 905.0, 905.0, 905.0, 905.0, 905.0, 905.0, 905.0, 905.0, 905.0, 905.0, 905.0, 905.0, 905.0, 905.0, 905.0, 905.0, 905.0, 905.0, 905.0, 905.0, 905.0, 905.0, 905.0, 905.0, 905.0, 905.0, 905.0, 905.0, 905.0, 905.0, 905.0, 905.0, 906.0, 905.0, 905.0, 905.0, 905.0, 905.0, 905.0, 905.0, 905.0, 905.0, 905.0, 905.0, 905.0, 905.0, 905.0, 905.0, 905.0, 905.0, 905.0, 905.0, 905.0, 905.0, 905.0, 905.0, 905.0, 905.0, 905.0, 905.0, 905.0, 905.0, 905.0, 905.0, 905.0, 905.0, 905.0, 905.0, 905.0, 905.0, 905.0, 905.0, 905.0, 905.0, 905.0, 905.0, 905.0, 905.0, 905.0, 905.0, 905.0, 905.0, 905.0, 905.0, 905.0, 905.0, 905.0, 905.0, 905.0, 905.0, 905.0, 905.0, 905.0, 905.0, 905.0, 905.0, 905.0, 905.0, 905.0, 905.0, 905.0, 905.0, 905.0, 905.0, 905.0, 905.0, 905.0, 905.0, 905.0, 905.0, 905.0, 905.0, 905.0, 905.0, 905.0, 905.0, 905.0, 905.0, 905.0, 905.0, 905.0, 905.0, 905.0, 905.0, 905.0, 905.0, 905.0, 905.0, 905.0, 905.0, 905.0, 905.0, 905.0, 905.0, 905.0, 905.0, 905.0, 905.0, 905.0, 905.0, 905.0, 905.0, 905.0, 905.0, 905.0, 905.0, 905.0, 905.0, 905.0, 905.0, 905.0, 905.0, 905.0, 905.0, 905.0, 905.0, 905.0, 905.0, 905.0, 905.0, 905.0, 905.0, 905.0, 905.0, 905.0, 905.0, 905.0, 905.0, 905.0, 905.0, 905.0, 905.0, 905.0, 905.0, 905.0, 905.0, 905.0, 905.0, 905.0, 905.0, 905.0, 905.0, 905.0, 905.0, 905.0, 905.0, 905.0, 905.0, 905.0, 905.0, 905.0, 905.0, 905.0, 905.0, 905.0, 905.0, 905.0, 905.0],
      "WindowWidth": [2039.0, 2040.0, 2040.0, 2040.0, 2040.0, 2040.0, 2040.0, 2040.0, 2040.0, 2040.0, 2040.0, 2040.0, 2040.0, 2040.0, 2040.0, 2040.0, 2040.0, 2040.0, 2040.0, 2040.0, 2040.0, 2041.0, 2041.0, 2041.0, 2040.0, 2040.0, 2040.0, 2041.0, 2040.0, 2040.0, 2040.0, 2041.0, 2041.0, 2041.0, 2041.0, 2041.0, 2040.0, 2040.0, 2040.0, 2041.0, 2040.0, 2040.0, 2040.0, 2040.0, 2040.0, 2040.0, 2040.0, 2040.0, 2040.0, 2040.0, 2040.0, 2040.0, 2040.0, 2040.0, 2040.0, 2040.0, 2040.0, 2040.0, 2040.0, 2040.0, 2040.0, 2040.0, 2040.0, 2040.0, 2040.0, 2040.0, 2040.0, 2040.0, 2040.0, 2040.0, 2040.0, 2040.0, 2040.0, 2040.0, 2040.0, 2040.0, 2040.0, 2040.0, 2040.0, 2040.0, 2040.0, 2040.0, 2040.0, 2040.0, 2040.0, 2040.0, 2040.0, 2040.0, 2040.0, 2040.0, 2040.0, 2040.0, 2040.0, 2040.0, 2040.0, 2040.0, 2040.0, 2040.0, 2040.0, 2040.0, 2040.0, 2040.0, 2040.0, 2040.0, 2040.0, 2040.0, 2040.0, 2040.0, 2040.0, 2040.0, 2040.0, 2040.0, 2040.0, 2040.0, 2040.0, 2040.0, 2040.0, 2040.0, 2040.0, 2040.0, 2040.0, 2040.0, 2040.0, 2040.0, 2040.0, 2040.0, 2040.0, 2040.0, 2040.0, 2040.0, 2040.0, 2040.0, 2040.0, 2040.0, 2040.0, 2040.0, 2040.0, 2040.0, 2040.0, 2040.0, 2040.0, 2040.0, 2040.0, 2040.0, 2040.0, 2040.0, 2040.0, 2040.0, 2040.0, 2040.0, 2040.0, 2040.0, 2040.0, 2040.0, 2040.0, 2040.0, 2040.0, 2040.0, 2040.0, 2040.0, 2040.0, 2040.0, 2040.0, 2040.0, 2040.0, 2040.0, 2040.0, 2040.0, 2040.0, 2040.0, 2041.0, 2040.0, 2040.0, 2040.0, 2040.0, 2040.0, 2040.0, 2040.0, 2040.0, 2040.0, 2040.0, 2040.0, 2040.0, 2040.0, 2040.0, 2040.0, 2040.0, 2040.0, 2040.0, 2040.0, 2040.0, 2040.0, 2040.0, 2040.0, 2040.0, 2040.0, 2040.0, 2040.0, 2040.0, 2040.0]
    },
    "slices": {}
  }
}