{
  "AcquisitionMatrixPE": 122,
  "AcquisitionNumber": 1,
  "AcquisitionTime": "12:07:47.485000",
  "BandwidthPerPixelPhaseEncode": 27.785,
  "BaseResolution": 122,
  "BodyPartExamined": "BRAIN",
  "CoilCombinationMethod": "Adaptive Combine",
  "ConsistencyInfo": "N4_VE11C_LATEST_20160120",
  "ConversionSoftware": "dcm2niix",
  "ConversionSoftwareVersion": "v1.0.20220720",
  "DerivedVendorReportedEchoSpacing": 0.000590011,
  "DeviceSerialNumber": "66112",
  "DiffusionScheme": "Monopolar",
  "DwellTime": 2e-06,
  "EchoTime": 0.068,
  "EchoTrainLength": 61,
  "EffectiveEchoSpacing": 0.000295005,
  "FlipAngle": 90,
  "HeudiconvVersion": "0.13.1",
  "ImageOrientationPatientDICOM": [0.980716, 0.195323, 0.0066513, -0.187791, 0.932382, 0.308867],
  "ImageOrientationText": "Tra>Cor(17.7)>Sag(-3.1)",
  "ImageType": [
    "ORIGINAL",
    "PRIMARY",
    "DIFFUSION",
    "NONE",
    "ND",
    "NORM"
],
  "ImagingFrequency": 123.252,
  "InPlanePhaseEncodingDirectionDICOM": "COL",
  "InstitutionAddress": "Maynard 3,Hanover,NH,US,03755",
  "InstitutionName": "Dartmouth College - PBS",
  "InstitutionalDepartmentName": "Department",
  "MRAcquisitionType": "2D",
  "MagneticFieldStrength": 3,
  "Manufacturer": "Siemens",
  "ManufacturersModelName": "Prisma",
  "Modality": "MR",
  "MultibandAccelerationFactor": 4,
  "NonlinearGradientCorrection": false,
  "ParallelReductionFactorInPlane": 2,
  "PartialFourier": 1,
  "PatientPosition": "HFS",
  "PercentPhaseFOV": 100,
  "PercentSampling": 100,
  "PhaseEncodingDirection": "j-",
  "PhaseEncodingSteps": 122,
  "PhaseResolution": 1,
  "PixelBandwidth": 2050,
  "ProcedureStepDescription": "dbic^QA",
  "ProtocolName": "dwi_acq-DTI-30-p2-s4",
  "PulseSequenceDetails": "%SiemensSeq%\\ep2d_diff",
  "ReceiveCoilActiveElements": "HEA;HEP",
  "ReceiveCoilName": "Head_32",
  "ReconMatrixPE": 122,
  "RefLinesPE": 38,
  "RepetitionTime": 3.6,
  "SAR": 0.160271,
  "ScanOptions": "FS",
  "ScanningSequence": "EP",
  "SequenceName": "*ep_b0",
  "SequenceVariant": "SK\\SP",
  "SeriesDescription": "dwi_acq-DTI-30-p2-s4",
  "SeriesNumber": 9,
  "ShimSetting": [4154, -7701, -7515, 281, -49, -308, -76, 121],
  "SliceThickness": 2,
  "SliceTiming": [2.58594, 0, 1.78906, 0.19531, 1.99219, 0.39844, 2.1875, 0.59375, 2.38281, 1, 2.78906, 1.19531, 2.98438, 1.39062, 3.1875, 1.59375, 3.38281, 0.79688, 2.58594, 0, 1.78906, 0.19531, 1.99219, 0.39844, 2.1875, 0.59375, 2.38281, 1, 2.78906, 1.19531, 2.98438, 1.39062, 3.1875, 1.59375, 3.38281, 0.79688, 2.58594, 0, 1.78906, 0.19531, 1.99219, 0.39844, 2.1875, 0.59375, 2.38281, 1, 2.78906, 1.19531, 2.98438, 1.39062, 3.1875, 1.59375, 3.38281, 0.79688, 2.58594, 0, 1.78906, 0.19531, 1.99219, 0.39844, 2.1875, 0.59375, 2.38281, 1, 2.78906, 1.19531, 2.98438, 1.39062, 3.1875, 1.59375, 3.38281, 0.79688],
  "SoftwareVersions": "syngo MR E11",
  "SpacingBetweenSlices": 2,
  "SpoilingState": true,
  "StationName": "AWP66112",
  "TotalReadoutTime": 0.0356956,
  "TxRefAmp": 227.531,
  "dcmmeta_affine": [
    [-1.9292781352996826, -0.36942559480667114, -0.10825443267822266, 144.17835998535156],
    [-0.3842421770095825, 1.8341935873031616, 0.6083183288574219, -100.24002075195312],
    [0.013084528036415577, -0.6076070070266724, 1.9021682739257812, -29.185720443725586],
    [0.0, 0.0, 0.0, 1.0]
],
  "dcmmeta_reorient_transform": [
    [0.0, -1.0, 0.0, 121.0],
    [1.0, 0.0, 0.0, 0.0],
    [0.0, 0.0, -1.0, 71.0],
    [0.0, 0.0, 0.0, 1.0]
],
  "dcmmeta_shape": [122, 122, 72, 31],
  "dcmmeta_slice_dim": 2,
  "dcmmeta_version": 0.6,
  "global": {
    "const": {
      "AccessionNumber": "qa",
      "AcquisitionMatrix": [122, 0, 0, 122],
      "AngioFlag": "N",
      "BitsAllocated": 16,
      "BitsStored": 12,
      "BodyPartExamined": "BRAIN",
      "Columns": 122,
      "EchoNumbers": 1,
      "EchoTime": 68.0,
      "EchoTrainLength": 61,
      "FlipAngle": 90.0,
      "HighBit": 11,
      "ImageOrientationPatient": [0.98071639523431, 0.19532309721671, 0.00665130154916, -0.187791343949, 0.93238170806092, 0.3088668995073],
      "ImageType": [
        "ORIGINAL",
        "PRIMARY",
        "DIFFUSION",
        "NONE",
        "ND",
        "NORM"
],
      "ImagedNucleus": "1H",
      "ImagingFrequency": 123.252417,
      "InPlanePhaseEncodingDirection": "COL",
      "MRAcquisitionType": "2D",
      "MagneticFieldStrength": 3.0,
      "Manufacturer": "SIEMENS",
      "ManufacturerModelName": "Prisma",
      "Modality": "MR",
      "NumberOfAverages": 1.0,
      "NumberOfPhaseEncodingSteps": 122,
      "PercentPhaseFieldOfView": 100.0,
      "PercentSampling": 100.0,
      "PerformedProcedureStepStartTime": "114556.496000",
      "PhotometricInterpretation": "MONOCHROME2",
      "PixelBandwidth": 2050.0,
      "PixelRepresentation": 0,
      "PixelSpacing": [1.9672131538391, 1.9672131538391],
      "ProtocolName": "dwi_acq-DTI-30-p2-s4",
      "RepetitionTime": 3600.0,
      "Rows": 122,
      "SAR": 0.16027057601386,
      "SamplesPerPixel": 1,
      "ScanOptions": "FS",
      "ScanningSequence": "EP",
      "SequenceVariant": [
        "SK",
        "SP"
],
      "SeriesDescription": "dwi_acq-DTI-30-p2-s4",
      "SeriesNumber": 9,
      "SeriesTime": "120756.850000",
      "SliceThickness": 2.0,
      "SmallestImagePixelValue": 0,
      "SoftwareVersions": "syngo MR E11",
      "SpacingBetweenSlices": 2.0,
      "SpecificCharacterSet": "ISO_IR 100",
      "StudyID": "85",
      "StudyTime": "114556.394000",
      "TransmitCoilName": "Body",
      "VariableFlipAngleFlag": "N",
      "WindowCenterWidthExplanation": "Algo1",
      "dBdt": 0.0},
    "slices": {
      "AcquisitionTime": ["120747.485000", "120744.900000", "120746.690000", "120745.097500", "120746.887500", "120745.297500", "120747.087500", "120745.495000", "120747.285000", "120745.895000", "120747.685000", "120746.092500", "120747.882500", "120746.292500", "120748.082500", "120746.490000", "120748.280000", "120745.695000", "120747.485000", "120744.900000", "120746.690000", "120745.097500", "120746.887500", "120745.297500", "120747.087500", "120745.495000", "120747.285000", "120745.895000", "120747.685000", "120746.092500", "120747.882500", "120746.292500", "120748.082500", "120746.490000", "120748.280000", "120745.695000", "120747.485000", "120744.900000", "120746.690000", "120745.097500", "120746.887500", "120745.297500", "120747.087500", "120745.495000", "120747.285000", "120745.895000", "120747.685000", "120746.092500", "120747.882500", "120746.292500", "120748.082500", "120746.490000", "120748.280000", "120745.695000", "120747.485000", "120744.900000", "120746.690000", "120745.097500", "120746.887500", "120745.297500", "120747.087500", "120745.495000", "120747.285000", "120745.895000", "120747.685000", "120746.092500", "120747.882500", "120746.292500", "120748.082500", "120746.490000", "120748.280000", "120745.695000", "120751.085000", "120748.500000", "120750.290000", "120748.697500", "120750.487500", "120748.897500", "120750.687500", "120749.095000", "120750.885000", "120749.495000", "120751.285000", "120749.692500", "120751.482500", "120749.892500", "120751.682500", "120750.090000", "120751.880000", "120749.295000", "120751.085000", "120748.500000", "120750.290000", "120748.697500", "120750.487500", "120748.897500", "120750.687500", "120749.095000", "120750.885000", "120749.495000", "120751.285000", "120749.692500", "120751.482500", "120749.892500", "120751.682500", "120750.090000", "120751.880000", "120749.295000", "120751.085000", "120748.500000", "120750.290000", "120748.697500", "120750.487500", "120748.897500", "120750.687500", "120749.095000", "120750.885000", "120749.495000", "120751.285000", "120749.692500", "120751.482500", "120749.892500", "120751.682500", "120750.090000", "120751.880000", "120749.295000", "120751.085000", "120748.500000", "120750.290000", "120748.697500", "120750.487500", "120748.897500", "120750.687500", "120749.095000", "120750.885000", "120749.495000", "120751.285000", "120749.692500", "120751.482500", "120749.892500", "120751.682500", "120750.090000", "120751.880000", "120749.295000", "120754.685000", "120752.100000", "120753.890000", "120752.297500", "120754.087500", "120752.497500", "120754.287500", "120752.695000", "120754.485000", "120753.095000", "120754.885000", "120753.292500", "120755.082500", "120753.492500", "120755.282500", "120753.690000", "120755.480000", "120752.895000", "120754.685000", "120752.100000", "120753.890000", "120752.297500", "120754.087500", "120752.497500", "120754.287500", "120752.695000", "120754.485000", "120753.095000", "120754.885000", "120753.292500", "120755.082500", "120753.492500", "120755.282500", "120753.690000", "120755.480000", "120752.895000", "120754.685000", "120752.100000", "120753.890000", "120752.297500", "120754.087500", "120752.497500", "120754.287500", "120752.695000", "120754.485000", "120753.095000", "120754.885000", "120753.292500", "120755.082500", "120753.492500", "120755.282500", "120753.690000", "120755.480000", "120752.895000", "120754.685000", "120752.100000", "120753.890000", "120752.297500", "120754.087500", "120752.497500", "120754.287500", "120752.695000", "120754.485000", "120753.095000", "120754.885000", "120753.292500", "120755.082500", "120753.492500", "120755.282500", "120753.690000", "120755.480000", "120752.895000", "120758.285000", "120755.700000", "120757.490000", "120755.897500", "120757.687500", "120756.097500", "120757.887500", "120756.295000", "120758.085000", "120756.695000", "120758.485000", "120756.892500", "120758.682500", "120757.092500", "120758.882500", "120757.290000", "120759.080000", "120756.495000", "120758.285000", "120755.700000", "120757.490000", "120755.897500", "120757.687500", "120756.097500", "120757.887500", "120756.295000", "120758.085000", "120756.695000", "120758.485000", "120756.892500", "120758.682500", "120757.092500", "120758.882500", "120757.290000", "120759.080000", "120756.495000", "120758.285000", "120755.700000", "120757.490000", "120755.897500", "120757.687500", "120756.097500", "120757.887500", "120756.295000", "120758.085000", "120756.695000", "120758.485000", "120756.892500", "120758.682500", "120757.092500", "120758.882500", "120757.290000", "120759.080000", "120756.495000", "120758.285000", "120755.700000", "120757.490000", "120755.897500", "120757.687500", "120756.097500", "120757.887500", "120756.295000", "120758.085000", "120756.695000", "120758.485000", "120756.892500", "120758.682500", "120757.092500", "120758.882500", "120757.290000", "120759.080000", "120756.495000", "120801.885000", "120759.300000", "120801.090000", "120759.497500", "120801.287500", "120759.697500", "120801.487500", "120759.895000", "120801.685000", "120800.295000", "120802.085000", "120800.492500", "120802.282500", "120800.692500", "120802.482500", "120800.890000", "120802.680000", "120800.095000", "120801.885000", "120759.300000", "120801.090000", "120759.497500", "120801.287500", "120759.697500", "120801.487500", "120759.895000", "120801.685000", "120800.295000", "120802.085000", "120800.492500", "120802.282500", "120800.692500", "120802.482500", "120800.890000", "120802.680000", "120800.095000", "120801.885000", "120759.300000", "120801.090000", "120759.497500", "120801.287500", "120759.697500", "120801.487500", "120759.895000", "120801.685000", "120800.295000", "120802.085000", "120800.492500", "120802.282500", "120800.692500", "120802.482500", "120800.890000", "120802.680000", "120800.095000", "120801.885000", "120759.300000", "120801.090000", "120759.497500", "120801.287500", "120759.697500", "120801.487500", "120759.895000", "120801.685000", "120800.295000", "120802.085000", "120800.492500", "120802.282500", "120800.692500", "120802.482500", "120800.890000", "120802.680000", "120800.095000", "120805.485000", "120802.900000", "120804.690000", "120803.097500", "120804.887500", "120803.297500", "120805.087500", "120803.495000", "120805.285000", "120803.895000", "120805.685000", "120804.092500", "120805.882500", "120804.292500", "120806.082500", "120804.490000", "120806.280000", "120803.695000", "120805.485000", "120802.900000", "120804.690000", "120803.097500", "120804.887500", "120803.297500", "120805.087500", "120803.495000", "120805.285000", "120803.895000", "120805.685000", "120804.092500", "120805.882500", "120804.292500", "120806.082500", "120804.490000", "120806.280000", "120803.695000", "120805.485000", "120802.900000", "120804.690000", "120803.097500", "120804.887500", "120803.297500", "120805.087500", "120803.495000", "120805.285000", "120803.895000", "120805.685000", "120804.092500", "120805.882500", "120804.292500", "120806.082500", "120804.490000", "120806.280000", "120803.695000", "120805.485000", "120802.900000", "120804.690000", "120803.097500", "120804.887500", "120803.297500", "120805.087500", "120803.495000", "120805.285000", "120803.895000", "120805.685000", "120804.092500", "120805.882500", "120804.292500", "120806.082500", "120804.490000", "120806.280000", "120803.695000", "120809.085000", "120806.500000", "120808.290000", "120806.697500", "120808.487500", "120806.897500", "120808.687500", "120807.095000", "120808.885000", "120807.495000", "120809.285000", "120807.692500", "120809.482500", "120807.892500", "120809.682500", "120808.090000", "120809.880000", "120807.295000", "120809.085000", "120806.500000", "120808.290000", "120806.697500", "120808.487500", "120806.897500", "120808.687500", "120807.095000", "120808.885000", "120807.495000", "120809.285000", "120807.692500", "120809.482500", "120807.892500", "120809.682500", "120808.090000", "120809.880000", "120807.295000", "120809.085000", "120806.500000", "120808.290000", "120806.697500", "120808.487500", "120806.897500", "120808.687500", "120807.095000", "120808.885000", "120807.495000", "120809.285000", "120807.692500", "120809.482500", "120807.892500", "120809.682500", "120808.090000", "120809.880000", "120807.295000", "120809.085000", "120806.500000", "120808.290000", "120806.697500", "120808.487500", "120806.897500", "120808.687500", "120807.095000", "120808.885000", "120807.495000", "120809.285000", "120807.692500", "120809.482500", "120807.892500", "120809.682500", "120808.090000", "120809.880000", "120807.295000", "120812.685000", "120810.100000", "120811.890000", "120810.297500", "120812.087500", "120810.497500", "120812.287500", "120810.695000", "120812.485000", "120811.095000", "120812.885000", "120811.292500", "120813.082500", "120811.492500", "120813.282500", "120811.690000", "120813.480000", "120810.895000", "120812.685000", "120810.100000", "120811.890000", "120810.297500", "120812.087500", "120810.497500", "120812.287500", "120810.695000", "120812.485000", "120811.095000", "120812.885000", "120811.292500", "120813.082500", "120811.492500", "120813.282500", "120811.690000", "120813.480000", "120810.895000", "120812.685000", "120810.100000", "120811.890000", "120810.297500", "120812.087500", "120810.497500", "120812.287500", "120810.695000", "120812.485000", "120811.095000", "120812.885000", "120811.292500", "120813.082500", "120811.492500", "120813.282500", "120811.690000", "120813.480000", "120810.895000", "120812.685000", "120810.100000", "120811.890000", "120810.297500", "120812.087500", "120810.497500", "120812.287500", "120810.695000", "120812.485000", "120811.095000", "120812.885000", "120811.292500", "120813.082500", "120811.492500", "120813.282500", "120811.690000", "120813.480000", "120810.895000", "120816.285000", "120813.700000", "120815.490000", "120813.897500", "120815.687500", "120814.097500", "120815.887500", "120814.295000", "120816.085000", "120814.695000", "120816.485000", "120814.892500", "120816.682500", "120815.092500", "120816.882500", "120815.290000", "120817.080000", "120814.495000", "120816.285000", "120813.700000", "120815.490000", "120813.897500", "120815.687500", "120814.097500", "120815.887500", "120814.295000", "120816.085000", "120814.695000", "120816.485000", "120814.892500", "120816.682500", "120815.092500", "120816.882500", "120815.290000", "120817.080000", "120814.495000", "120816.285000", "120813.700000", "120815.490000", "120813.897500", "120815.687500", "120814.097500", "120815.887500", "120814.295000", "120816.085000", "120814.695000", "120816.485000", "120814.892500", "120816.682500", "120815.092500", "120816.882500", "120815.290000", "120817.080000", "120814.495000", "120816.285000", "120813.700000", "120815.490000", "120813.897500", "120815.687500", "120814.097500", "120815.887500", "120814.295000", "120816.085000", "120814.695000", "120816.485000", "120814.892500", "120816.682500", "120815.092500", "120816.882500", "120815.290000", "120817.080000", "120814.495000", "120819.885000", "120817.300000", "120819.090000", "120817.497500", "120819.287500", "120817.697500", "120819.487500", "120817.895000", "120819.685000", "120818.295000", "120820.085000", "120818.492500", "120820.282500", "120818.692500", "120820.482500", "120818.890000", "120820.680000", "120818.095000", "120819.885000", "120817.300000", "120819.090000", "120817.497500", "120819.287500", "120817.697500", "120819.487500", "120817.895000", "120819.685000", "120818.295000", "120820.085000", "120818.492500", "120820.282500", "120818.692500", "120820.482500", "120818.890000", "120820.680000", "120818.095000", "120819.885000", "120817.300000", "120819.090000", "120817.497500", "120819.287500", "120817.697500", "120819.487500", "120817.895000", "120819.685000", "120818.295000", "120820.085000", "120818.492500", "120820.282500", "120818.692500", "120820.482500", "120818.890000", "120820.680000", "120818.095000", "120819.885000", "120817.300000", "120819.090000", "120817.497500", "120819.287500", "120817.697500", "120819.487500", "120817.895000", "120819.685000", "120818.295000", "120820.085000", "120818.492500", "120820.282500", "120818.692500", "120820.482500", "120818.890000", "120820.680000", "120818.095000", "120823.485000", "120820.900000", "120822.690000", "120821.097500", "120822.887500", "120821.297500", "120823.087500", "120821.495000", "120823.285000", "120821.895000", "120823.685000", "120822.092500", "120823.882500", "120822.292500", "120824.082500", "120822.490000", "120824.280000", "120821.695000", "120823.485000", "120820.900000", "120822.690000", "120821.097500", "120822.887500", "120821.297500", "120823.087500", "120821.495000", "120823.285000", "120821.895000", "120823.685000", "120822.092500", "120823.882500", "120822.292500", "120824.082500", "120822.490000", "120824.280000", "120821.695000", "120823.485000", "120820.900000", "120822.690000", "120821.097500", "120822.887500", "120821.297500", "120823.087500", "120821.495000", "120823.285000", "120821.895000", "120823.685000", "120822.092500", "120823.882500", "120822.292500", "120824.082500", "120822.490000", "120824.280000", "120821.695000", "120823.485000", "120820.900000", "120822.690000", "120821.097500", "120822.887500", "120821.297500", "120823.087500", "120821.495000", "120823.285000", "120821.895000", "120823.685000", "120822.092500", "120823.882500", "120822.292500", "120824.082500", "120822.490000", "120824.280000", "120821.695000", "120827.085000", "120824.500000", "120826.290000", "120824.697500", "120826.487500", "120824.897500", "120826.687500", "120825.095000", "120826.885000", "120825.495000", "120827.285000", "120825.692500", "120827.482500", "120825.892500", "120827.682500", "120826.090000", "120827.880000", "120825.295000", "120827.085000", "120824.500000", "120826.290000", "120824.697500", "120826.487500", "120824.897500", "120826.687500", "120825.095000", "120826.885000", "120825.495000", "120827.285000", "120825.692500", "120827.482500", "120825.892500", "120827.682500", "120826.090000", "120827.880000", "120825.295000", "120827.085000", "120824.500000", "120826.290000", "120824.697500", "120826.487500", "120824.897500", "120826.687500", "120825.095000", "120826.885000", "120825.495000", "120827.285000", "120825.692500", "120827.482500", "120825.892500", "120827.682500", "120826.090000", "120827.880000", "120825.295000", "120827.085000", "120824.500000", "120826.290000", "120824.697500", "120826.487500", "120824.897500", "120826.687500", "120825.095000", "120826.885000", "120825.495000", "120827.285000", "120825.692500", "120827.482500", "120825.892500", "120827.682500", "120826.090000", "120827.880000", "120825.295000", "120830.685000", "120828.100000", "120829.890000", "120828.297500", "120830.087500", "120828.497500", "120830.287500", "120828.695000", "120830.485000", "120829.095000", "120830.885000", "120829.292500", "120831.082500", "120829.492500", "120831.282500", "120829.690000", "120831.480000", "120828.895000", "120830.685000", "120828.100000", "120829.890000", "120828.297500", "120830.087500", "120828.497500", "120830.287500", "120828.695000", "120830.485000", "120829.095000", "120830.885000", "120829.292500", "120831.082500", "120829.492500", "120831.282500", "120829.690000", "120831.480000", "120828.895000", "120830.685000", "120828.100000", "120829.890000", "120828.297500", "120830.087500", "120828.497500", "120830.287500", "120828.695000", "120830.485000", "120829.095000", "120830.885000", "120829.292500", "120831.082500", "120829.492500", "120831.282500", "120829.690000", "120831.480000", "120828.895000", "120830.685000", "120828.100000", "120829.890000", "120828.297500", "120830.087500", "120828.497500", "120830.287500", "120828.695000", "120830.485000", "120829.095000", "120830.885000", "120829.292500", "120831.082500", "120829.492500", "120831.282500", "120829.690000", "120831.480000", "120828.895000", "120834.285000", "120831.700000", "120833.490000", "120831.897500", "120833.687500", "120832.097500", "120833.887500", "120832.295000", "120834.085000", "120832.695000", "120834.485000", "120832.892500", "120834.682500", "120833.092500", "120834.882500", "120833.290000", "120835.080000", "120832.495000", "120834.285000", "120831.700000", "120833.490000", "120831.897500", "120833.687500", "120832.097500", "120833.887500", "120832.295000", "120834.085000", "120832.695000", "120834.485000", "120832.892500", "120834.682500", "120833.092500", "120834.882500", "120833.290000", "120835.080000", "120832.495000", "120834.285000", "120831.700000", "120833.490000", "120831.897500", "120833.687500", "120832.097500", "120833.887500", "120832.295000", "120834.085000", "120832.695000", "120834.485000", "120832.892500", "120834.682500", "120833.092500", "120834.882500", "120833.290000", "120835.080000", "120832.495000", "120834.285000", "120831.700000", "120833.490000", "120831.897500", "120833.687500", "120832.097500", "120833.887500", "120832.295000", "120834.085000", "120832.695000", "120834.485000", "120832.892500", "120834.682500", "120833.092500", "120834.882500", "120833.290000", "120835.080000", "120832.495000", "120837.885000", "120835.300000", "120837.090000", "120835.497500", "120837.287500", "120835.697500", "120837.487500", "120835.895000", "120837.685000", "120836.295000", "120838.085000", "120836.492500", "120838.282500", "120836.692500", "120838.482500", "120836.890000", "120838.680000", "120836.095000", "120837.885000", "120835.300000", "120837.090000", "120835.497500", "120837.287500", "120835.697500", "120837.487500", "120835.895000", "120837.685000", "120836.295000", "120838.085000", "120836.492500", "120838.282500", "120836.692500", "120838.482500", "120836.890000", "120838.680000", "120836.095000", "120837.885000", "120835.300000", "120837.090000", "120835.497500", "120837.287500", "120835.697500", "120837.487500", "120835.895000", "120837.685000", "120836.295000", "120838.085000", "120836.492500", "120838.282500", "120836.692500", "120838.482500", "120836.890000", "120838.680000", "120836.095000", "120837.885000", "120835.300000", "120837.090000", "120835.497500", "120837.287500", "120835.697500", "120837.487500", "120835.895000", "120837.685000", "120836.295000", "120838.085000", "120836.492500", "120838.282500", "120836.692500", "120838.482500", "120836.890000", "120838.680000", "120836.095000", "120841.485000", "120838.900000", "120840.690000", "120839.097500", "120840.887500", "120839.297500", "120841.087500", "120839.495000", "120841.285000", "120839.895000", "120841.685000", "120840.092500", "120841.882500", "120840.292500", "120842.082500", "120840.490000", "120842.280000", "120839.695000", "120841.485000", "120838.900000", "120840.690000", "120839.097500", "120840.887500", "120839.297500", "120841.087500", "120839.495000", "120841.285000", "120839.895000", "120841.685000", "120840.092500", "120841.882500", "120840.292500", "120842.082500", "120840.490000", "120842.280000", "120839.695000", "120841.485000", "120838.900000", "120840.690000", "120839.097500", "120840.887500", "120839.297500", "120841.087500", "120839.495000", "120841.285000", "120839.895000", "120841.685000", "120840.092500", "120841.882500", "120840.292500", "120842.082500", "120840.490000", "120842.280000", "120839.695000", "120841.485000", "120838.900000", "120840.690000", "120839.097500", "120840.887500", "120839.297500", "120841.087500", "120839.495000", "120841.285000", "120839.895000", "120841.685000", "120840.092500", "120841.882500", "120840.292500", "120842.082500", "120840.490000", "120842.280000", "120839.695000", "120845.085000", "120842.500000", "120844.290000", "120842.697500", "120844.487500", "120842.897500", "120844.687500", "120843.095000", "120844.885000", "120843.495000", "120845.285000", "120843.692500", "120845.482500", "120843.892500", "120845.682500", "120844.090000", "120845.880000", "120843.295000", "120845.085000", "120842.500000", "120844.290000", "120842.697500", "120844.487500", "120842.897500", "120844.687500", "120843.095000", "120844.885000", "120843.495000", "120845.285000", "120843.692500", "120845.482500", "120843.892500", "120845.682500", "120844.090000", "120845.880000", "120843.295000", "120845.085000", "120842.500000", "120844.290000", "120842.697500", "120844.487500", "120842.897500", "120844.687500", "120843.095000", "120844.885000", "120843.495000", "120845.285000", "120843.692500", "120845.482500", "120843.892500", "120845.682500", "120844.090000", "120845.880000", "120843.295000", "120845.085000", "120842.500000", "120844.290000", "120842.697500", "120844.487500", "120842.897500", "120844.687500", "120843.095000", "120844.885000", "120843.495000", "120845.285000", "120843.692500", "120845.482500", "120843.892500", "120845.682500", "120844.090000", "120845.880000", "120843.295000", "120848.685000", "120846.100000", "120847.890000", "120846.297500", "120848.087500", "120846.497500", "120848.287500", "120846.695000", "120848.485000", "120847.095000", "120848.885000", "120847.292500", "120849.082500", "120847.492500", "120849.282500", "120847.690000", "120849.480000", "120846.895000", "120848.685000", "120846.100000", "120847.890000", "120846.297500", "120848.087500", "120846.497500", "120848.287500", "120846.695000", "120848.485000", "120847.095000", "120848.885000", "120847.292500", "120849.082500", "120847.492500", "120849.282500", "120847.690000", "120849.480000", "120846.895000", "120848.685000", "120846.100000", "120847.890000", "120846.297500", "120848.087500", "120846.497500", "120848.287500", "120846.695000", "120848.485000", "120847.095000", "120848.885000", "120847.292500", "120849.082500", "120847.492500", "120849.282500", "120847.690000", "120849.480000", "120846.895000", "120848.685000", "120846.100000", "120847.890000", "120846.297500", "120848.087500", "120846.497500", "120848.287500", "120846.695000", "120848.485000", "120847.095000", "120848.885000", "120847.292500", "120849.082500", "120847.492500", "120849.282500", "120847.690000", "120849.480000", "120846.895000", "120852.285000", "120849.700000", "120851.490000", "120849.897500", "120851.687500", "120850.097500", "120851.887500", "120850.295000", "120852.085000", "120850.695000", "120852.485000", "120850.892500", "120852.682500", "120851.092500", "120852.882500", "120851.290000", "120853.080000", "120850.495000", "120852.285000", "120849.700000", "120851.490000", "120849.897500", "120851.687500", "120850.097500", "120851.887500", "120850.295000", "120852.085000", "120850.695000", "120852.485000", "120850.892500", "120852.682500", "120851.092500", "120852.882500", "120851.290000", "120853.080000", "120850.495000", "120852.285000", "120849.700000", "120851.490000", "120849.897500", "120851.687500", "120850.097500", "120851.887500", "120850.295000", "120852.085000", "120850.695000", "120852.485000", "120850.892500", "120852.682500", "120851.092500", "120852.882500", "120851.290000", "120853.080000", "120850.495000", "120852.285000", "120849.700000", "120851.490000", "120849.897500", "120851.687500", "120850.097500", "120851.887500", "120850.295000", "120852.085000", "120850.695000", "120852.485000", "120850.892500", "120852.682500", "120851.092500", "120852.882500", "120851.290000", "120853.080000", "120850.495000", "120855.885000", "120853.300000", "120855.090000", "120853.497500", "120855.287500", "120853.697500", "120855.487500", "120853.895000", "120855.685000", "120854.295000", "120856.085000", "120854.492500", "120856.282500", "120854.692500", "120856.482500", "120854.890000", "120856.680000", "120854.095000", "120855.885000", "120853.300000", "120855.090000", "120853.497500", "120855.287500", "120853.697500", "120855.487500", "120853.895000", "120855.685000", "120854.295000", "120856.085000", "120854.492500", "120856.282500", "120854.692500", "120856.482500", "120854.890000", "120856.680000", "120854.095000", "120855.885000", "120853.300000", "120855.090000", "120853.497500", "120855.287500", "120853.697500", "120855.487500", "120853.895000", "120855.685000", "120854.295000", "120856.085000", "120854.492500", "120856.282500", "120854.692500", "120856.482500", "120854.890000", "120856.680000", "120854.095000", "120855.885000", "120853.300000", "120855.090000", "120853.497500", "120855.287500", "120853.697500", "120855.487500", "120853.895000", "120855.685000", "120854.295000", "120856.085000", "120854.492500", "120856.282