{
  "AcquisitionMatrixPE": 80,
  "AcquisitionNumber": 1,
  "AcquisitionTime": "09:39:11.165000",
  "BandwidthPerPixelPhaseEncode": 44.643,
  "BaseResolution": 80,
  "BodyPartExamined": "BRAIN",
  "CoilCombinationMethod": "Sum of Squares",
  "ConsistencyInfo": "N4_VE11C_LATEST_20160120",
  "ConversionSoftware": "dcm2niix",
  "ConversionSoftwareVersion": "v1.0.20220720",
  "DerivedVendorReportedEchoSpacing": 0.000559998,
  "DeviceSerialNumber": "66112",
  "DwellTime": 2.7e-06,
  "EchoTime": 0.035,
  "EchoTrainLength": 39,
  "EffectiveEchoSpacing": 0.000279999,
  "FlipAngle": 90,
  "HeudiconvVersion": "0.13.1",
  "ImageOrientationPatientDICOM": [0.985137, 0.171523, 0.00922154, -0.166093, 0.937509, 0.305761],
  "ImageOrientationText": "Tra>Cor(17.6)>Sag(-2.5)",
  "ImageType": [
    "ORIGINAL",
    "PRIMARY",
    "M",
    "ND",
    "NORM",
    "MOSAIC"
],
  "ImagingFrequency": 123.252,
  "InPlanePhaseEncodingDirectionDICOM": "COL",
  "InstitutionAddress": "Maynard 3,Hanover,NH,US,03755",
  "InstitutionName": "Dartmouth College - PBS",
  "InstitutionalDepartmentName": "Department",
  "MRAcquisitionType": "2D",
  "MagneticFieldStrength": 3,
  "Manufacturer": "Siemens",
  "ManufacturersModelName": "Prisma",
  "Modality": "MR",
  "MultibandAccelerationFactor": 4,
  "NonlinearGradientCorrection": false,
  "ParallelReductionFactorInPlane": 2,
  "PartialFourier": 1,
  "PatientPosition": "HFS",
  "PercentPhaseFOV": 100,
  "PercentSampling": 100,
  "PhaseEncodingDirection": "j-",
  "PhaseEncodingSteps": 79,
  "PhaseResolution": 1,
  "PixelBandwidth": 2315,
  "ProcedureStepDescription": "dbic^QA",
  "ProtocolName": "func-bold_task-rest_acq-p2-s4-3.5mm",
  "PulseSequenceDetails": "%SiemensSeq%\\ep2d_bold",
  "ReceiveCoilActiveElements": "HEA;HEP",
  "ReceiveCoilName": "Head_32",
  "ReconMatrixPE": 80,
  "RefLinesPE": 24,
  "RepetitionTime": 2,
  "SAR": 0.0209014,
  "ScanOptions": "FS",
  "ScanningSequence": "EP",
  "SequenceName": "*epfid2d1_80",
  "SequenceVariant": "SK",
  "SeriesDescription": "func-bold_task-rest_acq-p2-s4-3.5mm",
  "SeriesNumber": 7,
  "ShimSetting": [4147, -7702, -7511, 252, -60, -105, -9, 46],
  "SliceThickness": 3.5,
  "SliceTiming": [1.485, 0, 0.99, 0.2475, 1.2375, 0.7425, 1.7325, 0.495, 1.485, 0, 0.99, 0.2475, 1.2375, 0.7425, 1.7325, 0.495, 1.485, 0, 0.99, 0.2475, 1.2375, 0.7425, 1.7325, 0.495, 1.485, 0, 0.99, 0.2475, 1.2375, 0.7425, 1.7325, 0.495],
  "SoftwareVersions": "syngo MR E11",
  "SpacingBetweenSlices": 3.99,
  "StationName": "AWP66112",
  "TaskName": "rest",
  "TotalReadoutTime": 0.0221199,
  "TxRefAmp": 233.503,
  "dcmmeta_affine": [
    [-2.9554107189178467, -0.49827879667282104, -0.17476171255111694, 143.93995666503906],
    [-0.5145700573921204, 2.8125271797180176, 1.2079659700393677, -99.38594818115234],
    [0.027664605528116226, -0.9172838926315308, 3.7987334728240967, -16.262699127197266],
    [0.0, 0.0, 0.0, 1.0]
],
  "dcmmeta_reorient_transform": [
    [0.0, -1.0, 0.0, 79.0],
    [1.0, 0.0, 0.0, 0.0],
    [0.0, 0.0, 1.0, 0.0],
    [0.0, 0.0, 0.0, 1.0]
],
  "dcmmeta_shape": [80, 80, 32, 200],
  "dcmmeta_slice_dim": 2,
  "dcmmeta_version": 0.6,
  "global": {
    "const": {
      "AccessionNumber": "qa",
      "AcquisitionMatrix": [80, 0, 0, 80],
      "AngioFlag": "N",
      "BitsAllocated": 16,
      "BitsStored": 12,
      "BodyPartExamined": "BRAIN",
      "Columns": 480,
      "EchoNumbers": 1,
      "EchoTime": 35.0,
      "EchoTrainLength": 39,
      "FlipAngle": 90.0,
      "HighBit": 11,
      "ImageOrientationPatient": [0.98513689621992, 0.17152334825148, 0.00922153516443, -0.1660929312963, 0.93750902048568, 0.30576130344011],
      "ImagePositionPatient": [-596.00230749696, -788.2231083472, -277.71783102061],
      "ImageType": [
        "ORIGINAL",
        "PRIMARY",
        "M",
        "ND",
        "NORM",
        "MOSAIC"
],
      "ImagedNucleus": "1H",
      "ImagingFrequency": 123.252388,
      "InPlanePhaseEncodingDirection": "COL",
      "MRAcquisitionType": "2D",
      "MagneticFieldStrength": 3.0,
      "Manufacturer": "SIEMENS",
      "ManufacturerModelName": "Prisma",
      "Modality": "MR",
      "NumberOfAverages": 1.0,
      "NumberOfPhaseEncodingSteps": 79,
      "PercentPhaseFieldOfView": 100.0,
      "PercentSampling": 100.0,
      "PerformedProcedureStepStartTime": "092925.352000",
      "PhotometricInterpretation": "MONOCHROME2",
      "PixelBandwidth": 2315.0,
      "PixelRepresentation": 0,
      "PixelSpacing": [3.0, 3.0],
      "ProtocolName": "func-bold_task-rest_acq-p2-s4-3.5mm",
      "RepetitionTime": 2000.0,
      "Rows": 480,
      "SAR": 0.02090138707251,
      "SamplesPerPixel": 1,
      "ScanOptions": "FS",
      "ScanningSequence": "EP",
      "SequenceName": "*epfid2d1_80",
      "SequenceVariant": "SK",
      "SeriesDescription": "func-bold_task-rest_acq-p2-s4-3.5mm",
      "SeriesNumber": 7,
      "SeriesTime": "093958.543000",
      "SliceLocation": -51.876617573632,
      "SliceThickness": 3.5,
      "SmallestImagePixelValue": 0,
      "SoftwareVersions": "syngo MR E11",
      "SpacingBetweenSlices": 3.9899999718161,
      "SpecificCharacterSet": "ISO_IR 100",
      "StudyID": "5",
      "StudyTime": "092925.300000",
      "TransmitCoilName": "Body",
      "VariableFlipAngleFlag": "N",
      "WindowCenterWidthExplanation": "Algo1",
      "dBdt": 0.0},
    "slices": {}
  },
  "time": {
    "samples": {
      "AcquisitionNumber": [1, 2, 3, 4, 5, 6, 7, 8, 9, 10, 11, 12, 13, 14, 15, 16, 17, 18, 19, 20, 21, 22, 23, 24, 25, 26, 27, 28, 29, 30, 31, 32, 33, 34, 35, 36, 37, 38, 39, 40, 41, 42, 43, 44, 45, 46, 47, 48, 49, 50, 51, 52, 53, 54, 55, 56, 57, 58, 59, 60, 61, 62, 63, 64, 65, 66, 67, 68, 69, 70, 71, 72, 73, 74, 75, 76, 77, 78, 79, 80, 81, 82, 83, 84, 85, 86, 87, 88, 89, 90, 91, 92, 93, 94, 95, 96, 97, 98, 99, 100, 101, 102, 103, 104, 105, 106, 107, 108, 109, 110, 111, 112, 113, 114, 115, 116, 117, 118, 119, 120, 121, 122, 123, 124, 125, 126, 127, 128, 129, 130, 131, 132, 133, 134, 135, 136, 137, 138, 139, 140, 141, 142, 143, 144, 145, 146, 147, 148, 149, 150, 151, 152, 153, 154, 155, 156, 157, 158, 159, 160, 161, 162, 163, 164, 165, 166, 167, 168, 169, 170, 171, 172, 173, 174, 175, 176, 177, 178, 179, 180, 181, 182, 183, 184, 185, 186, 187, 188, 189, 190, 191, 192, 193, 194, 195, 196, 197, 198, 199, 200],
      "AcquisitionTime": ["093911.165000", "093913.165000", "093915.165000", "093917.165000", "093919.165000", "093921.165000", "093923.165000", "093925.165000", "093927.165000", "093929.165000", "093931.165000", "093933.165000", "093935.165000", "093937.165000", "093939.165000", "093941.165000", "093943.165000", "093945.165000", "093947.165000", "093949.165000", "093951.165000", "093953.165000", "093955.165000", "093957.165000", "093959.165000", "094001.165000", "094003.165000", "094005.165000", "094007.165000", "094009.165000", "094011.165000", "094013.165000", "094015.165000", "094017.165000", "094019.165000", "094021.165000", "094023.165000", "094025.165000", "094027.165000", "094029.165000", "094031.165000", "094033.165000", "094035.165000", "094037.165000", "094039.165000", "094041.165000", "094043.165000", "094045.165000", "094047.165000", "094049.165000", "094051.165000", "094053.165000", "094055.165000", "094057.165000", "094059.165000", "094101.165000", "094103.165000", "094105.165000", "094107.165000", "094109.165000", "094111.165000", "094113.165000", "094115.165000", "094117.165000", "094119.165000", "094121.165000", "094123.165000", "094125.165000", "094127.165000", "094129.165000", "094131.165000", "094133.165000", "094135.165000", "094137.165000", "094139.165000", "094141.165000", "094143.165000", "094145.165000", "094147.165000", "094149.165000", "094151.165000", "094153.165000", "094155.165000", "094157.165000", "094159.165000", "094201.165000", "094203.165000", "094205.165000", "094207.165000", "094209.165000", "094211.165000", "094213.165000", "094215.165000", "094217.165000", "094219.165000", "094221.165000", "094223.165000", "094225.165000", "094227.165000", "094229.165000", "094231.165000", "094233.165000", "094235.165000", "094237.165000", "094239.165000", "094241.165000", "094243.165000", "094245.165000", "094247.165000", "094249.165000", "094251.165000", "094253.165000", "094255.165000", "094257.165000", "094259.165000", "094301.165000", "094303.165000", "094305.165000", "094307.165000", "094309.165000", "094311.165000", "094313.165000", "094315.165000", "094317.165000", "094319.165000", "094321.165000", "094323.165000", "094325.165000", "094327.165000", "094329.165000", "094331.165000", "094333.165000", "094335.165000", "094337.165000", "094339.165000", "094341.165000", "094343.165000", "094345.165000", "094347.165000", "094349.165000", "094351.165000", "094353.165000", "094355.165000", "094357.165000", "094359.165000", "094401.165000", "094403.165000", "094405.165000", "094407.165000", "094409.165000", "094411.165000", "094413.165000", "094415.165000", "094417.165000", "094419.165000", "094421.165000", "094423.165000", "094425.165000", "094427.165000", "094429.165000", "094431.165000", "094433.165000", "094435.165000", "094437.165000", "094439.165000", "094441.165000", "094443.165000", "094445.165000", "094447.165000", "094449.165000", "094451.165000", "094453.165000", "094455.165000", "094457.165000", "094459.165000", "094501.165000", "094503.165000", "094505.165000", "094507.165000", "094509.165000", "094511.165000", "094513.165000", "094515.165000", "094517.165000", "094519.165000", "094521.165000", "094523.165000", "094525.165000", "094527.165000", "094529.165000", "094531.165000", "094533.165000", "094535.165000", "094537.165000", "094539.165000", "094541.165000", "094543.165000", "094545.165000", "094547.165000", "094549.165000"],
      "ContentTime": ["093958.551000", "093958.555000", "093958.557000", "093958.565000", "093958.568000", "093958.570000", "093958.572000", "093958.575000", "093958.577000", "093958.580000", "093958.583000", "093958.585000", "093958.588000", "093958.590000", "093958.599000", "093958.605000", "093958.608000", "093958.611000", "093958.613000", "093958.615000", "093958.618000", "093958.621000", "093958.623000", "093958.626000", "094038.542000", "094038.545000", "094038.548000", "094038.550000", "094038.553000", "094038.555000", "094038.558000", "094038.560000", "094038.563000", "094038.565000", "094038.568000", "094038.570000", "094038.573000", "094038.575000", "094038.578000", "094038.580000", "094038.583000", "094038.585000", "094038.588000", "094038.590000", "094118.541000", "094118.544000", "094118.547000", "094118.549000", "094118.552000", "094118.554000", "094118.557000", "094118.559000", "094118.562000", "094118.564000", "094118.567000", "094118.579000", "094118.582000", "094118.584000", "094118.587000", "094118.589000", "094118.592000", "094118.594000", "094118.597000", "094118.600000", "094158.541000", "094158.544000", "094158.547000", "094158.549000", "094158.552000", "094158.554000", "094158.557000", "094158.559000", "094158.562000", "094158.564000", "094158.567000", "094158.569000", "094158.572000", "094158.574000", "094158.577000", "094158.579000", "094158.581000", "094158.584000", "094158.587000", "094158.589000", "094238.541000", "094238.544000", "094238.547000", "094238.549000", "094238.552000", "094238.554000", "094238.557000", "094238.559000", "094238.562000", "094238.564000", "094238.567000", "094238.569000", "094238.572000", "094238.574000", "094238.577000", "094238.579000", "094238.582000", "094238.584000", "094238.587000", "094238.589000", "094318.542000", "094318.545000", "094318.548000", "094318.550000", "094318.553000", "094318.555000", "094318.558000", "094318.560000", "094318.563000", "094318.565000", "094318.568000", "094318.570000", "094318.573000", "094318.575000", "094318.578000", "094318.580000", "094318.583000", "094318.585000", "094318.588000", "094318.590000", "094358.542000", "094358.544000", "094358.547000", "094358.549000", "094358.552000", "094358.554000", "094358.557000", "094358.559000", "094358.562000", "094358.564000", "094358.567000", "094358.569000", "094358.572000", "094358.574000", "094358.577000", "094358.579000", "094358.582000", "094358.584000", "094358.587000", "094358.590000", "094438.541000", "094438.544000", "094438.547000", "094438.549000", "094438.552000", "094438.554000", "094438.557000", "094438.559000", "094438.562000", "094438.564000", "094438.567000", "094438.569000", "094438.572000", "094438.574000", "094438.577000", "094438.579000", "094438.582000", "094438.584000", "094438.587000", "094438.589000", "094518.542000", "094518.545000", "094518.548000", "094518.550000", "094518.553000", "094518.555000", "094518.558000", "094518.560000", "094518.563000", "094518.565000", "094518.568000", "094518.570000", "094518.573000", "094518.578000", "094518.581000", "094518.583000", "094518.586000", "094518.588000", "094518.591000", "094518.593000", "094550.350000", "094550.353000", "094550.356000", "094550.358000", "094550.361000", "094550.364000", "094550.366000", "094550.369000", "094550.371000", "094550.374000", "094550.376000", "094550.379000", "094550.383000", "094550.395000", "094550.400000", "094550.407000"],
      "InstanceCreationTime": ["093958.551000", "093958.555000", "093958.557000", "093958.565000", "093958.568000", "093958.570000", "093958.572000", "093958.575000", "093958.577000", "093958.580000", "093958.583000", "093958.585000", "093958.588000", "093958.590000", "093958.599000", "093958.605000", "093958.608000", "093958.611000", "093958.613000", "093958.615000", "093958.618000", "093958.621000", "093958.623000", "093958.626000", "094038.542000", "094038.545000", "094038.548000", "094038.550000", "094038.553000", "094038.555000", "094038.558000", "094038.560000", "094038.563000", "094038.565000", "094038.568000", "094038.570000", "094038.573000", "094038.575000", "094038.578000", "094038.580000", "094038.583000", "094038.585000", "094038.588000", "094038.590000", "094118.541000", "094118.544000", "094118.547000", "094118.549000", "094118.552000", "094118.554000", "094118.557000", "094118.559000", "094118.562000", "094118.564000", "094118.567000", "094118.579000", "094118.582000", "094118.584000", "094118.587000", "094118.589000", "094118.592000", "094118.594000", "094118.597000", "094118.600000", "094158.541000", "094158.544000", "094158.547000", "094158.549000", "094158.552000", "094158.554000", "094158.557000", "094158.559000", "094158.562000", "094158.564000", "094158.567000", "094158.569000", "094158.572000", "094158.574000", "094158.577000", "094158.579000", "094158.581000", "094158.584000", "094158.587000", "094158.589000", "094238.541000", "094238.544000", "094238.547000", "094238.549000", "094238.552000", "094238.554000", "094238.557000", "094238.559000", "094238.562000", "094238.564000", "094238.567000", "094238.569000", "094238.572000", "094238.574000", "094238.577000", "094238.579000", "094238.582000", "094238.584000", "094238.587000", "094238.589000", "094318.542000", "094318.545000", "094318.548000", "094318.550000", "094318.553000", "094318.555000", "094318.558000", "094318.560000", "094318.563000", "094318.565000", "094318.568000", "094318.570000", "094318.573000", "094318.575000", "094318.578000", "094318.580000", "094318.583000", "094318.585000", "094318.588000", "094318.590000", "094358.542000", "094358.544000", "094358.547000", "094358.549000", "094358.552000", "094358.554000", "094358.557000", "094358.559000", "094358.562000", "094358.564000", "094358.567000", "094358.569000", "094358.572000", "094358.574000", "094358.577000", "094358.579000", "094358.582000", "094358.584000", "094358.587000", "094358.590000", "094438.541000", "094438.544000", "094438.547000", "094438.549000", "094438.552000", "094438.554000", "094438.557000", "094438.559000", "094438.562000", "094438.564000", "094438.567000", "094438.569000", "094438.572000", "094438.574000", "094438.577000", "094438.579000", "094438.582000", "094438.584000", "094438.587000", "094438.589000", "094518.542000", "094518.545000", "094518.548000", "094518.550000", "094518.553000", "094518.555000", "094518.558000", "094518.560000", "094518.563000", "094518.565000", "094518.568000", "094518.570000", "094518.573000", "094518.578000", "094518.581000", "094518.583000", "094518.586000", "094518.588000", "094518.591000", "094518.593000", "094550.350000", "094550.353000", "094550.356000", "094550.358000", "094550.361000", "094550.364000", "094550.366000", "094550.369000", "094550.371000", "094550.374000", "094550.376000", "094550.379000", "094550.383000", "094550.395000", "094550.400000", "094550.407000"],
      "InstanceNumber": [1, 2, 3, 4, 5, 6, 7, 8, 9, 10, 11, 12, 13, 14, 15, 16, 17, 18, 19, 20, 21, 22, 23, 24, 25, 26, 27, 28, 29, 30, 31, 32, 33, 34, 35, 36, 37, 38, 39, 40, 41, 42, 43, 44, 45, 46, 47, 48, 49, 50, 51, 52, 53, 54, 55, 56, 57, 58, 59, 60, 61, 62, 63, 64, 65, 66, 67, 68, 69, 70, 71, 72, 73, 74, 75, 76, 77, 78, 79, 80, 81, 82, 83, 84, 85, 86, 87, 88, 89, 90, 91, 92, 93, 94, 95, 96, 97, 98, 99, 100, 101, 102, 103, 104, 105, 106, 107, 108, 109, 110, 111, 112, 113, 114, 115, 116, 117, 118, 119, 120, 121, 122, 123, 124, 125, 126, 127, 128, 129, 130, 131, 132, 133, 134, 135, 136, 137, 138, 139, 140, 141, 142, 143, 144, 145, 146, 147, 148, 149, 150, 151, 152, 153, 154, 155, 156, 157, 158, 159, 160, 161, 162, 163, 164, 165, 166, 167, 168, 169, 170, 171, 172, 173, 174, 175, 176, 177, 178, 179, 180, 181, 182, 183, 184, 185, 186, 187, 188, 189, 190, 191, 192, 193, 194, 195, 196, 197, 198, 199, 200],
      "LargestImagePixelValue": [2055, 2053, 2053, 2050, 2051, 2049, 2052, 2050, 2058, 2053, 2052, 2053, 2048, 2050, 2052, 2051, 2047, 2051, 2054, 2053, 2053, 2051, 2050, 2049, 2047, 2050, 2052, 2049, 2046, 2052, 2056, 2052, 2049, 2049, 2050, 2052, 2052, 2053, 2051, 2051, 2049, 2044, 2047, 2051, 2052, 2053, 2042, 2045, 2048, 2049, 2052, 2050, 2050, 2049, 2049, 2048, 2054, 2048, 2055, 2049, 2050, 2050, 2050, 2048, 2051, 2047, 2049, 2043, 2045, 2049, 2049, 2051, 2053, 2052, 2050, 2050, 2047, 2053, 2047, 2050, 2046, 2049, 2047, 2045, 2046, 2044, 2050, 2049, 2048, 2051, 2052, 2050, 2049, 2050, 2048, 2055, 2043, 2049, 2051, 2048, 2052, 2047, 2046, 2045, 2050, 2046, 2051, 2045, 2046, 2048, 2050, 2052, 2049, 2046, 2053, 2053, 2051, 2047, 2047, 2049, 2051, 2052, 2049, 2048, 2047, 2047, 2044, 2051, 2048, 2048, 2055, 2048, 2051, 2050, 2048, 2047, 2042, 2057, 2048, 2050, 2046, 2047, 2049, 2051, 2048, 2052, 2047, 2050, 2050, 2047, 2050, 2043, 2041, 2049, 2045, 2049, 2047, 2049, 2045, 2047, 2049, 2048, 2044, 2049, 2047, 2048, 2047, 2044, 2050, 2049, 2046, 2049, 2042, 2048, 2047, 2043, 2049, 2050, 2048, 2050, 2045, 2051, 2051, 2045, 2048, 2042, 2045, 2046, 2046, 2044, 2044, 2050, 2047, 2049, 2045, 2047, 2054, 2049, 2051, 2046],
      "WindowCenter": [930.0, 930.0, 930.0, 930.0, 930.0, 930.0, 930.0, 930.0, 930.0, 930.0, 930.0, 930.0, 930.0, 930.0, 930.0, 930.0, 930.0, 930.0, 930.0, 930.0, 930.0, 930.0, 930.0, 930.0, 930.0, 930.0, 930.0, 930.0, 930.0, 930.0, 930.0, 930.0, 930.0, 930.0, 930.0, 930.0, 930.0, 930.0, 930.0, 930.0, 930.0, 930.0, 930.0, 930.0, 930.0, 930.0, 930.0, 930.0, 930.0, 930.0, 930.0, 930.0, 930.0, 930.0, 930.0, 930.0, 930.0, 930.0, 930.0, 930.0, 930.0, 930.0, 930.0, 930.0, 930.0, 930.0, 930.0, 930.0, 930.0, 930.0, 930.0, 930.0, 930.0, 930.0, 930.0, 930.0, 930.0, 930.0, 930.0, 930.0, 930.0, 930.0, 930.0, 930.0, 930.0, 930.0, 930.0, 930.0, 930.0, 930.0, 930.0, 930.0, 930.0, 930.0, 930.0, 930.0, 930.0, 930.0, 930.0, 930.0, 930.0, 930.0, 930.0, 930.0, 930.0, 930.0, 930.0, 930.0, 930.0, 930.0, 930.0, 930.0, 930.0, 930.0, 930.0, 930.0, 930.0, 930.0, 930.0, 930.0, 930.0, 930.0, 930.0, 930.0, 930.0, 930.0, 930.0, 930.0, 930.0, 930.0, 930.0, 930.0, 930.0, 930.0, 930.0, 930.0, 930.0, 930.0, 930.0, 930.0, 930.0, 930.0, 930.0, 930.0, 930.0, 930.0, 930.0, 930.0, 930.0, 930.0, 930.0, 930.0, 930.0, 930.0, 930.0, 930.0, 930.0, 930.0, 930.0, 930.0, 930.0, 930.0, 931.0, 930.0, 930.0, 930.0, 930.0, 930.0, 930.0, 930.0, 930.0, 930.0, 930.0, 930.0, 930.0, 930.0, 930.0, 930.0, 930.0, 930.0, 931.0, 930.0, 930.0, 930.0, 930.0, 930.0, 930.0, 930.0, 930.0, 930.0, 930.0, 930.0, 930.0, 930.0, 930.0, 930.0, 930.0, 930.0, 930.0, 930.0],
      "WindowWidth": [2124.0, 2124.0, 2124.0, 2125.0, 2124.0, 2124.0, 2124.0, 2124.0, 2124.0, 2124.0, 2124.0, 2124.0, 2124.0, 2124.0, 2125.0, 2124.0, 2124.0, 2125.0, 2124.0, 2125.0, 2125.0, 2125.0, 2125.0, 2125.0, 2125.0, 2125.0, 2125.0, 2124.0, 2125.0, 2125.0, 2125.0, 2125.0, 2125.0, 2125.0, 2125.0, 2125.0, 2125.0, 2125.0, 2125.0, 2125.0, 2125.0, 2125.0, 2125.0, 2125.0, 2125.0, 2125.0, 2125.0, 2125.0, 2125.0, 2125.0, 2125.0, 2125.0, 2125.0, 2126.0, 2125.0, 2125.0, 2125.0, 2125.0, 2125.0, 2125.0, 2125.0, 2125.0, 2125.0, 2125.0, 2125.0, 2125.0, 2125.0, 2125.0, 2125.0, 2126.0, 2125.0, 2125.0, 2126.0, 2125.0, 2125.0, 2125.0, 2125.0, 2125.0, 2125.0, 2125.0, 2125.0, 2125.0, 2125.0, 2125.0, 2125.0, 2126.0, 2125.0, 2126.0, 2125.0, 2125.0, 2125.0, 2125.0, 2125.0, 2125.0, 2125.0, 2125.0, 2126.0, 2125.0, 2126.0, 2125.0, 2126.0, 2125.0, 2125.0, 2125.0, 2125.0, 2125.0, 2125.0, 2125.0, 2125.0, 2126.0, 2125.0, 2125.0, 2126.0, 2126.0, 2125.0, 2125.0, 2126.0, 2125.0, 2125.0, 2125.0, 2125.0, 2126.0, 2125.0, 2125.0, 2125.0, 2125.0, 2125.0, 2125.0, 2125.0, 2125.0, 2125.0, 2125.0, 2125.0, 2125.0, 2125.0, 2125.0, 2125.0, 2125.0, 2125.0, 2125.0, 2125.0, 2125.0, 2125.0, 2125.0, 2125.0, 2126.0, 2125.0, 2125.0, 2125.0, 2125.0, 2125.0, 2125.0, 2125.0, 2125.0, 2126.0, 2125.0, 2125.0, 2125.0, 2125.0, 2126.0, 2125.0, 2125.0, 2126.0, 2125.0, 2125.0, 2126.0, 2125.0, 2125.0, 2126.0, 2125.0, 2125.0, 2125.0, 2125.0, 2125.0, 2125.0, 2125.0, 2125.0, 2125.0, 2125.0, 2125.0, 2125.0, 2125.0, 2125.0, 2125.0, 2125.0, 2125.0, 2125.0, 2125.0, 2125.0, 2125.0, 2125.0, 2125.0, 2125.0, 2125.0, 2125.0, 2125.0, 2125.0, 2125.0, 2126.0, 2125.0]
    },
    "slices": {}
  }
}