{
  "AcquisitionMatrixPE": 80,
  "AcquisitionNumber": 1,
  "AcquisitionTime": "09:32:16.480000",
  "BandwidthPerPixelPhaseEncode": 48.077,
  "BaseResolution": 80,
  "BodyPartExamined": "BRAIN",
  "CoilCombinationMethod": "Sum of Squares",
  "ConsistencyInfo": "N4_VE11C_LATEST_20160120",
  "ConversionSoftware": "dcm2niix",
  "ConversionSoftwareVersion": "v1.0.20220720",
  "DerivedVendorReportedEchoSpacing": 0.000519999,
  "DeviceSerialNumber": "66112",
  "DwellTime": 2.7e-06,
  "EchoTime": 0.035,
  "EchoTrainLength": 39,
  "EffectiveEchoSpacing": 0.00026,
  "FlipAngle": 90,
  "HeudiconvVersion": "0.13.1",
  "ImageOrientationPatientDICOM": [0.985137, 0.171523, 0.00922154, -0.166093, 0.937509, 0.305761],
  "ImageOrientationText": "Tra>Cor(17.6)>Sag(-2.5)",
  "ImageType": [
    "ORIGINAL",
    "PRIMARY",
    "M",
    "ND",
    "NORM",
    "MOSAIC"
],
  "ImagingFrequency": 123.252,
  "InPlanePhaseEncodingDirectionDICOM": "COL",
  "InstitutionAddress": "Maynard 3,Hanover,NH,US,03755",
  "InstitutionName": "Dartmouth College - PBS",
  "InstitutionalDepartmentName": "Department",
  "MRAcquisitionType": "2D",
  "MagneticFieldStrength": 3,
  "Manufacturer": "Siemens",
  "ManufacturersModelName": "Prisma",
  "MatrixCoilMode": "GRAPPA",
  "Modality": "MR",
  "NonlinearGradientCorrection": false,
  "ParallelReductionFactorInPlane": 2,
  "PartialFourier": 1,
  "PatientPosition": "HFS",
  "PercentPhaseFOV": 100,
  "PercentSampling": 100,
  "PhaseEncodingDirection": "j-",
  "PhaseEncodingSteps": 79,
  "PhaseResolution": 1,
  "PixelBandwidth": 2315,
  "ProcedureStepDescription": "dbic^QA",
  "ProtocolName": "func-bold_task-rest_acq-p2",
  "PulseSequenceDetails": "%SiemensSeq%\\ep2d_bold",
  "ReceiveCoilActiveElements": "HEA;HEP",
  "ReceiveCoilName": "Head_32",
  "ReconMatrixPE": 80,
  "RefLinesPE": 24,
  "RepetitionTime": 2,
  "SAR": 0.0555845,
  "ScanOptions": "FS",
  "ScanningSequence": "EP",
  "SequenceName": "*epfid2d1_80",
  "SequenceVariant": "SK",
  "SeriesDescription": "func-bold_task-rest_acq-p2",
  "SeriesNumber": 5,
  "ShimSetting": [4147, -7701, -7512, 255, -59, -103, -11, 46],
  "SliceThickness": 3.5,
  "SliceTiming": [0.99, 0, 1.055, 0.065, 1.12, 0.13, 1.1875, 0.1975, 1.2525, 0.2625, 1.32, 0.33, 1.385, 0.395, 1.45, 0.46, 1.5175, 0.5275, 1.5825, 0.5925, 1.65, 0.66, 1.715, 0.725, 1.78, 0.79, 1.8475, 0.8575, 1.9125, 0.9225],
  "SoftwareVersions": "syngo MR E11",
  "SpacingBetweenSlices": 3.99,
  "StationName": "AWP66112",
  "TaskName": "rest",
  "TotalReadoutTime": 0.02054,
  "TxRefAmp": 233.503,
  "dcmmeta_affine": [
    [-2.9554107189178467, -0.49827879667282104, -0.17476172745227814, 143.76519775390625],
    [-0.5145700573921204, 2.8125271797180176, 1.2079659700393677, -98.17798614501953],
    [0.027664605528116226, -0.9172838926315308, 3.7987334728240967, -12.463966369628906],
    [0.0, 0.0, 0.0, 1.0]
],
  "dcmmeta_reorient_transform": [
    [0.0, -1.0, 0.0, 79.0],
    [1.0, 0.0, 0.0, 0.0],
    [0.0, 0.0, 1.0, 0.0],
    [0.0, 0.0, 0.0, 1.0]
],
  "dcmmeta_shape": [80, 80, 30, 200],
  "dcmmeta_slice_dim": 2,
  "dcmmeta_version": 0.6,
  "global": {
    "const": {
      "AccessionNumber": "qa",
      "AcquisitionMatrix": [80, 0, 0, 80],
      "AngioFlag": "N",
      "BitsAllocated": 16,
      "BitsStored": 12,
      "BodyPartExamined": "BRAIN",
      "Columns": 480,
      "EchoNumbers": 1,
      "EchoTime": 35.0,
      "EchoTrainLength": 39,
      "FlipAngle": 90.0,
      "HighBit": 11,
      "ImageOrientationPatient": [0.98513689621992, 0.17152334825148, 0.00922153516443, -0.1660929312963, 0.93750902048568, 0.30576130344011],
      "ImagePositionPatient": [-595.8275457248, -789.4310751517, -273.91909826304],
      "ImageType": [
        "ORIGINAL",
        "PRIMARY",
        "M",
        "ND",
        "NORM",
        "MOSAIC"
],
      "ImagedNucleus": "1H",
      "ImagingFrequency": 123.252388,
      "InPlanePhaseEncodingDirection": "COL",
      "MRAcquisitionType": "2D",
      "MagneticFieldStrength": 3.0,
      "Manufacturer": "SIEMENS",
      "ManufacturerModelName": "Prisma",
      "Modality": "MR",
      "NumberOfAverages": 1.0,
      "NumberOfPhaseEncodingSteps": 79,
      "PercentPhaseFieldOfView": 100.0,
      "PercentSampling": 100.0,
      "PerformedProcedureStepStartTime": "092925.352000",
      "PhotometricInterpretation": "MONOCHROME2",
      "PixelBandwidth": 2315.0,
      "PixelRepresentation": 0,
      "PixelSpacing": [3.0, 3.0],
      "ProtocolName": "func-bold_task-rest_acq-p2",
      "RepetitionTime": 2000.0,
      "Rows": 480,
      "SAR": 0.05558448520705,
      "SamplesPerPixel": 1,
      "ScanOptions": "FS",
      "ScanningSequence": "EP",
      "SequenceName": "*epfid2d1_80",
      "SequenceVariant": "SK",
      "SeriesDescription": "func-bold_task-rest_acq-p2",
      "SeriesNumber": 5,
      "SeriesTime": "093258.684000",
      "SliceLocation": -47.88661806972,
      "SliceThickness": 3.5,
      "SmallestImagePixelValue": 0,
      "SoftwareVersions": "syngo MR E11",
      "SpacingBetweenSlices": 3.9900000140413,
      "SpecificCharacterSet": "ISO_IR 100",
      "StudyID": "5",
      "StudyTime": "092925.300000",
      "TransmitCoilName": "Body",
      "VariableFlipAngleFlag": "N",
      "WindowCenterWidthExplanation": "Algo1",
      "dBdt": 0.0},
    "slices": {}
  },
  "time": {
    "samples": {
      "AcquisitionNumber": [1, 2, 3, 4, 5, 6, 7, 8, 9, 10, 11, 12, 13, 14, 15, 16, 17, 18, 19, 20, 21, 22, 23, 24, 25, 26, 27, 28, 29, 30, 31, 32, 33, 34, 35, 36, 37, 38, 39, 40, 41, 42, 43, 44, 45, 46, 47, 48, 49, 50, 51, 52, 53, 54, 55, 56, 57, 58, 59, 60, 61, 62, 63, 64, 65, 66, 67, 68, 69, 70, 71, 72, 73, 74, 75, 76, 77, 78, 79, 80, 81, 82, 83, 84, 85, 86, 87, 88, 89, 90, 91, 92, 93, 94, 95, 96, 97, 98, 99, 100, 101, 102, 103, 104, 105, 106, 107, 108, 109, 110, 111, 112, 113, 114, 115, 116, 117, 118, 119, 120, 121, 122, 123, 124, 125, 126, 127, 128, 129, 130, 131, 132, 133, 134, 135, 136, 137, 138, 139, 140, 141, 142, 143, 144, 145, 146, 147, 148, 149, 150, 151, 152, 153, 154, 155, 156, 157, 158, 159, 160, 161, 162, 163, 164, 165, 166, 167, 168, 169, 170, 171, 172, 173, 174, 175, 176, 177, 178, 179, 180, 181, 182, 183, 184, 185, 186, 187, 188, 189, 190, 191, 192, 193, 194, 195, 196, 197, 198, 199, 200],
      "AcquisitionTime": ["093216.480000", "093218.480000", "093220.480000", "093222.480000", "093224.480000", "093226.480000", "093228.480000", "093230.480000", "093232.480000", "093234.480000", "093236.480000", "093238.480000", "093240.480000", "093242.480000", "093244.480000", "093246.480000", "093248.480000", "093250.480000", "093252.480000", "093254.480000", "093256.480000", "093258.480000", "093300.480000", "093302.480000", "093304.480000", "093306.480000", "093308.480000", "093310.480000", "093312.480000", "093314.480000", "093316.480000", "093318.480000", "093320.480000", "093322.480000", "093324.480000", "093326.480000", "093328.480000", "093330.480000", "093332.480000", "093334.480000", "093336.480000", "093338.480000", "093340.480000", "093342.480000", "093344.480000", "093346.480000", "093348.480000", "093350.480000", "093352.480000", "093354.480000", "093356.480000", "093358.480000", "093400.480000", "093402.480000", "093404.480000", "093406.480000", "093408.480000", "093410.480000", "093412.480000", "093414.480000", "093416.480000", "093418.480000", "093420.480000", "093422.480000", "093424.480000", "093426.480000", "093428.480000", "093430.480000", "093432.480000", "093434.480000", "093436.480000", "093438.480000", "093440.480000", "093442.480000", "093444.480000", "093446.480000", "093448.480000", "093450.480000", "093452.480000", "093454.480000", "093456.480000", "093458.480000", "093500.480000", "093502.480000", "093504.480000", "093506.480000", "093508.480000", "093510.480000", "093512.480000", "093514.480000", "093516.480000", "093518.480000", "093520.480000", "093522.480000", "093524.480000", "093526.480000", "093528.480000", "093530.480000", "093532.480000", "093534.480000", "093536.480000", "093538.480000", "093540.480000", "093542.480000", "093544.480000", "093546.480000", "093548.480000", "093550.480000", "093552.480000", "093554.480000", "093556.480000", "093558.480000", "093600.480000", "093602.480000", "093604.480000", "093606.480000", "093608.480000", "093610.480000", "093612.480000", "093614.480000", "093616.480000", "093618.480000", "093620.480000", "093622.480000", "093624.480000", "093626.480000", "093628.480000", "093630.480000", "093632.480000", "093634.480000", "093636.480000", "093638.480000", "093640.480000", "093642.480000", "093644.480000", "093646.480000", "093648.480000", "093650.480000", "093652.480000", "093654.480000", "093656.480000", "093658.480000", "093700.480000", "093702.480000", "093704.480000", "093706.480000", "093708.480000", "093710.480000", "093712.480000", "093714.480000", "093716.480000", "093718.480000", "093720.480000", "093722.480000", "093724.480000", "093726.480000", "093728.480000", "093730.480000", "093732.480000", "093734.480000", "093736.480000", "093738.480000", "093740.480000", "093742.480000", "093744.480000", "093746.480000", "093748.480000", "093750.480000", "093752.480000", "093754.480000", "093756.480000", "093758.480000", "093800.480000", "093802.480000", "093804.480000", "093806.480000", "093808.480000", "093810.480000", "093812.480000", "093814.480000", "093816.480000", "093818.480000", "093820.480000", "093822.480000", "093824.480000", "093826.480000", "093828.480000", "093830.480000", "093832.480000", "093834.480000", "093836.480000", "093838.480000", "093840.480000", "093842.480000", "093844.480000", "093846.480000", "093848.480000", "093850.480000", "093852.480000", "093854.480000"],
      "ContentTime": ["093258.687000", "093258.691000", "093258.693000", "093258.704000", "093258.707000", "093258.709000", "093258.712000", "093258.714000", "093258.717000", "093258.719000", "093258.722000", "093258.724000", "093258.726000", "093258.729000", "093258.731000", "093258.737000", "093258.739000", "093258.742000", "093258.744000", "093258.747000", "093258.749000", "093338.683000", "093338.686000", "093338.689000", "093338.691000", "093338.694000", "093338.696000", "093338.699000", "093338.701000", "093338.704000", "093338.706000", "093338.709000", "093338.711000", "093338.714000", "093338.716000", "093338.719000", "093338.721000", "093338.724000", "093338.726000", "093338.729000", "093338.731000", "093418.683000", "093418.685000", "093418.688000", "093418.690000", "093418.693000", "093418.695000", "093418.698000", "093418.700000", "093418.703000", "093418.705000", "093418.708000", "093418.710000", "093418.713000", "093418.715000", "093418.718000", "093418.720000", "093418.723000", "093418.725000", "093418.728000", "093418.730000", "093458.682000", "093458.685000", "093458.688000", "093458.690000", "093458.693000", "093458.695000", "093458.698000", "093458.700000", "093458.703000", "093458.705000", "093458.708000", "093458.710000", "093458.713000", "093458.715000", "093458.718000", "093458.720000", "093458.723000", "093458.725000", "093458.728000", "093458.730000", "093538.682000", "093538.685000", "093538.688000", "093538.690000", "093538.693000", "093538.695000", "093538.698000", "093538.700000", "093538.703000", "093538.705000", "093538.708000", "093538.711000", "093538.713000", "093538.716000", "093538.718000", "093538.721000", "093538.723000", "093538.726000", "093538.728000", "093538.731000", "093618.683000", "093618.686000", "093618.689000", "093618.691000", "093618.694000", "093618.696000", "093618.699000", "093618.701000", "093618.704000", "093618.706000", "093618.709000", "093618.711000", "093618.714000", "093618.716000", "093618.719000", "093618.721000", "093618.724000", "093618.726000", "093618.729000", "093618.731000", "093658.682000", "093658.685000", "093658.688000", "093658.690000", "093658.693000", "093658.695000", "093658.698000", "093658.700000", "093658.703000", "093658.705000", "093658.708000", "093658.710000", "093658.713000", "093658.715000", "093658.718000", "093658.720000", "093658.723000", "093658.725000", "093658.728000", "093658.730000", "093738.682000", "093738.685000", "093738.688000", "093738.690000", "093738.693000", "093738.695000", "093738.698000", "093738.700000", "093738.703000", "093738.705000", "093738.708000", "093738.710000", "093738.713000", "093738.715000", "093738.718000", "093738.720000", "093738.723000", "093738.725000", "093738.728000", "093738.730000", "093818.683000", "093818.686000", "093818.689000", "093818.691000", "093818.694000", "093818.702000", "093818.704000", "093818.707000", "093818.709000", "093818.712000", "093818.714000", "093818.717000", "093818.719000", "093818.722000", "093818.724000", "093818.727000", "093818.729000", "093818.732000", "093818.734000", "093818.737000", "093856.302000", "093856.305000", "093856.308000", "093856.310000", "093856.313000", "093856.315000", "093856.318000", "093856.321000", "093856.323000", "093856.326000", "093856.328000", "093856.335000", "093856.339000", "093856.342000", "093856.345000", "093856.348000", "093856.351000", "093856.354000", "093856.356000"],
      "InstanceCreationTime": ["093258.687000", "093258.691000", "093258.693000", "093258.704000", "093258.707000", "093258.709000", "093258.712000", "093258.714000", "093258.717000", "093258.719000", "093258.722000", "093258.724000", "093258.726000", "093258.729000", "093258.731000", "093258.737000", "093258.739000", "093258.742000", "093258.744000", "093258.747000", "093258.749000", "093338.683000", "093338.686000", "093338.689000", "093338.691000", "093338.694000", "093338.696000", "093338.699000", "093338.701000", "093338.704000", "093338.706000", "093338.709000", "093338.711000", "093338.714000", "093338.716000", "093338.719000", "093338.721000", "093338.724000", "093338.726000", "093338.729000", "093338.731000", "093418.683000", "093418.685000", "093418.688000", "093418.690000", "093418.693000", "093418.695000", "093418.698000", "093418.700000", "093418.703000", "093418.705000", "093418.708000", "093418.710000", "093418.713000", "093418.715000", "093418.718000", "093418.720000", "093418.723000", "093418.725000", "093418.728000", "093418.730000", "093458.682000", "093458.685000", "093458.688000", "093458.690000", "093458.693000", "093458.695000", "093458.698000", "093458.700000", "093458.703000", "093458.705000", "093458.708000", "093458.710000", "093458.713000", "093458.715000", "093458.718000", "093458.720000", "093458.723000", "093458.725000", "093458.728000", "093458.730000", "093538.682000", "093538.685000", "093538.688000", "093538.690000", "093538.693000", "093538.695000", "093538.698000", "093538.700000", "093538.703000", "093538.705000", "093538.708000", "093538.711000", "093538.713000", "093538.716000", "093538.718000", "093538.721000", "093538.723000", "093538.726000", "093538.728000", "093538.731000", "093618.683000", "093618.686000", "093618.689000", "093618.691000", "093618.694000", "093618.696000", "093618.699000", "093618.701000", "093618.704000", "093618.706000", "093618.709000", "093618.711000", "093618.714000", "093618.716000", "093618.719000", "093618.721000", "093618.724000", "093618.726000", "093618.729000", "093618.731000", "093658.682000", "093658.685000", "093658.688000", "093658.690000", "093658.693000", "093658.695000", "093658.698000", "093658.700000", "093658.703000", "093658.705000", "093658.708000", "093658.710000", "093658.713000", "093658.715000", "093658.718000", "093658.720000", "093658.723000", "093658.725000", "093658.728000", "093658.730000", "093738.682000", "093738.685000", "093738.688000", "093738.690000", "093738.693000", "093738.695000", "093738.698000", "093738.700000", "093738.703000", "093738.705000", "093738.708000", "093738.710000", "093738.713000", "093738.715000", "093738.718000", "093738.720000", "093738.723000", "093738.725000", "093738.728000", "093738.730000", "093818.683000", "093818.686000", "093818.689000", "093818.691000", "093818.694000", "093818.702000", "093818.704000", "093818.707000", "093818.709000", "093818.712000", "093818.714000", "093818.717000", "093818.719000", "093818.722000", "093818.724000", "093818.727000", "093818.729000", "093818.732000", "093818.734000", "093818.737000", "093856.302000", "093856.305000", "093856.308000", "093856.310000", "093856.313000", "093856.315000", "093856.318000", "093856.321000", "093856.323000", "093856.326000", "093856.328000", "093856.335000", "093856.339000", "093856.342000", "093856.345000", "093856.348000", "093856.351000", "093856.354000", "093856.356000"],
      "InstanceNumber": [1, 2, 3, 4, 5, 6, 7, 8, 9, 10, 11, 12, 13, 14, 15, 16, 17, 18, 19, 20, 21, 22, 23, 24, 25, 26, 27, 28, 29, 30, 31, 32, 33, 34, 35, 36, 37, 38, 39, 40, 41, 42, 43, 44, 45, 46, 47, 48, 49, 50, 51, 52, 53, 54, 55, 56, 57, 58, 59, 60, 61, 62, 63, 64, 65, 66, 67, 68, 69, 70, 71, 72, 73, 74, 75, 76, 77, 78, 79, 80, 81, 82, 83, 84, 85, 86, 87, 88, 89, 90, 91, 92, 93, 94, 95, 96, 97, 98, 99, 100, 101, 102, 103, 104, 105, 106, 107, 108, 109, 110, 111, 112, 113, 114, 115, 116, 117, 118, 119, 120, 121, 122, 123, 124, 125, 126, 127, 128, 129, 130, 131, 132, 133, 134, 135, 136, 137, 138, 139, 140, 141, 142, 143, 144, 145, 146, 147, 148, 149, 150, 151, 152, 153, 154, 155, 156, 157, 158, 159, 160, 161, 162, 163, 164, 165, 166, 167, 168, 169, 170, 171, 172, 173, 174, 175, 176, 177, 178, 179, 180, 181, 182, 183, 184, 185, 186, 187, 188, 189, 190, 191, 192, 193, 194, 195, 196, 197, 198, 199, 200],
      "LargestImagePixelValue": [2043, 2045, 2044, 2039, 2038, 2047, 2048, 2047, 2039, 2042, 2038, 2042, 2038, 2048, 2038, 2041, 2034, 2040, 2051, 2042, 2041, 2043, 2037, 2042, 2040, 2041, 2044, 2044, 2042, 2042, 2041, 2047, 2039, 2044, 2044, 2047, 2044, 2044, 2045, 2041, 2049, 2045, 2045, 2045, 2047, 2039, 2045, 2046, 2044, 2051, 2045, 2044, 2048, 2048, 2038, 2049, 2041, 2042, 2041, 2043, 2045, 2043, 2044, 2043, 2052, 2045, 2045, 2045, 2050, 2044, 2045, 2046, 2048, 2042, 2051, 2049, 2047, 2044, 2045, 2041, 2042, 2052, 2048, 2048, 2043, 2044, 2042, 2047, 2044, 2051, 2048, 2048, 2041, 2047, 2048, 2047, 2044, 2047, 2047, 2046, 2050, 2042, 2048, 2046, 2049, 2044, 2049, 2048, 2046, 2042, 2047, 2044, 2045, 2041, 2046, 2049, 2044, 2042, 2044, 2041, 2049, 2040, 2043, 2050, 2045, 2042, 2051, 2047, 2045, 2038, 2051, 2045, 2046, 2051, 2045, 2046, 2048, 2046, 2043, 2040, 2048, 2048, 2045, 2047, 2044, 2041, 2044, 2041, 2046, 2044, 2045, 2046, 2050, 2043, 2044, 2055, 2043, 2046, 2047, 2044, 2043, 2042, 2047, 2051, 2042, 2051, 2045, 2045, 2049, 2045, 2047, 2041, 2044, 2047, 2049, 2044, 2046, 2052, 2051, 2046, 2049, 2041, 2048, 2047, 2044, 2050, 2045, 2042, 2043, 2045, 2043, 2048, 2049, 2042, 2040, 2049, 2044, 2044, 2047, 2041],
      "WindowCenter": [999.0, 999.0, 999.0, 999.0, 999.0, 999.0, 999.0, 999.0, 999.0, 999.0, 999.0, 999.0, 999.0, 999.0, 999.0, 999.0, 1000.0, 999.0, 999.0, 999.0, 999.0, 999.0, 999.0, 999.0, 999.0, 999.0, 999.0, 999.0, 999.0, 999.0, 999.0, 999.0, 999.0, 1000.0, 999.0, 999.0, 999.0, 999.0, 999.0, 999.0, 999.0, 1000.0, 999.0, 999.0, 999.0, 999.0, 999.0, 999.0, 1000.0, 999.0, 999.0, 999.0, 999.0, 999.0, 999.0, 999.0, 999.0, 999.0, 999.0, 999.0, 998.0, 999.0, 998.0, 999.0, 998.0, 998.0, 999.0, 998.0, 998.0, 998.0, 998.0, 998.0, 998.0, 998.0, 998.0, 998.0, 999.0, 998.0, 998.0, 998.0, 998.0, 998.0, 998.0, 998.0, 998.0, 998.0, 998.0, 998.0, 998.0, 998.0, 999.0, 998.0, 999.0, 999.0, 998.0, 998.0, 998.0, 998.0, 998.0, 998.0, 998.0, 998.0, 998.0, 998.0, 998.0, 998.0, 998.0, 998.0, 998.0, 999.0, 998.0, 999.0, 999.0, 998.0, 998.0, 999.0, 998.0, 998.0, 999.0, 998.0, 998.0, 998.0, 998.0, 998.0, 998.0, 998.0, 998.0, 998.0, 998.0, 998.0, 998.0, 998.0, 998.0, 998.0, 998.0, 998.0, 998.0, 998.0, 999.0, 998.0, 998.0, 999.0, 998.0, 998.0, 998.0, 998.0, 998.0, 998.0, 998.0, 998.0, 998.0, 998.0, 998.0, 998.0, 999.0, 998.0, 998.0, 999.0, 998.0, 998.0, 999.0, 998.0, 998.0, 998.0, 998.0, 998.0, 998.0, 998.0, 998.0, 998.0, 998.0, 998.0, 998.0, 998.0, 998.0, 998.0, 998.0, 998.0, 998.0, 998.0, 998.0, 999.0, 998.0, 998.0, 998.0, 998.0, 998.0, 998.0, 998.0, 998.0, 998.0, 998.0, 998.0, 998.0, 998.0, 998.0, 998.0, 998.0, 998.0, 998.0],
      "WindowWidth": [2191.0, 2191.0, 2191.0, 2191.0, 2191.0, 2190.0, 2190.0, 2191.0, 2191.0, 2191.0, 2191.0, 2190.0, 2190.0, 2190.0, 2191.0, 2191.0, 2192.0, 2191.0, 2190.0, 2190.0, 2190.0, 2191.0, 2191.0, 2190.0, 2191.0, 2191.0, 2190.0, 2190.0, 2190.0, 2190.0, 2190.0, 2190.0, 2190.0, 2191.0, 2191.0, 2190.0, 2190.0, 2190.0, 2189.0, 2190.0, 2189.0, 2190.0, 2190.0, 2190.0, 2190.0, 2190.0, 2190.0, 2190.0, 2190.0, 2190.0, 2190.0, 2190.0, 2190.0, 2190.0, 2190.0, 2189.0, 2190.0, 2190.0, 2189.0, 2191.0, 2190.0, 2189.0, 2190.0, 2189.0, 2190.0, 2190.0, 2189.0, 2190.0, 2189.0, 2189.0, 2189.0, 2189.0, 2189.0, 2189.0, 2189.0, 2189.0, 2190.0, 2189.0, 2190.0, 2189.0, 2189.0, 2189.0, 2190.0, 2189.0, 2189.0, 2189.0, 2189.0, 2189.0, 2189.0, 2189.0, 2190.0, 2189.0, 2190.0, 2190.0, 2189.0, 2189.0, 2189.0, 2189.0, 2189.0, 2189.0, 2189.0, 2189.0, 2189.0, 2189.0, 2189.0, 2189.0, 2189.0, 2188.0, 2189.0, 2189.0, 2189.0, 2189.0, 2189.0, 2188.0, 2188.0, 2189.0, 2188.0, 2189.0, 2189.0, 2188.0, 2188.0, 2188.0, 2188.0, 2188.0, 2188.0, 2188.0, 2188.0, 2188.0, 2188.0, 2188.0, 2188.0, 2188.0, 2188.0, 2188.0, 2188.0, 2188.0, 2188.0, 2188.0, 2189.0, 2188.0, 2188.0, 2188.0, 2188.0, 2188.0, 2188.0, 2188.0, 2188.0, 2188.0, 2188.0, 2188.0, 2188.0, 2188.0, 2188.0, 2188.0, 2188.0, 2188.0, 2188.0, 2188.0, 2188.0, 2188.0, 2188.0, 2188.0, 2188.0, 2188.0, 2188.0, 2188.0, 2187.0, 2188.0, 2188.0, 2188.0, 2188.0, 2188.0, 2187.0, 2187.0, 2187.0, 2187.0, 2187.0, 2188.0, 2187.0, 2187.0, 2187.0, 2188.0, 2188.0, 2187.0, 2187.0, 2188.0, 2187.0, 2187.0, 2187.0, 2188.0, 2187.0, 2187.0, 2188.0, 2187.0, 2187.0, 2188.0, 2187.0, 2187.0, 2188.0, 2187.0]
    },
    "slices": {}
  }
}