{
  "AcquisitionMatrixPE": 80,
  "AcquisitionNumber": 1,
  "AcquisitionTime": "09:46:1.510000",
  "BandwidthPerPixelPhaseEncode": 25,
  "BaseResolution": 80,
  "BodyPartExamined": "BRAIN",
  "CoilCombinationMethod": "Sum of Squares",
  "ConsistencyInfo": "N4_VE11C_LATEST_20160120",
  "ConversionSoftware": "dcm2niix",
  "ConversionSoftwareVersion": "v1.0.20220720",
  "DerivedVendorReportedEchoSpacing": 0.0005,
  "DeviceSerialNumber": "66112",
  "DwellTime": 2.7e-06,
  "EchoTime": 0.03,
  "EchoTrainLength": 80,
  "EffectiveEchoSpacing": 0.0005,
  "FlipAngle": 77,
  "HeudiconvVersion": "0.13.1",
  "ImageOrientationPatientDICOM": [0.985137, 0.171523, 0.00922154, -0.166093, 0.937509, 0.305761],
  "ImageOrientationText": "Tra>Cor(17.6)>Sag(-2.5)",
  "ImageType": [
    "ORIGINAL",
    "PRIMARY",
    "M",
    "ND",
    "NORM",
    "MOSAIC"
],
  "ImagingFrequency": 123.252,
  "InPlanePhaseEncodingDirectionDICOM": "COL",
  "InstitutionAddress": "Maynard 3,Hanover,NH,US,03755",
  "InstitutionName": "Dartmouth College - PBS",
  "InstitutionalDepartmentName": "Department",
  "MRAcquisitionType": "2D",
  "MagneticFieldStrength": 3,
  "Manufacturer": "Siemens",
  "ManufacturersModelName": "Prisma",
  "MatrixCoilMode": "SENSE",
  "Modality": "MR",
  "NonlinearGradientCorrection": false,
  "PartialFourier": 1,
  "PatientPosition": "HFS",
  "PercentPhaseFOV": 100,
  "PercentSampling": 100,
  "PhaseEncodingDirection": "j-",
  "PhaseEncodingSteps": 80,
  "PhaseResolution": 1,
  "PixelBandwidth": 2315,
  "ProcedureStepDescription": "dbic^QA",
  "ProtocolName": "func-bold_fa-77",
  "PulseSequenceDetails": "%SiemensSeq%\\ep2d_bold",
  "ReceiveCoilActiveElements": "HEA;HEP",
  "ReceiveCoilName": "Head_32",
  "ReconMatrixPE": 80,
  "RepetitionTime": 2,
  "SAR": 0.0436811,
  "ScanOptions": "FS",
  "ScanningSequence": "EP",
  "SequenceName": "*epfid2d1_80",
  "SequenceVariant": "SK",
  "SeriesDescription": "func-bold_fa-77",
  "SeriesNumber": 8,
  "ShimSetting": [4147, -7701, -7512, 251, -59, -99, -8, 46],
  "SliceThickness": 3.5,
  "SliceTiming": [0.99, 0, 1.055, 0.0675, 1.1225, 0.1325, 1.1875, 0.1975, 1.255, 0.265, 1.32, 0.33, 1.385, 0.3975, 1.4525, 0.4625, 1.5175, 0.5275, 1.585, 0.595, 1.65, 0.66, 1.715, 0.7275, 1.7825, 0.7925, 1.8475, 0.8575, 1.915, 0.925],
  "SoftwareVersions": "syngo MR E11",
  "SpacingBetweenSlices": 3.99,
  "StationName": "AWP66112",
  "TotalReadoutTime": 0.0395,
  "TxRefAmp": 233.503,
  "dcmmeta_affine": [
    [-2.9554107189178467, -0.49827879667282104, -0.17476172745227814, 143.9721221923828],
    [-0.5145700573921204, 2.8125271797180176, 1.2079659700393677, -99.2030258178711],
    [0.027664605528116226, -0.9172838926315308, 3.7987334728240967, -9.438823699951172],
    [0.0, 0.0, 0.0, 1.0]
],
  "dcmmeta_reorient_transform": [
    [0.0, -1.0, 0.0, 79.0],
    [1.0, 0.0, 0.0, 0.0],
    [0.0, 0.0, 1.0, 0.0],
    [0.0, 0.0, 0.0, 1.0]
],
  "dcmmeta_shape": [80, 80, 30, 200],
  "dcmmeta_slice_dim": 2,
  "dcmmeta_version": 0.6,
  "global": {
    "const": {
      "AccessionNumber": "qa",
      "AcquisitionMatrix": [80, 0, 0, 80],
      "AngioFlag": "N",
      "BitsAllocated": 16,
      "BitsStored": 12,
      "BodyPartExamined": "BRAIN",
      "Columns": 480,
      "EchoNumbers": 1,
      "EchoTime": 30.0,
      "EchoTrainLength": 80,
      "FlipAngle": 77.0,
      "HighBit": 11,
      "ImageOrientationPatient": [0.98513689621992, 0.17152334825148, 0.00922153516443, -0.1660929312963, 0.93750902048568, 0.30576130344011],
      "ImagePositionPatient": [-596.03447016328, -788.40603261783, -270.89395559337],
      "ImageType": [
        "ORIGINAL",
        "PRIMARY",
        "M",
        "ND",
        "NORM",
        "MOSAIC"
],
      "ImagedNucleus": "1H",
      "ImagingFrequency": 123.252387,
      "InPlanePhaseEncodingDirection": "COL",
      "MRAcquisitionType": "2D",
      "MagneticFieldStrength": 3.0,
      "Manufacturer": "SIEMENS",
      "ManufacturerModelName": "Prisma",
      "Modality": "MR",
      "NumberOfAverages": 1.0,
      "NumberOfPhaseEncodingSteps": 80,
      "PercentPhaseFieldOfView": 100.0,
      "PercentSampling": 100.0,
      "PerformedProcedureStepStartTime": "092925.352000",
      "PhotometricInterpretation": "MONOCHROME2",
      "PixelBandwidth": 2315.0,
      "PixelRepresentation": 0,
      "PixelSpacing": [3.0, 3.0],
      "ProtocolName": "func-bold_fa-77",
      "RepetitionTime": 2000.0,
      "Rows": 480,
      "SAR": 0.04368106233037,
      "SamplesPerPixel": 1,
      "ScanOptions": "FS",
      "ScanningSequence": "EP",
      "SequenceName": "*epfid2d1_80",
      "SequenceVariant": "SK",
      "SeriesDescription": "func-bold_fa-77",
      "SeriesNumber": 8,
      "SeriesTime": "094658.614000",
      "SliceLocation": -45.325883259217,
      "SliceThickness": 3.5,
      "SmallestImagePixelValue": 0,
      "SoftwareVersions": "syngo MR E11",
      "SpacingBetweenSlices": 3.9900000245375,
      "SpecificCharacterSet": "ISO_IR 100",
      "StudyID": "5",
      "StudyTime": "092925.300000",
      "TransmitCoilName": "Body",
      "VariableFlipAngleFlag": "N",
      "WindowCenterWidthExplanation": "Algo1",
      "dBdt": 0.0},
    "slices": {}
  },
  "time": {
    "samples": {
      "AcquisitionNumber": [1, 2, 3, 4, 5, 6, 7, 8, 9, 10, 11, 12, 13, 14, 15, 16, 17, 18, 19, 20, 21, 22, 23, 24, 25, 26, 27, 28, 29, 30, 31, 32, 33, 34, 35, 36, 37, 38, 39, 40, 41, 42, 43, 44, 45, 46, 47, 48, 49, 50, 51, 52, 53, 54, 55, 56, 57, 58, 59, 60, 61, 62, 63, 64, 65, 66, 67, 68, 69, 70, 71, 72, 73, 74, 75, 76, 77, 78, 79, 80, 81, 82, 83, 84, 85, 86, 87, 88, 89, 90, 91, 92, 93, 94, 95, 96, 97, 98, 99, 100, 101, 102, 103, 104, 105, 106, 107, 108, 109, 110, 111, 112, 113, 114, 115, 116, 117, 118, 119, 120, 121, 122, 123, 124, 125, 126, 127, 128, 129, 130, 131, 132, 133, 134, 135, 136, 137, 138, 139, 140, 141, 142, 143, 144, 145, 146, 147, 148, 149, 150, 151, 152, 153, 154, 155, 156, 157, 158, 159, 160, 161, 162, 163, 164, 165, 166, 167, 168, 169, 170, 171, 172, 173, 174, 175, 176, 177, 178, 179, 180, 181, 182, 183, 184, 185, 186, 187, 188, 189, 190, 191, 192, 193, 194, 195, 196, 197, 198, 199, 200],
      "AcquisitionTime": ["094601.510000", "094603.510000", "094605.510000", "094607.510000", "094609.510000", "094611.510000", "094613.510000", "094615.510000", "094617.510000", "094619.510000", "094621.510000", "094623.510000", "094625.510000", "094627.510000", "094629.510000", "094631.510000", "094633.510000", "094635.510000", "094637.510000", "094639.510000", "094641.510000", "094643.510000", "094645.510000", "094647.510000", "094649.510000", "094651.510000", "094653.510000", "094655.510000", "094657.510000", "094659.510000", "094701.510000", "094703.510000", "094705.510000", "094707.510000", "094709.510000", "094711.510000", "094713.510000", "094715.510000", "094717.510000", "094719.510000", "094721.510000", "094723.510000", "094725.510000", "094727.510000", "094729.510000", "094731.510000", "094733.510000", "094735.510000", "094737.510000", "094739.510000", "094741.510000", "094743.510000", "094745.510000", "094747.510000", "094749.510000", "094751.510000", "094753.510000", "094755.510000", "094757.510000", "094759.510000", "094801.510000", "094803.510000", "094805.510000", "094807.510000", "094809.510000", "094811.510000", "094813.510000", "094815.510000", "094817.510000", "094819.510000", "094821.510000", "094823.510000", "094825.510000", "094827.510000", "094829.510000", "094831.510000", "094833.510000", "094835.510000", "094837.510000", "094839.510000", "094841.510000", "094843.510000", "094845.510000", "094847.510000", "094849.510000", "094851.510000", "094853.510000", "094855.510000", "094857.510000", "094859.510000", "094901.510000", "094903.510000", "094905.510000", "094907.510000", "094909.510000", "094911.510000", "094913.510000", "094915.510000", "094917.510000", "094919.510000", "094921.510000", "094923.510000", "094925.510000", "094927.510000", "094929.510000", "094931.510000", "094933.510000", "094935.510000", "094937.510000", "094939.510000", "094941.510000", "094943.510000", "094945.510000", "094947.510000", "094949.510000", "094951.510000", "094953.510000", "094955.510000", "094957.510000", "094959.510000", "095001.510000", "095003.510000", "095005.510000", "095007.510000", "095009.510000", "095011.510000", "095013.510000", "095015.510000", "095017.510000", "095019.510000", "095021.510000", "095023.510000", "095025.510000", "095027.510000", "095029.510000", "095031.510000", "095033.510000", "095035.510000", "095037.510000", "095039.510000", "095041.510000", "095043.510000", "095045.510000", "095047.510000", "095049.510000", "095051.510000", "095053.510000", "095055.510000", "095057.510000", "095059.510000", "095101.510000", "095103.510000", "095105.510000", "095107.510000", "095109.510000", "095111.510000", "095113.510000", "095115.510000", "095117.510000", "095119.510000", "095121.510000", "095123.510000", "095125.510000", "095127.510000", "095129.510000", "095131.510000", "095133.510000", "095135.510000", "095137.510000", "095139.510000", "095141.510000", "095143.510000", "095145.510000", "095147.510000", "095149.510000", "095151.510000", "095153.510000", "095155.510000", "095157.510000", "095159.510000", "095201.510000", "095203.510000", "095205.510000", "095207.510000", "095209.510000", "095211.510000", "095213.510000", "095215.510000", "095217.510000", "095219.510000", "095221.510000", "095223.510000", "095225.510000", "095227.510000", "095229.510000", "095231.510000", "095233.510000", "095235.510000", "095237.510000", "095239.510000"],
      "ContentTime": ["094658.625000", "094658.628000", "094658.631000", "094658.633000", "094658.636000", "094658.638000", "094658.641000", "094658.643000", "094658.646000", "094658.648000", "094658.651000", "094658.653000", "094658.656000", "094658.658000", "094658.661000", "094658.663000", "094658.666000", "094658.668000", "094658.671000", "094658.673000", "094658.675000", "094658.678000", "094658.688000", "094658.690000", "094658.693000", "094658.695000", "094658.698000", "094658.700000", "094738.613000", "094738.616000", "094738.619000", "094738.627000", "094738.629000", "094738.632000", "094738.634000", "094738.637000", "094738.639000", "094738.642000", "094738.644000", "094738.647000", "094738.649000", "094738.651000", "094738.654000", "094738.656000", "094738.659000", "094738.661000", "094738.664000", "094738.666000", "094818.612000", "094818.615000", "094818.618000", "094818.620000", "094818.623000", "094818.625000", "094818.628000", "094818.630000", "094818.633000", "094818.635000", "094818.638000", "094818.640000", "094818.643000", "094818.645000", "094818.648000", "094818.650000", "094818.653000", "094818.655000", "094818.658000", "094818.660000", "094858.613000", "094858.615000", "094858.618000", "094858.620000", "094858.623000", "094858.625000", "094858.628000", "094858.630000", "094858.633000", "094858.635000", "094858.638000", "094858.640000", "094858.642000", "094858.645000", "094858.647000", "094858.650000", "094858.652000", "094858.655000", "094858.657000", "094858.660000", "094938.613000", "094938.616000", "094938.619000", "094938.621000", "094938.624000", "094938.626000", "094938.629000", "094938.631000", "094938.634000", "094938.636000", "094938.639000", "094938.641000", "094938.643000", "094938.646000", "094938.648000", "094938.651000", "094938.654000", "094938.656000", "094938.658000", "094938.661000", "095018.613000", "095018.616000", "095018.619000", "095018.621000", "095018.624000", "095018.626000", "095018.629000", "095018.631000", "095018.634000", "095018.636000", "095018.639000", "095018.641000", "095018.644000", "095018.646000", "095018.649000", "095018.651000", "095018.654000", "095018.656000", "095018.659000", "095018.661000", "095058.612000", "095058.615000", "095058.618000", "095058.620000", "095058.623000", "095058.625000", "095058.628000", "095058.630000", "095058.632000", "095058.635000", "095058.637000", "095058.640000", "095058.642000", "095058.645000", "095058.647000", "095058.650000", "095058.652000", "095058.655000", "095058.657000", "095058.660000", "095138.612000", "095138.615000", "095138.618000", "095138.620000", "095138.623000", "095138.625000", "095138.628000", "095138.630000", "095138.633000", "095138.635000", "095138.638000", "095138.640000", "095138.643000", "095138.645000", "095138.648000", "095138.650000", "095138.653000", "095138.655000", "095138.658000", "095138.660000", "095218.613000", "095218.616000", "095218.619000", "095218.621000", "095218.624000", "095218.626000", "095218.629000", "095218.631000", "095218.634000", "095218.636000", "095218.639000", "095218.641000", "095218.644000", "095218.646000", "095218.649000", "095218.651000", "095218.653000", "095218.656000", "095218.658000", "095218.661000", "095240.757000", "095240.759000", "095240.762000", "095240.764000", "095240.767000", "095240.769000", "095240.772000", "095240.775000", "095240.777000", "095240.780000", "095240.782000", "095240.823000"],
      "InstanceCreationTime": ["094658.625000", "094658.628000", "094658.631000", "094658.633000", "094658.636000", "094658.638000", "094658.641000", "094658.643000", "094658.646000", "094658.648000", "094658.651000", "094658.653000", "094658.656000", "094658.658000", "094658.661000", "094658.663000", "094658.666000", "094658.668000", "094658.671000", "094658.673000", "094658.675000", "094658.678000", "094658.688000", "094658.690000", "094658.693000", "094658.695000", "094658.698000", "094658.700000", "094738.613000", "094738.616000", "094738.619000", "094738.627000", "094738.629000", "094738.632000", "094738.634000", "094738.637000", "094738.639000", "094738.642000", "094738.644000", "094738.647000", "094738.649000", "094738.651000", "094738.654000", "094738.656000", "094738.659000", "094738.661000", "094738.664000", "094738.666000", "094818.612000", "094818.615000", "094818.618000", "094818.620000", "094818.623000", "094818.625000", "094818.628000", "094818.630000", "094818.633000", "094818.635000", "094818.638000", "094818.640000", "094818.643000", "094818.645000", "094818.648000", "094818.650000", "094818.653000", "094818.655000", "094818.658000", "094818.660000", "094858.613000", "094858.615000", "094858.618000", "094858.620000", "094858.623000", "094858.625000", "094858.628000", "094858.630000", "094858.633000", "094858.635000", "094858.638000", "094858.640000", "094858.642000", "094858.645000", "094858.647000", "094858.650000", "094858.652000", "094858.655000", "094858.657000", "094858.660000", "094938.613000", "094938.616000", "094938.619000", "094938.621000", "094938.624000", "094938.626000", "094938.629000", "094938.631000", "094938.634000", "094938.636000", "094938.639000", "094938.641000", "094938.643000", "094938.646000", "094938.648000", "094938.651000", "094938.654000", "094938.656000", "094938.658000", "094938.661000", "095018.613000", "095018.616000", "095018.619000", "095018.621000", "095018.624000", "095018.626000", "095018.629000", "095018.631000", "095018.634000", "095018.636000", "095018.639000", "095018.641000", "095018.644000", "095018.646000", "095018.649000", "095018.651000", "095018.654000", "095018.656000", "095018.659000", "095018.661000", "095058.612000", "095058.615000", "095058.618000", "095058.620000", "095058.623000", "095058.625000", "095058.628000", "095058.630000", "095058.632000", "095058.635000", "095058.637000", "095058.640000", "095058.642000", "095058.645000", "095058.647000", "095058.650000", "095058.652000", "095058.655000", "095058.657000", "095058.660000", "095138.612000", "095138.615000", "095138.618000", "095138.620000", "095138.623000", "095138.625000", "095138.628000", "095138.630000", "095138.633000", "095138.635000", "095138.638000", "095138.640000", "095138.643000", "095138.645000", "095138.648000", "095138.650000", "095138.653000", "095138.655000", "095138.658000", "095138.660000", "095218.613000", "095218.616000", "095218.619000", "095218.621000", "095218.624000", "095218.626000", "095218.629000", "095218.631000", "095218.634000", "095218.636000", "095218.639000", "095218.641000", "095218.644000", "095218.646000", "095218.649000", "095218.651000", "095218.653000", "095218.656000", "095218.658000", "095218.661000", "095240.757000", "095240.759000", "095240.762000", "095240.764000", "095240.767000", "095240.769000", "095240.772000", "095240.775000", "095240.777000", "095240.780000", "095240.782000", "095240.823000"],
      "InstanceNumber": [1, 2, 3, 4, 5, 6, 7, 8, 9, 10, 11, 12, 13, 14, 15, 16, 17, 18, 19, 20, 21, 22, 23, 24, 25, 26, 27, 28, 29, 30, 31, 32, 33, 34, 35, 36, 37, 38, 39, 40, 41, 42, 43, 44, 45, 46, 47, 48, 49, 50, 51, 52, 53, 54, 55, 56, 57, 58, 59, 60, 61, 62, 63, 64, 65, 66, 67, 68, 69, 70, 71, 72, 73, 74, 75, 76, 77, 78, 79, 80, 81, 82, 83, 84, 85, 86, 87, 88, 89, 90, 91, 92, 93, 94, 95, 96, 97, 98, 99, 100, 101, 102, 103, 104, 105, 106, 107, 108, 109, 110, 111, 112, 113, 114, 115, 116, 117, 118, 119, 120, 121, 122, 123, 124, 125, 126, 127, 128, 129, 130, 131, 132, 133, 134, 135, 136, 137, 138, 139, 140, 141, 142, 143, 144, 145, 146, 147, 148, 149, 150, 151, 152, 153, 154, 155, 156, 157, 158, 159, 160, 161, 162, 163, 164, 165, 166, 167, 168, 169, 170, 171, 172, 173, 174, 175, 176, 177, 178, 179, 180, 181, 182, 183, 184, 185, 186, 187, 188, 189, 190, 191, 192, 193, 194, 195, 196, 197, 198, 199, 200],
      "LargestImagePixelValue": [2023, 2023, 2023, 2024, 2025, 2024, 2023, 2024, 2024, 2022, 2022, 2023, 2023, 2023, 2023, 2024, 2024, 2024, 2024, 2024, 2025, 2024, 2025, 2024, 2025, 2025, 2025, 2024, 2023, 2024, 2024, 2022, 2023, 2022, 2022, 2025, 2023, 2025, 2022, 2024, 2024, 2025, 2025, 2023, 2021, 2021, 2023, 2023, 2023, 2023, 2023, 2023, 2021, 2023, 2022, 2020, 2023, 2021, 2021, 2022, 2024, 2023, 2021, 2020, 2021, 2021, 2019, 2020, 2019, 2021, 2023, 2024, 2024, 2022, 2022, 2022, 2023, 2022, 2022, 2020, 2022, 2023, 2022, 2023, 2023, 2022, 2023, 2022, 2021, 2022, 2021, 2022, 2020, 2020, 2021, 2020, 2021, 2020, 2020, 2022, 2020, 2020, 2020, 2020, 2021, 2020, 2019, 2020, 2021, 2019, 2018, 2020, 2019, 2020, 2021, 2021, 2021, 2022, 2022, 2021, 2018, 2020, 2018, 2020, 2022, 2020, 2018, 2020, 2019, 2019, 2023, 2019, 2020, 2018, 2021, 2020, 2017, 2020, 2018, 2021, 2020, 2020, 2019, 2019, 2019, 2018, 2017, 2018, 2020, 2019, 2019, 2019, 2019, 2019, 2018, 2019, 2018, 2018, 2018, 2017, 2018, 2019, 2018, 2017, 2016, 2017, 2018, 2015, 2015, 2016, 2018, 2016, 2017, 2018, 2016, 2017, 2019, 2016, 2017, 2016, 2017, 2018, 2016, 2016, 2015, 2015, 2019, 2019, 2018, 2018, 2015, 2018, 2018, 2017, 2018, 2018, 2017, 2016, 2018, 2018],
      "WindowCenter": [987.0, 987.0, 987.0, 987.0, 987.0, 988.0, 988.0, 988.0, 988.0, 987.0, 987.0, 987.0, 987.0, 987.0, 986.0, 987.0, 988.0, 988.0, 986.0, 987.0, 988.0, 987.0, 988.0, 987.0, 987.0, 987.0, 988.0, 987.0, 987.0, 987.0, 986.0, 988.0, 987.0, 987.0, 987.0, 986.0, 987.0, 987.0, 986.0, 987.0, 987.0, 986.0, 987.0, 986.0, 987.0, 988.0, 986.0, 987.0, 985.0, 987.0, 987.0, 987.0, 987.0, 988.0, 988.0, 987.0, 987.0, 986.0, 985.0, 987.0, 986.0, 988.0, 987.0, 988.0, 987.0, 987.0, 988.0, 988.0, 985.0, 987.0, 987.0, 987.0, 987.0, 986.0, 986.0, 986.0, 988.0, 986.0, 987.0, 988.0, 987.0, 986.0, 986.0, 987.0, 987.0, 985.0, 987.0, 987.0, 987.0, 987.0, 987.0, 986.0, 985.0, 986.0, 987.0, 986.0, 986.0, 986.0, 986.0, 986.0, 987.0, 986.0, 987.0, 987.0, 985.0, 986.0, 985.0, 986.0, 986.0, 986.0, 987.0, 986.0, 986.0, 985.0, 985.0, 986.0, 985.0, 986.0, 987.0, 987.0, 986.0, 987.0, 988.0, 986.0, 987.0, 985.0, 988.0, 986.0, 986.0, 987.0, 986.0, 986.0, 985.0, 986.0, 987.0, 986.0, 986.0, 987.0, 986.0, 986.0, 986.0, 986.0, 986.0, 985.0, 986.0, 985.0, 985.0, 985.0, 985.0, 986.0, 987.0, 985.0, 986.0, 985.0, 987.0, 986.0, 985.0, 985.0, 984.0, 987.0, 985.0, 986.0, 986.0, 984.0, 986.0, 985.0, 987.0, 985.0, 987.0, 987.0, 987.0, 988.0, 987.0, 986.0, 987.0, 985.0, 987.0, 986.0, 985.0, 988.0, 987.0, 984.0, 986.0, 987.0, 987.0, 985.0, 987.0, 984.0, 985.0, 985.0, 985.0, 985.0, 986.0, 987.0, 986.0, 987.0, 985.0, 987.0, 986.0, 987.0],
      "WindowWidth": [2167.0, 2167.0, 2167.0, 2167.0, 2168.0, 2168.0, 2168.0, 2168.0, 2169.0, 2168.0, 2168.0, 2167.0, 2168.0, 2168.0, 2166.0, 2168.0, 2169.0, 2169.0, 2166.0, 2168.0, 2168.0, 2167.0, 2169.0, 2167.0, 2168.0, 2168.0, 2168.0, 2167.0, 2168.0, 2168.0, 2167.0, 2168.0, 2168.0, 2168.0, 2167.0, 2167.0, 2167.0, 2167.0, 2167.0, 2167.0, 2168.0, 2167.0, 2167.0, 2167.0, 2167.0, 2168.0, 2167.0, 2167.0, 2166.0, 2167.0, 2167.0, 2167.0, 2167.0, 2168.0, 2168.0, 2167.0, 2167.0, 2166.0, 2166.0, 2166.0, 2166.0, 2168.0, 2167.0, 2168.0, 2167.0, 2167.0, 2168.0, 2168.0, 2165.0, 2166.0, 2167.0, 2167.0, 2167.0, 2166.0, 2166.0, 2166.0, 2167.0, 2166.0, 2167.0, 2167.0, 2166.0, 2165.0, 2165.0, 2166.0, 2167.0, 2165.0, 2166.0, 2166.0, 2166.0, 2167.0, 2167.0, 2166.0, 2165.0, 2165.0, 2167.0, 2165.0, 2165.0, 2165.0, 2166.0, 2165.0, 2166.0, 2165.0, 2166.0, 2166.0, 2164.0, 2166.0, 2165.0, 2166.0, 2165.0, 2165.0, 2166.0, 2166.0, 2166.0, 2165.0, 2165.0, 2166.0, 2165.0, 2166.0, 2166.0, 2166.0, 2166.0, 2166.0, 2166.0, 2165.0, 2166.0, 2165.0, 2167.0, 2166.0, 2165.0, 2166.0, 2165.0, 2165.0, 2165.0, 2165.0, 2166.0, 2166.0, 2165.0, 2166.0, 2165.0, 2165.0, 2165.0, 2165.0, 2165.0, 2164.0, 2165.0, 2163.0, 2164.0, 2164.0, 2164.0, 2165.0, 2165.0, 2164.0, 2165.0, 2164.0, 2165.0, 2165.0, 2164.0, 2164.0, 2163.0, 2165.0, 2164.0, 2165.0, 2165.0, 2163.0, 2165.0, 2164.0, 2165.0, 2164.0, 2165.0, 2165.0, 2165.0, 2166.0, 2165.0, 2164.0, 2165.0, 2164.0, 2165.0, 2165.0, 2164.0, 2166.0, 2165.0, 2163.0, 2164.0, 2165.0, 2165.0, 2163.0, 2165.0, 2162.0, 2164.0, 2164.0, 2164.0, 2164.0, 2164.0, 2165.0, 2164.0, 2165.0, 2164.0, 2165.0, 2164.0, 2165.0]
    },
    "slices": {}
  }
}