{
  "AcquisitionMatrixPE": 80,
  "AcquisitionNumber": 1,
  "AcquisitionTime": "08:54:11.525000",
  "BandwidthPerPixelPhaseEncode": 48.077,
  "BaseResolution": 80,
  "BodyPartExamined": "BRAIN",
  "CoilCombinationMethod": "Sum of Squares",
  "ConsistencyInfo": "N4_VE11E_LATEST_20181129",
  "ConversionSoftware": "dcm2niix",
  "ConversionSoftwareVersion": "v1.0.20220720",
  "DerivedVendorReportedEchoSpacing": 0.000519999,
  "DeviceSerialNumber": "66112",
  "DwellTime": 2.7e-06,
  "EchoTime": 0.035,
  "EchoTrainLength": 39,
  "EffectiveEchoSpacing": 0.00026,
  "FlipAngle": 90,
  "HeudiconvVersion": "0.13.1",
  "ImageOrientationPatientDICOM": [0.999937, 0.0111319, 0.0013158, -0.0109953, 0.951228, 0.308293],
  "ImageOrientationText": "Tra>Cor(18.0)>Sag(-0.1)",
  "ImageType": [
    "ORIGINAL",
    "PRIMARY",
    "M",
    "ND",
    "NORM",
    "MOSAIC"
],
  "ImagingFrequency": 123.259,
  "InPlanePhaseEncodingDirectionDICOM": "COL",
  "InstitutionAddress": "Maynard 3,Hanover,NH,US,03755",
  "InstitutionName": "Dartmouth College - PBS",
  "InstitutionalDepartmentName": "Department",
  "MRAcquisitionType": "2D",
  "MagneticFieldStrength": 3,
  "Manufacturer": "Siemens",
  "ManufacturersModelName": "Prisma",
  "MatrixCoilMode": "GRAPPA",
  "Modality": "MR",
  "NonlinearGradientCorrection": false,
  "ParallelReductionFactorInPlane": 2,
  "PartialFourier": 1,
  "PatientPosition": "HFS",
  "PercentPhaseFOV": 100,
  "PercentSampling": 100,
  "PhaseEncodingDirection": "j-",
  "PhaseEncodingSteps": 79,
  "PhaseResolution": 1,
  "PixelBandwidth": 2315,
  "ProcedureStepDescription": "dbic^QA",
  "ProtocolName": "func-bold_task-rest_acq-p2",
  "PulseSequenceDetails": "%SiemensSeq%\\ep2d_bold",
  "ReceiveCoilActiveElements": "HC1-7;NC1,2",
  "ReceiveCoilName": "HeadNeck_64",
  "ReconMatrixPE": 80,
  "RefLinesPE": 24,
  "RepetitionTime": 2,
  "SAR": 0.0357429,
  "ScanOptions": "FS",
  "ScanningSequence": "EP",
  "SequenceName": "*epfid2d1_80",
  "SequenceVariant": "SK",
  "SeriesDescription": "func-bold_task-rest_acq-p2",
  "SeriesNumber": 7,
  "ShimSetting": [4227, -7747, -7490, -172, -116, -413, 22, 68],
  "SliceThickness": 3.5,
  "SliceTiming": [0.99, 0, 1.0575, 0.0675, 1.1225, 0.1325, 1.19, 0.2, 1.255, 0.265, 1.32, 0.33, 1.3875, 0.3975, 1.4525, 0.4625, 1.52, 0.53, 1.585, 0.595, 1.65, 0.66, 1.7175, 0.7275, 1.7825, 0.7925, 1.85, 0.86, 1.915, 0.925],
  "SoftwareVersions": "syngo MR E11",
  "SpacingBetweenSlices": 3.99,
  "StationName": "AWP66112",
  "TaskName": "rest",
  "TotalReadoutTime": 0.02054,
  "TxRefAmp": 212.486,
  "dcmmeta_affine": [
    [-2.9998114109039307, -0.03298596292734146, -0.008699259720742702, 123.53815460205078],
    [-0.033395715057849884, 2.8536832332611084, 1.2300713062286377, -125.11649322509766],
    [0.0039474074728786945, -0.9248803853988647, 3.7956485748291016, -29.308982849121094],
    [0.0, 0.0, 0.0, 1.0]
],
  "dcmmeta_reorient_transform": [
    [0.0, -1.0, 0.0, 79.0],
    [1.0, 0.0, 0.0, 0.0],
    [0.0, 0.0, 1.0, 0.0],
    [0.0, 0.0, 0.0, 1.0]
],
  "dcmmeta_shape": [80, 80, 30, 200],
  "dcmmeta_slice_dim": 2,
  "dcmmeta_version": 0.6,
  "global": {
    "const": {
      "AccessionNumber": "qa64",
      "AcquisitionMatrix": [80, 0, 0, 80],
      "AngioFlag": "N",
      "BitsAllocated": 16,
      "BitsStored": 12,
      "BodyPartExamined": "BRAIN",
      "Columns": 480,
      "EchoNumbers": 1,
      "EchoTime": 35.0,
      "EchoTrainLength": 39,
      "FlipAngle": 90.0,
      "HighBit": 11,
      "ImageOrientationPatient": [0.99993717270907, 0.01113190453593, 0.00131580241485, -0.0109953206771, 0.95122775832473, 0.30829345551881],
      "ImagePositionPatient": [-714.29737862028, -677.74028492691, -288.14008600032],
      "ImageType": [
        "ORIGINAL",
        "PRIMARY",
        "M",
        "ND",
        "NORM",
        "MOSAIC"
],
      "ImagedNucleus": "1H",
      "ImagingFrequency": 123.25945,
      "InPlanePhaseEncodingDirection": "COL",
      "MRAcquisitionType": "2D",
      "MagneticFieldStrength": 3.0,
      "Manufacturer": "SIEMENS",
      "ManufacturerModelName": "Prisma",
      "Modality": "MR",
      "NumberOfAverages": 1.0,
      "NumberOfPhaseEncodingSteps": 79,
      "PercentPhaseFieldOfView": 100.0,
      "PercentSampling": 100.0,
      "PerformedProcedureStepStartTime": "084909.634000",
      "PhotometricInterpretation": "MONOCHROME2",
      "PixelBandwidth": 2315.0,
      "PixelRepresentation": 0,
      "PixelSpacing": [3.0, 3.0],
      "ProtocolName": "func-bold_task-rest_acq-p2",
      "RepetitionTime": 2000.0,
      "Rows": 480,
      "SAR": 0.03574293399983,
      "SamplesPerPixel": 1,
      "ScanOptions": "FS",
      "ScanningSequence": "EP",
      "SequenceName": "*epfid2d1_80",
      "SequenceVariant": "SK",
      "SeriesDescription": "func-bold_task-rest_acq-p2",
      "SeriesNumber": 7,
      "SeriesTime": "085454.993000",
      "SliceLocation": -66.722681538587,
      "SliceThickness": 3.5,
      "SmallestImagePixelValue": 0,
      "SoftwareVersions": "syngo MR E11",
      "SpacingBetweenSlices": 3.9899999798799,
      "SpecificCharacterSet": "ISO_IR 100",
      "StudyID": "19",
      "StudyTime": "084909.566000",
      "TransmitCoilName": "Body",
      "VariableFlipAngleFlag": "N",
      "WindowCenterWidthExplanation": "Algo1"
    },
    "slices": {}
  },
  "time": {
    "samples": {
      "AcquisitionNumber": [1, 2, 3, 4, 5, 6, 7, 8, 9, 10, 11, 12, 13, 14, 15, 16, 17, 18, 19, 20, 21, 22, 23, 24, 25, 26, 27, 28, 29, 30, 31, 32, 33, 34, 35, 36, 37, 38, 39, 40, 41, 42, 43, 44, 45, 46, 47, 48, 49, 50, 51, 52, 53, 54, 55, 56, 57, 58, 59, 60, 61, 62, 63, 64, 65, 66, 67, 68, 69, 70, 71, 72, 73, 74, 75, 76, 77, 78, 79, 80, 81, 82, 83, 84, 85, 86, 87, 88, 89, 90, 91, 92, 93, 94, 95, 96, 97, 98, 99, 100, 101, 102, 103, 104, 105, 106, 107, 108, 109, 110, 111, 112, 113, 114, 115, 116, 117, 118, 119, 120, 121, 122, 123, 124, 125, 126, 127, 128, 129, 130, 131, 132, 133, 134, 135, 136, 137, 138, 139, 140, 141, 142, 143, 144, 145, 146, 147, 148, 149, 150, 151, 152, 153, 154, 155, 156, 157, 158, 159, 160, 161, 162, 163, 164, 165, 166, 167, 168, 169, 170, 171, 172, 173, 174, 175, 176, 177, 178, 179, 180, 181, 182, 183, 184, 185, 186, 187, 188, 189, 190, 191, 192, 193, 194, 195, 196, 197, 198, 199, 200],
      "AcquisitionTime": ["085411.525000", "085413.525000", "085415.525000", "085417.525000", "085419.525000", "085421.525000", "085423.525000", "085425.525000", "085427.525000", "085429.525000", "085431.525000", "085433.525000", "085435.525000", "085437.525000", "085439.525000", "085441.525000", "085443.525000", "085445.525000", "085447.525000", "085449.525000", "085451.525000", "085453.525000", "085455.525000", "085457.525000", "085459.525000", "085501.525000", "085503.525000", "085505.525000", "085507.525000", "085509.525000", "085511.525000", "085513.525000", "085515.525000", "085517.525000", "085519.525000", "085521.525000", "085523.525000", "085525.525000", "085527.525000", "085529.525000", "085531.525000", "085533.525000", "085535.525000", "085537.525000", "085539.525000", "085541.525000", "085543.525000", "085545.525000", "085547.525000", "085549.525000", "085551.525000", "085553.525000", "085555.525000", "085557.525000", "085559.525000", "085601.525000", "085603.525000", "085605.525000", "085607.525000", "085609.525000", "085611.525000", "085613.525000", "085615.525000", "085617.525000", "085619.525000", "085621.525000", "085623.525000", "085625.525000", "085627.525000", "085629.525000", "085631.525000", "085633.525000", "085635.525000", "085637.525000", "085639.525000", "085641.525000", "085643.525000", "085645.525000", "085647.525000", "085649.525000", "085651.525000", "085653.525000", "085655.525000", "085657.525000", "085659.525000", "085701.525000", "085703.525000", "085705.525000", "085707.525000", "085709.525000", "085711.525000", "085713.525000", "085715.525000", "085717.525000", "085719.525000", "085721.525000", "085723.525000", "085725.525000", "085727.525000", "085729.525000", "085731.525000", "085733.525000", "085735.525000", "085737.525000", "085739.525000", "085741.525000", "085743.525000", "085745.525000", "085747.525000", "085749.525000", "085751.525000", "085753.525000", "085755.525000", "085757.525000", "085759.525000", "085801.525000", "085803.525000", "085805.525000", "085807.525000", "085809.525000", "085811.525000", "085813.525000", "085815.525000", "085817.525000", "085819.525000", "085821.525000", "085823.525000", "085825.525000", "085827.525000", "085829.525000", "085831.525000", "085833.525000", "085835.525000", "085837.525000", "085839.525000", "085841.525000", "085843.525000", "085845.525000", "085847.525000", "085849.525000", "085851.525000", "085853.525000", "085855.525000", "085857.525000", "085859.525000", "085901.525000", "085903.525000", "085905.525000", "085907.525000", "085909.525000", "085911.525000", "085913.525000", "085915.525000", "085917.525000", "085919.525000", "085921.525000", "085923.525000", "085925.525000", "085927.525000", "085929.525000", "085931.525000", "085933.525000", "085935.525000", "085937.525000", "085939.525000", "085941.525000", "085943.525000", "085945.525000", "085947.525000", "085949.525000", "085951.525000", "085953.525000", "085955.525000", "085957.525000", "085959.525000", "090001.525000", "090003.525000", "090005.525000", "090007.525000", "090009.525000", "090011.525000", "090013.525000", "090015.525000", "090017.525000", "090019.525000", "090021.525000", "090023.525000", "090025.525000", "090027.525000", "090029.525000", "090031.525000", "090033.525000", "090035.525000", "090037.525000", "090039.525000", "090041.525000", "090043.525000", "090045.525000", "090047.525000", "090049.525000"],
      "ContentTime": ["085454.997000", "085455.001000", "085455.003000", "085455.010000", "085455.012000", "085455.015000", "085455.017000", "085455.019000", "085455.022000", "085455.024000", "085455.026000", "085455.029000", "085455.031000", "085455.034000", "085455.036000", "085455.044000", "085455.047000", "085455.049000", "085455.052000", "085455.054000", "085455.056000", "085534.992000", "085534.995000", "085534.997000", "085535.001000", "085535.003000", "085535.006000", "085535.009000", "085535.011000", "085535.014000", "085535.016000", "085535.019000", "085535.021000", "085535.023000", "085535.026000", "085535.028000", "085535.030000", "085535.033000", "085535.035000", "085535.038000", "085535.040000", "085614.992000", "085614.995000", "085615.010000", "085615.012000", "085615.015000", "085615.017000", "085615.020000", "085615.022000", "085615.025000", "085615.027000", "085615.029000", "085615.031000", "085615.034000", "085615.036000", "085615.039000", "085615.041000", "085615.043000", "085615.046000", "085615.048000", "085615.050000", "085654.992000", "085654.995000", "085654.997000", "085655.001000", "085655.004000", "085655.006000", "085655.010000", "085655.013000", "085655.015000", "085655.018000", "085655.020000", "085655.022000", "085655.025000", "085655.027000", "085655.029000", "085655.032000", "085655.034000", "085655.037000", "085655.039000", "085655.041000", "085734.992000", "085734.995000", "085734.997000", "085735.000000", "085735.003000", "085735.005000", "085735.008000", "085735.011000", "085735.014000", "085735.016000", "085735.018000", "085735.021000", "085735.023000", "085735.025000", "085735.028000", "085735.030000", "085735.033000", "085735.035000", "085735.037000", "085735.040000", "085814.992000", "085814.995000", "085814.997000", "085815.000000", "085815.003000", "085815.005000", "085815.009000", "085815.011000", "085815.014000", "085815.016000", "085815.019000", "085815.021000", "085815.024000", "085815.026000", "085815.028000", "085815.031000", "085815.033000", "085815.035000", "085815.038000", "085815.040000", "085854.992000", "085854.995000", "085854.997000", "085854.999000", "085855.002000", "085855.004000", "085855.007000", "085855.010000", "085855.012000", "085855.015000", "085855.017000", "085855.019000", "085855.022000", "085855.024000", "085855.026000", "085855.029000", "085855.031000", "085855.034000", "085855.036000", "085855.038000", "085934.992000", "085934.995000", "085934.997000", "085935.000000", "085935.003000", "085935.005000", "085935.009000", "085935.011000", "085935.014000", "085935.016000", "085935.018000", "085935.021000", "085935.023000", "085935.026000", "085935.028000", "085935.030000", "085935.033000", "085935.035000", "085935.038000", "085935.040000", "090014.992000", "090014.995000", "090014.997000", "090015.000000", "090015.003000", "090015.005000", "090015.009000", "090015.011000", "090015.014000", "090015.016000", "090015.019000", "090015.021000", "090015.023000", "090015.026000", "090015.028000", "090015.030000", "090015.033000", "090015.035000", "090015.038000", "090015.040000", "090051.072000", "090051.081000", "090051.084000", "090051.091000", "090051.095000", "090051.097000", "090051.100000", "090051.103000", "090051.106000", "090051.109000", "090051.111000", "090051.114000", "090051.118000", "090051.121000", "090051.124000", "090051.127000", "090051.130000", "090051.133000", "090051.136000"],
      "InstanceCreationTime": ["085454.997000", "085455.001000", "085455.003000", "085455.010000", "085455.012000", "085455.015000", "085455.017000", "085455.019000", "085455.022000", "085455.024000", "085455.026000", "085455.029000", "085455.031000", "085455.034000", "085455.036000", "085455.044000", "085455.047000", "085455.049000", "085455.052000", "085455.054000", "085455.056000", "085534.992000", "085534.995000", "085534.997000", "085535.001000", "085535.003000", "085535.006000", "085535.009000", "085535.011000", "085535.014000", "085535.016000", "085535.019000", "085535.021000", "085535.023000", "085535.026000", "085535.028000", "085535.030000", "085535.033000", "085535.035000", "085535.038000", "085535.040000", "085614.992000", "085614.995000", "085615.010000", "085615.012000", "085615.015000", "085615.017000", "085615.020000", "085615.022000", "085615.025000", "085615.027000", "085615.029000", "085615.031000", "085615.034000", "085615.036000", "085615.039000", "085615.041000", "085615.043000", "085615.046000", "085615.048000", "085615.050000", "085654.992000", "085654.995000", "085654.997000", "085655.001000", "085655.004000", "085655.006000", "085655.010000", "085655.013000", "085655.015000", "085655.018000", "085655.020000", "085655.022000", "085655.025000", "085655.027000", "085655.029000", "085655.032000", "085655.034000", "085655.037000", "085655.039000", "085655.041000", "085734.992000", "085734.995000", "085734.997000", "085735.000000", "085735.003000", "085735.005000", "085735.008000", "085735.011000", "085735.014000", "085735.016000", "085735.018000", "085735.021000", "085735.023000", "085735.025000", "085735.028000", "085735.030000", "085735.033000", "085735.035000", "085735.037000", "085735.040000", "085814.992000", "085814.995000", "085814.997000", "085815.000000", "085815.003000", "085815.005000", "085815.009000", "085815.011000", "085815.014000", "085815.016000", "085815.019000", "085815.021000", "085815.024000", "085815.026000", "085815.028000", "085815.031000", "085815.033000", "085815.035000", "085815.038000", "085815.040000", "085854.992000", "085854.995000", "085854.997000", "085854.999000", "085855.002000", "085855.004000", "085855.007000", "085855.010000", "085855.012000", "085855.015000", "085855.017000", "085855.019000", "085855.022000", "085855.024000", "085855.026000", "085855.029000", "085855.031000", "085855.034000", "085855.036000", "085855.038000", "085934.992000", "085934.995000", "085934.997000", "085935.000000", "085935.003000", "085935.005000", "085935.009000", "085935.011000", "085935.014000", "085935.016000", "085935.018000", "085935.021000", "085935.023000", "085935.026000", "085935.028000", "085935.030000", "085935.033000", "085935.035000", "085935.038000", "085935.040000", "090014.992000", "090014.995000", "090014.997000", "090015.000000", "090015.003000", "090015.005000", "090015.009000", "090015.011000", "090015.014000", "090015.016000", "090015.019000", "090015.021000", "090015.023000", "090015.026000", "090015.028000", "090015.030000", "090015.033000", "090015.035000", "090015.038000", "090015.040000", "090051.072000", "090051.081000", "090051.084000", "090051.091000", "090051.095000", "090051.097000", "090051.100000", "090051.103000", "090051.106000", "090051.109000", "090051.111000", "090051.114000", "090051.118000", "090051.121000", "090051.124000", "090051.127000", "090051.130000", "090051.133000", "090051.136000"],
      "InstanceNumber": [1, 2, 3, 4, 5, 6, 7, 8, 9, 10, 11, 12, 13, 14, 15, 16, 17, 18, 19, 20, 21, 22, 23, 24, 25, 26, 27, 28, 29, 30, 31, 32, 33, 34, 35, 36, 37, 38, 39, 40, 41, 42, 43, 44, 45, 46, 47, 48, 49, 50, 51, 52, 53, 54, 55, 56, 57, 58, 59, 60, 61, 62, 63, 64, 65, 66, 67, 68, 69, 70, 71, 72, 73, 74, 75, 76, 77, 78, 79, 80, 81, 82, 83, 84, 85, 86, 87, 88, 89, 90, 91, 92, 93, 94, 95, 96, 97, 98, 99, 100, 101, 102, 103, 104, 105, 106, 107, 108, 109, 110, 111, 112, 113, 114, 115, 116, 117, 118, 119, 120, 121, 122, 123, 124, 125, 126, 127, 128, 129, 130, 131, 132, 133, 134, 135, 136, 137, 138, 139, 140, 141, 142, 143, 144, 145, 146, 147, 148, 149, 150, 151, 152, 153, 154, 155, 156, 157, 158, 159, 160, 161, 162, 163, 164, 165, 166, 167, 168, 169, 170, 171, 172, 173, 174, 175, 176, 177, 178, 179, 180, 181, 182, 183, 184, 185, 186, 187, 188, 189, 190, 191, 192, 193, 194, 195, 196, 197, 198, 199, 200],
      "LargestImagePixelValue": [3880, 3882, 3876, 3882, 3884, 3880, 3882, 3879, 3892, 3879, 3895, 3874, 3883, 3882, 3883, 3892, 3892, 3898, 3882, 3880, 3881, 3885, 3883, 3886, 3883, 3884, 3881, 3889, 3885, 3890, 3876, 3871, 3882, 3894, 3888, 3875, 3880, 3877, 3873, 3884, 3878, 3885, 3893, 3875, 3881, 3871, 3881, 3879, 3879, 3882, 3878, 3869, 3875, 3882, 3863, 3885, 3865, 3878, 3871, 3871, 3861, 3870, 3864, 3856, 3874, 3857, 3865, 3856, 3861, 3867, 3857, 3871, 3857, 3873, 3865, 3864, 3874, 3877, 3870, 3851, 3868, 3863, 3851, 3870, 3849, 3855, 3867, 3852, 3865, 3863, 3861, 3857, 3879, 3873, 3863, 3861, 3869, 3870, 3863, 3860, 3864, 3864, 3859, 3883, 3850, 3861, 3869, 3856, 3863, 3864, 3854, 3857, 3850, 3863, 3850, 3855, 3847, 3857, 3856, 3851, 3852, 3855, 3864, 3850, 3857, 3860, 3848, 3847, 3853, 3848, 3855, 3855, 3853, 3874, 3854, 3855, 3860, 3845, 3859, 3858, 3867, 3857, 3857, 3867, 3863, 3863, 3856, 3841, 3844, 3837, 3837, 3840, 3833, 3837, 3830, 3849, 3835, 3850, 3844, 3871, 3838, 3850, 3859, 3845, 3860, 3839, 3863, 3841, 3852, 3845, 3840, 3846, 3839, 3841, 3842, 3848, 3835, 3845, 3846, 3836, 3837, 3844, 3851, 3840, 3863, 3846, 3860, 3857, 3855, 3848, 3851, 3862, 3846, 3863, 3849, 3867, 3843, 3862, 3851, 3837],
      "WindowCenter": [1443.0, 1443.0, 1443.0, 1444.0, 1443.0, 1442.0, 1443.0, 1442.0, 1442.0, 1442.0, 1442.0, 1443.0, 1443.0, 1442.0, 1442.0, 1443.0, 1442.0, 1442.0, 1442.0, 1442.0, 1441.0, 1442.0, 1442.0, 1441.0, 1442.0, 1442.0, 1441.0, 1442.0, 1441.0, 1442.0, 1441.0, 1441.0, 1442.0, 1442.0, 1441.0, 1441.0, 1441.0, 1441.0, 1441.0, 1441.0, 1442.0, 1442.0, 1441.0, 1442.0, 1442.0, 1441.0, 1442.0, 1442.0, 1442.0, 1443.0, 1443.0, 1443.0, 1443.0, 1442.0, 1443.0, 1441.0, 1442.0, 1442.0, 1442.0, 1443.0, 1442.0, 1442.0, 1443.0, 1442.0, 1442.0, 1441.0, 1442.0, 1442.0, 1442.0, 1442.0, 1442.0, 1443.0, 1442.0, 1442.0, 1442.0, 1442.0, 1442.0, 1441.0, 1442.0, 1443.0, 1441.0, 1441.0, 1441.0, 1442.0, 1442.0, 1442.0, 1441.0, 1442.0, 1441.0, 1442.0, 1441.0, 1441.0, 1441.0, 1442.0, 1442.0, 1441.0, 1441.0, 1441.0, 1441.0, 1440.0, 1441.0, 1441.0, 1442.0, 1442.0, 1441.0, 1441.0, 1441.0, 1442.0, 1441.0, 1441.0, 1442.0, 1441.0, 1441.0, 1441.0, 1440.0, 1441.0, 1441.0, 1441.0, 1441.0, 1440.0, 1440.0, 1440.0, 1440.0, 1441.0, 1441.0, 1441.0, 1441.0, 1441.0, 1441.0, 1440.0, 1441.0, 1440.0, 1440.0, 1439.0, 1440.0, 1440.0, 1440.0, 1441.0, 1440.0, 1440.0, 1441.0, 1441.0, 1440.0, 1440.0, 1440.0, 1440.0, 1439.0, 1440.0, 1440.0, 1440.0, 1439.0, 1440.0, 1440.0, 1439.0, 1440.0, 1440.0, 1440.0, 1439.0, 1439.0, 1439.0, 1439.0, 1438.0, 1439.0, 1439.0, 1439.0, 1439.0, 1438.0, 1439.0, 1438.0, 1439.0, 1438.0, 1439.0, 1438.0, 1438.0, 1439.0, 1438.0, 1438.0, 1438.0, 1437.0, 1439.0, 1439.0, 1438.0, 1438.0, 1439.0, 1439.0, 1438.0, 1438.0, 1438.0, 1439.0, 1438.0, 1438.0, 1437.0, 1438.0, 1438.0, 1438.0, 1438.0, 1438.0, 1437.0, 1438.0, 1438.0],
      "WindowWidth": [3346.0, 3346.0, 3345.0, 3345.0, 3345.0, 3345.0, 3345.0, 3345.0, 3345.0, 3345.0, 3345.0, 3345.0, 3345.0, 3344.0, 3344.0, 3344.0, 3344.0, 3344.0, 3344.0, 3344.0, 3344.0, 3344.0, 3344.0, 3344.0, 3344.0, 3344.0, 3344.0, 3344.0, 3344.0, 3344.0, 3344.0, 3343.0, 3344.0, 3344.0, 3343.0, 3343.0, 3343.0, 3343.0, 3343.0, 3343.0, 3343.0, 3343.0, 3343.0, 3342.0, 3343.0, 3343.0, 3342.0, 3342.0, 3342.0, 3342.0, 3342.0, 3342.0, 3342.0, 3342.0, 3342.0, 3342.0, 3342.0, 3342.0, 3342.0, 3341.0, 3342.0, 3342.0, 3341.0, 3342.0, 3341.0, 3341.0, 3341.0, 3341.0, 3341.0, 3341.0, 3341.0, 3341.0, 3341.0, 3341.0, 3340.0, 3340.0, 3340.0, 3341.0, 3340.0, 3340.0, 3340.0, 3340.0, 3340.0, 3340.0, 3340.0, 3340.0, 3340.0, 3340.0, 3339.0, 3339.0, 3339.0, 3339.0, 3339.0, 3339.0, 3339.0, 3339.0, 3339.0, 3339.0, 3339.0, 3339.0, 3339.0, 3339.0, 3338.0, 3338.0, 3338.0, 3339.0, 3339.0, 3338.0, 3338.0, 3338.0, 3338.0, 3338.0, 3338.0, 3338.0, 3338.0, 3337.0, 3338.0, 3338.0, 3337.0, 3338.0, 3338.0, 3338.0, 3338.0, 3337.0, 3337.0, 3337.0, 3337.0, 3337.0, 3337.0, 3337.0, 3337.0, 3337.0, 3337.0, 3337.0, 3337.0, 3337.0, 3337.0, 3337.0, 3337.0, 3337.0, 3337.0, 3337.0, 3337.0, 3337.0, 3337.0, 3337.0, 3337.0, 3336.0, 3336.0, 3337.0, 3337.0, 3336.0, 3336.0, 3337.0, 3336.0, 3336.0, 3336.0, 3337.0, 3337.0, 3337.0, 3337.0, 3337.0, 3336.0, 3337.0, 3337.0, 3337.0, 3337.0, 3337.0, 3336.0, 3336.0, 3336.0, 3336.0, 3336.0, 3337.0, 3337.0, 3337.0, 3336.0, 3337.0, 3337.0, 3336.0, 3336.0, 3336.0, 3336.0, 3336.0, 3336.0, 3336.0, 3336.0, 3336.0, 3336.0, 3336.0, 3336.0, 3336.0, 3336.0, 3336.0, 3336.0, 3336.0, 3336.0, 3336.0, 3336.0, 3336.0]
    },
    "slices": {}
  }
}