{
  "AcquisitionMatrixPE": 80,
  "AcquisitionNumber": 1,
  "AcquisitionTime": "09:01:2.435000",
  "BandwidthPerPixelPhaseEncode": 25,
  "BaseResolution": 80,
  "BodyPartExamined": "BRAIN",
  "CoilCombinationMethod": "Sum of Squares",
  "ConsistencyInfo": "N4_VE11E_LATEST_20181129",
  "ConversionSoftware": "dcm2niix",
  "ConversionSoftwareVersion": "v1.0.20220720",
  "DerivedVendorReportedEchoSpacing": 0.0005,
  "DeviceSerialNumber": "66112",
  "DwellTime": 2.7e-06,
  "EchoTime": 0.03,
  "EchoTrainLength": 80,
  "EffectiveEchoSpacing": 0.0005,
  "FlipAngle": 77,
  "HeudiconvVersion": "0.13.1",
  "ImageOrientationPatientDICOM": [0.999935, 0.011298, 0.00136963, -0.0111699, 0.951226, 0.308293],
  "ImageOrientationText": "Tra>Cor(18.0)>Sag(-0.1)",
  "ImageType": [
    "ORIGINAL",
    "PRIMARY",
    "M",
    "ND",
    "NORM",
    "MOSAIC"
],
  "ImagingFrequency": 123.259,
  "InPlanePhaseEncodingDirectionDICOM": "COL",
  "InstitutionAddress": "Maynard 3,Hanover,NH,US,03755",
  "InstitutionName": "Dartmouth College - PBS",
  "InstitutionalDepartmentName": "Department",
  "MRAcquisitionType": "2D",
  "MagneticFieldStrength": 3,
  "Manufacturer": "Siemens",
  "ManufacturersModelName": "Prisma",
  "MatrixCoilMode": "SENSE",
  "Modality": "MR",
  "NonlinearGradientCorrection": false,
  "PartialFourier": 1,
  "PatientPosition": "HFS",
  "PercentPhaseFOV": 100,
  "PercentSampling": 100,
  "PhaseEncodingDirection": "j-",
  "PhaseEncodingSteps": 80,
  "PhaseResolution": 1,
  "PixelBandwidth": 2315,
  "ProcedureStepDescription": "dbic^QA",
  "ProtocolName": "func-bold_fa-77",
  "PulseSequenceDetails": "%SiemensSeq%\\ep2d_bold",
  "ReceiveCoilActiveElements": "HC1-7;NC1,2",
  "ReceiveCoilName": "HeadNeck_64",
  "ReconMatrixPE": 80,
  "RepetitionTime": 2,
  "SAR": 0.0280886,
  "ScanOptions": "FS",
  "ScanningSequence": "EP",
  "SequenceName": "*epfid2d1_80",
  "SequenceVariant": "SK",
  "SeriesDescription": "func-bold_fa-77",
  "SeriesNumber": 9,
  "ShimSetting": [4227, -7747, -7491, -170, -115, -419, 22, 68],
  "SliceThickness": 3.5,
  "SliceTiming": [0.99, 0, 1.0575, 0.0675, 1.1225, 0.1325, 1.19, 0.2, 1.255, 0.265, 1.32, 0.33, 1.3875, 0.3975, 1.4525, 0.4625, 1.5175, 0.53, 1.585, 0.595, 1.65, 0.66, 1.7175, 0.7275, 1.7825, 0.7925, 1.8475, 0.86, 1.915, 0.925],
  "SoftwareVersions": "syngo MR E11",
  "SpacingBetweenSlices": 3.99,
  "StationName": "AWP66112",
  "TotalReadoutTime": 0.0395,
  "TxRefAmp": 212.486,
  "dcmmeta_affine": [
    [-2.9998056888580322, -0.0335097499191761, -0.00869926530867815, 121.61441040039062],
    [-0.03389398753643036, 2.853677272796631, 1.2300714254379272, -122.89665985107422],
    [0.004108894150704145, -0.9248796701431274, 3.7956488132476807, -28.689132690429688],
    [0.0, 0.0, 0.0, 1.0]
],
  "dcmmeta_reorient_transform": [
    [0.0, -1.0, 0.0, 79.0],
    [1.0, 0.0, 0.0, 0.0],
    [0.0, 0.0, 1.0, 0.0],
    [0.0, 0.0, 0.0, 1.0]
],
  "dcmmeta_shape": [80, 80, 30, 200],
  "dcmmeta_slice_dim": 2,
  "dcmmeta_version": 0.6,
  "global": {
    "const": {
      "AccessionNumber": "qa64",
      "AcquisitionMatrix": [80, 0, 0, 80],
      "AngioFlag": "N",
      "BitsAllocated": 16,
      "BitsStored": 12,
      "BodyPartExamined": "BRAIN",
      "Columns": 480,
      "EchoNumbers": 1,
      "EchoTime": 30.0,
      "EchoTrainLength": 80,
      "FlipAngle": 77.0,
      "HighBit": 11,
      "ImageOrientationPatient": [0.99993523760319, 0.01129799580331, 0.00136963143677, -0.0111699165556, 0.95122579729449, 0.3082932297758],
      "ImagePositionPatient": [-712.22633364542, -680.05813330397, -287.55234521709],
      "ImageType": [
        "ORIGINAL",
        "PRIMARY",
        "M",
        "ND",
        "NORM",
        "MOSAIC"
],
      "ImagedNucleus": "1H",
      "ImagingFrequency": 123.259452,
      "InPlanePhaseEncodingDirection": "COL",
      "MRAcquisitionType": "2D",
      "MagneticFieldStrength": 3.0,
      "Manufacturer": "SIEMENS",
      "ManufacturerModelName": "Prisma",
      "Modality": "MR",
      "NumberOfAverages": 1.0,
      "NumberOfPhaseEncodingSteps": 80,
      "PercentPhaseFieldOfView": 100.0,
      "PercentSampling": 100.0,
      "PerformedProcedureStepStartTime": "084909.634000",
      "PhotometricInterpretation": "MONOCHROME2",
      "PixelBandwidth": 2315.0,
      "PixelRepresentation": 0,
      "PixelSpacing": [3.0, 3.0],
      "ProtocolName": "func-bold_fa-77",
      "RepetitionTime": 2000.0,
      "Rows": 480,
      "SAR": 0.02808858105715,
      "SamplesPerPixel": 1,
      "ScanOptions": "FS",
      "ScanningSequence": "EP",
      "SequenceName": "*epfid2d1_80",
      "SequenceVariant": "SK",
      "SeriesDescription": "func-bold_fa-77",
      "SeriesNumber": 9,
      "SeriesTime": "090154.823000",
      "SliceLocation": -65.444482048746,
      "SliceThickness": 3.5,
      "SmallestImagePixelValue": 0,
      "SoftwareVersions": "syngo MR E11",
      "SpacingBetweenSlices": 3.9900001050206,
      "SpecificCharacterSet": "ISO_IR 100",
      "StudyID": "19",
      "StudyTime": "084909.566000",
      "TransmitCoilName": "Body",
      "VariableFlipAngleFlag": "N",
      "WindowCenterWidthExplanation": "Algo1"
    },
    "slices": {}
  },
  "time": {
    "samples": {
      "AcquisitionNumber": [1, 2, 3, 4, 5, 6, 7, 8, 9, 10, 11, 12, 13, 14, 15, 16, 17, 18, 19, 20, 21, 22, 23, 24, 25, 26, 27, 28, 29, 30, 31, 32, 33, 34, 35, 36, 37, 38, 39, 40, 41, 42, 43, 44, 45, 46, 47, 48, 49, 50, 51, 52, 53, 54, 55, 56, 57, 58, 59, 60, 61, 62, 63, 64, 65, 66, 67, 68, 69, 70, 71, 72, 73, 74, 75, 76, 77, 78, 79, 80, 81, 82, 83, 84, 85, 86, 87, 88, 89, 90, 91, 92, 93, 94, 95, 96, 97, 98, 99, 100, 101, 102, 103, 104, 105, 106, 107, 108, 109, 110, 111, 112, 113, 114, 115, 116, 117, 118, 119, 120, 121, 122, 123, 124, 125, 126, 127, 128, 129, 130, 131, 132, 133, 134, 135, 136, 137, 138, 139, 140, 141, 142, 143, 144, 145, 146, 147, 148, 149, 150, 151, 152, 153, 154, 155, 156, 157, 158, 159, 160, 161, 162, 163, 164, 165, 166, 167, 168, 169, 170, 171, 172, 173, 174, 175, 176, 177, 178, 179, 180, 181, 182, 183, 184, 185, 186, 187, 188, 189, 190, 191, 192, 193, 194, 195, 196, 197, 198, 199, 200],
      "AcquisitionTime": ["090102.435000", "090104.435000", "090106.435000", "090108.435000", "090110.435000", "090112.435000", "090114.435000", "090116.435000", "090118.435000", "090120.435000", "090122.435000", "090124.435000", "090126.435000", "090128.435000", "090130.435000", "090132.435000", "090134.435000", "090136.435000", "090138.435000", "090140.435000", "090142.435000", "090144.435000", "090146.435000", "090148.435000", "090150.435000", "090152.435000", "090154.435000", "090156.435000", "090158.435000", "090200.435000", "090202.435000", "090204.435000", "090206.435000", "090208.435000", "090210.435000", "090212.435000", "090214.435000", "090216.435000", "090218.435000", "090220.435000", "090222.435000", "090224.435000", "090226.435000", "090228.435000", "090230.435000", "090232.435000", "090234.435000", "090236.435000", "090238.435000", "090240.435000", "090242.435000", "090244.435000", "090246.435000", "090248.435000", "090250.435000", "090252.435000", "090254.435000", "090256.435000", "090258.435000", "090300.435000", "090302.435000", "090304.435000", "090306.435000", "090308.435000", "090310.435000", "090312.435000", "090314.435000", "090316.435000", "090318.435000", "090320.435000", "090322.435000", "090324.435000", "090326.435000", "090328.435000", "090330.435000", "090332.435000", "090334.435000", "090336.435000", "090338.435000", "090340.435000", "090342.435000", "090344.435000", "090346.435000", "090348.435000", "090350.435000", "090352.435000", "090354.435000", "090356.435000", "090358.435000", "090400.435000", "090402.435000", "090404.435000", "090406.435000", "090408.435000", "090410.435000", "090412.435000", "090414.435000", "090416.435000", "090418.435000", "090420.435000", "090422.435000", "090424.435000", "090426.435000", "090428.435000", "090430.435000", "090432.435000", "090434.435000", "090436.435000", "090438.435000", "090440.435000", "090442.435000", "090444.435000", "090446.435000", "090448.435000", "090450.435000", "090452.435000", "090454.435000", "090456.435000", "090458.435000", "090500.435000", "090502.435000", "090504.435000", "090506.435000", "090508.435000", "090510.435000", "090512.435000", "090514.435000", "090516.435000", "090518.435000", "090520.435000", "090522.435000", "090524.435000", "090526.435000", "090528.435000", "090530.435000", "090532.435000", "090534.435000", "090536.435000", "090538.435000", "090540.435000", "090542.435000", "090544.435000", "090546.435000", "090548.435000", "090550.435000", "090552.435000", "090554.435000", "090556.435000", "090558.435000", "090600.435000", "090602.435000", "090604.435000", "090606.435000", "090608.435000", "090610.435000", "090612.435000", "090614.435000", "090616.435000", "090618.435000", "090620.435000", "090622.435000", "090624.435000", "090626.435000", "090628.435000", "090630.435000", "090632.435000", "090634.435000", "090636.435000", "090638.435000", "090640.435000", "090642.435000", "090644.435000", "090646.435000", "090648.435000", "090650.435000", "090652.435000", "090654.435000", "090656.435000", "090658.435000", "090700.435000", "090702.435000", "090704.435000", "090706.435000", "090708.435000", "090710.435000", "090712.435000", "090714.435000", "090716.435000", "090718.435000", "090720.435000", "090722.435000", "090724.435000", "090726.435000", "090728.435000", "090730.435000", "090732.435000", "090734.435000", "090736.435000", "090738.435000", "090740.435000"],
      "ContentTime": ["090154.827000", "090154.830000", "090154.832000", "090154.835000", "090154.837000", "090154.844000", "090154.846000", "090154.849000", "090154.851000", "090154.853000", "090154.856000", "090154.858000", "090154.860000", "090154.863000", "090154.865000", "090154.867000", "090154.870000", "090154.872000", "090154.874000", "090154.877000", "090154.879000", "090154.881000", "090154.884000", "090154.886000", "090154.888000", "090154.891000", "090234.822000", "090234.825000", "090234.827000", "090234.829000", "090234.832000", "090234.834000", "090234.836000", "090234.839000", "090234.841000", "090234.843000", "090234.845000", "090234.848000", "090234.850000", "090234.852000", "090234.855000", "090234.857000", "090234.859000", "090234.862000", "090234.864000", "090234.866000", "090314.822000", "090314.824000", "090314.827000", "090314.829000", "090314.832000", "090314.841000", "090314.844000", "090314.846000", "090314.849000", "090314.851000", "090314.853000", "090314.856000", "090314.858000", "090314.860000", "090314.863000", "090314.865000", "090314.867000", "090314.869000", "090314.872000", "090314.874000", "090354.822000", "090354.825000", "090354.827000", "090354.830000", "090354.832000", "090354.835000", "090354.837000", "090354.839000", "090354.841000", "090354.844000", "090354.846000", "090354.848000", "090354.851000", "090354.853000", "090354.855000", "090354.858000", "090354.860000", "090354.862000", "090354.865000", "090354.867000", "090434.822000", "090434.825000", "090434.827000", "090434.830000", "090434.832000", "090434.834000", "090434.836000", "090434.839000", "090434.841000", "090434.843000", "090434.846000", "090434.848000", "090434.850000", "090434.853000", "090434.855000", "090434.857000", "090434.860000", "090434.862000", "090434.864000", "090434.885000", "090514.822000", "090514.825000", "090514.827000", "090514.830000", "090514.832000", "090514.834000", "090514.837000", "090514.839000", "090514.841000", "090514.844000", "090514.846000", "090514.848000", "090514.850000", "090514.853000", "090514.855000", "090514.857000", "090514.860000", "090514.862000", "090514.864000", "090514.867000", "090554.823000", "090554.825000", "090554.828000", "090554.830000", "090554.832000", "090554.835000", "090554.837000", "090554.839000", "090554.842000", "090554.844000", "090554.846000", "090554.849000", "090554.851000", "090554.853000", "090554.856000", "090554.858000", "090554.860000", "090554.863000", "090554.865000", "090554.867000", "090634.822000", "090634.825000", "090634.827000", "090634.830000", "090634.832000", "090634.834000", "090634.837000", "090634.839000", "090634.841000", "090634.844000", "090634.846000", "090634.848000", "090634.851000", "090634.853000", "090634.855000", "090634.858000", "090634.860000", "090634.862000", "090634.865000", "090634.867000", "090714.822000", "090714.825000", "090714.827000", "090714.829000", "090714.832000", "090714.834000", "090714.836000", "090714.839000", "090714.841000", "090714.843000", "090714.846000", "090714.848000", "090714.850000", "090714.853000", "090714.855000", "090714.857000", "090714.860000", "090714.862000", "090714.865000", "090714.867000", "090742.565000", "090742.568000", "090742.570000", "090742.573000", "090742.575000", "090742.578000", "090742.580000", "090742.582000", "090742.585000", "090742.587000", "090742.590000", "090742.592000", "090742.594000", "090742.597000"],
      "InstanceCreationTime": ["090154.827000", "090154.830000", "090154.832000", "090154.835000", "090154.837000", "090154.844000", "090154.846000", "090154.849000", "090154.851000", "090154.853000", "090154.856000", "090154.858000", "090154.860000", "090154.863000", "090154.865000", "090154.867000", "090154.870000", "090154.872000", "090154.874000", "090154.877000", "090154.879000", "090154.881000", "090154.884000", "090154.886000", "090154.888000", "090154.891000", "090234.822000", "090234.825000", "090234.827000", "090234.829000", "090234.832000", "090234.834000", "090234.836000", "090234.839000", "090234.841000", "090234.843000", "090234.845000", "090234.848000", "090234.850000", "090234.852000", "090234.855000", "090234.857000", "090234.859000", "090234.862000", "090234.864000", "090234.866000", "090314.822000", "090314.824000", "090314.827000", "090314.829000", "090314.832000", "090314.841000", "090314.844000", "090314.846000", "090314.849000", "090314.851000", "090314.853000", "090314.856000", "090314.858000", "090314.860000", "090314.863000", "090314.865000", "090314.867000", "090314.869000", "090314.872000", "090314.874000", "090354.822000", "090354.825000", "090354.827000", "090354.830000", "090354.832000", "090354.835000", "090354.837000", "090354.839000", "090354.841000", "090354.844000", "090354.846000", "090354.848000", "090354.851000", "090354.853000", "090354.855000", "090354.858000", "090354.860000", "090354.862000", "090354.865000", "090354.867000", "090434.822000", "090434.825000", "090434.827000", "090434.830000", "090434.832000", "090434.834000", "090434.836000", "090434.839000", "090434.841000", "090434.843000", "090434.846000", "090434.848000", "090434.850000", "090434.853000", "090434.855000", "090434.857000", "090434.860000", "090434.862000", "090434.864000", "090434.885000", "090514.822000", "090514.825000", "090514.827000", "090514.830000", "090514.832000", "090514.834000", "090514.837000", "090514.839000", "090514.841000", "090514.844000", "090514.846000", "090514.848000", "090514.850000", "090514.853000", "090514.855000", "090514.857000", "090514.860000", "090514.862000", "090514.864000", "090514.867000", "090554.823000", "090554.825000", "090554.828000", "090554.830000", "090554.832000", "090554.835000", "090554.837000", "090554.839000", "090554.842000", "090554.844000", "090554.846000", "090554.849000", "090554.851000", "090554.853000", "090554.856000", "090554.858000", "090554.860000", "090554.863000", "090554.865000", "090554.867000", "090634.822000", "090634.825000", "090634.827000", "090634.830000", "090634.832000", "090634.834000", "090634.837000", "090634.839000", "090634.841000", "090634.844000", "090634.846000", "090634.848000", "090634.851000", "090634.853000", "090634.855000", "090634.858000", "090634.860000", "090634.862000", "090634.865000", "090634.867000", "090714.822000", "090714.825000", "090714.827000", "090714.829000", "090714.832000", "090714.834000", "090714.836000", "090714.839000", "090714.841000", "090714.843000", "090714.846000", "090714.848000", "090714.850000", "090714.853000", "090714.855000", "090714.857000", "090714.860000", "090714.862000", "090714.865000", "090714.867000", "090742.565000", "090742.568000", "090742.570000", "090742.573000", "090742.575000", "090742.578000", "090742.580000", "090742.582000", "090742.585000", "090742.587000", "090742.590000", "090742.592000", "090742.594000", "090742.597000"],
      "InstanceNumber": [1, 2, 3, 4, 5, 6, 7, 8, 9, 10, 11, 12, 13, 14, 15, 16, 17, 18, 19, 20, 21, 22, 23, 24, 25, 26, 27, 28, 29, 30, 31, 32, 33, 34, 35, 36, 37, 38, 39, 40, 41, 42, 43, 44, 45, 46, 47, 48, 49, 50, 51, 52, 53, 54, 55, 56, 57, 58, 59, 60, 61, 62, 63, 64, 65, 66, 67, 68, 69, 70, 71, 72, 73, 74, 75, 76, 77, 78, 79, 80, 81, 82, 83, 84, 85, 86, 87, 88, 89, 90, 91, 92, 93, 94, 95, 96, 97, 98, 99, 100, 101, 102, 103, 104, 105, 106, 107, 108, 109, 110, 111, 112, 113, 114, 115, 116, 117, 118, 119, 120, 121, 122, 123, 124, 125, 126, 127, 128, 129, 130, 131, 132, 133, 134, 135, 136, 137, 138, 139, 140, 141, 142, 143, 144, 145, 146, 147, 148, 149, 150, 151, 152, 153, 154, 155, 156, 157, 158, 159, 160, 161, 162, 163, 164, 165, 166, 167, 168, 169, 170, 171, 172, 173, 174, 175, 176, 177, 178, 179, 180, 181, 182, 183, 184, 185, 186, 187, 188, 189, 190, 191, 192, 193, 194, 195, 196, 197, 198, 199, 200],
      "LargestImagePixelValue": [3883, 3886, 3883, 3886, 3873, 3876, 3874, 3880, 3879, 3885, 3881, 3883, 3880, 3878, 3867, 3866, 3865, 3869, 3868, 3866, 3861, 3865, 3870, 3874, 3873, 3880, 3878, 3886, 3891, 3893, 3894, 3897, 3893, 3882, 3884, 3882, 3885, 3885, 3883, 3879, 3879, 3881, 3872, 3877, 3878, 3877, 3885, 3886, 3897, 3895, 3887, 3880, 3879, 3879, 3877, 3875, 3879, 3881, 3882, 3882, 3885, 3876, 3876, 3869, 3871, 3865, 3864, 3870, 3872, 3877, 3883, 3886, 3882, 3879, 3881, 3885, 3890, 3893, 3889, 3881, 3880, 3881, 3886, 3888, 3881, 3883, 3876, 3876, 3875, 3864, 3868, 3869, 3873, 3880, 3878, 3877, 3880, 3881, 3873, 3870, 3873, 3871, 3873, 3870, 3872, 3878, 3883, 3882, 3879, 3873, 3875, 3871, 3873, 3875, 3872, 3864, 3868, 3866, 3870, 3865, 3860, 3855, 3852, 3853, 3854, 3864, 3873, 3880, 3879, 3872, 3867, 3868, 3873, 3875, 3877, 3873, 3872, 3874, 3873, 3877, 3876, 3876, 3872, 3872, 3875, 3875, 3880, 3886, 3890, 3884, 3870, 3864, 3866, 3866, 3862, 3864, 3866, 3867, 3867, 3876, 3874, 3870, 3869, 3874, 3877, 3875, 3880, 3876, 3871, 3865, 3867, 3857, 3854, 3852, 3857, 3873, 3873, 3874, 3866, 3863, 3871, 3876, 3873, 3864, 3863, 3861, 3864, 3866, 3866, 3863, 3864, 3858, 3861, 3862, 3866, 3863, 3864, 3861, 3858, 3852],
      "WindowCenter": [1366.0, 1366.0, 1366.0, 1366.0, 1366.0, 1366.0, 1365.0, 1366.0, 1366.0, 1366.0, 1366.0, 1365.0, 1365.0, 1365.0, 1366.0, 1365.0, 1365.0, 1365.0, 1365.0, 1365.0, 1365.0, 1365.0, 1365.0, 1365.0, 1365.0, 1365.0, 1365.0, 1365.0, 1364.0, 1365.0, 1364.0, 1365.0, 1363.0, 1364.0, 1364.0, 1364.0, 1364.0, 1364.0, 1364.0, 1364.0, 1364.0, 1364.0, 1364.0, 1364.0, 1365.0, 1364.0, 1364.0, 1364.0, 1364.0, 1364.0, 1364.0, 1364.0, 1364.0, 1364.0, 1363.0, 1363.0, 1364.0, 1365.0, 1364.0, 1363.0, 1363.0, 1363.0, 1363.0, 1363.0, 1364.0, 1364.0, 1364.0, 1363.0, 1364.0, 1363.0, 1363.0, 1363.0, 1363.0, 1363.0, 1363.0, 1363.0, 1363.0, 1362.0, 1363.0, 1363.0, 1363.0, 1363.0, 1363.0, 1363.0, 1363.0, 1363.0, 1363.0, 1363.0, 1363.0, 1363.0, 1364.0, 1363.0, 1364.0, 1363.0, 1364.0, 1363.0, 1363.0, 1363.0, 1362.0, 1363.0, 1363.0, 1362.0, 1363.0, 1362.0, 1362.0, 1362.0, 1362.0, 1363.0, 1362.0, 1362.0, 1362.0, 1362.0, 1362.0, 1363.0, 1362.0, 1362.0, 1362.0, 1362.0, 1362.0, 1362.0, 1362.0, 1362.0, 1362.0, 1362.0, 1362.0, 1362.0, 1362.0, 1362.0, 1362.0, 1362.0, 1362.0, 1362.0, 1362.0, 1361.0, 1362.0, 1362.0, 1361.0, 1361.0, 1361.0, 1362.0, 1361.0, 1361.0, 1362.0, 1361.0, 1361.0, 1362.0, 1361.0, 1361.0, 1361.0, 1361.0, 1361.0, 1361.0, 1362.0, 1362.0, 1362.0, 1362.0, 1362.0, 1362.0, 1362.0, 1361.0, 1361.0, 1361.0, 1362.0, 1361.0, 1362.0, 1361.0, 1361.0, 1362.0, 1361.0, 1361.0, 1361.0, 1360.0, 1361.0, 1361.0, 1361.0, 1361.0, 1360.0, 1361.0, 1361.0, 1361.0, 1360.0, 1360.0, 1360.0, 1361.0, 1361.0, 1360.0, 1360.0, 1360.0, 1361.0, 1361.0, 1361.0, 1360.0, 1360.0, 1360.0, 1360.0, 1361.0, 1361.0, 1360.0, 1361.0, 1360.0],
      "WindowWidth": [3286.0, 3286.0, 3286.0, 3286.0, 3286.0, 3286.0, 3286.0, 3286.0, 3286.0, 3286.0, 3286.0, 3286.0, 3286.0, 3286.0, 3285.0, 3286.0, 3286.0, 3286.0, 3286.0, 3286.0, 3286.0, 3286.0, 3286.0, 3286.0, 3286.0, 3286.0, 3286.0, 3285.0, 3286.0, 3285.0, 3286.0, 3285.0, 3286.0, 3286.0, 3286.0, 3286.0, 3286.0, 3286.0, 3286.0, 3286.0, 3286.0, 3285.0, 3286.0, 3286.0, 3285.0, 3286.0, 3285.0, 3286.0, 3286.0, 3286.0, 3286.0, 3285.0, 3285.0, 3285.0, 3286.0, 3285.0, 3285.0, 3285.0, 3285.0, 3286.0, 3286.0, 3286.0, 3286.0, 3286.0, 3285.0, 3286.0, 3285.0, 3286.0, 3285.0, 3286.0, 3286.0, 3286.0, 3286.0, 3286.0, 3286.0, 3286.0, 3286.0, 3286.0, 3286.0, 3285.0, 3285.0, 3286.0, 3286.0, 3286.0, 3286.0, 3286.0, 3285.0, 3285.0, 3285.0, 3285.0, 3285.0, 3285.0, 3285.0, 3285.0, 3285.0, 3285.0, 3285.0, 3285.0, 3285.0, 3285.0, 3285.0, 3285.0, 3285.0, 3285.0, 3285.0, 3285.0, 3285.0, 3285.0, 3285.0, 3285.0, 3285.0, 3285.0, 3285.0, 3285.0, 3285.0, 3285.0, 3285.0, 3285.0, 3285.0, 3285.0, 3285.0, 3285.0, 3285.0, 3285.0, 3285.0, 3285.0, 3285.0, 3285.0, 3285.0, 3285.0, 3285.0, 3285.0, 3285.0, 3285.0, 3285.0, 3285.0, 3285.0, 3285.0, 3285.0, 3285.0, 3285.0, 3285.0, 3285.0, 3285.0, 3285.0, 3285.0, 3285.0, 3285.0, 3285.0, 3285.0, 3285.0, 3285.0, 3285.0, 3285.0, 3285.0, 3285.0, 3285.0, 3285.0, 3285.0, 3285.0, 3285.0, 3285.0, 3285.0, 3285.0, 3285.0, 3285.0, 3285.0, 3285.0, 3285.0, 3285.0, 3285.0, 3285.0, 3285.0, 3285.0, 3285.0, 3285.0, 3285.0, 3285.0, 3285.0, 3285.0, 3285.0, 3285.0, 3285.0, 3284.0, 3284.0, 3285.0, 3285.0, 3285.0, 3284.0, 3284.0, 3284.0, 3285.0, 3285.0, 3285.0, 3285.0, 3284.0, 3284.0, 3285.0, 3284.0, 3285.0]
    },
    "slices": {}
  }
}