{
  "AcquisitionMatrixPE": 80,
  "AcquisitionNumber": 1,
  "AcquisitionTime": "09:07:49.510000",
  "BandwidthPerPixelPhaseEncode": 25,
  "BaseResolution": 80,
  "BodyPartExamined": "BRAIN",
  "CoilCombinationMethod": "Sum of Squares",
  "ConsistencyInfo": "N4_VE11E_LATEST_20181129",
  "ConversionSoftware": "dcm2niix",
  "ConversionSoftwareVersion": "v1.0.20220720",
  "DerivedVendorReportedEchoSpacing": 0.0005,
  "DeviceSerialNumber": "66112",
  "DwellTime": 2.7e-06,
  "EchoTime": 0.03,
  "EchoTrainLength": 80,
  "EffectiveEchoSpacing": 0.0005,
  "FlipAngle": 10,
  "HeudiconvVersion": "0.13.1",
  "ImageOrientationPatientDICOM": [0.999935, 0.011298, 0.00136963, -0.0111699, 0.951226, 0.308293],
  "ImageOrientationText": "Tra>Cor(18.0)>Sag(-0.1)",
  "ImageType": [
    "ORIGINAL",
    "PRIMARY",
    "M",
    "ND",
    "NORM",
    "MOSAIC"
],
  "ImagingFrequency": 123.259,
  "InPlanePhaseEncodingDirectionDICOM": "COL",
  "InstitutionAddress": "Maynard 3,Hanover,NH,US,03755",
  "InstitutionName": "Dartmouth College - PBS",
  "InstitutionalDepartmentName": "Department",
  "MRAcquisitionType": "2D",
  "MagneticFieldStrength": 3,
  "Manufacturer": "Siemens",
  "ManufacturersModelName": "Prisma",
  "MatrixCoilMode": "SENSE",
  "Modality": "MR",
  "NonlinearGradientCorrection": false,
  "PartialFourier": 1,
  "PatientPosition": "HFS",
  "PercentPhaseFOV": 100,
  "PercentSampling": 100,
  "PhaseEncodingDirection": "j-",
  "PhaseEncodingSteps": 80,
  "PhaseResolution": 1,
  "PixelBandwidth": 2315,
  "ProcedureStepDescription": "dbic^QA",
  "ProtocolName": "func-bold_fa-10",
  "PulseSequenceDetails": "%SiemensSeq%\\ep2d_bold",
  "ReceiveCoilActiveElements": "HC1-7;NC1,2",
  "ReceiveCoilName": "HeadNeck_64",
  "ReconMatrixPE": 80,
  "RepetitionTime": 2,
  "SAR": 0.00753474,
  "ScanOptions": "FS",
  "ScanningSequence": "EP",
  "SequenceName": "*epfid2d1_80",
  "SequenceVariant": "SK",
  "SeriesDescription": "func-bold_fa-10",
  "SeriesNumber": 11,
  "ShimSetting": [4227, -7747, -7491, -170, -115, -419, 22, 68],
  "SliceThickness": 3.5,
  "SliceTiming": [0.99, 0, 1.055, 0.065, 1.12, 0.13, 1.1875, 0.1975, 1.2525, 0.2625, 1.32, 0.33, 1.385, 0.395, 1.45, 0.46, 1.5175, 0.5275, 1.5825, 0.5925, 1.65, 0.66, 1.715, 0.725, 1.78, 0.79, 1.8475, 0.8575, 1.9125, 0.9225],
  "SoftwareVersions": "syngo MR E11",
  "SpacingBetweenSlices": 3.99,
  "StationName": "AWP66112",
  "TotalReadoutTime": 0.0395,
  "TxRefAmp": 212.486,
  "dcmmeta_affine": [
    [-2.9998056888580322, -0.0335097499191761, -0.00869926530867815, 121.61441040039062],
    [-0.03389398753643036, 2.853677272796631, 1.2300714254379272, -122.89665985107422],
    [0.004108894150704145, -0.9248796701431274, 3.7956488132476807, -28.689132690429688],
    [0.0, 0.0, 0.0, 1.0]
],
  "dcmmeta_reorient_transform": [
    [0.0, -1.0, 0.0, 79.0],
    [1.0, 0.0, 0.0, 0.0],
    [0.0, 0.0, 1.0, 0.0],
    [0.0, 0.0, 0.0, 1.0]
],
  "dcmmeta_shape": [80, 80, 30, 200],
  "dcmmeta_slice_dim": 2,
  "dcmmeta_version": 0.6,
  "global": {
    "const": {
      "AccessionNumber": "qa64",
      "AcquisitionMatrix": [80, 0, 0, 80],
      "AngioFlag": "N",
      "BitsAllocated": 16,
      "BitsStored": 12,
      "BodyPartExamined": "BRAIN",
      "Columns": 480,
      "EchoNumbers": 1,
      "EchoTime": 30.0,
      "EchoTrainLength": 80,
      "FlipAngle": 10.0,
      "HighBit": 11,
      "ImageOrientationPatient": [0.99993523760319, 0.01129799580331, 0.00136963143677, -0.0111699165556, 0.95122579729449, 0.3082932297758],
      "ImagePositionPatient": [-712.22633364542, -680.05813330397, -287.55234521709],
      "ImageType": [
        "ORIGINAL",
        "PRIMARY",
        "M",
        "ND",
        "NORM",
        "MOSAIC"
],
      "ImagedNucleus": "1H",
      "ImagingFrequency": 123.259458,
      "InPlanePhaseEncodingDirection": "COL",
      "MRAcquisitionType": "2D",
      "MagneticFieldStrength": 3.0,
      "Manufacturer": "SIEMENS",
      "ManufacturerModelName": "Prisma",
      "Modality": "MR",
      "NumberOfAverages": 1.0,
      "NumberOfPhaseEncodingSteps": 80,
      "PercentPhaseFieldOfView": 100.0,
      "PercentSampling": 100.0,
      "PerformedProcedureStepStartTime": "084909.634000",
      "PhotometricInterpretation": "MONOCHROME2",
      "PixelBandwidth": 2315.0,
      "PixelRepresentation": 0,
      "PixelSpacing": [3.0, 3.0],
      "ProtocolName": "func-bold_fa-10",
      "RepetitionTime": 2000.0,
      "Rows": 480,
      "SAR": 0.0075347367774,
      "SamplesPerPixel": 1,
      "ScanOptions": "FS",
      "ScanningSequence": "EP",
      "SequenceName": "*epfid2d1_80",
      "SequenceVariant": "SK",
      "SeriesDescription": "func-bold_fa-10",
      "SeriesNumber": 11,
      "SeriesTime": "090834.908000",
      "SliceLocation": -65.444482048746,
      "SliceThickness": 3.5,
      "SmallestImagePixelValue": 0,
      "SoftwareVersions": "syngo MR E11",
      "SpacingBetweenSlices": 3.9900001050206,
      "SpecificCharacterSet": "ISO_IR 100",
      "StudyID": "19",
      "StudyTime": "084909.566000",
      "TransmitCoilName": "Body",
      "VariableFlipAngleFlag": "N",
      "WindowCenterWidthExplanation": "Algo1"
    },
    "slices": {}
  },
  "time": {
    "samples": {
      "AcquisitionNumber": [1, 2, 3, 4, 5, 6, 7, 8, 9, 10, 11, 12, 13, 14, 15, 16, 17, 18, 19, 20, 21, 22, 23, 24, 25, 26, 27, 28, 29, 30, 31, 32, 33, 34, 35, 36, 37, 38, 39, 40, 41, 42, 43, 44, 45, 46, 47, 48, 49, 50, 51, 52, 53, 54, 55, 56, 57, 58, 59, 60, 61, 62, 63, 64, 65, 66, 67, 68, 69, 70, 71, 72, 73, 74, 75, 76, 77, 78, 79, 80, 81, 82, 83, 84, 85, 86, 87, 88, 89, 90, 91, 92, 93, 94, 95, 96, 97, 98, 99, 100, 101, 102, 103, 104, 105, 106, 107, 108, 109, 110, 111, 112, 113, 114, 115, 116, 117, 118, 119, 120, 121, 122, 123, 124, 125, 126, 127, 128, 129, 130, 131, 132, 133, 134, 135, 136, 137, 138, 139, 140, 141, 142, 143, 144, 145, 146, 147, 148, 149, 150, 151, 152, 153, 154, 155, 156, 157, 158, 159, 160, 161, 162, 163, 164, 165, 166, 167, 168, 169, 170, 171, 172, 173, 174, 175, 176, 177, 178, 179, 180, 181, 182, 183, 184, 185, 186, 187, 188, 189, 190, 191, 192, 193, 194, 195, 196, 197, 198, 199, 200],
      "AcquisitionTime": ["090749.510000", "090751.510000", "090753.510000", "090755.510000", "090757.510000", "090759.510000", "090801.510000", "090803.510000", "090805.510000", "090807.510000", "090809.510000", "090811.510000", "090813.510000", "090815.510000", "090817.510000", "090819.510000", "090821.510000", "090823.510000", "090825.510000", "090827.510000", "090829.510000", "090831.510000", "090833.510000", "090835.510000", "090837.510000", "090839.510000", "090841.510000", "090843.510000", "090845.510000", "090847.510000", "090849.510000", "090851.510000", "090853.510000", "090855.510000", "090857.510000", "090859.510000", "090901.510000", "090903.510000", "090905.510000", "090907.510000", "090909.510000", "090911.510000", "090913.510000", "090915.510000", "090917.510000", "090919.510000", "090921.510000", "090923.510000", "090925.510000", "090927.510000", "090929.510000", "090931.510000", "090933.510000", "090935.510000", "090937.510000", "090939.510000", "090941.510000", "090943.510000", "090945.510000", "090947.510000", "090949.510000", "090951.510000", "090953.510000", "090955.510000", "090957.510000", "090959.510000", "091001.510000", "091003.510000", "091005.510000", "091007.510000", "091009.510000", "091011.510000", "091013.510000", "091015.510000", "091017.510000", "091019.510000", "091021.510000", "091023.510000", "091025.510000", "091027.510000", "091029.510000", "091031.510000", "091033.510000", "091035.510000", "091037.510000", "091039.510000", "091041.510000", "091043.510000", "091045.510000", "091047.510000", "091049.510000", "091051.510000", "091053.510000", "091055.510000", "091057.510000", "091059.510000", "091101.510000", "091103.510000", "091105.510000", "091107.510000", "091109.510000", "091111.510000", "091113.510000", "091115.510000", "091117.510000", "091119.510000", "091121.510000", "091123.510000", "091125.510000", "091127.510000", "091129.510000", "091131.510000", "091133.510000", "091135.510000", "091137.510000", "091139.510000", "091141.510000", "091143.510000", "091145.510000", "091147.510000", "091149.510000", "091151.510000", "091153.510000", "091155.510000", "091157.510000", "091159.510000", "091201.510000", "091203.510000", "091205.510000", "091207.510000", "091209.510000", "091211.510000", "091213.510000", "091215.510000", "091217.510000", "091219.510000", "091221.510000", "091223.510000", "091225.510000", "091227.510000", "091229.510000", "091231.510000", "091233.510000", "091235.510000", "091237.510000", "091239.510000", "091241.510000", "091243.510000", "091245.510000", "091247.510000", "091249.510000", "091251.510000", "091253.510000", "091255.510000", "091257.510000", "091259.510000", "091301.510000", "091303.510000", "091305.510000", "091307.510000", "091309.510000", "091311.510000", "091313.510000", "091315.510000", "091317.510000", "091319.510000", "091321.510000", "091323.510000", "091325.510000", "091327.510000", "091329.510000", "091331.510000", "091333.510000", "091335.510000", "091337.510000", "091339.510000", "091341.510000", "091343.510000", "091345.510000", "091347.510000", "091349.510000", "091351.510000", "091353.510000", "091355.510000", "091357.510000", "091359.510000", "091401.510000", "091403.510000", "091405.510000", "091407.510000", "091409.510000", "091411.510000", "091413.510000", "091415.510000", "091417.510000", "091419.510000", "091421.510000", "091423.510000", "091425.510000", "091427.510000"],
      "ContentTime": ["090834.912000", "090834.915000", "090834.917000", "090834.919000", "090834.922000", "090834.924000", "090834.927000", "090834.929000", "090834.931000", "090834.934000", "090834.936000", "090834.938000", "090834.940000", "090834.943000", "090834.945000", "090834.947000", "090834.950000", "090834.952000", "090834.955000", "090834.958000", "090834.961000", "090834.963000", "090914.907000", "090914.910000", "090914.912000", "090914.915000", "090914.917000", "090914.919000", "090914.922000", "090914.924000", "090914.926000", "090914.929000", "090914.931000", "090914.933000", "090914.936000", "090914.938000", "090914.940000", "090914.943000", "090914.945000", "090914.948000", "090914.950000", "090914.952000", "090954.907000", "090954.910000", "090954.912000", "090954.914000", "090954.917000", "090954.919000", "090954.922000", "090954.924000", "090954.926000", "090954.929000", "090954.931000", "090954.934000", "090954.936000", "090954.948000", "090954.951000", "090954.953000", "090954.956000", "090954.958000", "090954.960000", "090954.963000", "091034.908000", "091034.911000", "091034.913000", "091034.916000", "091034.918000", "091034.920000", "091034.923000", "091034.925000", "091034.927000", "091034.930000", "091034.932000", "091034.934000", "091034.937000", "091034.939000", "091034.942000", "091034.944000", "091034.947000", "091034.949000", "091034.951000", "091034.954000", "091054.907000", "091054.910000", "091054.912000", "091054.915000", "091054.917000", "091054.919000", "091054.922000", "091054.924000", "091054.927000", "091054.929000", "091134.907000", "091134.910000", "091134.912000", "091134.915000", "091134.917000", "091134.919000", "091134.922000", "091134.924000", "091134.926000", "091134.929000", "091134.931000", "091134.933000", "091134.936000", "091134.938000", "091134.940000", "091134.943000", "091134.945000", "091134.948000", "091134.950000", "091134.952000", "091214.907000", "091214.910000", "091214.912000", "091214.915000", "091214.917000", "091214.919000", "091214.922000", "091214.924000", "091214.926000", "091214.929000", "091214.931000", "091214.933000", "091214.936000", "091214.938000", "091214.940000", "091214.943000", "091214.945000", "091214.947000", "091214.950000", "091214.952000", "091254.908000", "091254.911000", "091254.913000", "091254.916000", "091254.918000", "091254.920000", "091254.923000", "091254.925000", "091254.927000", "091254.930000", "091254.932000", "091254.934000", "091254.937000", "091254.939000", "091254.941000", "091254.944000", "091254.946000", "091254.948000", "091254.951000", "091254.953000", "091334.907000", "091334.910000", "091334.912000", "091334.915000", "091334.917000", "091334.919000", "091334.948000", "091334.950000", "091334.953000", "091334.955000", "091334.958000", "091334.960000", "091334.962000", "091334.965000", "091334.967000", "091334.970000", "091334.972000", "091334.974000", "091334.976000", "091334.979000", "091414.907000", "091414.910000", "091414.912000", "091414.915000", "091414.917000", "091414.919000", "091414.922000", "091414.924000", "091414.926000", "091414.929000", "091414.931000", "091414.933000", "091414.936000", "091414.938000", "091414.940000", "091414.943000", "091414.945000", "091414.948000", "091414.950000", "091414.953000", "091428.945000", "091428.947000", "091428.950000", "091428.952000", "091428.954000", "091428.957000", "091428.959000", "091428.962000"],
      "InstanceCreationTime": ["090834.912000", "090834.915000", "090834.917000", "090834.919000", "090834.922000", "090834.924000", "090834.927000", "090834.929000", "090834.931000", "090834.934000", "090834.936000", "090834.938000", "090834.940000", "090834.943000", "090834.945000", "090834.947000", "090834.950000", "090834.952000", "090834.955000", "090834.958000", "090834.961000", "090834.963000", "090914.907000", "090914.910000", "090914.912000", "090914.915000", "090914.917000", "090914.919000", "090914.922000", "090914.924000", "090914.926000", "090914.929000", "090914.931000", "090914.933000", "090914.936000", "090914.938000", "090914.940000", "090914.943000", "090914.945000", "090914.948000", "090914.950000", "090914.952000", "090954.907000", "090954.910000", "090954.912000", "090954.914000", "090954.917000", "090954.919000", "090954.922000", "090954.924000", "090954.926000", "090954.929000", "090954.931000", "090954.934000", "090954.936000", "090954.948000", "090954.951000", "090954.953000", "090954.956000", "090954.958000", "090954.960000", "090954.963000", "091034.908000", "091034.911000", "091034.913000", "091034.916000", "091034.918000", "091034.920000", "091034.923000", "091034.925000", "091034.927000", "091034.930000", "091034.932000", "091034.934000", "091034.937000", "091034.939000", "091034.942000", "091034.944000", "091034.947000", "091034.949000", "091034.951000", "091034.954000", "091054.907000", "091054.910000", "091054.912000", "091054.915000", "091054.917000", "091054.919000", "091054.922000", "091054.924000", "091054.927000", "091054.929000", "091134.907000", "091134.910000", "091134.912000", "091134.915000", "091134.917000", "091134.919000", "091134.922000", "091134.924000", "091134.926000", "091134.929000", "091134.931000", "091134.933000", "091134.936000", "091134.938000", "091134.940000", "091134.943000", "091134.945000", "091134.948000", "091134.950000", "091134.952000", "091214.907000", "091214.910000", "091214.912000", "091214.915000", "091214.917000", "091214.919000", "091214.922000", "091214.924000", "091214.926000", "091214.929000", "091214.931000", "091214.933000", "091214.936000", "091214.938000", "091214.940000", "091214.943000", "091214.945000", "091214.947000", "091214.950000", "091214.952000", "091254.908000", "091254.911000", "091254.913000", "091254.916000", "091254.918000", "091254.920000", "091254.923000", "091254.925000", "091254.927000", "091254.930000", "091254.932000", "091254.934000", "091254.937000", "091254.939000", "091254.941000", "091254.944000", "091254.946000", "091254.948000", "091254.951000", "091254.953000", "091334.907000", "091334.910000", "091334.912000", "091334.915000", "091334.917000", "091334.919000", "091334.948000", "091334.950000", "091334.953000", "091334.955000", "091334.958000", "091334.960000", "091334.962000", "091334.965000", "091334.967000", "091334.970000", "091334.972000", "091334.974000", "091334.976000", "091334.979000", "091414.907000", "091414.910000", "091414.912000", "091414.915000", "091414.917000", "091414.919000", "091414.922000", "091414.924000", "091414.926000", "091414.929000", "091414.931000", "091414.933000", "091414.936000", "091414.938000", "091414.940000", "091414.943000", "091414.945000", "091414.948000", "091414.950000", "091414.953000", "091428.945000", "091428.947000", "091428.950000", "091428.952000", "091428.954000", "091428.957000", "091428.959000", "091428.962000"],
      "InstanceNumber": [1, 2, 3, 4, 5, 6, 7, 8, 9, 10, 11, 12, 13, 14, 15, 16, 17, 18, 19, 20, 21, 22, 23, 24, 25, 26, 27, 28, 29, 30, 31, 32, 33, 34, 35, 36, 37, 38, 39, 40, 41, 42, 43, 44, 45, 46, 47, 48, 49, 50, 51, 52, 53, 54, 55, 56, 57, 58, 59, 60, 61, 62, 63, 64, 65, 66, 67, 68, 69, 70, 71, 72, 73, 74, 75, 76, 77, 78, 79, 80, 81, 82, 83, 84, 85, 86, 87, 88, 89, 90, 91, 92, 93, 94, 95, 96, 97, 98, 99, 100, 101, 102, 103, 104, 105, 106, 107, 108, 109, 110, 111, 112, 113, 114, 115, 116, 117, 118, 119, 120, 121, 122, 123, 124, 125, 126, 127, 128, 129, 130, 131, 132, 133, 134, 135, 136, 137, 138, 139, 140, 141, 142, 143, 144, 145, 146, 147, 148, 149, 150, 151, 152, 153, 154, 155, 156, 157, 158, 159, 160, 161, 162, 163, 164, 165, 166, 167, 168, 169, 170, 171, 172, 173, 174, 175, 176, 177, 178, 179, 180, 181, 182, 183, 184, 185, 186, 187, 188, 189, 190, 191, 192, 193, 194, 195, 196, 197, 198, 199, 200],
      "LargestImagePixelValue": [652, 653, 653, 653, 650, 649, 651, 650, 653, 653, 649, 651, 651, 647, 647, 653, 648, 651, 655, 647, 647, 651, 651, 649, 656, 652, 650, 652, 657, 653, 654, 655, 650, 656, 655, 654, 649, 655, 653, 652, 652, 650, 649, 651, 652, 648, 652, 652, 654, 655, 654, 654, 654, 655, 652, 652, 654, 654, 652, 654, 654, 654, 656, 657, 652, 655, 653, 653, 654, 655, 655, 657, 658, 654, 653, 654, 654, 653, 657, 650, 652, 656, 651, 652, 656, 657, 655, 656, 655, 654, 657, 652, 653, 658, 654, 655, 655, 654, 657, 660, 656, 657, 652, 654, 651, 652, 656, 651, 653, 658, 654, 654, 658, 658, 656, 659, 655, 654, 651, 653, 651, 658, 657, 651, 654, 654, 650, 655, 658, 655, 658, 655, 653, 655, 654, 654, 653, 655, 656, 655, 651, 653, 651, 655, 654, 647, 654, 656, 652, 656, 658, 661, 657, 654, 654, 654, 657, 649, 651, 655, 655, 653, 657, 651, 654, 655, 655, 652, 656, 655, 653, 653, 656, 656, 658, 657, 652, 655, 651, 654, 655, 658, 657, 658, 655, 651, 651, 655, 653, 651, 656, 655, 652, 656, 656, 657, 653, 652, 649, 656],
      "WindowCenter": [450.0, 449.0, 449.0, 450.0, 449.0, 448.0, 449.0, 449.0, 449.0, 449.0, 448.0, 449.0, 449.0, 448.0, 448.0, 449.0, 448.0, 449.0, 449.0, 449.0, 448.0, 449.0, 449.0, 448.0, 449.0, 449.0, 449.0, 449.0, 449.0, 449.0, 449.0, 449.0, 449.0, 449.0, 449.0, 449.0, 448.0, 449.0, 449.0, 449.0, 449.0, 449.0, 448.0, 449.0, 449.0, 448.0, 449.0, 449.0, 449.0, 449.0, 449.0, 449.0, 449.0, 449.0, 449.0, 449.0, 449.0, 449.0, 449.0, 449.0, 449.0, 448.0, 449.0, 449.0, 449.0, 449.0, 449.0, 449.0, 449.0, 449.0, 449.0, 449.0, 449.0, 449.0, 449.0, 449.0, 449.0, 449.0, 449.0, 449.0, 449.0, 449.0, 449.0, 449.0, 449.0, 449.0, 449.0, 449.0, 449.0, 449.0, 449.0, 449.0, 449.0, 449.0, 449.0, 449.0, 449.0, 449.0, 448.0, 449.0, 449.0, 449.0, 449.0, 448.0, 448.0, 449.0, 448.0, 448.0, 448.0, 449.0, 449.0, 448.0, 448.0, 449.0, 448.0, 448.0, 449.0, 448.0, 449.0, 449.0, 448.0, 449.0, 449.0, 448.0, 448.0, 449.0, 448.0, 448.0, 449.0, 448.0, 448.0, 448.0, 448.0, 448.0, 449.0, 449.0, 448.0, 448.0, 449.0, 448.0, 448.0, 449.0, 448.0, 448.0, 449.0, 447.0, 448.0, 448.0, 448.0, 448.0, 449.0, 448.0, 448.0, 448.0, 448.0, 449.0, 448.0, 447.0, 448.0, 448.0, 448.0, 448.0, 448.0, 448.0, 448.0, 448.0, 448.0, 448.0, 448.0, 448.0, 448.0, 448.0, 449.0, 448.0, 448.0, 448.0, 448.0, 448.0, 448.0, 448.0, 448.0, 448.0, 448.0, 448.0, 448.0, 448.0, 448.0, 448.0, 448.0, 448.0, 448.0, 448.0, 448.0, 448.0, 448.0, 448.0, 448.0, 448.0, 447.0, 448.0],
      "WindowWidth": [934.0, 933.0, 933.0, 934.0, 933.0, 932.0, 934.0, 933.0, 933.0, 933.0, 932.0, 933.0, 933.0, 932.0, 932.0, 933.0, 932.0, 933.0, 933.0, 933.0, 932.0, 934.0, 933.0, 932.0, 933.0, 933.0, 933.0, 933.0, 933.0, 933.0, 933.0, 933.0, 933.0, 933.0, 933.0, 933.0, 932.0, 933.0, 933.0, 933.0, 933.0, 933.0, 932.0, 933.0, 933.0, 932.0, 933.0, 933.0, 933.0, 933.0, 933.0, 933.0, 933.0, 933.0, 933.0, 933.0, 933.0, 933.0, 933.0, 933.0, 933.0, 932.0, 933.0, 933.0, 933.0, 933.0, 933.0, 933.0, 933.0, 933.0, 933.0, 933.0, 933.0, 933.0, 933.0, 933.0, 933.0, 933.0, 933.0, 933.0, 933.0, 933.0, 933.0, 933.0, 933.0, 932.0, 933.0, 933.0, 933.0, 933.0, 933.0, 933.0, 933.0, 933.0, 933.0, 933.0, 933.0, 933.0, 932.0, 933.0, 933.0, 933.0, 933.0, 932.0, 932.0, 933.0, 932.0, 932.0, 932.0, 933.0, 933.0, 932.0, 932.0, 933.0, 932.0, 932.0, 933.0, 932.0, 933.0, 933.0, 932.0, 933.0, 933.0, 932.0, 932.0, 933.0, 932.0, 932.0, 933.0, 932.0, 932.0, 932.0, 932.0, 932.0, 933.0, 933.0, 932.0, 932.0, 933.0, 932.0, 932.0, 933.0, 932.0, 932.0, 933.0, 930.0, 932.0, 932.0, 932.0, 932.0, 933.0, 932.0, 932.0, 932.0, 932.0, 932.0, 932.0, 931.0, 932.0, 932.0, 932.0, 932.0, 932.0, 932.0, 932.0, 932.0, 932.0, 932.0, 932.0, 932.0, 932.0, 932.0, 933.0, 932.0, 932.0, 932.0, 932.0, 932.0, 932.0, 932.0, 932.0, 932.0, 932.0, 931.0, 932.0, 932.0, 931.0, 931.0, 932.0, 931.0, 931.0, 932.0, 931.0, 931.0, 932.0, 931.0, 931.0, 932.0, 930.0, 931.0]
    },
    "slices": {}
  }
}