{
  "AcquisitionMatrixPE": 80,
  "AcquisitionNumber": 1,
  "AcquisitionTime": "09:16:49.497500",
  "BandwidthPerPixelPhaseEncode": 25,
  "BaseResolution": 80,
  "BodyPartExamined": "BRAIN",
  "CoilCombinationMethod": "Sum of Squares",
  "ConsistencyInfo": "N4_VE11C_LATEST_20160120",
  "ConversionSoftware": "dcm2niix",
  "ConversionSoftwareVersion": "v1.0.20220720",
  "DerivedVendorReportedEchoSpacing": 0.0005,
  "DeviceSerialNumber": "66112",
  "DwellTime": 2.7e-06,
  "EchoTime": 0.03,
  "EchoTrainLength": 80,
  "EffectiveEchoSpacing": 0.0005,
  "FlipAngle": 77,
  "HeudiconvVersion": "0.13.1",
  "ImageOrientationPatientDICOM": [0.984563, 0.174742, 0.0100636, -0.169356, 0.936535, 0.306953],
  "ImageOrientationText": "Tra>Cor(17.7)>Sag(-2.5)",
  "ImageType": [
    "ORIGINAL",
    "PRIMARY",
    "M",
    "ND",
    "NORM",
    "MOSAIC"
],
  "ImagingFrequency": 123.252,
  "InPlanePhaseEncodingDirectionDICOM": "COL",
  "InstitutionAddress": "Maynard 3,Hanover,NH,US,03755",
  "InstitutionName": "Dartmouth College - PBS",
  "InstitutionalDepartmentName": "Department",
  "MRAcquisitionType": "2D",
  "MagneticFieldStrength": 3,
  "Manufacturer": "Siemens",
  "ManufacturersModelName": "Prisma",
  "MatrixCoilMode": "SENSE",
  "Modality": "MR",
  "NonlinearGradientCorrection": false,
  "PartialFourier": 1,
  "PatientPosition": "HFS",
  "PercentPhaseFOV": 100,
  "PercentSampling": 100,
  "PhaseEncodingDirection": "j-",
  "PhaseEncodingSteps": 80,
  "PhaseResolution": 1,
  "PixelBandwidth": 2315,
  "ProcedureStepDescription": "dbic^QA",
  "ProtocolName": "func-bold_fa-77",
  "PulseSequenceDetails": "%SiemensSeq%\\ep2d_bold",
  "ReceiveCoilActiveElements": "HEA;HEP",
  "ReceiveCoilName": "Head_32",
  "ReconMatrixPE": 80,
  "RepetitionTime": 2,
  "SAR": 0.0436588,
  "ScanOptions": "FS",
  "ScanningSequence": "EP",
  "SequenceName": "*epfid2d1_80",
  "SequenceVariant": "SK",
  "SeriesDescription": "func-bold_fa-77",
  "SeriesNumber": 8,
  "ShimSetting": [4153, -7695, -7522, 262, -54, -63, 42, 53],
  "SliceThickness": 3.5,
  "SliceTiming": [0.99, 0, 1.055, 0.0675, 1.1225, 0.1325, 1.1875, 0.1975, 1.255, 0.265, 1.32, 0.33, 1.385, 0.3975, 1.4525, 0.4625, 1.5175, 0.5275, 1.585, 0.595, 1.65, 0.66, 1.715, 0.7275, 1.7825, 0.7925, 1.8475, 0.8575, 1.915, 0.925],
  "SoftwareVersions": "syngo MR E11",
  "SpacingBetweenSlices": 3.99,
  "StationName": "AWP66112",
  "TotalReadoutTime": 0.0395,
  "TxRefAmp": 222.587,
  "dcmmeta_affine": [
    [-2.953688383102417, -0.5080671310424805, -0.17640915513038635, 141.94834899902344],
    [-0.5242267847061157, 2.809605836868286, 1.212636947631836, -91.9365234375],
    [0.03019067458808422, -0.920859694480896, 3.7971689701080322, -18.618745803833008],
    [0.0, 0.0, 0.0, 1.0]
],
  "dcmmeta_reorient_transform": [
    [0.0, -1.0, 0.0, 79.0],
    [1.0, 0.0, 0.0, 0.0],
    [0.0, 0.0, 1.0, 0.0],
    [0.0, 0.0, 0.0, 1.0]
],
  "dcmmeta_shape": [80, 80, 30, 200],
  "dcmmeta_slice_dim": 2,
  "dcmmeta_version": 0.6,
  "global": {
    "const": {
      "AccessionNumber": "qa",
      "AcquisitionMatrix": [80, 0, 0, 80],
      "AngioFlag": "N",
      "BitsAllocated": 16,
      "BitsStored": 12,
      "BodyPartExamined": "BRAIN",
      "Columns": 480,
      "EchoNumbers": 1,
      "EchoTime": 30.0,
      "EchoTrainLength": 80,
      "FlipAngle": 77.0,
      "HighBit": 11,
      "ImageOrientationPatient": [0.98456278109408, 0.1747422527023, 0.01006355825803, -0.1693557102483, 0.93653529633925, 0.30695322464027],
      "ImagePositionPatient": [-590.93528252014, -796.78887122148, -281.57672968287],
      "ImageType": [
        "ORIGINAL",
        "PRIMARY",
        "M",
        "ND",
        "NORM",
        "MOSAIC"
],
      "ImagedNucleus": "1H",
      "ImagingFrequency": 123.252326,
      "InPlanePhaseEncodingDirection": "COL",
      "MRAcquisitionType": "2D",
      "MagneticFieldStrength": 3.0,
      "Manufacturer": "SIEMENS",
      "ManufacturerModelName": "Prisma",
      "Modality": "MR",
      "NumberOfAverages": 1.0,
      "NumberOfPhaseEncodingSteps": 80,
      "PercentPhaseFieldOfView": 100.0,
      "PercentSampling": 100.0,
      "PerformedProcedureStepStartTime": "085926.163000",
      "PhotometricInterpretation": "MONOCHROME2",
      "PixelBandwidth": 2315.0,
      "PixelRepresentation": 0,
      "PixelSpacing": [3.0, 3.0],
      "ProtocolName": "func-bold_fa-77",
      "RepetitionTime": 2000.0,
      "Rows": 480,
      "SAR": 0.04365884659202,
      "SamplesPerPixel": 1,
      "ScanOptions": "FS",
      "ScanningSequence": "EP",
      "SequenceName": "*epfid2d1_80",
      "SequenceVariant": "SK",
      "SeriesDescription": "func-bold_fa-77",
      "SeriesNumber": 8,
      "SeriesTime": "091749.025000",
      "SliceLocation": -51.936124387002,
      "SliceThickness": 3.5,
      "SmallestImagePixelValue": 0,
      "SoftwareVersions": "syngo MR E11",
      "SpacingBetweenSlices": 3.9900000011475,
      "SpecificCharacterSet": "ISO_IR 100",
      "StudyID": "63",
      "StudyTime": "085926.117000",
      "TransmitCoilName": "Body",
      "VariableFlipAngleFlag": "N",
      "WindowCenterWidthExplanation": "Algo1",
      "dBdt": 0.0},
    "slices": {}
  },
  "time": {
    "samples": {
      "AcquisitionNumber": [1, 2, 3, 4, 5, 6, 7, 8, 9, 10, 11, 12, 13, 14, 15, 16, 17, 18, 19, 20, 21, 22, 23, 24, 25, 26, 27, 28, 29, 30, 31, 32, 33, 34, 35, 36, 37, 38, 39, 40, 41, 42, 43, 44, 45, 46, 47, 48, 49, 50, 51, 52, 53, 54, 55, 56, 57, 58, 59, 60, 61, 62, 63, 64, 65, 66, 67, 68, 69, 70, 71, 72, 73, 74, 75, 76, 77, 78, 79, 80, 81, 82, 83, 84, 85, 86, 87, 88, 89, 90, 91, 92, 93, 94, 95, 96, 97, 98, 99, 100, 101, 102, 103, 104, 105, 106, 107, 108, 109, 110, 111, 112, 113, 114, 115, 116, 117, 118, 119, 120, 121, 122, 123, 124, 125, 126, 127, 128, 129, 130, 131, 132, 133, 134, 135, 136, 137, 138, 139, 140, 141, 142, 143, 144, 145, 146, 147, 148, 149, 150, 151, 152, 153, 154, 155, 156, 157, 158, 159, 160, 161, 162, 163, 164, 165, 166, 167, 168, 169, 170, 171, 172, 173, 174, 175, 176, 177, 178, 179, 180, 181, 182, 183, 184, 185, 186, 187, 188, 189, 190, 191, 192, 193, 194, 195, 196, 197, 198, 199, 200],
      "AcquisitionTime": ["091649.497500", "091651.497500", "091653.497500", "091655.497500", "091657.497500", "091659.497500", "091701.497500", "091703.497500", "091705.497500", "091707.497500", "091709.497500", "091711.497500", "091713.497500", "091715.497500", "091717.497500", "091719.497500", "091721.497500", "091723.497500", "091725.497500", "091727.497500", "091729.497500", "091731.497500", "091733.497500", "091735.497500", "091737.497500", "091739.497500", "091741.497500", "091743.497500", "091745.497500", "091747.497500", "091749.497500", "091751.497500", "091753.497500", "091755.497500", "091757.497500", "091759.497500", "091801.497500", "091803.497500", "091805.497500", "091807.497500", "091809.497500", "091811.497500", "091813.497500", "091815.497500", "091817.497500", "091819.497500", "091821.497500", "091823.497500", "091825.497500", "091827.497500", "091829.497500", "091831.497500", "091833.497500", "091835.497500", "091837.497500", "091839.497500", "091841.497500", "091843.497500", "091845.497500", "091847.497500", "091849.497500", "091851.497500", "091853.497500", "091855.497500", "091857.497500", "091859.497500", "091901.497500", "091903.497500", "091905.497500", "091907.497500", "091909.497500", "091911.497500", "091913.497500", "091915.497500", "091917.497500", "091919.497500", "091921.497500", "091923.497500", "091925.497500", "091927.497500", "091929.497500", "091931.497500", "091933.497500", "091935.497500", "091937.497500", "091939.497500", "091941.497500", "091943.497500", "091945.497500", "091947.497500", "091949.497500", "091951.497500", "091953.497500", "091955.497500", "091957.497500", "091959.497500", "092001.497500", "092003.497500", "092005.497500", "092007.497500", "092009.497500", "092011.497500", "092013.497500", "092015.497500", "092017.497500", "092019.497500", "092021.497500", "092023.497500", "092025.497500", "092027.497500", "092029.497500", "092031.497500", "092033.497500", "092035.497500", "092037.497500", "092039.497500", "092041.497500", "092043.497500", "092045.497500", "092047.497500", "092049.497500", "092051.497500", "092053.497500", "092055.497500", "092057.497500", "092059.497500", "092101.497500", "092103.497500", "092105.497500", "092107.497500", "092109.497500", "092111.497500", "092113.497500", "092115.497500", "092117.497500", "092119.497500", "092121.497500", "092123.497500", "092125.497500", "092127.497500", "092129.497500", "092131.497500", "092133.497500", "092135.497500", "092137.497500", "092139.497500", "092141.497500", "092143.497500", "092145.497500", "092147.497500", "092149.497500", "092151.497500", "092153.497500", "092155.497500", "092157.497500", "092159.497500", "092201.497500", "092203.497500", "092205.497500", "092207.497500", "092209.497500", "092211.497500", "092213.497500", "092215.497500", "092217.497500", "092219.497500", "092221.497500", "092223.497500", "092225.497500", "092227.497500", "092229.497500", "092231.497500", "092233.497500", "092235.497500", "092237.497500", "092239.497500", "092241.497500", "092243.497500", "092245.497500", "092247.497500", "092249.497500", "092251.497500", "092253.497500", "092255.497500", "092257.497500", "092259.497500", "092301.497500", "092303.497500", "092305.497500", "092307.497500", "092309.497500", "092311.497500", "092313.497500", "092315.497500", "092317.497500", "092319.497500", "092321.497500", "092323.497500", "092325.497500", "092327.497500"],
      "ContentTime": ["091749.028000", "091749.032000", "091749.034000", "091749.037000", "091749.039000", "091749.042000", "091749.044000", "091749.047000", "091749.049000", "091749.052000", "091749.054000", "091749.057000", "091749.059000", "091749.062000", "091749.064000", "091749.067000", "091749.069000", "091749.072000", "091749.074000", "091749.077000", "091749.079000", "091749.082000", "091749.084000", "091749.087000", "091749.089000", "091749.092000", "091749.094000", "091749.097000", "091749.099000", "091829.024000", "091829.027000", "091829.030000", "091829.032000", "091829.035000", "091829.037000", "091829.046000", "091829.049000", "091829.051000", "091829.054000", "091829.056000", "091829.059000", "091829.061000", "091829.063000", "091829.066000", "091829.068000", "091829.071000", "091829.074000", "091829.076000", "091829.079000", "091909.025000", "091909.027000", "091909.030000", "091909.032000", "091909.035000", "091909.037000", "091909.040000", "091909.042000", "091909.045000", "091909.047000", "091909.050000", "091909.052000", "091909.055000", "091909.057000", "091909.060000", "091909.062000", "091909.065000", "091909.067000", "091909.070000", "091909.072000", "091949.023000", "091949.026000", "091949.029000", "091949.031000", "091949.034000", "091949.036000", "091949.039000", "091949.041000", "091949.044000", "091949.046000", "091949.049000", "091949.051000", "091949.054000", "091949.056000", "091949.059000", "091949.061000", "091949.064000", "091949.066000", "091949.073000", "091949.076000", "092029.023000", "092029.026000", "092029.029000", "092029.031000", "092029.034000", "092029.036000", "092029.039000", "092029.041000", "092029.044000", "092029.046000", "092029.049000", "092029.051000", "092029.054000", "092029.056000", "092029.059000", "092029.061000", "092029.064000", "092029.066000", "092029.069000", "092029.071000", "092109.024000", "092109.027000", "092109.030000", "092109.032000", "092109.035000", "092109.037000", "092109.040000", "092109.042000", "092109.045000", "092109.047000", "092109.050000", "092109.052000", "092109.055000", "092109.057000", "092109.060000", "092109.062000", "092109.065000", "092109.067000", "092109.070000", "092109.072000", "092149.024000", "092149.027000", "092149.030000", "092149.032000", "092149.035000", "092149.037000", "092149.040000", "092149.042000", "092149.045000", "092149.047000", "092149.050000", "092149.052000", "092149.055000", "092149.057000", "092149.060000", "092149.062000", "092149.065000", "092149.067000", "092149.070000", "092149.073000", "092229.024000", "092229.026000", "092229.029000", "092229.031000", "092229.034000", "092229.036000", "092229.039000", "092229.041000", "092229.044000", "092229.046000", "092229.049000", "092229.051000", "092229.054000", "092229.056000", "092229.059000", "092229.061000", "092229.064000", "092229.066000", "092229.069000", "092229.071000", "092309.024000", "092309.027000", "092309.030000", "092309.032000", "092309.035000", "092309.037000", "092309.040000", "092309.042000", "092309.045000", "092309.047000", "092309.050000", "092309.052000", "092309.055000", "092309.057000", "092309.060000", "092309.062000", "092309.065000", "092309.067000", "092309.070000", "092309.072000", "092329.170000", "092329.173000", "092329.175000", "092329.178000", "092329.180000", "092329.183000", "092329.186000", "092329.188000", "092329.191000", "092329.193000", "092329.196000"],
      "InstanceCreationTime": ["091749.028000", "091749.032000", "091749.034000", "091749.037000", "091749.039000", "091749.042000", "091749.044000", "091749.047000", "091749.049000", "091749.052000", "091749.054000", "091749.057000", "091749.059000", "091749.062000", "091749.064000", "091749.067000", "091749.069000", "091749.072000", "091749.074000", "091749.077000", "091749.079000", "091749.082000", "091749.084000", "091749.087000", "091749.089000", "091749.092000", "091749.094000", "091749.097000", "091749.099000", "091829.024000", "091829.027000", "091829.030000", "091829.032000", "091829.035000", "091829.037000", "091829.046000", "091829.049000", "091829.051000", "091829.054000", "091829.056000", "091829.059000", "091829.061000", "091829.063000", "091829.066000", "091829.068000", "091829.071000", "091829.074000", "091829.076000", "091829.079000", "091909.025000", "091909.027000", "091909.030000", "091909.032000", "091909.035000", "091909.037000", "091909.040000", "091909.042000", "091909.045000", "091909.047000", "091909.050000", "091909.052000", "091909.055000", "091909.057000", "091909.060000", "091909.062000", "091909.065000", "091909.067000", "091909.070000", "091909.072000", "091949.023000", "091949.026000", "091949.029000", "091949.031000", "091949.034000", "091949.036000", "091949.039000", "091949.041000", "091949.044000", "091949.046000", "091949.049000", "091949.051000", "091949.054000", "091949.056000", "091949.059000", "091949.061000", "091949.064000", "091949.066000", "091949.073000", "091949.076000", "092029.023000", "092029.026000", "092029.029000", "092029.031000", "092029.034000", "092029.036000", "092029.039000", "092029.041000", "092029.044000", "092029.046000", "092029.049000", "092029.051000", "092029.054000", "092029.056000", "092029.059000", "092029.061000", "092029.064000", "092029.066000", "092029.069000", "092029.071000", "092109.024000", "092109.027000", "092109.030000", "092109.032000", "092109.035000", "092109.037000", "092109.040000", "092109.042000", "092109.045000", "092109.047000", "092109.050000", "092109.052000", "092109.055000", "092109.057000", "092109.060000", "092109.062000", "092109.065000", "092109.067000", "092109.070000", "092109.072000", "092149.024000", "092149.027000", "092149.030000", "092149.032000", "092149.035000", "092149.037000", "092149.040000", "092149.042000", "092149.045000", "092149.047000", "092149.050000", "092149.052000", "092149.055000", "092149.057000", "092149.060000", "092149.062000", "092149.065000", "092149.067000", "092149.070000", "092149.073000", "092229.024000", "092229.026000", "092229.029000", "092229.031000", "092229.034000", "092229.036000", "092229.039000", "092229.041000", "092229.044000", "092229.046000", "092229.049000", "092229.051000", "092229.054000", "092229.056000", "092229.059000", "092229.061000", "092229.064000", "092229.066000", "092229.069000", "092229.071000", "092309.024000", "092309.027000", "092309.030000", "092309.032000", "092309.035000", "092309.037000", "092309.040000", "092309.042000", "092309.045000", "092309.047000", "092309.050000", "092309.052000", "092309.055000", "092309.057000", "092309.060000", "092309.062000", "092309.065000", "092309.067000", "092309.070000", "092309.072000", "092329.170000", "092329.173000", "092329.175000", "092329.178000", "092329.180000", "092329.183000", "092329.186000", "092329.188000", "092329.191000", "092329.193000", "092329.196000"],
      "InstanceNumber": [1, 2, 3, 4, 5, 6, 7, 8, 9, 10, 11, 12, 13, 14, 15, 16, 17, 18, 19, 20, 21, 22, 23, 24, 25, 26, 27, 28, 29, 30, 31, 32, 33, 34, 35, 36, 37, 38, 39, 40, 41, 42, 43, 44, 45, 46, 47, 48, 49, 50, 51, 52, 53, 54, 55, 56, 57, 58, 59, 60, 61, 62, 63, 64, 65, 66, 67, 68, 69, 70, 71, 72, 73, 74, 75, 76, 77, 78, 79, 80, 81, 82, 83, 84, 85, 86, 87, 88, 89, 90, 91, 92, 93, 94, 95, 96, 97, 98, 99, 100, 101, 102, 103, 104, 105, 106, 107, 108, 109, 110, 111, 112, 113, 114, 115, 116, 117, 118, 119, 120, 121, 122, 123, 124, 125, 126, 127, 128, 129, 130, 131, 132, 133, 134, 135, 136, 137, 138, 139, 140, 141, 142, 143, 144, 145, 146, 147, 148, 149, 150, 151, 152, 153, 154, 155, 156, 157, 158, 159, 160, 161, 162, 163, 164, 165, 166, 167, 168, 169, 170, 171, 172, 173, 174, 175, 176, 177, 178, 179, 180, 181, 182, 183, 184, 185, 186, 187, 188, 189, 190, 191, 192, 193, 194, 195, 196, 197, 198, 199, 200],
      "LargestImagePixelValue": [1914, 1918, 1918, 1914, 1917, 1913, 1913, 1915, 1917, 1915, 1914, 1912, 1908, 1910, 1910, 1914, 1915, 1917, 1915, 1911, 1912, 1908, 1914, 1916, 1913, 1912, 1911, 1912, 1911, 1908, 1906, 1905, 1909, 1915, 1916, 1917, 1915, 1913, 1910, 1914, 1910, 1907, 1909, 1911, 1915, 1914, 1917, 1922, 1924, 1919, 1914, 1908, 1908, 1914, 1918, 1918, 1918, 1916, 1915, 1912, 1911, 1910, 1910, 1912, 1913, 1918, 1918, 1915, 1915, 1912, 1914, 1919, 1922, 1917, 1912, 1912, 1912, 1917, 1920, 1921, 1914, 1916, 1917, 1911, 1911, 1912, 1913, 1915, 1917, 1918, 1917, 1916, 1917, 1918, 1921, 1920, 1915, 1917, 1917, 1922, 1920, 1917, 1912, 1914, 1914, 1914, 1916, 1921, 1918, 1922, 1922, 1925, 1921, 1916, 1916, 1916, 1912, 1910, 1913, 1917, 1918, 1918, 1919, 1919, 1915, 1914, 1914, 1915, 1915, 1917, 1916, 1915, 1915, 1917, 1914, 1914, 1913, 1918, 1917, 1912, 1908, 1906, 1911, 1914, 1913, 1913, 1913, 1913, 1915, 1912, 1915, 1915, 1918, 1919, 1918, 1911, 1909, 1912, 1915, 1913, 1912, 1913, 1913, 1917, 1922, 1927, 1925, 1916, 1913, 1910, 1908, 1910, 1912, 1918, 1918, 1916, 1912, 1913, 1915, 1917, 1916, 1913, 1912, 1915, 1918, 1911, 1911, 1910, 1915, 1918, 1922, 1920, 1917, 1915, 1911, 1911, 1915, 1920, 1926, 1931],
      "WindowCenter": [976.0, 976.0, 976.0, 976.0, 976.0, 976.0, 976.0, 976.0, 976.0, 976.0, 976.0, 976.0, 976.0, 976.0, 975.0, 974.0, 976.0, 976.0, 975.0, 976.0, 975.0, 976.0, 976.0, 976.0, 976.0, 976.0, 976.0, 976.0, 974.0, 976.0, 976.0, 976.0, 976.0, 976.0, 976.0, 976.0, 976.0, 976.0, 976.0, 976.0, 976.0, 976.0, 976.0, 976.0, 975.0, 976.0, 974.0, 976.0, 976.0, 976.0, 976.0, 974.0, 974.0, 976.0, 976.0, 974.0, 975.0, 976.0, 976.0, 976.0, 976.0, 976.0, 975.0, 976.0, 974.0, 976.0, 976.0, 976.0, 975.0, 976.0, 976.0, 974.0, 976.0, 976.0, 976.0, 976.0, 974.0, 976.0, 976.0, 973.0, 976.0, 976.0, 973.0, 976.0, 976.0, 975.0, 976.0, 976.0, 976.0, 976.0, 976.0, 976.0, 976.0, 976.0, 976.0, 976.0, 976.0, 976.0, 974.0, 974.0, 976.0, 976.0, 976.0, 976.0, 976.0, 976.0, 976.0, 976.0, 976.0, 974.0, 976.0, 976.0, 976.0, 974.0, 975.0, 975.0, 976.0, 975.0, 976.0, 975.0, 976.0, 975.0, 976.0, 975.0, 975.0, 975.0, 975.0, 975.0, 975.0, 974.0, 975.0, 975.0, 975.0, 975.0, 975.0, 975.0, 974.0, 975.0, 975.0, 974.0, 974.0, 975.0, 974.0, 974.0, 975.0, 975.0, 975.0, 975.0, 975.0, 975.0, 975.0, 975.0, 975.0, 975.0, 975.0, 975.0, 975.0, 974.0, 975.0, 975.0, 975.0, 974.0, 975.0, 975.0, 975.0, 975.0, 974.0, 975.0, 975.0, 975.0, 975.0, 975.0, 976.0, 975.0, 975.0, 974.0, 975.0, 975.0, 975.0, 975.0, 975.0, 975.0, 975.0, 975.0, 973.0, 975.0, 975.0, 975.0, 974.0, 975.0, 975.0, 975.0, 973.0, 975.0, 974.0, 975.0, 973.0, 975.0, 973.0, 973.0],
      "WindowWidth": [2139.0, 2139.0, 2139.0, 2138.0, 2139.0, 2139.0, 2139.0, 2139.0, 2139.0, 2139.0, 2138.0, 2139.0, 2139.0, 2139.0, 2138.0, 2137.0, 2139.0, 2139.0, 2138.0, 2139.0, 2138.0, 2138.0, 2138.0, 2138.0, 2138.0, 2138.0, 2138.0, 2138.0, 2137.0, 2138.0, 2138.0, 2138.0, 2138.0, 2138.0, 2138.0, 2138.0, 2138.0, 2138.0, 2139.0, 2139.0, 2139.0, 2138.0, 2139.0, 2139.0, 2138.0, 2139.0, 2138.0, 2139.0, 2139.0, 2139.0, 2139.0, 2138.0, 2137.0, 2139.0, 2139.0, 2137.0, 2138.0, 2139.0, 2139.0, 2139.0, 2139.0, 2139.0, 2138.0, 2139.0, 2137.0, 2139.0, 2139.0, 2139.0, 2138.0, 2139.0, 2139.0, 2137.0, 2139.0, 2139.0, 2138.0, 2139.0, 2137.0, 2139.0, 2138.0, 2137.0, 2139.0, 2139.0, 2137.0, 2139.0, 2138.0, 2138.0, 2138.0, 2138.0, 2139.0, 2138.0, 2139.0, 2139.0, 2138.0, 2138.0, 2138.0, 2138.0, 2138.0, 2138.0, 2137.0, 2137.0, 2138.0, 2138.0, 2138.0, 2138.0, 2138.0, 2138.0, 2138.0, 2138.0, 2138.0, 2137.0, 2138.0, 2138.0, 2138.0, 2137.0, 2137.0, 2138.0, 2138.0, 2138.0, 2138.0, 2138.0, 2138.0, 2138.0, 2138.0, 2138.0, 2137.0, 2138.0, 2138.0, 2138.0, 2138.0, 2136.0, 2138.0, 2138.0, 2138.0, 2138.0, 2138.0, 2138.0, 2136.0, 2138.0, 2138.0, 2136.0, 2136.0, 2138.0, 2136.0, 2136.0, 2138.0, 2138.0, 2138.0, 2138.0, 2138.0, 2138.0, 2138.0, 2138.0, 2138.0, 2138.0, 2138.0, 2138.0, 2138.0, 2137.0, 2138.0, 2138.0, 2138.0, 2137.0, 2138.0, 2138.0, 2138.0, 2137.0, 2137.0, 2137.0, 2137.0, 2137.0, 2138.0, 2137.0, 2138.0, 2138.0, 2137.0, 2136.0, 2137.0, 2137.0, 2137.0, 2137.0, 2137.0, 2137.0, 2137.0, 2137.0, 2136.0, 2137.0, 2137.0, 2137.0, 2136.0, 2137.0, 2137.0, 2137.0, 2136.0, 2137.0, 2136.0, 2137.0, 2136.0, 2137.0, 2136.0, 2136.0]
    },
    "slices": {}
  }
}