{
  "AcquisitionMatrixPE": 80,
  "AcquisitionNumber": 1,
  "AcquisitionTime": "09:23:35.520000",
  "BandwidthPerPixelPhaseEncode": 25,
  "BaseResolution": 80,
  "BodyPartExamined": "BRAIN",
  "CoilCombinationMethod": "Sum of Squares",
  "ConsistencyInfo": "N4_VE11C_LATEST_20160120",
  "ConversionSoftware": "dcm2niix",
  "ConversionSoftwareVersion": "v1.0.20220720",
  "DerivedVendorReportedEchoSpacing": 0.0005,
  "DeviceSerialNumber": "66112",
  "DwellTime": 2.7e-06,
  "EchoTime": 0.03,
  "EchoTrainLength": 80,
  "EffectiveEchoSpacing": 0.0005,
  "FlipAngle": 10,
  "HeudiconvVersion": "0.13.1",
  "ImageOrientationPatientDICOM": [0.984563, 0.174742, 0.0100636, -0.169356, 0.936535, 0.306953],
  "ImageOrientationText": "Tra>Cor(17.7)>Sag(-2.5)",
  "ImageType": [
    "ORIGINAL",
    "PRIMARY",
    "M",
    "ND",
    "NORM",
    "MOSAIC"
],
  "ImagingFrequency": 123.252,
  "InPlanePhaseEncodingDirectionDICOM": "COL",
  "InstitutionAddress": "Maynard 3,Hanover,NH,US,03755",
  "InstitutionName": "Dartmouth College - PBS",
  "InstitutionalDepartmentName": "Department",
  "MRAcquisitionType": "2D",
  "MagneticFieldStrength": 3,
  "Manufacturer": "Siemens",
  "ManufacturersModelName": "Prisma",
  "MatrixCoilMode": "SENSE",
  "Modality": "MR",
  "NonlinearGradientCorrection": false,
  "PartialFourier": 1,
  "PatientPosition": "HFS",
  "PercentPhaseFOV": 100,
  "PercentSampling": 100,
  "PhaseEncodingDirection": "j-",
  "PhaseEncodingSteps": 80,
  "PhaseResolution": 1,
  "PixelBandwidth": 2315,
  "ProcedureStepDescription": "dbic^QA",
  "ProtocolName": "func-bold_fa-10",
  "PulseSequenceDetails": "%SiemensSeq%\\ep2d_bold",
  "ReceiveCoilActiveElements": "HEA;HEP",
  "ReceiveCoilName": "Head_32",
  "ReconMatrixPE": 80,
  "RepetitionTime": 2,
  "SAR": 0.0117114,
  "ScanOptions": "FS",
  "ScanningSequence": "EP",
  "SequenceName": "*epfid2d1_80",
  "SequenceVariant": "SK",
  "SeriesDescription": "func-bold_fa-10",
  "SeriesNumber": 10,
  "ShimSetting": [4153, -7695, -7522, 262, -54, -63, 42, 53],
  "SliceThickness": 3.5,
  "SliceTiming": [0.99, 0, 1.0575, 0.0675, 1.1225, 0.1325, 1.19, 0.2, 1.255, 0.265, 1.32, 0.33, 1.3875, 0.3975, 1.4525, 0.4625, 1.52, 0.53, 1.585, 0.595, 1.65, 0.66, 1.7175, 0.7275, 1.7825, 0.7925, 1.85, 0.86, 1.915, 0.925],
  "SoftwareVersions": "syngo MR E11",
  "SpacingBetweenSlices": 3.99,
  "StationName": "AWP66112",
  "TotalReadoutTime": 0.0395,
  "TxRefAmp": 222.587,
  "dcmmeta_affine": [
    [-2.953688383102417, -0.5080671310424805, -0.17640915513038635, 141.94834899902344],
    [-0.5242267847061157, 2.809605836868286, 1.212636947631836, -91.9365234375],
    [0.03019067458808422, -0.920859694480896, 3.7971689701080322, -18.618745803833008],
    [0.0, 0.0, 0.0, 1.0]
],
  "dcmmeta_reorient_transform": [
    [0.0, -1.0, 0.0, 79.0],
    [1.0, 0.0, 0.0, 0.0],
    [0.0, 0.0, 1.0, 0.0],
    [0.0, 0.0, 0.0, 1.0]
],
  "dcmmeta_shape": [80, 80, 30, 200],
  "dcmmeta_slice_dim": 2,
  "dcmmeta_version": 0.6,
  "global": {
    "const": {
      "AccessionNumber": "qa",
      "AcquisitionMatrix": [80, 0, 0, 80],
      "AngioFlag": "N",
      "BitsAllocated": 16,
      "BitsStored": 12,
      "BodyPartExamined": "BRAIN",
      "Columns": 480,
      "EchoNumbers": 1,
      "EchoTime": 30.0,
      "EchoTrainLength": 80,
      "FlipAngle": 10.0,
      "HighBit": 11,
      "ImageOrientationPatient": [0.98456278109408, 0.1747422527023, 0.01006355825803, -0.1693557102483, 0.93653529633925, 0.30695322464027],
      "ImagePositionPatient": [-590.93528252014, -796.78887122148, -281.57672968287],
      "ImageType": [
        "ORIGINAL",
        "PRIMARY",
        "M",
        "ND",
        "NORM",
        "MOSAIC"
],
      "ImagedNucleus": "1H",
      "ImagingFrequency": 123.252326,
      "InPlanePhaseEncodingDirection": "COL",
      "MRAcquisitionType": "2D",
      "MagneticFieldStrength": 3.0,
      "Manufacturer": "SIEMENS",
      "ManufacturerModelName": "Prisma",
      "Modality": "MR",
      "NumberOfAverages": 1.0,
      "NumberOfPhaseEncodingSteps": 80,
      "PercentPhaseFieldOfView": 100.0,
      "PercentSampling": 100.0,
      "PerformedProcedureStepStartTime": "085926.163000",
      "PhotometricInterpretation": "MONOCHROME2",
      "PixelBandwidth": 2315.0,
      "PixelRepresentation": 0,
      "PixelSpacing": [3.0, 3.0],
      "ProtocolName": "func-bold_fa-10",
      "RepetitionTime": 2000.0,
      "Rows": 480,
      "SAR": 0.01171144611775,
      "SamplesPerPixel": 1,
      "ScanOptions": "FS",
      "ScanningSequence": "EP",
      "SequenceName": "*epfid2d1_80",
      "SequenceVariant": "SK",
      "SeriesDescription": "func-bold_fa-10",
      "SeriesNumber": 10,
      "SeriesTime": "092409.095000",
      "SliceLocation": -51.936124387002,
      "SliceThickness": 3.5,
      "SmallestImagePixelValue": 0,
      "SoftwareVersions": "syngo MR E11",
      "SpacingBetweenSlices": 3.9900000011475,
      "SpecificCharacterSet": "ISO_IR 100",
      "StudyID": "63",
      "StudyTime": "085926.117000",
      "TransmitCoilName": "Body",
      "VariableFlipAngleFlag": "N",
      "WindowCenterWidthExplanation": "Algo1",
      "dBdt": 0.0},
    "slices": {}
  },
  "time": {
    "samples": {
      "AcquisitionNumber": [1, 2, 3, 4, 5, 6, 7, 8, 9, 10, 11, 12, 13, 14, 15, 16, 17, 18, 19, 20, 21, 22, 23, 24, 25, 26, 27, 28, 29, 30, 31, 32, 33, 34, 35, 36, 37, 38, 39, 40, 41, 42, 43, 44, 45, 46, 47, 48, 49, 50, 51, 52, 53, 54, 55, 56, 57, 58, 59, 60, 61, 62, 63, 64, 65, 66, 67, 68, 69, 70, 71, 72, 73, 74, 75, 76, 77, 78, 79, 80, 81, 82, 83, 84, 85, 86, 87, 88, 89, 90, 91, 92, 93, 94, 95, 96, 97, 98, 99, 100, 101, 102, 103, 104, 105, 106, 107, 108, 109, 110, 111, 112, 113, 114, 115, 116, 117, 118, 119, 120, 121, 122, 123, 124, 125, 126, 127, 128, 129, 130, 131, 132, 133, 134, 135, 136, 137, 138, 139, 140, 141, 142, 143, 144, 145, 146, 147, 148, 149, 150, 151, 152, 153, 154, 155, 156, 157, 158, 159, 160, 161, 162, 163, 164, 165, 166, 167, 168, 169, 170, 171, 172, 173, 174, 175, 176, 177, 178, 179, 180, 181, 182, 183, 184, 185, 186, 187, 188, 189, 190, 191, 192, 193, 194, 195, 196, 197, 198, 199, 200],
      "AcquisitionTime": ["092335.520000", "092337.520000", "092339.520000", "092341.520000", "092343.520000", "092345.520000", "092347.520000", "092349.520000", "092351.520000", "092353.520000", "092355.520000", "092357.520000", "092359.520000", "092401.520000", "092403.520000", "092405.520000", "092407.520000", "092409.520000", "092411.520000", "092413.520000", "092415.520000", "092417.520000", "092419.520000", "092421.520000", "092423.520000", "092425.520000", "092427.520000", "092429.520000", "092431.520000", "092433.520000", "092435.520000", "092437.520000", "092439.520000", "092441.520000", "092443.520000", "092445.520000", "092447.520000", "092449.520000", "092451.520000", "092453.520000", "092455.520000", "092457.520000", "092459.520000", "092501.520000", "092503.520000", "092505.520000", "092507.520000", "092509.520000", "092511.520000", "092513.520000", "092515.520000", "092517.520000", "092519.520000", "092521.520000", "092523.520000", "092525.520000", "092527.520000", "092529.520000", "092531.520000", "092533.520000", "092535.520000", "092537.520000", "092539.520000", "092541.520000", "092543.520000", "092545.520000", "092547.520000", "092549.520000", "092551.520000", "092553.520000", "092555.520000", "092557.520000", "092559.520000", "092601.520000", "092603.520000", "092605.520000", "092607.520000", "092609.520000", "092611.520000", "092613.520000", "092615.520000", "092617.520000", "092619.520000", "092621.520000", "092623.520000", "092625.520000", "092627.520000", "092629.520000", "092631.520000", "092633.520000", "092635.520000", "092637.520000", "092639.520000", "092641.520000", "092643.520000", "092645.520000", "092647.520000", "092649.520000", "092651.520000", "092653.520000", "092655.520000", "092657.520000", "092659.520000", "092701.520000", "092703.520000", "092705.520000", "092707.520000", "092709.520000", "092711.520000", "092713.520000", "092715.520000", "092717.520000", "092719.520000", "092721.520000", "092723.520000", "092725.520000", "092727.520000", "092729.520000", "092731.520000", "092733.520000", "092735.520000", "092737.520000", "092739.520000", "092741.520000", "092743.520000", "092745.520000", "092747.520000", "092749.520000", "092751.520000", "092753.520000", "092755.520000", "092757.520000", "092759.520000", "092801.520000", "092803.520000", "092805.520000", "092807.520000", "092809.520000", "092811.520000", "092813.520000", "092815.520000", "092817.520000", "092819.520000", "092821.520000", "092823.520000", "092825.520000", "092827.520000", "092829.520000", "092831.520000", "092833.520000", "092835.520000", "092837.520000", "092839.520000", "092841.520000", "092843.520000", "092845.520000", "092847.520000", "092849.520000", "092851.520000", "092853.520000", "092855.520000", "092857.520000", "092859.520000", "092901.520000", "092903.520000", "092905.520000", "092907.520000", "092909.520000", "092911.520000", "092913.520000", "092915.520000", "092917.520000", "092919.520000", "092921.520000", "092923.520000", "092925.520000", "092927.520000", "092929.520000", "092931.520000", "092933.520000", "092935.520000", "092937.520000", "092939.520000", "092941.520000", "092943.520000", "092945.520000", "092947.520000", "092949.520000", "092951.520000", "092953.520000", "092955.520000", "092957.520000", "092959.520000", "093001.520000", "093003.520000", "093005.520000", "093007.520000", "093009.520000", "093011.520000", "093013.520000"],
      "ContentTime": ["092409.098000", "092409.102000", "092409.104000", "092409.107000", "092409.109000", "092409.112000", "092409.114000", "092409.116000", "092409.119000", "092409.121000", "092409.124000", "092409.126000", "092409.129000", "092409.131000", "092409.134000", "092409.136000", "092449.093000", "092449.096000", "092449.099000", "092449.111000", "092449.114000", "092449.116000", "092449.118000", "092449.121000", "092449.123000", "092449.126000", "092449.128000", "092449.131000", "092449.136000", "092449.139000", "092449.141000", "092449.144000", "092449.146000", "092449.149000", "092449.151000", "092449.153000", "092529.094000", "092529.097000", "092529.100000", "092529.102000", "092529.104000", "092529.107000", "092529.109000", "092529.112000", "092529.114000", "092529.117000", "092529.119000", "092529.122000", "092529.124000", "092529.127000", "092529.129000", "092529.132000", "092529.134000", "092529.137000", "092529.139000", "092529.142000", "092609.094000", "092609.097000", "092609.100000", "092609.102000", "092609.104000", "092609.107000", "092609.109000", "092609.112000", "092609.114000", "092609.117000", "092609.119000", "092609.126000", "092609.129000", "092609.131000", "092609.134000", "092609.136000", "092609.139000", "092609.141000", "092609.144000", "092609.146000", "092649.093000", "092649.096000", "092649.099000", "092649.101000", "092649.104000", "092649.106000", "092649.109000", "092649.111000", "092649.114000", "092649.116000", "092649.119000", "092649.121000", "092649.124000", "092649.126000", "092649.129000", "092649.131000", "092649.133000", "092649.136000", "092649.138000", "092649.141000", "092729.093000", "092729.096000", "092729.099000", "092729.101000", "092729.104000", "092729.106000", "092729.109000", "092729.111000", "092729.114000", "092729.116000", "092729.118000", "092729.121000", "092729.123000", "092729.126000", "092729.128000", "092729.131000", "092729.133000", "092729.136000", "092729.138000", "092729.141000", "092809.094000", "092809.097000", "092809.100000", "092809.102000", "092809.105000", "092809.107000", "092809.110000", "092809.112000", "092809.115000", "092809.128000", "092809.130000", "092809.133000", "092809.135000", "092809.138000", "092809.140000", "092809.143000", "092809.145000", "092809.148000", "092809.150000", "092809.152000", "092849.093000", "092849.096000", "092849.099000", "092849.101000", "092849.104000", "092849.106000", "092849.109000", "092849.111000", "092849.114000", "092849.116000", "092849.119000", "092849.121000", "092849.124000", "092849.126000", "092849.129000", "092849.131000", "092849.134000", "092849.136000", "092849.139000", "092849.141000", "092929.093000", "092929.096000", "092929.099000", "092929.101000", "092929.104000", "092929.106000", "092929.109000", "092929.111000", "092929.114000", "092929.116000", "092929.119000", "092929.121000", "092929.124000", "092929.126000", "092929.129000", "092929.131000", "092929.133000", "092929.136000", "092929.138000", "092929.141000", "093009.095000", "093009.097000", "093009.100000", "093009.102000", "093009.105000", "093009.107000", "093009.110000", "093009.112000", "093009.115000", "093009.117000", "093009.120000", "093009.122000", "093009.125000", "093009.127000", "093009.130000", "093009.132000", "093009.135000", "093009.137000", "093009.140000", "093009.142000", "093015.546000", "093015.548000", "093015.551000", "093015.553000"],
      "InstanceCreationTime": ["092409.098000", "092409.102000", "092409.104000", "092409.107000", "092409.109000", "092409.112000", "092409.114000", "092409.116000", "092409.119000", "092409.121000", "092409.124000", "092409.126000", "092409.129000", "092409.131000", "092409.134000", "092409.136000", "092449.093000", "092449.096000", "092449.099000", "092449.111000", "092449.114000", "092449.116000", "092449.118000", "092449.121000", "092449.123000", "092449.126000", "092449.128000", "092449.131000", "092449.136000", "092449.139000", "092449.141000", "092449.144000", "092449.146000", "092449.149000", "092449.151000", "092449.153000", "092529.094000", "092529.097000", "092529.100000", "092529.102000", "092529.104000", "092529.107000", "092529.109000", "092529.112000", "092529.114000", "092529.117000", "092529.119000", "092529.122000", "092529.124000", "092529.127000", "092529.129000", "092529.132000", "092529.134000", "092529.137000", "092529.139000", "092529.142000", "092609.094000", "092609.097000", "092609.100000", "092609.102000", "092609.104000", "092609.107000", "092609.109000", "092609.112000", "092609.114000", "092609.117000", "092609.119000", "092609.126000", "092609.129000", "092609.131000", "092609.134000", "092609.136000", "092609.139000", "092609.141000", "092609.144000", "092609.146000", "092649.093000", "092649.096000", "092649.099000", "092649.101000", "092649.104000", "092649.106000", "092649.109000", "092649.111000", "092649.114000", "092649.116000", "092649.119000", "092649.121000", "092649.124000", "092649.126000", "092649.129000", "092649.131000", "092649.133000", "092649.136000", "092649.138000", "092649.141000", "092729.093000", "092729.096000", "092729.099000", "092729.101000", "092729.104000", "092729.106000", "092729.109000", "092729.111000", "092729.114000", "092729.116000", "092729.118000", "092729.121000", "092729.123000", "092729.126000", "092729.128000", "092729.131000", "092729.133000", "092729.136000", "092729.138000", "092729.141000", "092809.094000", "092809.097000", "092809.100000", "092809.102000", "092809.105000", "092809.107000", "092809.110000", "092809.112000", "092809.115000", "092809.128000", "092809.130000", "092809.133000", "092809.135000", "092809.138000", "092809.140000", "092809.143000", "092809.145000", "092809.148000", "092809.150000", "092809.152000", "092849.093000", "092849.096000", "092849.099000", "092849.101000", "092849.104000", "092849.106000", "092849.109000", "092849.111000", "092849.114000", "092849.116000", "092849.119000", "092849.121000", "092849.124000", "092849.126000", "092849.129000", "092849.131000", "092849.134000", "092849.136000", "092849.139000", "092849.141000", "092929.093000", "092929.096000", "092929.099000", "092929.101000", "092929.104000", "092929.106000", "092929.109000", "092929.111000", "092929.114000", "092929.116000", "092929.119000", "092929.121000", "092929.124000", "092929.126000", "092929.129000", "092929.131000", "092929.133000", "092929.136000", "092929.138000", "092929.141000", "093009.095000", "093009.097000", "093009.100000", "093009.102000", "093009.105000", "093009.107000", "093009.110000", "093009.112000", "093009.115000", "093009.117000", "093009.120000", "093009.122000", "093009.125000", "093009.127000", "093009.130000", "093009.132000", "093009.135000", "093009.137000", "093009.140000", "093009.142000", "093015.546000", "093015.548000", "093015.551000", "093015.553000"],
      "InstanceNumber": [1, 2, 3, 4, 5, 6, 7, 8, 9, 10, 11, 12, 13, 14, 15, 16, 17, 18, 19, 20, 21, 22, 23, 24, 25, 26, 27, 28, 29, 30, 31, 32, 33, 34, 35, 36, 37, 38, 39, 40, 41, 42, 43, 44, 45, 46, 47, 48, 49, 50, 51, 52, 53, 54, 55, 56, 57, 58, 59, 60, 61, 62, 63, 64, 65, 66, 67, 68, 69, 70, 71, 72, 73, 74, 75, 76, 77, 78, 79, 80, 81, 82, 83, 84, 85, 86, 87, 88, 89, 90, 91, 92, 93, 94, 95, 96, 97, 98, 99, 100, 101, 102, 103, 104, 105, 106, 107, 108, 109, 110, 111, 112, 113, 114, 115, 116, 117, 118, 119, 120, 121, 122, 123, 124, 125, 126, 127, 128, 129, 130, 131, 132, 133, 134, 135, 136, 137, 138, 139, 140, 141, 142, 143, 144, 145, 146, 147, 148, 149, 150, 151, 152, 153, 154, 155, 156, 157, 158, 159, 160, 161, 162, 163, 164, 165, 166, 167, 168, 169, 170, 171, 172, 173, 174, 175, 176, 177, 178, 179, 180, 181, 182, 183, 184, 185, 186, 187, 188, 189, 190, 191, 192, 193, 194, 195, 196, 197, 198, 199, 200],
      "LargestImagePixelValue": [336, 333, 334, 331, 334, 334, 333, 333, 335, 335, 339, 334, 337, 336, 333, 336, 333, 334, 335, 331, 333, 333, 334, 333, 335, 334, 336, 334, 333, 333, 334, 333, 333, 335, 335, 336, 332, 335, 333, 334, 334, 334, 338, 333, 338, 337, 333, 333, 334, 335, 336, 336, 338, 335, 334, 336, 334, 337, 333, 336, 334, 333, 335, 332, 337, 334, 333, 332, 335, 336, 334, 335, 334, 337, 333, 334, 334, 332, 333, 334, 335, 335, 333, 334, 335, 333, 334, 333, 333, 333, 334, 333, 337, 338, 334, 333, 331, 337, 335, 338, 334, 334, 333, 333, 336, 337, 334, 333, 333, 334, 334, 339, 332, 334, 332, 332, 334, 333, 333, 331, 333, 331, 334, 334, 331, 333, 333, 335, 335, 336, 335, 333, 335, 333, 334, 334, 335, 335, 333, 335, 333, 334, 332, 334, 335, 333, 333, 335, 336, 333, 333, 336, 332, 333, 333, 334, 332, 335, 332, 332, 333, 333, 332, 336, 333, 331, 333, 331, 332, 334, 335, 332, 332, 340, 333, 334, 336, 335, 332, 335, 334, 332, 333, 336, 333, 331, 333, 332, 334, 331, 335, 332, 333, 335, 332, 332, 330, 332, 334, 331],
      "WindowCenter": [280.0, 280.0, 279.0, 280.0, 280.0, 280.0, 279.0, 279.0, 280.0, 280.0, 279.0, 279.0, 280.0, 280.0, 279.0, 280.0, 279.0, 279.0, 280.0, 280.0, 280.0, 279.0, 280.0, 279.0, 280.0, 280.0, 280.0, 280.0, 280.0, 280.0, 279.0, 279.0, 280.0, 280.0, 280.0, 279.0, 280.0, 279.0, 280.0, 280.0, 280.0, 280.0, 279.0, 280.0, 280.0, 280.0, 280.0, 280.0, 280.0, 280.0, 279.0, 279.0, 280.0, 279.0, 280.0, 280.0, 280.0, 280.0, 280.0, 280.0, 279.0, 280.0, 280.0, 279.0, 280.0, 280.0, 280.0, 280.0, 280.0, 279.0, 280.0, 279.0, 280.0, 279.0, 280.0, 279.0, 280.0, 279.0, 279.0, 279.0, 280.0, 279.0, 279.0, 280.0, 280.0, 279.0, 280.0, 279.0, 280.0, 280.0, 280.0, 279.0, 279.0, 280.0, 279.0, 279.0, 279.0, 279.0, 280.0, 279.0, 279.0, 279.0, 279.0, 279.0, 280.0, 280.0, 280.0, 280.0, 279.0, 280.0, 280.0, 280.0, 280.0, 280.0, 279.0, 280.0, 279.0, 280.0, 279.0, 280.0, 279.0, 279.0, 280.0, 280.0, 279.0, 279.0, 279.0, 280.0, 280.0, 279.0, 280.0, 280.0, 279.0, 280.0, 279.0, 279.0, 280.0, 279.0, 279.0, 280.0, 279.0, 279.0, 279.0, 280.0, 279.0, 279.0, 279.0, 280.0, 280.0, 279.0, 279.0, 280.0, 279.0, 280.0, 279.0, 280.0, 280.0, 279.0, 280.0, 279.0, 279.0, 280.0, 280.0, 280.0, 279.0, 280.0, 280.0, 279.0, 280.0, 280.0, 279.0, 279.0, 280.0, 280.0, 279.0, 279.0, 280.0, 280.0, 280.0, 279.0, 280.0, 280.0, 279.0, 280.0, 280.0, 279.0, 279.0, 280.0, 279.0, 279.0, 279.0, 280.0, 279.0, 279.0, 279.0, 279.0, 279.0, 279.0, 280.0, 279.0],
      "WindowWidth": [611.0, 611.0, 611.0, 611.0, 611.0, 611.0, 611.0, 611.0, 611.0, 611.0, 611.0, 611.0, 611.0, 611.0, 611.0, 611.0, 611.0, 611.0, 611.0, 611.0, 611.0, 611.0, 611.0, 611.0, 611.0, 611.0, 611.0, 611.0, 611.0, 611.0, 611.0, 611.0, 611.0, 611.0, 611.0, 611.0, 611.0, 611.0, 611.0, 611.0, 611.0, 611.0, 611.0, 611.0, 611.0, 611.0, 611.0, 611.0, 611.0, 611.0, 611.0, 611.0, 611.0, 611.0, 611.0, 611.0, 611.0, 611.0, 611.0, 611.0, 610.0, 611.0, 611.0, 611.0, 611.0, 611.0, 611.0, 611.0, 611.0, 611.0, 611.0, 611.0, 611.0, 611.0, 611.0, 611.0, 611.0, 611.0, 611.0, 610.0, 611.0, 610.0, 611.0, 611.0, 611.0, 611.0, 611.0, 611.0, 611.0, 611.0, 611.0, 611.0, 611.0, 611.0, 611.0, 611.0, 611.0, 611.0, 611.0, 611.0, 611.0, 611.0, 611.0, 611.0, 611.0, 611.0, 611.0, 611.0, 611.0, 611.0, 611.0, 611.0, 611.0, 611.0, 611.0, 611.0, 610.0, 611.0, 610.0, 611.0, 610.0, 611.0, 611.0, 611.0, 611.0, 611.0, 610.0, 611.0, 611.0, 611.0, 611.0, 611.0, 611.0, 611.0, 610.0, 610.0, 611.0, 611.0, 610.0, 611.0, 610.0, 611.0, 611.0, 611.0, 611.0, 611.0, 611.0, 611.0, 611.0, 610.0, 611.0, 611.0, 610.0, 611.0, 610.0, 611.0, 611.0, 610.0, 611.0, 611.0, 610.0, 611.0, 611.0, 611.0, 611.0, 611.0, 611.0, 610.0, 611.0, 611.0, 610.0, 610.0, 611.0, 611.0, 611.0, 611.0, 611.0, 611.0, 611.0, 610.0, 611.0, 611.0, 610.0, 611.0, 611.0, 610.0, 611.0, 611.0, 610.0, 611.0, 611.0, 611.0, 610.0, 610.0, 611.0, 610.0, 610.0, 610.0, 611.0, 610.0]
    },
    "slices": {}
  }
}