{
  "AcquisitionMatrixPE": 80,
  "AcquisitionNumber": 1,
  "AcquisitionTime": "10:22:33.450000",
  "BandwidthPerPixelPhaseEncode": 25,
  "BaseResolution": 80,
  "BodyPartExamined": "BRAIN",
  "CoilCombinationMethod": "Sum of Squares",
  "ConsistencyInfo": "N4_VE11E_LATEST_20181129",
  "ConversionSoftware": "dcm2niix",
  "ConversionSoftwareVersion": "v1.0.20220720",
  "DerivedVendorReportedEchoSpacing": 0.0005,
  "DeviceSerialNumber": "66112",
  "DwellTime": 2.7e-06,
  "EchoTime": 0.03,
  "EchoTrainLength": 80,
  "EffectiveEchoSpacing": 0.0005,
  "FlipAngle": 10,
  "HeudiconvVersion": "0.13.1",
  "ImageOrientationPatientDICOM": [0.999984, 0.00521562, 0.00202951, -0.00558501, 0.953289, 0.302008],
  "ImageOrientationText": "Tra>Cor(17.6)>Sag(0.0)",
  "ImageType": [
    "ORIGINAL",
    "PRIMARY",
    "M",
    "ND",
    "NORM",
    "MOSAIC"
],
  "ImagingFrequency": 123.259,
  "InPlanePhaseEncodingDirectionDICOM": "COL",
  "InstitutionAddress": "Maynard 3,Hanover,NH,US,03755",
  "InstitutionName": "Dartmouth College - PBS",
  "InstitutionalDepartmentName": "Department",
  "MRAcquisitionType": "2D",
  "MagneticFieldStrength": 3,
  "Manufacturer": "Siemens",
  "ManufacturersModelName": "Prisma",
  "MatrixCoilMode": "SENSE",
  "Modality": "MR",
  "NonlinearGradientCorrection": false,
  "PartialFourier": 1,
  "PatientPosition": "HFS",
  "PercentPhaseFOV": 100,
  "PercentSampling": 100,
  "PhaseEncodingDirection": "j-",
  "PhaseEncodingSteps": 80,
  "PhaseResolution": 1,
  "PixelBandwidth": 2315,
  "ProcedureStepDescription": "dbic^QA",
  "ProtocolName": "func-bold_fa-10",
  "PulseSequenceDetails": "%SiemensSeq%\\ep2d_bold",
  "ReceiveCoilActiveElements": "HEA;HEP",
  "ReceiveCoilName": "Head_32",
  "ReconMatrixPE": 80,
  "RepetitionTime": 2,
  "SAR": 0.0100705,
  "ScanOptions": "FS",
  "ScanningSequence": "EP",
  "SequenceName": "*epfid2d1_80",
  "SequenceVariant": "SK",
  "SeriesDescription": "func-bold_fa-10",
  "SeriesNumber": 10,
  "ShimSetting": [4225, -7735, -7494, -49, -133, -12, -8, 76],
  "SliceThickness": 3.5,
  "SliceTiming": [0.99, 0, 1.0575, 0.0675, 1.1225, 0.1325, 1.19, 0.2, 1.255, 0.265, 1.32, 0.33, 1.3875, 0.3975, 1.4525, 0.4625, 1.52, 0.53, 1.585, 0.595, 1.65, 0.66, 1.7175, 0.7275, 1.7825, 0.7925, 1.8475, 0.86, 1.915, 0.925],
  "SoftwareVersions": "syngo MR E11",
  "SpacingBetweenSlices": 3.99,
  "StationName": "AWP66112",
  "TotalReadoutTime": 0.0395,
  "TxRefAmp": 230.047,
  "dcmmeta_affine": [
    [-2.999953031539917, -0.016755031421780586, 0.001434606616385281, 121.30810546875],
    [-0.015646865591406822, 2.8598670959472656, 1.2050385475158691, -115.90132904052734],
    [0.006088532041758299, -0.906024158000946, 3.803679943084717, -19.760730743408203],
    [0.0, 0.0, 0.0, 1.0]
],
  "dcmmeta_reorient_transform": [
    [0.0, -1.0, 0.0, 79.0],
    [1.0, 0.0, 0.0, 0.0],
    [0.0, 0.0, 1.0, 0.0],
    [0.0, 0.0, 0.0, 1.0]
],
  "dcmmeta_shape": [80, 80, 30, 200],
  "dcmmeta_slice_dim": 2,
  "dcmmeta_version": 0.6,
  "global": {
    "const": {
      "AccessionNumber": "qa",
      "AcquisitionMatrix": [80, 0, 0, 80],
      "AngioFlag": "N",
      "BitsAllocated": 16,
      "BitsStored": 12,
      "BodyPartExamined": "BRAIN",
      "Columns": 480,
      "EchoNumbers": 1,
      "EchoTime": 30.0,
      "EchoTrainLength": 80,
      "FlipAngle": 10.0,
      "HighBit": 11,
      "ImageOrientationPatient": [0.99998433906647, 0.00521562156941, 0.00202951064214, -0.0055850107639, 0.95328901515899, 0.30200804829005],
      "ImagePositionPatient": [-716.62405152651, -685.13094781182, -273.75917332107],
      "ImageType": [
        "ORIGINAL",
        "PRIMARY",
        "M",
        "ND",
        "NORM",
        "MOSAIC"
],
      "ImagedNucleus": "1H",
      "ImagingFrequency": 123.259273,
      "InPlanePhaseEncodingDirection": "COL",
      "MRAcquisitionType": "2D",
      "MagneticFieldStrength": 3.0,
      "Manufacturer": "SIEMENS",
      "ManufacturerModelName": "Prisma",
      "Modality": "MR",
      "NumberOfAverages": 1.0,
      "NumberOfPhaseEncodingSteps": 80,
      "PercentPhaseFieldOfView": 100.0,
      "PercentSampling": 100.0,
      "PerformedProcedureStepStartTime": "100011.435000",
      "PhotometricInterpretation": "MONOCHROME2",
      "PixelBandwidth": 2315.0,
      "PixelRepresentation": 0,
      "PixelSpacing": [3.0, 3.0],
      "ProtocolName": "func-bold_fa-10",
      "RepetitionTime": 2000.0,
      "Rows": 480,
      "SAR": 0.01007045292981,
      "SamplesPerPixel": 1,
      "ScanOptions": "FS",
      "ScanningSequence": "EP",
      "SequenceName": "*epfid2d1_80",
      "SequenceVariant": "SK",
      "SeriesDescription": "func-bold_fa-10",
      "SeriesNumber": 10,
      "SeriesTime": "102331.859000",
      "SliceLocation": -53.798251799546,
      "SliceThickness": 3.5,
      "SmallestImagePixelValue": 0,
      "SoftwareVersions": "syngo MR E11",
      "SpacingBetweenSlices": 3.9900000719638,
      "SpecificCharacterSet": "ISO_IR 100",
      "StudyID": "14",
      "StudyTime": "100011.388000",
      "TransmitCoilName": "Body",
      "VariableFlipAngleFlag": "N",
      "WindowCenterWidthExplanation": "Algo1"
    },
    "slices": {}
  },
  "time": {
    "samples": {
      "AcquisitionNumber": [1, 2, 3, 4, 5, 6, 7, 8, 9, 10, 11, 12, 13, 14, 15, 16, 17, 18, 19, 20, 21, 22, 23, 24, 25, 26, 27, 28, 29, 30, 31, 32, 33, 34, 35, 36, 37, 38, 39, 40, 41, 42, 43, 44, 45, 46, 47, 48, 49, 50, 51, 52, 53, 54, 55, 56, 57, 58, 59, 60, 61, 62, 63, 64, 65, 66, 67, 68, 69, 70, 71, 72, 73, 74, 75, 76, 77, 78, 79, 80, 81, 82, 83, 84, 85, 86, 87, 88, 89, 90, 91, 92, 93, 94, 95, 96, 97, 98, 99, 100, 101, 102, 103, 104, 105, 106, 107, 108, 109, 110, 111, 112, 113, 114, 115, 116, 117, 118, 119, 120, 121, 122, 123, 124, 125, 126, 127, 128, 129, 130, 131, 132, 133, 134, 135, 136, 137, 138, 139, 140, 141, 142, 143, 144, 145, 146, 147, 148, 149, 150, 151, 152, 153, 154, 155, 156, 157, 158, 159, 160, 161, 162, 163, 164, 165, 166, 167, 168, 169, 170, 171, 172, 173, 174, 175, 176, 177, 178, 179, 180, 181, 182, 183, 184, 185, 186, 187, 188, 189, 190, 191, 192, 193, 194, 195, 196, 197, 198, 199, 200],
      "AcquisitionTime": ["102233.450000", "102235.450000", "102237.450000", "102239.450000", "102241.450000", "102243.450000", "102245.450000", "102247.450000", "102249.450000", "102251.450000", "102253.450000", "102255.450000", "102257.450000", "102259.450000", "102301.450000", "102303.450000", "102305.450000", "102307.450000", "102309.450000", "102311.450000", "102313.450000", "102315.450000", "102317.450000", "102319.450000", "102321.450000", "102323.450000", "102325.450000", "102327.450000", "102329.450000", "102331.450000", "102333.450000", "102335.450000", "102337.450000", "102339.450000", "102341.450000", "102343.450000", "102345.450000", "102347.450000", "102349.450000", "102351.450000", "102353.450000", "102355.450000", "102357.450000", "102359.450000", "102401.450000", "102403.450000", "102405.450000", "102407.450000", "102409.450000", "102411.450000", "102413.450000", "102415.450000", "102417.450000", "102419.450000", "102421.450000", "102423.450000", "102425.450000", "102427.450000", "102429.450000", "102431.450000", "102433.450000", "102435.450000", "102437.450000", "102439.450000", "102441.450000", "102443.450000", "102445.450000", "102447.450000", "102449.450000", "102451.450000", "102453.450000", "102455.450000", "102457.450000", "102459.450000", "102501.450000", "102503.450000", "102505.450000", "102507.450000", "102509.450000", "102511.450000", "102513.450000", "102515.450000", "102517.450000", "102519.450000", "102521.450000", "102523.450000", "102525.450000", "102527.450000", "102529.450000", "102531.450000", "102533.450000", "102535.450000", "102537.450000", "102539.450000", "102541.450000", "102543.450000", "102545.450000", "102547.450000", "102549.450000", "102551.450000", "102553.450000", "102555.450000", "102557.450000", "102559.450000", "102601.450000", "102603.450000", "102605.450000", "102607.450000", "102609.450000", "102611.450000", "102613.450000", "102615.450000", "102617.450000", "102619.450000", "102621.450000", "102623.450000", "102625.450000", "102627.450000", "102629.450000", "102631.450000", "102633.450000", "102635.450000", "102637.450000", "102639.450000", "102641.450000", "102643.450000", "102645.450000", "102647.450000", "102649.450000", "102651.450000", "102653.450000", "102655.450000", "102657.450000", "102659.450000", "102701.450000", "102703.450000", "102705.450000", "102707.450000", "102709.450000", "102711.450000", "102713.450000", "102715.450000", "102717.450000", "102719.450000", "102721.450000", "102723.450000", "102725.450000", "102727.450000", "102729.450000", "102731.450000", "102733.450000", "102735.450000", "102737.450000", "102739.450000", "102741.450000", "102743.450000", "102745.450000", "102747.450000", "102749.450000", "102751.450000", "102753.450000", "102755.450000", "102757.450000", "102759.450000", "102801.450000", "102803.450000", "102805.450000", "102807.450000", "102809.450000", "102811.450000", "102813.450000", "102815.450000", "102817.450000", "102819.450000", "102821.450000", "102823.450000", "102825.450000", "102827.450000", "102829.450000", "102831.450000", "102833.450000", "102835.450000", "102837.450000", "102839.450000", "102841.450000", "102843.450000", "102845.450000", "102847.450000", "102849.450000", "102851.450000", "102853.450000", "102855.450000", "102857.450000", "102859.450000", "102901.450000", "102903.450000", "102905.450000", "102907.450000", "102909.450000", "102911.450000"],
      "ContentTime": ["102331.862000", "102331.865000", "102331.867000", "102331.870000", "102331.872000", "102331.874000", "102331.876000", "102331.879000", "102331.886000", "102331.888000", "102331.890000", "102331.893000", "102331.895000", "102331.897000", "102331.899000", "102331.902000", "102331.904000", "102331.906000", "102331.908000", "102331.911000", "102331.913000", "102331.915000", "102331.918000", "102331.920000", "102331.922000", "102331.924000", "102331.927000", "102331.929000", "102331.931000", "102411.857000", "102411.860000", "102411.862000", "102411.864000", "102411.867000", "102411.869000", "102411.871000", "102411.873000", "102411.876000", "102411.878000", "102411.880000", "102411.883000", "102411.885000", "102411.887000", "102411.889000", "102411.892000", "102411.894000", "102411.896000", "102411.898000", "102411.901000", "102451.856000", "102451.859000", "102451.861000", "102451.863000", "102451.866000", "102451.868000", "102451.870000", "102451.873000", "102451.875000", "102451.877000", "102451.879000", "102451.882000", "102451.884000", "102451.886000", "102451.889000", "102451.891000", "102451.893000", "102451.896000", "102451.898000", "102451.900000", "102531.857000", "102531.860000", "102531.862000", "102531.864000", "102531.867000", "102531.869000", "102531.871000", "102531.874000", "102531.876000", "102531.878000", "102531.880000", "102531.883000", "102531.885000", "102531.887000", "102531.890000", "102531.892000", "102531.894000", "102531.896000", "102531.899000", "102531.901000", "102611.857000", "102611.860000", "102611.862000", "102611.864000", "102611.867000", "102611.869000", "102611.871000", "102611.874000", "102611.876000", "102611.878000", "102611.881000", "102611.883000", "102611.885000", "102611.888000", "102611.890000", "102611.892000", "102611.894000", "102611.897000", "102611.899000", "102611.901000", "102651.857000", "102651.860000", "102651.862000", "102651.865000", "102651.867000", "102651.869000", "102651.872000", "102651.874000", "102651.876000", "102651.879000", "102651.881000", "102651.883000", "102651.886000", "102651.888000", "102651.890000", "102651.893000", "102651.895000", "102651.897000", "102651.900000", "102651.902000", "102731.856000", "102731.859000", "102731.861000", "102731.864000", "102731.866000", "102731.868000", "102731.870000", "102731.873000", "102731.875000", "102731.878000", "102731.880000", "102731.882000", "102731.885000", "102731.887000", "102731.889000", "102731.892000", "102731.894000", "102731.896000", "102731.898000", "102731.901000", "102811.857000", "102811.860000", "102811.862000", "102811.864000", "102811.867000", "102811.869000", "102811.871000", "102811.874000", "102811.876000", "102811.878000", "102811.881000", "102811.883000", "102811.885000", "102811.888000", "102811.890000", "102811.892000", "102811.895000", "102811.897000", "102811.899000", "102811.902000", "102851.857000", "102851.860000", "102851.862000", "102851.865000", "102851.867000", "102851.869000", "102851.871000", "102851.874000", "102851.876000", "102851.878000", "102851.881000", "102851.883000", "102851.885000", "102851.888000", "102851.890000", "102851.892000", "102851.895000", "102851.897000", "102851.899000", "102851.902000", "102912.996000", "102912.999000", "102913.001000", "102913.004000", "102913.006000", "102913.009000", "102913.011000", "102913.013000", "102913.016000", "102913.018000", "102913.020000"],
      "InstanceCreationTime": ["102331.862000", "102331.865000", "102331.867000", "102331.870000", "102331.872000", "102331.874000", "102331.876000", "102331.879000", "102331.886000", "102331.888000", "102331.890000", "102331.893000", "102331.895000", "102331.897000", "102331.899000", "102331.902000", "102331.904000", "102331.906000", "102331.908000", "102331.911000", "102331.913000", "102331.915000", "102331.918000", "102331.920000", "102331.922000", "102331.924000", "102331.927000", "102331.929000", "102331.931000", "102411.857000", "102411.860000", "102411.862000", "102411.864000", "102411.867000", "102411.869000", "102411.871000", "102411.873000", "102411.876000", "102411.878000", "102411.880000", "102411.883000", "102411.885000", "102411.887000", "102411.889000", "102411.892000", "102411.894000", "102411.896000", "102411.898000", "102411.901000", "102451.856000", "102451.859000", "102451.861000", "102451.863000", "102451.866000", "102451.868000", "102451.870000", "102451.873000", "102451.875000", "102451.877000", "102451.879000", "102451.882000", "102451.884000", "102451.886000", "102451.889000", "102451.891000", "102451.893000", "102451.896000", "102451.898000", "102451.900000", "102531.857000", "102531.860000", "102531.862000", "102531.864000", "102531.867000", "102531.869000", "102531.871000", "102531.874000", "102531.876000", "102531.878000", "102531.880000", "102531.883000", "102531.885000", "102531.887000", "102531.890000", "102531.892000", "102531.894000", "102531.896000", "102531.899000", "102531.901000", "102611.857000", "102611.860000", "102611.862000", "102611.864000", "102611.867000", "102611.869000", "102611.871000", "102611.874000", "102611.876000", "102611.878000", "102611.881000", "102611.883000", "102611.885000", "102611.888000", "102611.890000", "102611.892000", "102611.894000", "102611.897000", "102611.899000", "102611.901000", "102651.857000", "102651.860000", "102651.862000", "102651.865000", "102651.867000", "102651.869000", "102651.872000", "102651.874000", "102651.876000", "102651.879000", "102651.881000", "102651.883000", "102651.886000", "102651.888000", "102651.890000", "102651.893000", "102651.895000", "102651.897000", "102651.900000", "102651.902000", "102731.856000", "102731.859000", "102731.861000", "102731.864000", "102731.866000", "102731.868000", "102731.870000", "102731.873000", "102731.875000", "102731.878000", "102731.880000", "102731.882000", "102731.885000", "102731.887000", "102731.889000", "102731.892000", "102731.894000", "102731.896000", "102731.898000", "102731.901000", "102811.857000", "102811.860000", "102811.862000", "102811.864000", "102811.867000", "102811.869000", "102811.871000", "102811.874000", "102811.876000", "102811.878000", "102811.881000", "102811.883000", "102811.885000", "102811.888000", "102811.890000", "102811.892000", "102811.895000", "102811.897000", "102811.899000", "102811.902000", "102851.857000", "102851.860000", "102851.862000", "102851.865000", "102851.867000", "102851.869000", "102851.871000", "102851.874000", "102851.876000", "102851.878000", "102851.881000", "102851.883000", "102851.885000", "102851.888000", "102851.890000", "102851.892000", "102851.895000", "102851.897000", "102851.899000", "102851.902000", "102912.996000", "102912.999000", "102913.001000", "102913.004000", "102913.006000", "102913.009000", "102913.011000", "102913.013000", "102913.016000", "102913.018000", "102913.020000"],
      "InstanceNumber": [1, 2, 3, 4, 5, 6, 7, 8, 9, 10, 11, 12, 13, 14, 15, 16, 17, 18, 19, 20, 21, 22, 23, 24, 25, 26, 27, 28, 29, 30, 31, 32, 33, 34, 35, 36, 37, 38, 39, 40, 41, 42, 43, 44, 45, 46, 47, 48, 49, 50, 51, 52, 53, 54, 55, 56, 57, 58, 59, 60, 61, 62, 63, 64, 65, 66, 67, 68, 69, 70, 71, 72, 73, 74, 75, 76, 77, 78, 79, 80, 81, 82, 83, 84, 85, 86, 87, 88, 89, 90, 91, 92, 93, 94, 95, 96, 97, 98, 99, 100, 101, 102, 103, 104, 105, 106, 107, 108, 109, 110, 111, 112, 113, 114, 115, 116, 117, 118, 119, 120, 121, 122, 123, 124, 125, 126, 127, 128, 129, 130, 131, 132, 133, 134, 135, 136, 137, 138, 139, 140, 141, 142, 143, 144, 145, 146, 147, 148, 149, 150, 151, 152, 153, 154, 155, 156, 157, 158, 159, 160, 161, 162, 163, 164, 165, 166, 167, 168, 169, 170, 171, 172, 173, 174, 175, 176, 177, 178, 179, 180, 181, 182, 183, 184, 185, 186, 187, 188, 189, 190, 191, 192, 193, 194, 195, 196, 197, 198, 199, 200],
      "LargestImagePixelValue": [336, 338, 336, 340, 339, 338, 340, 341, 337, 339, 336, 335, 335, 337, 335, 335, 339, 337, 337, 337, 337, 335, 336, 336, 336, 338, 335, 339, 340, 338, 338, 338, 337, 335, 335, 335, 336, 337, 336, 335, 337, 336, 338, 335, 340, 336, 335, 340, 339, 338, 335, 338, 338, 337, 336, 337, 335, 335, 335, 337, 337, 338, 338, 335, 337, 341, 335, 336, 336, 340, 337, 335, 336, 337, 339, 337, 337, 334, 335, 335, 335, 339, 336, 335, 336, 334, 337, 336, 337, 335, 337, 337, 340, 335, 336, 336, 340, 343, 336, 338, 337, 337, 338, 336, 338, 339, 338, 336, 334, 339, 335, 334, 337, 337, 336, 337, 335, 338, 336, 336, 335, 340, 337, 335, 340, 339, 336, 337, 337, 335, 340, 335, 336, 334, 336, 335, 337, 339, 338, 335, 336, 337, 337, 335, 336, 336, 335, 335, 335, 338, 337, 334, 336, 339, 335, 336, 333, 336, 338, 336, 334, 336, 339, 334, 336, 337, 336, 341, 339, 337, 336, 334, 336, 335, 337, 335, 337, 335, 336, 336, 335, 335, 337, 337, 339, 337, 334, 336, 335, 337, 337, 337, 336, 336, 334, 338, 338, 336, 335, 335],
      "WindowCenter": [282.0, 282.0, 282.0, 282.0, 282.0, 282.0, 282.0, 282.0, 282.0, 282.0, 282.0, 282.0, 282.0, 282.0, 282.0, 282.0, 282.0, 282.0, 282.0, 282.0, 282.0, 282.0, 282.0, 282.0, 282.0, 282.0, 282.0, 282.0, 282.0, 282.0, 282.0, 282.0, 282.0, 282.0, 282.0, 282.0, 282.0, 282.0, 282.0, 282.0, 282.0, 282.0, 282.0, 282.0, 282.0, 282.0, 282.0, 282.0, 282.0, 282.0, 282.0, 282.0, 282.0, 282.0, 282.0, 282.0, 282.0, 282.0, 282.0, 282.0, 282.0, 282.0, 282.0, 282.0, 282.0, 282.0, 282.0, 282.0, 282.0, 282.0, 282.0, 282.0, 282.0, 282.0, 282.0, 282.0, 282.0, 282.0, 282.0, 282.0, 282.0, 282.0, 282.0, 282.0, 282.0, 282.0, 282.0, 282.0, 282.0, 282.0, 282.0, 282.0, 282.0, 282.0, 282.0, 282.0, 282.0, 282.0, 282.0, 282.0, 282.0, 282.0, 282.0, 282.0, 282.0, 282.0, 281.0, 282.0, 282.0, 282.0, 282.0, 281.0, 282.0, 282.0, 282.0, 282.0, 282.0, 282.0, 282.0, 282.0, 282.0, 282.0, 282.0, 282.0, 282.0, 282.0, 282.0, 282.0, 281.0, 282.0, 282.0, 282.0, 282.0, 282.0, 282.0, 282.0, 282.0, 282.0, 282.0, 281.0, 281.0, 281.0, 282.0, 282.0, 282.0, 282.0, 281.0, 281.0, 281.0, 281.0, 282.0, 282.0, 282.0, 281.0, 281.0, 281.0, 281.0, 281.0, 281.0, 282.0, 282.0, 282.0, 282.0, 282.0, 282.0, 281.0, 281.0, 281.0, 281.0, 281.0, 282.0, 281.0, 282.0, 282.0, 281.0, 281.0, 281.0, 281.0, 281.0, 282.0, 282.0, 282.0, 281.0, 281.0, 281.0, 281.0, 281.0, 282.0, 281.0, 281.0, 282.0, 281.0, 281.0, 281.0, 281.0, 281.0, 281.0, 281.0, 281.0, 282.0],
      "WindowWidth": [616.0, 616.0, 616.0, 616.0, 616.0, 616.0, 616.0, 615.0, 615.0, 615.0, 616.0, 616.0, 616.0, 616.0, 615.0, 615.0, 615.0, 615.0, 615.0, 616.0, 615.0, 616.0, 616.0, 616.0, 615.0, 615.0, 615.0, 615.0, 615.0, 616.0, 616.0, 615.0, 615.0, 615.0, 615.0, 615.0, 615.0, 615.0, 615.0, 615.0, 615.0, 615.0, 616.0, 615.0, 615.0, 615.0, 615.0, 615.0, 615.0, 615.0, 616.0, 615.0, 615.0, 615.0, 615.0, 615.0, 615.0, 615.0, 615.0, 615.0, 615.0, 615.0, 615.0, 615.0, 615.0, 615.0, 615.0, 615.0, 615.0, 615.0, 615.0, 615.0, 615.0, 615.0, 615.0, 615.0, 615.0, 615.0, 616.0, 615.0, 615.0, 615.0, 615.0, 615.0, 615.0, 615.0, 615.0, 615.0, 615.0, 615.0, 615.0, 615.0, 615.0, 615.0, 615.0, 615.0, 615.0, 615.0, 615.0, 615.0, 615.0, 615.0, 615.0, 615.0, 615.0, 615.0, 615.0, 615.0, 615.0, 615.0, 615.0, 615.0, 615.0, 615.0, 615.0, 615.0, 615.0, 615.0, 615.0, 615.0, 615.0, 615.0, 615.0, 615.0, 615.0, 615.0, 615.0, 615.0, 614.0, 615.0, 615.0, 615.0, 615.0, 615.0, 615.0, 615.0, 615.0, 615.0, 615.0, 614.0, 614.0, 615.0, 615.0, 615.0, 615.0, 615.0, 614.0, 614.0, 614.0, 614.0, 615.0, 615.0, 615.0, 614.0, 614.0, 614.0, 614.0, 614.0, 614.0, 615.0, 615.0, 615.0, 615.0, 615.0, 615.0, 614.0, 614.0, 614.0, 614.0, 614.0, 615.0, 615.0, 615.0, 615.0, 614.0, 614.0, 614.0, 614.0, 614.0, 615.0, 615.0, 615.0, 614.0, 614.0, 614.0, 614.0, 614.0, 615.0, 614.0, 614.0, 615.0, 614.0, 614.0, 614.0, 614.0, 614.0, 614.0, 614.0, 614.0, 615.0]
    },
    "slices": {}
  }
}