{
  "AcquisitionMatrixPE": 80,
  "AcquisitionNumber": 1,
  "AcquisitionTime": "10:15:47.475000",
  "BandwidthPerPixelPhaseEncode": 25,
  "BaseResolution": 80,
  "BodyPartExamined": "BRAIN",
  "CoilCombinationMethod": "Sum of Squares",
  "ConsistencyInfo": "N4_VE11E_LATEST_20181129",
  "ConversionSoftware": "dcm2niix",
  "ConversionSoftwareVersion": "v1.0.20220720",
  "DerivedVendorReportedEchoSpacing": 0.0005,
  "DeviceSerialNumber": "66112",
  "DwellTime": 2.7e-06,
  "EchoTime": 0.03,
  "EchoTrainLength": 80,
  "EffectiveEchoSpacing": 0.0005,
  "FlipAngle": 77,
  "HeudiconvVersion": "0.13.1",
  "ImageOrientationPatientDICOM": [0.999984, 0.00521562, 0.00202951, -0.00558501, 0.953289, 0.302008],
  "ImageOrientationText": "Tra>Cor(17.6)>Sag(0.0)",
  "ImageType": [
    "ORIGINAL",
    "PRIMARY",
    "M",
    "ND",
    "NORM",
    "MOSAIC"
],
  "ImagingFrequency": 123.259,
  "InPlanePhaseEncodingDirectionDICOM": "COL",
  "InstitutionAddress": "Maynard 3,Hanover,NH,US,03755",
  "InstitutionName": "Dartmouth College - PBS",
  "InstitutionalDepartmentName": "Department",
  "MRAcquisitionType": "2D",
  "MagneticFieldStrength": 3,
  "Manufacturer": "Siemens",
  "ManufacturersModelName": "Prisma",
  "MatrixCoilMode": "SENSE",
  "Modality": "MR",
  "NonlinearGradientCorrection": false,
  "PartialFourier": 1,
  "PatientPosition": "HFS",
  "PercentPhaseFOV": 100,
  "PercentSampling": 100,
  "PhaseEncodingDirection": "j-",
  "PhaseEncodingSteps": 80,
  "PhaseResolution": 1,
  "PixelBandwidth": 2315,
  "ProcedureStepDescription": "dbic^QA",
  "ProtocolName": "func-bold_fa-77",
  "PulseSequenceDetails": "%SiemensSeq%\\ep2d_bold",
  "ReceiveCoilActiveElements": "HEA;HEP",
  "ReceiveCoilName": "Head_32",
  "ReconMatrixPE": 80,
  "RepetitionTime": 2,
  "SAR": 0.0375414,
  "ScanOptions": "FS",
  "ScanningSequence": "EP",
  "SequenceName": "*epfid2d1_80",
  "SequenceVariant": "SK",
  "SeriesDescription": "func-bold_fa-77",
  "SeriesNumber": 8,
  "ShimSetting": [4225, -7735, -7494, -49, -133, -12, -8, 76],
  "SliceThickness": 3.5,
  "SliceTiming": [0.99, 0, 1.0575, 0.0675, 1.1225, 0.1325, 1.1875, 0.1975, 1.255, 0.265, 1.32, 0.33, 1.3875, 0.3975, 1.4525, 0.4625, 1.5175, 0.5275, 1.585, 0.595, 1.65, 0.66, 1.7175, 0.7275, 1.7825, 0.7925, 1.8475, 0.8575, 1.915, 0.925],
  "SoftwareVersions": "syngo MR E11",
  "SpacingBetweenSlices": 3.99,
  "StationName": "AWP66112",
  "TotalReadoutTime": 0.0395,
  "TxRefAmp": 230.047,
  "dcmmeta_affine": [
    [-2.999953031539917, -0.016755031421780586, 0.001434606616385281, 121.30810546875],
    [-0.015646865591406822, 2.8598670959472656, 1.2050385475158691, -115.90132904052734],
    [0.006088532041758299, -0.906024158000946, 3.803679943084717, -19.760730743408203],
    [0.0, 0.0, 0.0, 1.0]
],
  "dcmmeta_reorient_transform": [
    [0.0, -1.0, 0.0, 79.0],
    [1.0, 0.0, 0.0, 0.0],
    [0.0, 0.0, 1.0, 0.0],
    [0.0, 0.0, 0.0, 1.0]
],
  "dcmmeta_shape": [80, 80, 30, 200],
  "dcmmeta_slice_dim": 2,
  "dcmmeta_version": 0.6,
  "global": {
    "const": {
      "AccessionNumber": "qa",
      "AcquisitionMatrix": [80, 0, 0, 80],
      "AngioFlag": "N",
      "BitsAllocated": 16,
      "BitsStored": 12,
      "BodyPartExamined": "BRAIN",
      "Columns": 480,
      "EchoNumbers": 1,
      "EchoTime": 30.0,
      "EchoTrainLength": 80,
      "FlipAngle": 77.0,
      "HighBit": 11,
      "ImageOrientationPatient": [0.99998433906647, 0.00521562156941, 0.00202951064214, -0.0055850107639, 0.95328901515899, 0.30200804829005],
      "ImagePositionPatient": [-716.62405152651, -685.13094781182, -273.75917332107],
      "ImageType": [
        "ORIGINAL",
        "PRIMARY",
        "M",
        "ND",
        "NORM",
        "MOSAIC"
],
      "ImagedNucleus": "1H",
      "ImagingFrequency": 123.259266,
      "InPlanePhaseEncodingDirection": "COL",
      "MRAcquisitionType": "2D",
      "MagneticFieldStrength": 3.0,
      "Manufacturer": "SIEMENS",
      "ManufacturerModelName": "Prisma",
      "Modality": "MR",
      "NumberOfAverages": 1.0,
      "NumberOfPhaseEncodingSteps": 80,
      "PercentPhaseFieldOfView": 100.0,
      "PercentSampling": 100.0,
      "PerformedProcedureStepStartTime": "100011.435000",
      "PhotometricInterpretation": "MONOCHROME2",
      "PixelBandwidth": 2315.0,
      "PixelRepresentation": 0,
      "PixelSpacing": [3.0, 3.0],
      "ProtocolName": "func-bold_fa-77",
      "RepetitionTime": 2000.0,
      "Rows": 480,
      "SAR": 0.03754142417359,
      "SamplesPerPixel": 1,
      "ScanOptions": "FS",
      "ScanningSequence": "EP",
      "SequenceName": "*epfid2d1_80",
      "SequenceVariant": "SK",
      "SeriesDescription": "func-bold_fa-77",
      "SeriesNumber": 8,
      "SeriesTime": "101631.782000",
      "SliceLocation": -53.798251799546,
      "SliceThickness": 3.5,
      "SmallestImagePixelValue": 0,
      "SoftwareVersions": "syngo MR E11",
      "SpacingBetweenSlices": 3.9900000719638,
      "SpecificCharacterSet": "ISO_IR 100",
      "StudyID": "14",
      "StudyTime": "100011.388000",
      "TransmitCoilName": "Body",
      "VariableFlipAngleFlag": "N",
      "WindowCenterWidthExplanation": "Algo1"
    },
    "slices": {}
  },
  "time": {
    "samples": {
      "AcquisitionNumber": [1, 2, 3, 4, 5, 6, 7, 8, 9, 10, 11, 12, 13, 14, 15, 16, 17, 18, 19, 20, 21, 22, 23, 24, 25, 26, 27, 28, 29, 30, 31, 32, 33, 34, 35, 36, 37, 38, 39, 40, 41, 42, 43, 44, 45, 46, 47, 48, 49, 50, 51, 52, 53, 54, 55, 56, 57, 58, 59, 60, 61, 62, 63, 64, 65, 66, 67, 68, 69, 70, 71, 72, 73, 74, 75, 76, 77, 78, 79, 80, 81, 82, 83, 84, 85, 86, 87, 88, 89, 90, 91, 92, 93, 94, 95, 96, 97, 98, 99, 100, 101, 102, 103, 104, 105, 106, 107, 108, 109, 110, 111, 112, 113, 114, 115, 116, 117, 118, 119, 120, 121, 122, 123, 124, 125, 126, 127, 128, 129, 130, 131, 132, 133, 134, 135, 136, 137, 138, 139, 140, 141, 142, 143, 144, 145, 146, 147, 148, 149, 150, 151, 152, 153, 154, 155, 156, 157, 158, 159, 160, 161, 162, 163, 164, 165, 166, 167, 168, 169, 170, 171, 172, 173, 174, 175, 176, 177, 178, 179, 180, 181, 182, 183, 184, 185, 186, 187, 188, 189, 190, 191, 192, 193, 194, 195, 196, 197, 198, 199, 200],
      "AcquisitionTime": ["101547.475000", "101549.475000", "101551.475000", "101553.475000", "101555.475000", "101557.475000", "101559.475000", "101601.475000", "101603.475000", "101605.475000", "101607.475000", "101609.475000", "101611.475000", "101613.475000", "101615.475000", "101617.475000", "101619.475000", "101621.475000", "101623.475000", "101625.475000", "101627.475000", "101629.475000", "101631.475000", "101633.475000", "101635.475000", "101637.475000", "101639.475000", "101641.475000", "101643.475000", "101645.475000", "101647.475000", "101649.475000", "101651.475000", "101653.475000", "101655.475000", "101657.475000", "101659.475000", "101701.475000", "101703.475000", "101705.475000", "101707.475000", "101709.475000", "101711.475000", "101713.475000", "101715.475000", "101717.475000", "101719.475000", "101721.475000", "101723.475000", "101725.475000", "101727.475000", "101729.475000", "101731.475000", "101733.475000", "101735.475000", "101737.475000", "101739.475000", "101741.475000", "101743.475000", "101745.475000", "101747.475000", "101749.475000", "101751.475000", "101753.475000", "101755.475000", "101757.475000", "101759.475000", "101801.475000", "101803.475000", "101805.475000", "101807.475000", "101809.475000", "101811.475000", "101813.475000", "101815.475000", "101817.475000", "101819.475000", "101821.475000", "101823.475000", "101825.475000", "101827.475000", "101829.475000", "101831.475000", "101833.475000", "101835.475000", "101837.475000", "101839.475000", "101841.475000", "101843.475000", "101845.475000", "101847.475000", "101849.475000", "101851.475000", "101853.475000", "101855.475000", "101857.475000", "101859.475000", "101901.475000", "101903.475000", "101905.475000", "101907.475000", "101909.475000", "101911.475000", "101913.475000", "101915.475000", "101917.475000", "101919.475000", "101921.475000", "101923.475000", "101925.475000", "101927.475000", "101929.475000", "101931.475000", "101933.475000", "101935.475000", "101937.475000", "101939.475000", "101941.475000", "101943.475000", "101945.475000", "101947.475000", "101949.475000", "101951.475000", "101953.475000", "101955.475000", "101957.475000", "101959.475000", "102001.475000", "102003.475000", "102005.475000", "102007.475000", "102009.475000", "102011.475000", "102013.475000", "102015.475000", "102017.475000", "102019.475000", "102021.475000", "102023.475000", "102025.475000", "102027.475000", "102029.475000", "102031.475000", "102033.475000", "102035.475000", "102037.475000", "102039.475000", "102041.475000", "102043.475000", "102045.475000", "102047.475000", "102049.475000", "102051.475000", "102053.475000", "102055.475000", "102057.475000", "102059.475000", "102101.475000", "102103.475000", "102105.475000", "102107.475000", "102109.475000", "102111.475000", "102113.475000", "102115.475000", "102117.475000", "102119.475000", "102121.475000", "102123.475000", "102125.475000", "102127.475000", "102129.475000", "102131.475000", "102133.475000", "102135.475000", "102137.475000", "102139.475000", "102141.475000", "102143.475000", "102145.475000", "102147.475000", "102149.475000", "102151.475000", "102153.475000", "102155.475000", "102157.475000", "102159.475000", "102201.475000", "102203.475000", "102205.475000", "102207.475000", "102209.475000", "102211.475000", "102213.475000", "102215.475000", "102217.475000", "102219.475000", "102221.475000", "102223.475000", "102225.475000"],
      "ContentTime": ["101631.786000", "101631.789000", "101631.791000", "101631.794000", "101631.796000", "101631.798000", "101631.801000", "101631.803000", "101631.805000", "101631.807000", "101631.810000", "101631.812000", "101631.814000", "101631.816000", "101631.819000", "101631.821000", "101631.823000", "101631.836000", "101631.838000", "101631.840000", "101631.842000", "101631.845000", "101711.771000", "101711.774000", "101711.776000", "101711.778000", "101711.781000", "101711.783000", "101711.785000", "101711.788000", "101711.790000", "101711.792000", "101711.794000", "101711.797000", "101711.799000", "101711.801000", "101711.804000", "101711.806000", "101711.808000", "101711.811000", "101711.813000", "101711.815000", "101751.770000", "101751.773000", "101751.775000", "101751.777000", "101751.780000", "101751.782000", "101751.784000", "101751.787000", "101751.789000", "101751.791000", "101751.793000", "101751.796000", "101751.798000", "101751.800000", "101751.803000", "101751.805000", "101751.807000", "101751.809000", "101751.812000", "101751.814000", "101831.771000", "101831.774000", "101831.776000", "101831.778000", "101831.781000", "101831.783000", "101831.785000", "101831.787000", "101831.790000", "101831.792000", "101831.794000", "101831.796000", "101831.799000", "101831.801000", "101831.803000", "101831.806000", "101831.808000", "101831.810000", "101831.813000", "101831.815000", "101911.771000", "101911.774000", "101911.776000", "101911.778000", "101911.781000", "101911.783000", "101911.785000", "101911.788000", "101911.790000", "101911.792000", "101911.795000", "101911.797000", "101911.799000", "101911.801000", "101911.804000", "101911.806000", "101911.808000", "101911.811000", "101911.813000", "101911.815000", "101951.771000", "101951.774000", "101951.776000", "101951.778000", "101951.781000", "101951.783000", "101951.786000", "101951.788000", "101951.790000", "101951.793000", "101951.795000", "101951.797000", "101951.800000", "101951.802000", "101951.804000", "101951.807000", "101951.809000", "101951.811000", "101951.814000", "101951.816000", "102031.770000", "102031.773000", "102031.775000", "102031.777000", "102031.780000", "102031.782000", "102031.784000", "102031.787000", "102031.789000", "102031.791000", "102031.794000", "102031.796000", "102031.798000", "102031.801000", "102031.803000", "102031.805000", "102031.807000", "102031.810000", "102031.812000", "102031.814000", "102111.771000", "102111.774000", "102111.776000", "102111.779000", "102111.781000", "102111.783000", "102111.785000", "102111.788000", "102111.790000", "102111.792000", "102111.795000", "102111.797000", "102111.799000", "102111.808000", "102111.810000", "102111.812000", "102111.815000", "102111.817000", "102111.819000", "102111.822000", "102151.771000", "102151.774000", "102151.776000", "102151.778000", "102151.781000", "102151.783000", "102151.785000", "102151.788000", "102151.790000", "102151.792000", "102151.794000", "102151.797000", "102151.799000", "102151.801000", "102151.815000", "102151.817000", "102151.820000", "102151.822000", "102151.824000", "102151.827000", "102226.576000", "102226.579000", "102226.581000", "102226.584000", "102226.586000", "102226.589000", "102226.591000", "102226.593000", "102226.596000", "102226.598000", "102226.600000", "102226.603000", "102226.614000", "102226.617000", "102226.620000", "102226.623000", "102226.628000", "102226.631000"],
      "InstanceCreationTime": ["101631.786000", "101631.789000", "101631.791000", "101631.794000", "101631.796000", "101631.798000", "101631.801000", "101631.803000", "101631.805000", "101631.807000", "101631.810000", "101631.812000", "101631.814000", "101631.816000", "101631.819000", "101631.821000", "101631.823000", "101631.836000", "101631.838000", "101631.840000", "101631.842000", "101631.845000", "101711.771000", "101711.774000", "101711.776000", "101711.778000", "101711.781000", "101711.783000", "101711.785000", "101711.788000", "101711.790000", "101711.792000", "101711.794000", "101711.797000", "101711.799000", "101711.801000", "101711.804000", "101711.806000", "101711.808000", "101711.811000", "101711.813000", "101711.815000", "101751.770000", "101751.773000", "101751.775000", "101751.777000", "101751.780000", "101751.782000", "101751.784000", "101751.787000", "101751.789000", "101751.791000", "101751.793000", "101751.796000", "101751.798000", "101751.800000", "101751.803000", "101751.805000", "101751.807000", "101751.809000", "101751.812000", "101751.814000", "101831.771000", "101831.774000", "101831.776000", "101831.778000", "101831.781000", "101831.783000", "101831.785000", "101831.787000", "101831.790000", "101831.792000", "101831.794000", "101831.796000", "101831.799000", "101831.801000", "101831.803000", "101831.806000", "101831.808000", "101831.810000", "101831.813000", "101831.815000", "101911.771000", "101911.774000", "101911.776000", "101911.778000", "101911.781000", "101911.783000", "101911.785000", "101911.788000", "101911.790000", "101911.792000", "101911.795000", "101911.797000", "101911.799000", "101911.801000", "101911.804000", "101911.806000", "101911.808000", "101911.811000", "101911.813000", "101911.815000", "101951.771000", "101951.774000", "101951.776000", "101951.778000", "101951.781000", "101951.783000", "101951.786000", "101951.788000", "101951.790000", "101951.793000", "101951.795000", "101951.797000", "101951.800000", "101951.802000", "101951.804000", "101951.807000", "101951.809000", "101951.811000", "101951.814000", "101951.816000", "102031.770000", "102031.773000", "102031.775000", "102031.777000", "102031.780000", "102031.782000", "102031.784000", "102031.787000", "102031.789000", "102031.791000", "102031.794000", "102031.796000", "102031.798000", "102031.801000", "102031.803000", "102031.805000", "102031.807000", "102031.810000", "102031.812000", "102031.814000", "102111.771000", "102111.774000", "102111.776000", "102111.779000", "102111.781000", "102111.783000", "102111.785000", "102111.788000", "102111.790000", "102111.792000", "102111.795000", "102111.797000", "102111.799000", "102111.808000", "102111.810000", "102111.812000", "102111.815000", "102111.817000", "102111.819000", "102111.822000", "102151.771000", "102151.774000", "102151.776000", "102151.778000", "102151.781000", "102151.783000", "102151.785000", "102151.788000", "102151.790000", "102151.792000", "102151.794000", "102151.797000", "102151.799000", "102151.801000", "102151.815000", "102151.817000", "102151.820000", "102151.822000", "102151.824000", "102151.827000", "102226.576000", "102226.579000", "102226.581000", "102226.584000", "102226.586000", "102226.589000", "102226.591000", "102226.593000", "102226.596000", "102226.598000", "102226.600000", "102226.603000", "102226.614000", "102226.617000", "102226.620000", "102226.623000", "102226.628000", "102226.631000"],
      "InstanceNumber": [1, 2, 3, 4, 5, 6, 7, 8, 9, 10, 11, 12, 13, 14, 15, 16, 17, 18, 19, 20, 21, 22, 23, 24, 25, 26, 27, 28, 29, 30, 31, 32, 33, 34, 35, 36, 37, 38, 39, 40, 41, 42, 43, 44, 45, 46, 47, 48, 49, 50, 51, 52, 53, 54, 55, 56, 57, 58, 59, 60, 61, 62, 63, 64, 65, 66, 67, 68, 69, 70, 71, 72, 73, 74, 75, 76, 77, 78, 79, 80, 81, 82, 83, 84, 85, 86, 87, 88, 89, 90, 91, 92, 93, 94, 95, 96, 97, 98, 99, 100, 101, 102, 103, 104, 105, 106, 107, 108, 109, 110, 111, 112, 113, 114, 115, 116, 117, 118, 119, 120, 121, 122, 123, 124, 125, 126, 127, 128, 129, 130, 131, 132, 133, 134, 135, 136, 137, 138, 139, 140, 141, 142, 143, 144, 145, 146, 147, 148, 149, 150, 151, 152, 153, 154, 155, 156, 157, 158, 159, 160, 161, 162, 163, 164, 165, 166, 167, 168, 169, 170, 171, 172, 173, 174, 175, 176, 177, 178, 179, 180, 181, 182, 183, 184, 185, 186, 187, 188, 189, 190, 191, 192, 193, 194, 195, 196, 197, 198, 199, 200],
      "LargestImagePixelValue": [1906, 1908, 1909, 1907, 1906, 1906, 1909, 1909, 1909, 1909, 1911, 1909, 1909, 1906, 1908, 1909, 1909, 1910, 1909, 1907, 1908, 1908, 1909, 1908, 1908, 1910, 1911, 1908, 1910, 1909, 1908, 1908, 1909, 1908, 1909, 1911, 1910, 1910, 1909, 1910, 1909, 1909, 1910, 1910, 1909, 1909, 1911, 1909, 1907, 1909, 1909, 1909, 1911, 1912, 1909, 1911, 1910, 1910, 1908, 1908, 1909, 1908, 1907, 1907, 1910, 1910, 1911, 1909, 1907, 1911, 1913, 1912, 1910, 1912, 1909, 1910, 1910, 1911, 1908, 1908, 1909, 1910, 1909, 1908, 1909, 1909, 1910, 1909, 1910, 1909, 1910, 1907, 1908, 1909, 1910, 1909, 1909, 1905, 1906, 1911, 1913, 1909, 1905, 1905, 1908, 1909, 1907, 1908, 1909, 1905, 1907, 1911, 1910, 1910, 1906, 1906, 1912, 1911, 1910, 1910, 1906, 1904, 1905, 1910, 1910, 1908, 1907, 1905, 1911, 1909, 1908, 1907, 1908, 1908, 1905, 1906, 1906, 1907, 1908, 1908, 1908, 1905, 1906, 1906, 1906, 1906, 1908, 1908, 1912, 1912, 1909, 1909, 1911, 1911, 1908, 1906, 1906, 1908, 1903, 1905, 1902, 1907, 1903, 1906, 1908, 1905, 1905, 1905, 1905, 1908, 1908, 1909, 1905, 1904, 1904, 1904, 1909, 1909, 1906, 1910, 1912, 1906, 1905, 1909, 1911, 1906, 1905, 1902, 1903, 1907, 1905, 1907, 1908, 1904, 1903, 1905, 1905, 1903, 1904, 1904],
      "WindowCenter": [984.0, 983.0, 983.0, 983.0, 983.0, 983.0, 984.0, 981.0, 983.0, 984.0, 984.0, 984.0, 983.0, 983.0, 983.0, 983.0, 984.0, 983.0, 983.0, 984.0, 983.0, 984.0, 984.0, 984.0, 983.0, 984.0, 984.0, 984.0, 982.0, 983.0, 982.0, 984.0, 983.0, 983.0, 983.0, 983.0, 983.0, 983.0, 982.0, 983.0, 983.0, 983.0, 983.0, 983.0, 983.0, 983.0, 981.0, 983.0, 983.0, 983.0, 982.0, 982.0, 983.0, 982.0, 983.0, 982.0, 982.0, 982.0, 983.0, 982.0, 983.0, 983.0, 982.0, 983.0, 982.0, 982.0, 982.0, 983.0, 982.0, 981.0, 982.0, 983.0, 982.0, 983.0, 983.0, 983.0, 982.0, 982.0, 983.0, 982.0, 983.0, 982.0, 984.0, 982.0, 982.0, 982.0, 983.0, 983.0, 983.0, 983.0, 983.0, 982.0, 983.0, 983.0, 981.0, 983.0, 982.0, 982.0, 982.0, 983.0, 983.0, 982.0, 982.0, 982.0, 983.0, 982.0, 982.0, 982.0, 982.0, 982.0, 982.0, 983.0, 982.0, 983.0, 982.0, 982.0, 983.0, 982.0, 983.0, 982.0, 982.0, 982.0, 982.0, 982.0, 982.0, 983.0, 980.0, 983.0, 983.0, 982.0, 983.0, 982.0, 983.0, 983.0, 982.0, 982.0, 983.0, 982.0, 982.0, 983.0, 983.0, 983.0, 982.0, 982.0, 982.0, 982.0, 982.0, 982.0, 982.0, 983.0, 982.0, 982.0, 982.0, 982.0, 983.0, 982.0, 983.0, 982.0, 983.0, 983.0, 983.0, 982.0, 982.0, 983.0, 982.0, 982.0, 982.0, 982.0, 982.0, 983.0, 982.0, 982.0, 982.0, 982.0, 982.0, 982.0, 982.0, 983.0, 982.0, 982.0, 982.0, 982.0, 982.0, 982.0, 982.0, 980.0, 982.0, 982.0, 982.0, 980.0, 983.0, 981.0, 982.0, 982.0, 982.0, 981.0, 981.0, 982.0, 982.0, 981.0],
      "WindowWidth": [2157.0, 2157.0, 2157.0, 2157.0, 2157.0, 2157.0, 2157.0, 2156.0, 2157.0, 2157.0, 2158.0, 2157.0, 2157.0, 2157.0, 2157.0, 2157.0, 2158.0, 2157.0, 2157.0, 2158.0, 2157.0, 2157.0, 2158.0, 2157.0, 2156.0, 2158.0, 2158.0, 2157.0, 2156.0, 2157.0, 2156.0, 2157.0, 2157.0, 2158.0, 2158.0, 2157.0, 2156.0, 2157.0, 2156.0, 2158.0, 2157.0, 2157.0, 2157.0, 2156.0, 2156.0, 2157.0, 2155.0, 2157.0, 2156.0, 2157.0, 2155.0, 2156.0, 2156.0, 2157.0, 2157.0, 2156.0, 2156.0, 2157.0, 2157.0, 2157.0, 2158.0, 2157.0, 2156.0, 2157.0, 2157.0, 2156.0, 2156.0, 2157.0, 2156.0, 2155.0, 2157.0, 2157.0, 2157.0, 2157.0, 2157.0, 2157.0, 2156.0, 2156.0, 2157.0, 2156.0, 2157.0, 2156.0, 2157.0, 2156.0, 2156.0, 2156.0, 2157.0, 2157.0, 2157.0, 2157.0, 2157.0, 2156.0, 2157.0, 2157.0, 2155.0, 2157.0, 2156.0, 2156.0, 2156.0, 2157.0, 2157.0, 2156.0, 2156.0, 2156.0, 2157.0, 2156.0, 2156.0, 2156.0, 2156.0, 2156.0, 2156.0, 2156.0, 2156.0, 2156.0, 2156.0, 2156.0, 2156.0, 2156.0, 2156.0, 2156.0, 2156.0, 2156.0, 2156.0, 2156.0, 2156.0, 2156.0, 2154.0, 2156.0, 2156.0, 2156.0, 2156.0, 2155.0, 2156.0, 2156.0, 2156.0, 2155.0, 2156.0, 2155.0, 2156.0, 2156.0, 2156.0, 2156.0, 2156.0, 2156.0, 2156.0, 2155.0, 2155.0, 2156.0, 2155.0, 2156.0, 2156.0, 2155.0, 2155.0, 2156.0, 2156.0, 2155.0, 2156.0, 2155.0, 2156.0, 2156.0, 2156.0, 2155.0, 2155.0, 2156.0, 2155.0, 2155.0, 2155.0, 2155.0, 2155.0, 2156.0, 2155.0, 2155.0, 2155.0, 2156.0, 2155.0, 2155.0, 2155.0, 2156.0, 2155.0, 2155.0, 2155.0, 2155.0, 2155.0, 2155.0, 2155.0, 2153.0, 2155.0, 2155.0, 2155.0, 2153.0, 2156.0, 2154.0, 2155.0, 2155.0, 2155.0, 2154.0, 2155.0, 2155.0, 2155.0, 2154.0]
    },
    "slices": {}
  }
}