{
  "AcquisitionMatrixPE": 80,
  "AcquisitionNumber": 1,
  "AcquisitionTime": "10:02:3.760000",
  "BandwidthPerPixelPhaseEncode": 48.077,
  "BaseResolution": 80,
  "BodyPartExamined": "BRAIN",
  "CoilCombinationMethod": "Sum of Squares",
  "ConsistencyInfo": "N4_VE11E_LATEST_20181129",
  "ConversionSoftware": "dcm2niix",
  "ConversionSoftwareVersion": "v1.0.20220720",
  "DerivedVendorReportedEchoSpacing": 0.000519999,
  "DeviceSerialNumber": "66112",
  "DwellTime": 2.7e-06,
  "EchoTime": 0.035,
  "EchoTrainLength": 39,
  "EffectiveEchoSpacing": 0.00026,
  "FlipAngle": 90,
  "HeudiconvVersion": "0.13.1",
  "ImageOrientationPatientDICOM": [0.999984, 0.00521562, 0.00202951, -0.00558501, 0.953289, 0.302008],
  "ImageOrientationText": "Tra>Cor(17.6)>Sag(0.0)",
  "ImageType": [
    "ORIGINAL",
    "PRIMARY",
    "M",
    "ND",
    "NORM",
    "MOSAIC"
],
  "ImagingFrequency": 123.259,
  "InPlanePhaseEncodingDirectionDICOM": "COL",
  "InstitutionAddress": "Maynard 3,Hanover,NH,US,03755",
  "InstitutionName": "Dartmouth College - PBS",
  "InstitutionalDepartmentName": "Department",
  "MRAcquisitionType": "2D",
  "MagneticFieldStrength": 3,
  "Manufacturer": "Siemens",
  "ManufacturersModelName": "Prisma",
  "MatrixCoilMode": "GRAPPA",
  "Modality": "MR",
  "NonlinearGradientCorrection": false,
  "ParallelReductionFactorInPlane": 2,
  "PartialFourier": 1,
  "PatientPosition": "HFS",
  "PercentPhaseFOV": 100,
  "PercentSampling": 100,
  "PhaseEncodingDirection": "j-",
  "PhaseEncodingSteps": 79,
  "PhaseResolution": 1,
  "PixelBandwidth": 2315,
  "ProcedureStepDescription": "dbic^QA",
  "ProtocolName": "func-bold_task-rest_acq-p2",
  "PulseSequenceDetails": "%SiemensSeq%\\ep2d_bold",
  "ReceiveCoilActiveElements": "HEA;HEP",
  "ReceiveCoilName": "Head_32",
  "ReconMatrixPE": 80,
  "RefLinesPE": 24,
  "RepetitionTime": 2,
  "SAR": 0.0477717,
  "ScanOptions": "FS",
  "ScanningSequence": "EP",
  "SequenceName": "*epfid2d1_80",
  "SequenceVariant": "SK",
  "SeriesDescription": "func-bold_task-rest_acq-p2",
  "SeriesNumber": 5,
  "ShimSetting": [4225, -7735, -7494, -49, -130, -12, -7, 75],
  "SliceThickness": 3.5,
  "SliceTiming": [0.99, 0, 1.0575, 0.0675, 1.1225, 0.1325, 1.1875, 0.2, 1.255, 0.265, 1.32, 0.33, 1.3875, 0.3975, 1.4525, 0.4625, 1.5175, 0.53, 1.585, 0.595, 1.65, 0.66, 1.7175, 0.7275, 1.7825, 0.7925, 1.8475, 0.86, 1.915, 0.925],
  "SoftwareVersions": "syngo MR E11",
  "SpacingBetweenSlices": 3.99,
  "StationName": "AWP66112",
  "TaskName": "rest",
  "TotalReadoutTime": 0.02054,
  "TxRefAmp": 230.047,
  "dcmmeta_affine": [
    [-2.999953031539917, -0.016755031421780586, 0.001434606616385281, 121.3194351196289],
    [-0.015646865591406822, 2.8598670959472656, 1.2050385475158691, -117.3443832397461],
    [0.006088532041758299, -0.906024158000946, 3.803679943084717, -17.966716766357422],
    [0.0, 0.0, 0.0, 1.0]
],
  "dcmmeta_reorient_transform": [
    [0.0, -1.0, 0.0, 79.0],
    [1.0, 0.0, 0.0, 0.0],
    [0.0, 0.0, 1.0, 0.0],
    [0.0, 0.0, 0.0, 1.0]
],
  "dcmmeta_shape": [80, 80, 30, 200],
  "dcmmeta_slice_dim": 2,
  "dcmmeta_version": 0.6,
  "global": {
    "const": {
      "AccessionNumber": "qa",
      "AcquisitionMatrix": [80, 0, 0, 80],
      "AngioFlag": "N",
      "BitsAllocated": 16,
      "BitsStored": 12,
      "BodyPartExamined": "BRAIN",
      "Columns": 480,
      "EchoNumbers": 1,
      "EchoTime": 35.0,
      "EchoTrainLength": 39,
      "FlipAngle": 90.0,
      "HighBit": 11,
      "ImageOrientationPatient": [0.99998433906647, 0.00521562156941, 0.00202951064214, -0.0055850107639, 0.95328901515899, 0.30200804829005],
      "ImagePositionPatient": [-716.63538117739, -683.68789170525, -271.96515934402],
      "ImageType": [
        "ORIGINAL",
        "PRIMARY",
        "M",
        "ND",
        "NORM",
        "MOSAIC"
],
      "ImagedNucleus": "1H",
      "ImagingFrequency": 123.259265,
      "InPlanePhaseEncodingDirection": "COL",
      "MRAcquisitionType": "2D",
      "MagneticFieldStrength": 3.0,
      "Manufacturer": "SIEMENS",
      "ManufacturerModelName": "Prisma",
      "Modality": "MR",
      "NumberOfAverages": 1.0,
      "NumberOfPhaseEncodingSteps": 79,
      "PercentPhaseFieldOfView": 100.0,
      "PercentSampling": 100.0,
      "PerformedProcedureStepStartTime": "100011.435000",
      "PhotometricInterpretation": "MONOCHROME2",
      "PixelBandwidth": 2315.0,
      "PixelRepresentation": 0,
      "PixelSpacing": [3.0, 3.0],
      "ProtocolName": "func-bold_task-rest_acq-p2",
      "RepetitionTime": 2000.0,
      "Rows": 480,
      "SAR": 0.0477717492261,
      "SamplesPerPixel": 1,
      "ScanOptions": "FS",
      "ScanningSequence": "EP",
      "SequenceName": "*epfid2d1_80",
      "SequenceVariant": "SK",
      "SeriesDescription": "func-bold_task-rest_acq-p2",
      "SeriesNumber": 5,
      "SeriesTime": "100251.859000",
      "SliceLocation": -52.523832523632,
      "SliceThickness": 3.5,
      "SmallestImagePixelValue": 0,
      "SoftwareVersions": "syngo MR E11",
      "SpacingBetweenSlices": 3.9900000719638,
      "SpecificCharacterSet": "ISO_IR 100",
      "StudyID": "14",
      "StudyTime": "100011.388000",
      "TransmitCoilName": "Body",
      "VariableFlipAngleFlag": "N",
      "WindowCenterWidthExplanation": "Algo1"
    },
    "slices": {}
  },
  "time": {
    "samples": {
      "AcquisitionNumber": [1, 2, 3, 4, 5, 6, 7, 8, 9, 10, 11, 12, 13, 14, 15, 16, 17, 18, 19, 20, 21, 22, 23, 24, 25, 26, 27, 28, 29, 30, 31, 32, 33, 34, 35, 36, 37, 38, 39, 40, 41, 42, 43, 44, 45, 46, 47, 48, 49, 50, 51, 52, 53, 54, 55, 56, 57, 58, 59, 60, 61, 62, 63, 64, 65, 66, 67, 68, 69, 70, 71, 72, 73, 74, 75, 76, 77, 78, 79, 80, 81, 82, 83, 84, 85, 86, 87, 88, 89, 90, 91, 92, 93, 94, 95, 96, 97, 98, 99, 100, 101, 102, 103, 104, 105, 106, 107, 108, 109, 110, 111, 112, 113, 114, 115, 116, 117, 118, 119, 120, 121, 122, 123, 124, 125, 126, 127, 128, 129, 130, 131, 132, 133, 134, 135, 136, 137, 138, 139, 140, 141, 142, 143, 144, 145, 146, 147, 148, 149, 150, 151, 152, 153, 154, 155, 156, 157, 158, 159, 160, 161, 162, 163, 164, 165, 166, 167, 168, 169, 170, 171, 172, 173, 174, 175, 176, 177, 178, 179, 180, 181, 182, 183, 184, 185, 186, 187, 188, 189, 190, 191, 192, 193, 194, 195, 196, 197, 198, 199, 200],
      "AcquisitionTime": ["100203.760000", "100205.760000", "100207.760000", "100209.760000", "100211.760000", "100213.760000", "100215.760000", "100217.760000", "100219.760000", "100221.760000", "100223.760000", "100225.760000", "100227.760000", "100229.760000", "100231.760000", "100233.760000", "100235.760000", "100237.760000", "100239.760000", "100241.760000", "100243.760000", "100245.760000", "100247.760000", "100249.760000", "100251.760000", "100253.760000", "100255.760000", "100257.760000", "100259.760000", "100301.760000", "100303.760000", "100305.760000", "100307.760000", "100309.760000", "100311.760000", "100313.760000", "100315.760000", "100317.760000", "100319.760000", "100321.760000", "100323.760000", "100325.760000", "100327.760000", "100329.760000", "100331.760000", "100333.760000", "100335.760000", "100337.760000", "100339.760000", "100341.760000", "100343.760000", "100345.760000", "100347.760000", "100349.760000", "100351.760000", "100353.760000", "100355.760000", "100357.760000", "100359.760000", "100401.760000", "100403.760000", "100405.760000", "100407.760000", "100409.760000", "100411.760000", "100413.760000", "100415.760000", "100417.760000", "100419.760000", "100421.760000", "100423.760000", "100425.760000", "100427.760000", "100429.760000", "100431.760000", "100433.760000", "100435.760000", "100437.760000", "100439.760000", "100441.760000", "100443.760000", "100445.760000", "100447.760000", "100449.760000", "100451.760000", "100453.760000", "100455.760000", "100457.760000", "100459.760000", "100501.760000", "100503.760000", "100505.760000", "100507.760000", "100509.760000", "100511.760000", "100513.760000", "100515.760000", "100517.760000", "100519.760000", "100521.760000", "100523.760000", "100525.760000", "100527.760000", "100529.760000", "100531.760000", "100533.760000", "100535.760000", "100537.760000", "100539.760000", "100541.760000", "100543.760000", "100545.760000", "100547.760000", "100549.760000", "100551.760000", "100553.760000", "100555.760000", "100557.760000", "100559.760000", "100601.760000", "100603.760000", "100605.760000", "100607.760000", "100609.760000", "100611.760000", "100613.760000", "100615.760000", "100617.760000", "100619.760000", "100621.760000", "100623.760000", "100625.760000", "100627.760000", "100629.760000", "100631.760000", "100633.760000", "100635.760000", "100637.760000", "100639.760000", "100641.760000", "100643.760000", "100645.760000", "100647.760000", "100649.760000", "100651.760000", "100653.760000", "100655.760000", "100657.760000", "100659.760000", "100701.760000", "100703.760000", "100705.760000", "100707.760000", "100709.760000", "100711.760000", "100713.760000", "100715.760000", "100717.760000", "100719.760000", "100721.760000", "100723.760000", "100725.760000", "100727.760000", "100729.760000", "100731.760000", "100733.760000", "100735.760000", "100737.760000", "100739.760000", "100741.760000", "100743.760000", "100745.760000", "100747.760000", "100749.760000", "100751.760000", "100753.760000", "100755.760000", "100757.760000", "100759.760000", "100801.760000", "100803.760000", "100805.760000", "100807.760000", "100809.760000", "100811.760000", "100813.760000", "100815.760000", "100817.760000", "100819.760000", "100821.760000", "100823.760000", "100825.760000", "100827.760000", "100829.760000", "100831.760000", "100833.760000", "100835.760000", "100837.760000", "100839.760000", "100841.760000"],
      "ContentTime": ["100251.862000", "100251.866000", "100251.868000", "100251.870000", "100251.872000", "100251.875000", "100251.877000", "100251.880000", "100251.882000", "100251.889000", "100251.891000", "100251.894000", "100251.896000", "100251.899000", "100251.901000", "100251.903000", "100251.906000", "100251.908000", "100251.910000", "100251.913000", "100251.915000", "100251.917000", "100251.920000", "100251.922000", "100331.857000", "100331.860000", "100331.862000", "100331.865000", "100331.867000", "100331.870000", "100331.872000", "100331.874000", "100331.877000", "100331.879000", "100331.881000", "100331.884000", "100331.886000", "100331.888000", "100331.891000", "100331.893000", "100331.896000", "100331.898000", "100331.900000", "100331.903000", "100411.856000", "100411.859000", "100411.861000", "100411.864000", "100411.866000", "100411.868000", "100411.871000", "100411.873000", "100411.875000", "100411.878000", "100411.880000", "100411.882000", "100411.885000", "100411.887000", "100411.889000", "100411.892000", "100411.894000", "100411.896000", "100411.898000", "100411.901000", "100451.857000", "100451.860000", "100451.862000", "100451.865000", "100451.867000", "100451.869000", "100451.872000", "100451.874000", "100451.876000", "100451.879000", "100451.881000", "100451.883000", "100451.886000", "100451.888000", "100451.890000", "100451.893000", "100451.895000", "100451.898000", "100451.900000", "100451.902000", "100531.857000", "100531.860000", "100531.863000", "100531.866000", "100531.868000", "100531.870000", "100531.873000", "100531.875000", "100531.877000", "100531.880000", "100531.882000", "100531.884000", "100531.887000", "100531.889000", "100531.891000", "100531.894000", "100531.896000", "100531.898000", "100531.901000", "100531.903000", "100611.856000", "100611.859000", "100611.861000", "100611.874000", "100611.876000", "100611.879000", "100611.881000", "100611.883000", "100611.886000", "100611.888000", "100611.890000", "100611.893000", "100611.895000", "100611.898000", "100611.900000", "100611.902000", "100611.905000", "100611.907000", "100611.910000", "100611.912000", "100651.857000", "100651.860000", "100651.862000", "100651.865000", "100651.867000", "100651.869000", "100651.872000", "100651.874000", "100651.876000", "100651.879000", "100651.881000", "100651.883000", "100651.886000", "100651.888000", "100651.890000", "100651.893000", "100651.895000", "100651.897000", "100651.900000", "100651.902000", "100731.857000", "100731.860000", "100731.862000", "100731.864000", "100731.867000", "100731.869000", "100731.871000", "100731.874000", "100731.876000", "100731.878000", "100731.881000", "100731.883000", "100731.885000", "100731.888000", "100731.890000", "100731.892000", "100731.895000", "100731.897000", "100731.899000", "100731.902000", "100811.857000", "100811.860000", "100811.862000", "100811.865000", "100811.867000", "100811.869000", "100811.872000", "100811.874000", "100811.876000", "100811.879000", "100811.881000", "100811.883000", "100811.886000", "100811.888000", "100811.890000", "100811.893000", "100811.904000", "100811.907000", "100811.909000", "100811.911000", "100843.210000", "100843.220000", "100843.223000", "100843.225000", "100843.228000", "100843.232000", "100843.236000", "100843.238000", "100843.241000", "100843.244000", "100843.247000", "100843.249000", "100843.252000", "100843.255000", "100843.257000", "100843.260000"],
      "InstanceCreationTime": ["100251.862000", "100251.866000", "100251.868000", "100251.870000", "100251.872000", "100251.875000", "100251.877000", "100251.880000", "100251.882000", "100251.889000", "100251.891000", "100251.894000", "100251.896000", "100251.899000", "100251.901000", "100251.903000", "100251.906000", "100251.908000", "100251.910000", "100251.913000", "100251.915000", "100251.917000", "100251.920000", "100251.922000", "100331.857000", "100331.860000", "100331.862000", "100331.865000", "100331.867000", "100331.870000", "100331.872000", "100331.874000", "100331.877000", "100331.879000", "100331.881000", "100331.884000", "100331.886000", "100331.888000", "100331.891000", "100331.893000", "100331.896000", "100331.898000", "100331.900000", "100331.903000", "100411.856000", "100411.859000", "100411.861000", "100411.864000", "100411.866000", "100411.868000", "100411.871000", "100411.873000", "100411.875000", "100411.878000", "100411.880000", "100411.882000", "100411.885000", "100411.887000", "100411.889000", "100411.892000", "100411.894000", "100411.896000", "100411.898000", "100411.901000", "100451.857000", "100451.860000", "100451.862000", "100451.865000", "100451.867000", "100451.869000", "100451.872000", "100451.874000", "100451.876000", "100451.879000", "100451.881000", "100451.883000", "100451.886000", "100451.888000", "100451.890000", "100451.893000", "100451.895000", "100451.898000", "100451.900000", "100451.902000", "100531.857000", "100531.860000", "100531.863000", "100531.866000", "100531.868000", "100531.870000", "100531.873000", "100531.875000", "100531.877000", "100531.880000", "100531.882000", "100531.884000", "100531.887000", "100531.889000", "100531.891000", "100531.894000", "100531.896000", "100531.898000", "100531.901000", "100531.903000", "100611.856000", "100611.859000", "100611.861000", "100611.874000", "100611.876000", "100611.879000", "100611.881000", "100611.883000", "100611.886000", "100611.888000", "100611.890000", "100611.893000", "100611.895000", "100611.898000", "100611.900000", "100611.902000", "100611.905000", "100611.907000", "100611.910000", "100611.912000", "100651.857000", "100651.860000", "100651.862000", "100651.865000", "100651.867000", "100651.869000", "100651.872000", "100651.874000", "100651.876000", "100651.879000", "100651.881000", "100651.883000", "100651.886000", "100651.888000", "100651.890000", "100651.893000", "100651.895000", "100651.897000", "100651.900000", "100651.902000", "100731.857000", "100731.860000", "100731.862000", "100731.864000", "100731.867000", "100731.869000", "100731.871000", "100731.874000", "100731.876000", "100731.878000", "100731.881000", "100731.883000", "100731.885000", "100731.888000", "100731.890000", "100731.892000", "100731.895000", "100731.897000", "100731.899000", "100731.902000", "100811.857000", "100811.860000", "100811.862000", "100811.865000", "100811.867000", "100811.869000", "100811.872000", "100811.874000", "100811.876000", "100811.879000", "100811.881000", "100811.883000", "100811.886000", "100811.888000", "100811.890000", "100811.893000", "100811.904000", "100811.907000", "100811.909000", "100811.911000", "100843.210000", "100843.220000", "100843.223000", "100843.225000", "100843.228000", "100843.232000", "100843.236000", "100843.238000", "100843.241000", "100843.244000", "100843.247000", "100843.249000", "100843.252000", "100843.255000", "100843.257000", "100843.260000"],
      "InstanceNumber": [1, 2, 3, 4, 5, 6, 7, 8, 9, 10, 11, 12, 13, 14, 15, 16, 17, 18, 19, 20, 21, 22, 23, 24, 25, 26, 27, 28, 29, 30, 31, 32, 33, 34, 35, 36, 37, 38, 39, 40, 41, 42, 43, 44, 45, 46, 47, 48, 49, 50, 51, 52, 53, 54, 55, 56, 57, 58, 59, 60, 61, 62, 63, 64, 65, 66, 67, 68, 69, 70, 71, 72, 73, 74, 75, 76, 77, 78, 79, 80, 81, 82, 83, 84, 85, 86, 87, 88, 89, 90, 91, 92, 93, 94, 95, 96, 97, 98, 99, 100, 101, 102, 103, 104, 105, 106, 107, 108, 109, 110, 111, 112, 113, 114, 115, 116, 117, 118, 119, 120, 121, 122, 123, 124, 125, 126, 127, 128, 129, 130, 131, 132, 133, 134, 135, 136, 137, 138, 139, 140, 141, 142, 143, 144, 145, 146, 147, 148, 149, 150, 151, 152, 153, 154, 155, 156, 157, 158, 159, 160, 161, 162, 163, 164, 165, 166, 167, 168, 169, 170, 171, 172, 173, 174, 175, 176, 177, 178, 179, 180, 181, 182, 183, 184, 185, 186, 187, 188, 189, 190, 191, 192, 193, 194, 195, 196, 197, 198, 199, 200],
      "LargestImagePixelValue": [1968, 1964, 1966, 1969, 1960, 1963, 1960, 1963, 1961, 1964, 1958, 1964, 1967, 1959, 1959, 1965, 1964, 1962, 1967, 1962, 1967, 1963, 1964, 1967, 1963, 1971, 1966, 1966, 1966, 1965, 1976, 1975, 1967, 1965, 1970, 1972, 1973, 1966, 1965, 1967, 1972, 1979, 1970, 1971, 1971, 1973, 1975, 1971, 1971, 1976, 1973, 1977, 1971, 1971, 1970, 1975, 1977, 1971, 1976, 1972, 1972, 1971, 1976, 1976, 1972, 1976, 1972, 1974, 1972, 1978, 1976, 1969, 1974, 1969, 1973, 1975, 1976, 1976, 1973, 1973, 1975, 1977, 1974, 1980, 1979, 1979, 1978, 1974, 1977, 1972, 1971, 1974, 1974, 1975, 1969, 1974, 1973, 1978, 1983, 1972, 1977, 1974, 1976, 1975, 1976, 1976, 1977, 1978, 1973, 1970, 1978, 1974, 1977, 1976, 1972, 1970, 1975, 1977, 1977, 1978, 1970, 1975, 1975, 1971, 1975, 1972, 1976, 1979, 1967, 1974, 1972, 1977, 1975, 1966, 1979, 1981, 1969, 1969, 1972, 1975, 1972, 1972, 1978, 1971, 1972, 1972, 1974, 1977, 1976, 1972, 1975, 1976, 1969, 1976, 1972, 1973, 1977, 1969, 1971, 1970, 1971, 1976, 1970, 1969, 1971, 1971, 1968, 1973, 1970, 1974, 1974, 1971, 1969, 1971, 1972, 1968, 1967, 1973, 1974, 1970, 1977, 1971, 1974, 1973, 1971, 1976, 1978, 1970, 1979, 1968, 1974, 1972, 1973, 1976, 1972, 1973, 1972, 1970, 1969, 1976],
      "WindowCenter": [997.0, 997.0, 996.0, 996.0, 996.0, 997.0, 996.0, 997.0, 996.0, 996.0, 997.0, 996.0, 997.0, 996.0, 996.0, 997.0, 997.0, 996.0, 996.0, 997.0, 997.0, 996.0, 997.0, 996.0, 996.0, 996.0, 997.0, 996.0, 997.0, 996.0, 997.0, 996.0, 997.0, 997.0, 996.0, 996.0, 996.0, 997.0, 996.0, 996.0, 996.0, 996.0, 996.0, 996.0, 996.0, 997.0, 996.0, 996.0, 996.0, 996.0, 996.0, 996.0, 996.0, 996.0, 996.0, 996.0, 997.0, 996.0, 997.0, 996.0, 996.0, 996.0, 996.0, 995.0, 995.0, 995.0, 996.0, 997.0, 996.0, 995.0, 995.0, 996.0, 995.0, 997.0, 995.0, 995.0, 996.0, 995.0, 995.0, 995.0, 995.0, 996.0, 995.0, 995.0, 995.0, 995.0, 995.0, 997.0, 995.0, 996.0, 996.0, 995.0, 996.0, 997.0, 996.0, 995.0, 995.0, 996.0, 995.0, 995.0, 995.0, 995.0, 995.0, 995.0, 995.0, 996.0, 996.0, 995.0, 996.0, 997.0, 995.0, 996.0, 996.0, 995.0, 996.0, 996.0, 996.0, 996.0, 995.0, 996.0, 996.0, 995.0, 995.0, 996.0, 996.0, 995.0, 996.0, 996.0, 996.0, 995.0, 995.0, 995.0, 995.0, 996.0, 996.0, 996.0, 995.0, 995.0, 996.0, 995.0, 995.0, 996.0, 996.0, 996.0, 996.0, 996.0, 996.0, 996.0, 996.0, 995.0, 996.0, 996.0, 996.0, 996.0, 995.0, 995.0, 995.0, 995.0, 995.0, 996.0, 996.0, 996.0, 995.0, 995.0, 996.0, 995.0, 996.0, 995.0, 995.0, 995.0, 995.0, 996.0, 996.0, 996.0, 995.0, 996.0, 995.0, 995.0, 996.0, 996.0, 995.0, 996.0, 995.0, 996.0, 996.0, 995.0, 995.0, 995.0, 995.0, 995.0, 996.0, 995.0, 995.0, 996.0, 996.0, 995.0, 997.0, 995.0, 995.0, 995.0],
      "WindowWidth": [2190.0, 2190.0, 2189.0, 2190.0, 2189.0, 2190.0, 2189.0, 2190.0, 2189.0, 2189.0, 2190.0, 2189.0, 2190.0, 2189.0, 2189.0, 2189.0, 2190.0, 2189.0, 2189.0, 2190.0, 2190.0, 2189.0, 2190.0, 2189.0, 2189.0, 2189.0, 2190.0, 2189.0, 2189.0, 2189.0, 2189.0, 2189.0, 2189.0, 2190.0, 2189.0, 2189.0, 2189.0, 2190.0, 2189.0, 2189.0, 2189.0, 2189.0, 2189.0, 2189.0, 2189.0, 2189.0, 2189.0, 2189.0, 2189.0, 2189.0, 2188.0, 2188.0, 2189.0, 2188.0, 2189.0, 2189.0, 2190.0, 2189.0, 2190.0, 2188.0, 2189.0, 2188.0, 2189.0, 2188.0, 2188.0, 2189.0, 2189.0, 2189.0, 2189.0, 2188.0, 2188.0, 2189.0, 2188.0, 2189.0, 2188.0, 2188.0, 2189.0, 2188.0, 2188.0, 2188.0, 2188.0, 2189.0, 2188.0, 2188.0, 2188.0, 2188.0, 2188.0, 2190.0, 2188.0, 2189.0, 2189.0, 2188.0, 2188.0, 2189.0, 2189.0, 2188.0, 2188.0, 2188.0, 2188.0, 2188.0, 2188.0, 2188.0, 2188.0, 2188.0, 2188.0, 2189.0, 2189.0, 2188.0, 2189.0, 2189.0, 2188.0, 2189.0, 2189.0, 2188.0, 2188.0, 2188.0, 2188.0, 2189.0, 2188.0, 2189.0, 2188.0, 2188.0, 2188.0, 2188.0, 2189.0, 2188.0, 2189.0, 2188.0, 2188.0, 2188.0, 2188.0, 2188.0, 2188.0, 2188.0, 2189.0, 2188.0, 2188.0, 2187.0, 2188.0, 2188.0, 2188.0, 2188.0, 2188.0, 2188.0, 2188.0, 2188.0, 2188.0, 2188.0, 2188.0, 2187.0, 2188.0, 2188.0, 2188.0, 2188.0, 2188.0, 2188.0, 2188.0, 2188.0, 2188.0, 2188.0, 2188.0, 2189.0, 2188.0, 2188.0, 2188.0, 2188.0, 2189.0, 2187.0, 2187.0, 2188.0, 2187.0, 2188.0, 2188.0, 2188.0, 2187.0, 2188.0, 2187.0, 2187.0, 2188.0, 2188.0, 2187.0, 2188.0, 2187.0, 2188.0, 2188.0, 2187.0, 2187.0, 2188.0, 2187.0, 2187.0, 2188.0, 2187.0, 2187.0, 2188.0, 2188.0, 2187.0, 2189.0, 2187.0, 2187.0, 2188.0]
    },
    "slices": {}
  }
}