{
  "AcquisitionMatrixPE": 80,
  "AcquisitionNumber": 1,
  "AcquisitionTime": "11:55:56.142500",
  "BandwidthPerPixelPhaseEncode": 44.643,
  "BaseResolution": 80,
  "BodyPartExamined": "BRAIN",
  "CoilCombinationMethod": "Sum of Squares",
  "ConsistencyInfo": "N4_VE11C_LATEST_20160120",
  "ConversionSoftware": "dcm2niix",
  "ConversionSoftwareVersion": "v1.0.20220720",
  "DerivedVendorReportedEchoSpacing": 0.000559998,
  "DeviceSerialNumber": "66112",
  "DwellTime": 2.7e-06,
  "EchoTime": 0.035,
  "EchoTrainLength": 39,
  "EffectiveEchoSpacing": 0.000279999,
  "FlipAngle": 90,
  "HeudiconvVersion": "0.13.1",
  "ImageOrientationPatientDICOM": [0.980716, 0.195323, 0.0066513, -0.187791, 0.932382, 0.308867],
  "ImageOrientationText": "Tra>Cor(17.7)>Sag(-3.1)",
  "ImageType": [
    "ORIGINAL",
    "PRIMARY",
    "M",
    "ND",
    "NORM",
    "MOSAIC"
],
  "ImagingFrequency": 123.252,
  "InPlanePhaseEncodingDirectionDICOM": "COL",
  "InstitutionAddress": "Maynard 3,Hanover,NH,US,03755",
  "InstitutionName": "Dartmouth College - PBS",
  "InstitutionalDepartmentName": "Department",
  "MRAcquisitionType": "2D",
  "MagneticFieldStrength": 3,
  "Manufacturer": "Siemens",
  "ManufacturersModelName": "Prisma",
  "Modality": "MR",
  "MultibandAccelerationFactor": 4,
  "NonlinearGradientCorrection": false,
  "ParallelReductionFactorInPlane": 2,
  "PartialFourier": 1,
  "PatientPosition": "HFS",
  "PercentPhaseFOV": 100,
  "PercentSampling": 100,
  "PhaseEncodingDirection": "j-",
  "PhaseEncodingSteps": 79,
  "PhaseResolution": 1,
  "PixelBandwidth": 2315,
  "ProcedureStepDescription": "dbic^QA",
  "ProtocolName": "func-bold_task-rest_acq-p2-s4-3.5mm",
  "PulseSequenceDetails": "%SiemensSeq%\\ep2d_bold",
  "ReceiveCoilActiveElements": "HEA;HEP",
  "ReceiveCoilName": "Head_32",
  "ReconMatrixPE": 80,
  "RefLinesPE": 24,
  "RepetitionTime": 2,
  "SAR": 0.0208448,
  "ScanOptions": "FS",
  "ScanningSequence": "EP",
  "SequenceName": "*epfid2d1_80",
  "SequenceVariant": "SK",
  "SeriesDescription": "func-bold_task-rest_acq-p2-s4-3.5mm",
  "SeriesNumber": 7,
  "ShimSetting": [4154, -7700, -7514, 267, -52, -301, -79, 122],
  "SliceThickness": 3.5,
  "SliceTiming": [1.485, 0, 0.99, 0.2475, 1.2375, 0.7425, 1.7325, 0.495, 1.485, 0, 0.99, 0.2475, 1.2375, 0.7425, 1.7325, 0.495, 1.485, 0, 0.99, 0.2475, 1.2375, 0.7425, 1.7325, 0.495, 1.485, 0, 0.99, 0.2475, 1.2375, 0.7425, 1.7325, 0.495],
  "SoftwareVersions": "syngo MR E11",
  "SpacingBetweenSlices": 3.99,
  "StationName": "AWP66112",
  "TaskName": "rest",
  "TotalReadoutTime": 0.0221199,
  "TxRefAmp": 227.531,
  "dcmmeta_affine": [
    [-2.9421491622924805, -0.5633740425109863, -0.21596787869930267, 143.4888916015625],
    [-0.5859692692756653, 2.797145128250122, 1.2135978937149048, -96.49259185791016],
    [0.019953904673457146, -0.9266006946563721, 3.7948172092437744, -20.797260284423828],
    [0.0, 0.0, 0.0, 1.0]
],
  "dcmmeta_reorient_transform": [
    [0.0, -1.0, 0.0, 79.0],
    [1.0, 0.0, 0.0, 0.0],
    [0.0, 0.0, 1.0, 0.0],
    [0.0, 0.0, 0.0, 1.0]
],
  "dcmmeta_shape": [80, 80, 32, 200],
  "dcmmeta_slice_dim": 2,
  "dcmmeta_version": 0.6,
  "global": {
    "const": {
      "AccessionNumber": "qa",
      "AcquisitionMatrix": [80, 0, 0, 80],
      "AngioFlag": "N",
      "BitsAllocated": 16,
      "BitsStored": 12,
      "BodyPartExamined": "BRAIN",
      "Columns": 480,
      "EchoNumbers": 1,
      "EchoTime": 35.0,
      "EchoTrainLength": 39,
      "FlipAngle": 90.0,
      "HighBit": 11,
      "ImageOrientationPatient": [0.98071639523431, 0.19532309721671, 0.00665130154916, -0.187791343949, 0.93238170806092, 0.3088668995073],
      "ImagePositionPatient": [-574.73736674799, -801.10475884164, -283.30963659048],
      "ImageType": [
        "ORIGINAL",
        "PRIMARY",
        "M",
        "ND",
        "NORM",
        "MOSAIC"
],
      "ImagedNucleus": "1H",
      "ImagingFrequency": 123.252416,
      "InPlanePhaseEncodingDirection": "COL",
      "MRAcquisitionType": "2D",
      "MagneticFieldStrength": 3.0,
      "Manufacturer": "SIEMENS",
      "ManufacturerModelName": "Prisma",
      "Modality": "MR",
      "NumberOfAverages": 1.0,
      "NumberOfPhaseEncodingSteps": 79,
      "PercentPhaseFieldOfView": 100.0,
      "PercentSampling": 100.0,
      "PerformedProcedureStepStartTime": "114556.496000",
      "PhotometricInterpretation": "MONOCHROME2",
      "PixelBandwidth": 2315.0,
      "PixelRepresentation": 0,
      "PixelSpacing": [3.0, 3.0],
      "ProtocolName": "func-bold_task-rest_acq-p2-s4-3.5mm",
      "RepetitionTime": 2000.0,
      "Rows": 480,
      "SAR": 0.02084477584387,
      "SamplesPerPixel": 1,
      "ScanOptions": "FS",
      "ScanningSequence": "EP",
      "SequenceName": "*epfid2d1_80",
      "SequenceVariant": "SK",
      "SeriesDescription": "func-bold_task-rest_acq-p2-s4-3.5mm",
      "SeriesNumber": 7,
      "SeriesTime": "115639.245000",
      "SliceLocation": -56.895740000265,
      "SliceThickness": 3.5,
      "SmallestImagePixelValue": 0,
      "SoftwareVersions": "syngo MR E11",
      "SpacingBetweenSlices": 3.9899999338865,
      "SpecificCharacterSet": "ISO_IR 100",
      "StudyID": "85",
      "StudyTime": "114556.394000",
      "TransmitCoilName": "Body",
      "VariableFlipAngleFlag": "N",
      "WindowCenter": 899.0,
      "WindowCenterWidthExplanation": "Algo1",
      "dBdt": 0.0},
    "slices": {}
  },
  "time": {
    "samples": {
      "AcquisitionNumber": [1, 2, 3, 4, 5, 6, 7, 8, 9, 10, 11, 12, 13, 14, 15, 16, 17, 18, 19, 20, 21, 22, 23, 24, 25, 26, 27, 28, 29, 30, 31, 32, 33, 34, 35, 36, 37, 38, 39, 40, 41, 42, 43, 44, 45, 46, 47, 48, 49, 50, 51, 52, 53, 54, 55, 56, 57, 58, 59, 60, 61, 62, 63, 64, 65, 66, 67, 68, 69, 70, 71, 72, 73, 74, 75, 76, 77, 78, 79, 80, 81, 82, 83, 84, 85, 86, 87, 88, 89, 90, 91, 92, 93, 94, 95, 96, 97, 98, 99, 100, 101, 102, 103, 104, 105, 106, 107, 108, 109, 110, 111, 112, 113, 114, 115, 116, 117, 118, 119, 120, 121, 122, 123, 124, 125, 126, 127, 128, 129, 130, 131, 132, 133, 134, 135, 136, 137, 138, 139, 140, 141, 142, 143, 144, 145, 146, 147, 148, 149, 150, 151, 152, 153, 154, 155, 156, 157, 158, 159, 160, 161, 162, 163, 164, 165, 166, 167, 168, 169, 170, 171, 172, 173, 174, 175, 176, 177, 178, 179, 180, 181, 182, 183, 184, 185, 186, 187, 188, 189, 190, 191, 192, 193, 194, 195, 196, 197, 198, 199, 200],
      "AcquisitionTime": ["115556.142500", "115558.142500", "115600.142500", "115602.142500", "115604.142500", "115606.142500", "115608.142500", "115610.142500", "115612.142500", "115614.142500", "115616.142500", "115618.142500", "115620.142500", "115622.142500", "115624.142500", "115626.142500", "115628.142500", "115630.142500", "115632.142500", "115634.142500", "115636.142500", "115638.142500", "115640.142500", "115642.142500", "115644.142500", "115646.142500", "115648.142500", "115650.142500", "115652.142500", "115654.142500", "115656.142500", "115658.142500", "115700.142500", "115702.142500", "115704.142500", "115706.142500", "115708.142500", "115710.142500", "115712.142500", "115714.142500", "115716.142500", "115718.142500", "115720.142500", "115722.142500", "115724.142500", "115726.142500", "115728.142500", "115730.142500", "115732.142500", "115734.142500", "115736.142500", "115738.142500", "115740.142500", "115742.142500", "115744.142500", "115746.142500", "115748.142500", "115750.142500", "115752.142500", "115754.142500", "115756.142500", "115758.142500", "115800.142500", "115802.142500", "115804.142500", "115806.142500", "115808.142500", "115810.142500", "115812.142500", "115814.142500", "115816.142500", "115818.142500", "115820.142500", "115822.142500", "115824.142500", "115826.142500", "115828.142500", "115830.142500", "115832.142500", "115834.142500", "115836.142500", "115838.142500", "115840.142500", "115842.142500", "115844.142500", "115846.142500", "115848.142500", "115850.142500", "115852.142500", "115854.142500", "115856.142500", "115858.142500", "115900.142500", "115902.142500", "115904.142500", "115906.142500", "115908.142500", "115910.142500", "115912.142500", "115914.142500", "115916.142500", "115918.142500", "115920.142500", "115922.142500", "115924.142500", "115926.142500", "115928.142500", "115930.142500", "115932.142500", "115934.142500", "115936.142500", "115938.142500", "115940.142500", "115942.142500", "115944.142500", "115946.142500", "115948.142500", "115950.142500", "115952.142500", "115954.142500", "115956.142500", "115958.142500", "120000.142500", "120002.142500", "120004.142500", "120006.142500", "120008.142500", "120010.142500", "120012.142500", "120014.142500", "120016.142500", "120018.142500", "120020.142500", "120022.142500", "120024.142500", "120026.142500", "120028.142500", "120030.142500", "120032.142500", "120034.142500", "120036.142500", "120038.142500", "120040.142500", "120042.142500", "120044.142500", "120046.142500", "120048.142500", "120050.142500", "120052.142500", "120054.142500", "120056.142500", "120058.142500", "120100.142500", "120102.142500", "120104.142500", "120106.142500", "120108.142500", "120110.142500", "120112.142500", "120114.142500", "120116.142500", "120118.142500", "120120.142500", "120122.142500", "120124.142500", "120126.142500", "120128.142500", "120130.142500", "120132.142500", "120134.142500", "120136.142500", "120138.142500", "120140.142500", "120142.142500", "120144.142500", "120146.142500", "120148.142500", "120150.142500", "120152.142500", "120154.142500", "120156.142500", "120158.142500", "120200.142500", "120202.142500", "120204.142500", "120206.142500", "120208.142500", "120210.142500", "120212.142500", "120214.142500", "120216.142500", "120218.142500", "120220.142500", "120222.142500", "120224.142500", "120226.142500", "120228.142500", "120230.142500", "120232.142500", "120234.142500"],
      "ContentTime": ["115639.248000", "115639.252000", "115639.254000", "115639.257000", "115639.260000", "115639.262000", "115639.265000", "115639.267000", "115639.270000", "115639.278000", "115639.281000", "115639.283000", "115639.286000", "115639.288000", "115639.291000", "115639.298000", "115639.307000", "115639.310000", "115639.312000", "115639.315000", "115639.318000", "115719.245000", "115719.247000", "115719.250000", "115719.253000", "115719.255000", "115719.258000", "115719.260000", "115719.263000", "115719.265000", "115719.268000", "115719.271000", "115719.273000", "115719.276000", "115719.278000", "115719.281000", "115719.283000", "115719.286000", "115719.288000", "115719.291000", "115719.294000", "115759.244000", "115759.246000", "115759.249000", "115759.252000", "115759.254000", "115759.257000", "115759.269000", "115759.272000", "115759.274000", "115759.277000", "115759.280000", "115759.282000", "115759.285000", "115759.287000", "115759.290000", "115759.292000", "115759.295000", "115759.298000", "115759.300000", "115759.303000", "115839.244000", "115839.258000", "115839.261000", "115839.264000", "115839.266000", "115839.269000", "115839.271000", "115839.274000", "115839.276000", "115839.279000", "115839.282000", "115839.284000", "115839.287000", "115839.289000", "115839.292000", "115839.294000", "115839.297000", "115839.300000", "115839.302000", "115839.305000", "115919.243000", "115919.246000", "115919.249000", "115919.252000", "115919.254000", "115919.257000", "115919.259000", "115919.262000", "115919.264000", "115919.267000", "115919.270000", "115919.272000", "115919.275000", "115919.277000", "115919.280000", "115919.282000", "115919.285000", "115919.288000", "115919.290000", "115919.293000", "115959.245000", "115959.247000", "115959.250000", "115959.253000", "115959.255000", "115959.258000", "115959.260000", "115959.263000", "115959.266000", "115959.268000", "115959.281000", "115959.284000", "115959.287000", "115959.289000", "115959.292000", "115959.294000", "115959.297000", "115959.299000", "115959.302000", "115959.305000", "120039.244000", "120039.246000", "120039.249000", "120039.252000", "120039.254000", "120039.257000", "120039.259000", "120039.262000", "120039.264000", "120039.267000", "120039.270000", "120039.272000", "120039.275000", "120039.277000", "120039.280000", "120039.282000", "120039.285000", "120039.288000", "120039.290000", "120039.293000", "120119.243000", "120119.246000", "120119.249000", "120119.252000", "120119.254000", "120119.257000", "120119.260000", "120119.263000", "120119.265000", "120119.268000", "120119.271000", "120119.273000", "120119.276000", "120119.278000", "120119.281000", "120119.284000", "120119.286000", "120119.289000", "120119.291000", "120119.294000", "120159.245000", "120159.254000", "120159.270000", "120159.273000", "120159.276000", "120159.279000", "120159.282000", "120159.285000", "120159.287000", "120159.290000", "120159.293000", "120159.296000", "120159.299000", "120159.301000", "120159.304000", "120159.314000", "120159.317000", "120159.320000", "120159.323000", "120159.330000", "120219.245000", "120219.250000", "120219.253000", "120219.256000", "120219.258000", "120219.266000", "120219.268000", "120219.271000", "120219.274000", "120219.277000", "120235.652000", "120235.655000", "120235.657000", "120235.660000", "120235.663000", "120235.666000", "120235.677000", "120235.679000", "120235.682000"],
      "InstanceCreationTime": ["115639.248000", "115639.252000", "115639.254000", "115639.257000", "115639.260000", "115639.262000", "115639.265000", "115639.267000", "115639.270000", "115639.278000", "115639.281000", "115639.283000", "115639.286000", "115639.288000", "115639.291000", "115639.298000", "115639.307000", "115639.310000", "115639.312000", "115639.315000", "115639.318000", "115719.245000", "115719.247000", "115719.250000", "115719.253000", "115719.255000", "115719.258000", "115719.260000", "115719.263000", "115719.265000", "115719.268000", "115719.271000", "115719.273000", "115719.276000", "115719.278000", "115719.281000", "115719.283000", "115719.286000", "115719.288000", "115719.291000", "115719.294000", "115759.244000", "115759.246000", "115759.249000", "115759.252000", "115759.254000", "115759.257000", "115759.269000", "115759.272000", "115759.274000", "115759.277000", "115759.280000", "115759.282000", "115759.285000", "115759.287000", "115759.290000", "115759.292000", "115759.295000", "115759.298000", "115759.300000", "115759.303000", "115839.244000", "115839.258000", "115839.261000", "115839.264000", "115839.266000", "115839.269000", "115839.271000", "115839.274000", "115839.276000", "115839.279000", "115839.282000", "115839.284000", "115839.287000", "115839.289000", "115839.292000", "115839.294000", "115839.297000", "115839.300000", "115839.302000", "115839.305000", "115919.243000", "115919.246000", "115919.249000", "115919.252000", "115919.254000", "115919.257000", "115919.259000", "115919.262000", "115919.264000", "115919.267000", "115919.270000", "115919.272000", "115919.275000", "115919.277000", "115919.280000", "115919.282000", "115919.285000", "115919.288000", "115919.290000", "115919.293000", "115959.245000", "115959.247000", "115959.250000", "115959.253000", "115959.255000", "115959.258000", "115959.260000", "115959.263000", "115959.266000", "115959.268000", "115959.281000", "115959.284000", "115959.287000", "115959.289000", "115959.292000", "115959.294000", "115959.297000", "115959.299000", "115959.302000", "115959.305000", "120039.244000", "120039.246000", "120039.249000", "120039.252000", "120039.254000", "120039.257000", "120039.259000", "120039.262000", "120039.264000", "120039.267000", "120039.270000", "120039.272000", "120039.275000", "120039.277000", "120039.280000", "120039.282000", "120039.285000", "120039.288000", "120039.290000", "120039.293000", "120119.243000", "120119.246000", "120119.249000", "120119.252000", "120119.254000", "120119.257000", "120119.260000", "120119.263000", "120119.265000", "120119.268000", "120119.271000", "120119.273000", "120119.276000", "120119.278000", "120119.281000", "120119.284000", "120119.286000", "120119.289000", "120119.291000", "120119.294000", "120159.245000", "120159.254000", "120159.270000", "120159.273000", "120159.276000", "120159.279000", "120159.282000", "120159.285000", "120159.287000", "120159.290000", "120159.293000", "120159.296000", "120159.299000", "120159.301000", "120159.304000", "120159.314000", "120159.317000", "120159.320000", "120159.323000", "120159.330000", "120219.245000", "120219.250000", "120219.253000", "120219.256000", "120219.258000", "120219.266000", "120219.268000", "120219.271000", "120219.274000", "120219.277000", "120235.652000", "120235.655000", "120235.657000", "120235.660000", "120235.663000", "120235.666000", "120235.677000", "120235.679000", "120235.682000"],
      "InstanceNumber": [1, 2, 3, 4, 5, 6, 7, 8, 9, 10, 11, 12, 13, 14, 15, 16, 17, 18, 19, 20, 21, 22, 23, 24, 25, 26, 27, 28, 29, 30, 31, 32, 33, 34, 35, 36, 37, 38, 39, 40, 41, 42, 43, 44, 45, 46, 47, 48, 49, 50, 51, 52, 53, 54, 55, 56, 57, 58, 59, 60, 61, 62, 63, 64, 65, 66, 67, 68, 69, 70, 71, 72, 73, 74, 75, 76, 77, 78, 79, 80, 81, 82, 83, 84, 85, 86, 87, 88, 89, 90, 91, 92, 93, 94, 95, 96, 97, 98, 99, 100, 101, 102, 103, 104, 105, 106, 107, 108, 109, 110, 111, 112, 113, 114, 115, 116, 117, 118, 119, 120, 121, 122, 123, 124, 125, 126, 127, 128, 129, 130, 131, 132, 133, 134, 135, 136, 137, 138, 139, 140, 141, 142, 143, 144, 145, 146, 147, 148, 149, 150, 151, 152, 153, 154, 155, 156, 157, 158, 159, 160, 161, 162, 163, 164, 165, 166, 167, 168, 169, 170, 171, 172, 173, 174, 175, 176, 177, 178, 179, 180, 181, 182, 183, 184, 185, 186, 187, 188, 189, 190, 191, 192, 193, 194, 195, 196, 197, 198, 199, 200],
      "LargestImagePixelValue": [1947, 1947, 1945, 1946, 1945, 1947, 1943, 1946, 1947, 1943, 1945, 1948, 1948, 1947, 1942, 1947, 1946, 1949, 1942, 1939, 1948, 1947, 1947, 1948, 1946, 1941, 1950, 1944, 1945, 1946, 1943, 1947, 1950, 1947, 1944, 1948, 1945, 1944, 1947, 1947, 1946, 1945, 1948, 1946, 1944, 1947, 1944, 1943, 1946, 1943, 1943, 1943, 1944, 1947, 1945, 1943, 1949, 1949, 1949, 1945, 1948, 1947, 1951, 1944, 1946, 1946, 1947, 1952, 1949, 1946, 1949, 1946, 1943, 1945, 1947, 1945, 1943, 1951, 1949, 1945, 1941, 1947, 1946, 1946, 1949, 1946, 1951, 1946, 1946, 1952, 1950, 1943, 1947, 1944, 1947, 1945, 1948, 1946, 1943, 1948, 1946, 1941, 1947, 1949, 1947, 1948, 1943, 1947, 1946, 1947, 1947, 1950, 1947, 1948, 1946, 1950, 1947, 1949, 1948, 1948, 1951, 1948, 1951, 1948, 1950, 1948, 1951, 1948, 1948, 1945, 1945, 1946, 1945, 1953, 1953, 1947, 1948, 1951, 1943, 1952, 1948, 1948, 1947, 1945, 1953, 1946, 1951, 1950, 1951, 1948, 1947, 1946, 1948, 1949, 1952, 1948, 1948, 1947, 1948, 1949, 1948, 1950, 1944, 1948, 1953, 1948, 1947, 1947, 1952, 1947, 1948, 1949, 1953, 1952, 1951, 1949, 1951, 1947, 1949, 1952, 1946, 1953, 1953, 1948, 1942, 1943, 1950, 1946, 1951, 1945, 1945, 1951, 1950, 1948, 1953, 1950, 1950, 1947, 1955, 1952],
      "WindowWidth": [2025.0, 2025.0, 2025.0, 2025.0, 2025.0, 2025.0, 2025.0, 2025.0, 2025.0, 2025.0, 2025.0, 2025.0, 2025.0, 2025.0, 2025.0, 2025.0, 2024.0, 2024.0, 2024.0, 2024.0, 2024.0, 2024.0, 2024.0, 2024.0, 2024.0, 2024.0, 2024.0, 2024.0, 2024.0, 2024.0, 2024.0, 2024.0, 2024.0, 2024.0, 2024.0, 2024.0, 2024.0, 2024.0, 2024.0, 2024.0, 2024.0, 2024.0, 2024.0, 2024.0, 2024.0, 2024.0, 2024.0, 2024.0, 2024.0, 2024.0, 2024.0, 2024.0, 2024.0, 2024.0, 2024.0, 2024.0, 2024.0, 2024.0, 2024.0, 2024.0, 2024.0, 2024.0, 2024.0, 2024.0, 2024.0, 2024.0, 2024.0, 2024.0, 2024.0, 2024.0, 2024.0, 2024.0, 2024.0, 2024.0, 2024.0, 2024.0, 2024.0, 2024.0, 2024.0, 2024.0, 2024.0, 2024.0, 2024.0, 2024.0, 2024.0, 2024.0, 2024.0, 2025.0, 2025.0, 2025.0, 2024.0, 2024.0, 2024.0, 2024.0, 2024.0, 2024.0, 2024.0, 2024.0, 2024.0, 2024.0, 2024.0, 2024.0, 2024.0, 2024.0, 2024.0, 2024.0, 2024.0, 2024.0, 2024.0, 2024.0, 2024.0, 2024.0, 2024.0, 2024.0, 2024.0, 2024.0, 2024.0, 2024.0, 2024.0, 2024.0, 2024.0, 2024.0, 2024.0, 2024.0, 2024.0, 2024.0, 2024.0, 2024.0, 2024.0, 2024.0, 2024.0, 2024.0, 2024.0, 2024.0, 2024.0, 2024.0, 2024.0, 2024.0, 2024.0, 2024.0, 2024.0, 2024.0, 2024.0, 2024.0, 2024.0, 2024.0, 2024.0, 2024.0, 2024.0, 2024.0, 2024.0, 2024.0, 2024.0, 2024.0, 2024.0, 2024.0, 2024.0, 2024.0, 2024.0, 2024.0, 2024.0, 2024.0, 2024.0, 2024.0, 2024.0, 2024.0, 2024.0, 2024.0, 2024.0, 2024.0, 2024.0, 2024.0, 2024.0, 2024.0, 2024.0, 2024.0, 2024.0, 2024.0, 2024.0, 2024.0, 2024.0, 2024.0, 2024.0, 2024.0, 2024.0, 2023.0, 2024.0, 2024.0, 2024.0, 2024.0, 2024.0, 2024.0, 2024.0, 2023.0, 2024.0, 2024.0, 2024.0, 2024.0, 2024.0, 2024.0]
    },
    "slices": {}
  }
}