{
  "AcquisitionMatrixPE": 80,
  "AcquisitionNumber": 1,
  "AcquisitionTime": "08:40:0.770000",
  "BandwidthPerPixelPhaseEncode": 48.077,
  "BaseResolution": 80,
  "BodyPartExamined": "BRAIN",
  "CoilCombinationMethod": "Sum of Squares",
  "ConsistencyInfo": "N4_VE11E_LATEST_20181129",
  "ConversionSoftware": "dcm2niix",
  "ConversionSoftwareVersion": "v1.0.20220720",
  "DerivedVendorReportedEchoSpacing": 0.000519999,
  "DeviceSerialNumber": "66112",
  "DwellTime": 2.7e-06,
  "EchoTime": 0.035,
  "EchoTrainLength": 39,
  "EffectiveEchoSpacing": 0.00026,
  "FlipAngle": 90,
  "HeudiconvVersion": "0.13.1",
  "ImageOrientationPatientDICOM": [0.992444, -0.122695, 0.000350524, 0.117288, 0.949537, 0.2909],
  "ImageOrientationText": "Tra>Cor(16.8)>Sag(2.1)",
  "ImageType": [
    "ORIGINAL",
    "PRIMARY",
    "M",
    "ND",
    "NORM",
    "MOSAIC"
],
  "ImagingFrequency": 123.259,
  "InPlanePhaseEncodingDirectionDICOM": "COL",
  "InstitutionAddress": "Maynard 3,Hanover,NH,US,03755",
  "InstitutionName": "Dartmouth College - PBS",
  "InstitutionalDepartmentName": "Department",
  "MRAcquisitionType": "2D",
  "MagneticFieldStrength": 3,
  "Manufacturer": "Siemens",
  "ManufacturersModelName": "Prisma",
  "MatrixCoilMode": "GRAPPA",
  "Modality": "MR",
  "NonlinearGradientCorrection": false,
  "ParallelReductionFactorInPlane": 2,
  "PartialFourier": 1,
  "PatientPosition": "HFS",
  "PercentPhaseFOV": 100,
  "PercentSampling": 100,
  "PhaseEncodingDirection": "j-",
  "PhaseEncodingSteps": 79,
  "PhaseResolution": 1,
  "PixelBandwidth": 2315,
  "ProcedureStepDescription": "dbic^QA",
  "ProtocolName": "func-bold_task-rest_acq-p2",
  "PulseSequenceDetails": "%SiemensSeq%\\ep2d_bold",
  "ReceiveCoilActiveElements": "HC1-7;NC1,2",
  "ReceiveCoilName": "HeadNeck_64",
  "ReconMatrixPE": 80,
  "RefLinesPE": 24,
  "RepetitionTime": 2,
  "SAR": 0.0408381,
  "ScanOptions": "FS",
  "ScanningSequence": "EP",
  "SequenceName": "*epfid2d1_80",
  "SequenceVariant": "SK",
  "SeriesDescription": "func-bold_task-rest_acq-p2",
  "SeriesNumber": 5,
  "ShimSetting": [4217, -7739, -7481, -143, -151, -241, -72, 86],
  "SliceThickness": 3.5,
  "SliceTiming": [0.99, 0, 1.0575, 0.0675, 1.1225, 0.1325, 1.19, 0.2, 1.255, 0.265, 1.32, 0.33, 1.3875, 0.3975, 1.4525, 0.4625, 1.52, 0.53, 1.585, 0.595, 1.65, 0.66, 1.7175, 0.7275, 1.7825, 0.7925, 1.85, 0.86, 1.915, 0.925],
  "SoftwareVersions": "syngo MR E11",
  "SpacingBetweenSlices": 3.99,
  "StationName": "AWP66112",
  "TaskName": "rest",
  "TotalReadoutTime": 0.02054,
  "TxRefAmp": 209.913,
  "dcmmeta_affine": [
    [-2.9773330688476562, 0.3518636226654053, 0.14373941719532013, 105.53778076171875],
    [0.368085652589798, 2.8486111164093018, 1.1517584323883057, -141.6138916015625],
    [0.0010515714529901743, -0.8727009892463684, 3.8174455165863037, -20.659048080444336],
    [0.0, 0.0, 0.0, 1.0]
],
  "dcmmeta_reorient_transform": [
    [0.0, -1.0, 0.0, 79.0],
    [1.0, 0.0, 0.0, 0.0],
    [0.0, 0.0, 1.0, 0.0],
    [0.0, 0.0, 0.0, 1.0]
],
  "dcmmeta_shape": [80, 80, 30, 200],
  "dcmmeta_slice_dim": 2,
  "dcmmeta_version": 0.6,
  "global": {
    "const": {
      "AccessionNumber": "qa64",
      "AcquisitionMatrix": [80, 0, 0, 80],
      "AngioFlag": "N",
      "BitsAllocated": 16,
      "BitsStored": 12,
      "BodyPartExamined": "BRAIN",
      "Columns": 480,
      "EchoNumbers": 1,
      "EchoTime": 35.0,
      "EchoTrainLength": 39,
      "FlipAngle": 90.0,
      "HighBit": 11,
      "ImageOrientationPatient": [0.99244433624042, -0.122695218315, 0.00035052381516, 0.11728787189472, 0.94953701756512, 0.29090033925717],
      "ImagePositionPatient": [-799.17433281475, -579.53145968736, -264.35294608859],
      "ImageType": [
        "ORIGINAL",
        "PRIMARY",
        "M",
        "ND",
        "NORM",
        "MOSAIC"
],
      "ImagedNucleus": "1H",
      "ImagingFrequency": 123.259425,
      "InPlanePhaseEncodingDirection": "COL",
      "MRAcquisitionType": "2D",
      "MagneticFieldStrength": 3.0,
      "Manufacturer": "SIEMENS",
      "ManufacturerModelName": "Prisma",
      "Modality": "MR",
      "NumberOfAverages": 1.0,
      "NumberOfPhaseEncodingSteps": 79,
      "PercentPhaseFieldOfView": 100.0,
      "PercentSampling": 100.0,
      "PerformedProcedureStepStartTime": "082918.302000",
      "PhotometricInterpretation": "MONOCHROME2",
      "PixelBandwidth": 2315.0,
      "PixelRepresentation": 0,
      "PixelSpacing": [3.0, 3.0],
      "ProtocolName": "func-bold_task-rest_acq-p2",
      "RepetitionTime": 2000.0,
      "Rows": 480,
      "SAR": 0.04083812627424,
      "SamplesPerPixel": 1,
      "ScanOptions": "FS",
      "ScanningSequence": "EP",
      "SequenceName": "*epfid2d1_80",
      "SequenceVariant": "SK",
      "SeriesDescription": "func-bold_task-rest_acq-p2",
      "SeriesNumber": 5,
      "SeriesTime": "084047.571000",
      "SliceLocation": -56.84207027672,
      "SliceThickness": 3.5,
      "SmallestImagePixelValue": 0,
      "SoftwareVersions": "syngo MR E11",
      "SpacingBetweenSlices": 3.989999894019,
      "SpecificCharacterSet": "ISO_IR 100",
      "StudyID": "7",
      "StudyTime": "082918.237000",
      "TransmitCoilName": "Body",
      "VariableFlipAngleFlag": "N",
      "WindowCenterWidthExplanation": "Algo1"
    },
    "slices": {}
  },
  "time": {
    "samples": {
      "AcquisitionNumber": [1, 2, 3, 4, 5, 6, 7, 8, 9, 10, 11, 12, 13, 14, 15, 16, 17, 18, 19, 20, 21, 22, 23, 24, 25, 26, 27, 28, 29, 30, 31, 32, 33, 34, 35, 36, 37, 38, 39, 40, 41, 42, 43, 44, 45, 46, 47, 48, 49, 50, 51, 52, 53, 54, 55, 56, 57, 58, 59, 60, 61, 62, 63, 64, 65, 66, 67, 68, 69, 70, 71, 72, 73, 74, 75, 76, 77, 78, 79, 80, 81, 82, 83, 84, 85, 86, 87, 88, 89, 90, 91, 92, 93, 94, 95, 96, 97, 98, 99, 100, 101, 102, 103, 104, 105, 106, 107, 108, 109, 110, 111, 112, 113, 114, 115, 116, 117, 118, 119, 120, 121, 122, 123, 124, 125, 126, 127, 128, 129, 130, 131, 132, 133, 134, 135, 136, 137, 138, 139, 140, 141, 142, 143, 144, 145, 146, 147, 148, 149, 150, 151, 152, 153, 154, 155, 156, 157, 158, 159, 160, 161, 162, 163, 164, 165, 166, 167, 168, 169, 170, 171, 172, 173, 174, 175, 176, 177, 178, 179, 180, 181, 182, 183, 184, 185, 186, 187, 188, 189, 190, 191, 192, 193, 194, 195, 196, 197, 198, 199, 200],
      "AcquisitionTime": ["084000.770000", "084002.770000", "084004.770000", "084006.770000", "084008.770000", "084010.770000", "084012.770000", "084014.770000", "084016.770000", "084018.770000", "084020.770000", "084022.770000", "084024.770000", "084026.770000", "084028.770000", "084030.770000", "084032.770000", "084034.770000", "084036.770000", "084038.770000", "084040.770000", "084042.770000", "084044.770000", "084046.770000", "084048.770000", "084050.770000", "084052.770000", "084054.770000", "084056.770000", "084058.770000", "084100.770000", "084102.770000", "084104.770000", "084106.770000", "084108.770000", "084110.770000", "084112.770000", "084114.770000", "084116.770000", "084118.770000", "084120.770000", "084122.770000", "084124.770000", "084126.770000", "084128.770000", "084130.770000", "084132.770000", "084134.770000", "084136.770000", "084138.770000", "084140.770000", "084142.770000", "084144.770000", "084146.770000", "084148.770000", "084150.770000", "084152.770000", "084154.770000", "084156.770000", "084158.770000", "084200.770000", "084202.770000", "084204.770000", "084206.770000", "084208.770000", "084210.770000", "084212.770000", "084214.770000", "084216.770000", "084218.770000", "084220.770000", "084222.770000", "084224.770000", "084226.770000", "084228.770000", "084230.770000", "084232.770000", "084234.770000", "084236.770000", "084238.770000", "084240.770000", "084242.770000", "084244.770000", "084246.770000", "084248.770000", "084250.770000", "084252.770000", "084254.770000", "084256.770000", "084258.770000", "084300.770000", "084302.770000", "084304.770000", "084306.770000", "084308.770000", "084310.770000", "084312.770000", "084314.770000", "084316.770000", "084318.770000", "084320.770000", "084322.770000", "084324.770000", "084326.770000", "084328.770000", "084330.770000", "084332.770000", "084334.770000", "084336.770000", "084338.770000", "084340.770000", "084342.770000", "084344.770000", "084346.770000", "084348.770000", "084350.770000", "084352.770000", "084354.770000", "084356.770000", "084358.770000", "084400.770000", "084402.770000", "084404.770000", "084406.770000", "084408.770000", "084410.770000", "084412.770000", "084414.770000", "084416.770000", "084418.770000", "084420.770000", "084422.770000", "084424.770000", "084426.770000", "084428.770000", "084430.770000", "084432.770000", "084434.770000", "084436.770000", "084438.770000", "084440.770000", "084442.770000", "084444.770000", "084446.770000", "084448.770000", "084450.770000", "084452.770000", "084454.770000", "084456.770000", "084458.770000", "084500.770000", "084502.770000", "084504.770000", "084506.770000", "084508.770000", "084510.770000", "084512.770000", "084514.770000", "084516.770000", "084518.770000", "084520.770000", "084522.770000", "084524.770000", "084526.770000", "084528.770000", "084530.770000", "084532.770000", "084534.770000", "084536.770000", "084538.770000", "084540.770000", "084542.770000", "084544.770000", "084546.770000", "084548.770000", "084550.770000", "084552.770000", "084554.770000", "084556.770000", "084558.770000", "084600.770000", "084602.770000", "084604.770000", "084606.770000", "084608.770000", "084610.770000", "084612.770000", "084614.770000", "084616.770000", "084618.770000", "084620.770000", "084622.770000", "084624.770000", "084626.770000", "084628.770000", "084630.770000", "084632.770000", "084634.770000", "084636.770000", "084638.770000"],
      "ContentTime": ["084047.574000", "084047.577000", "084047.579000", "084047.582000", "084047.584000", "084047.586000", "084047.589000", "084047.591000", "084047.593000", "084047.596000", "084047.598000", "084047.609000", "084047.612000", "084047.614000", "084047.616000", "084047.619000", "084047.621000", "084047.623000", "084047.626000", "084047.628000", "084047.630000", "084047.633000", "084047.635000", "084127.569000", "084127.572000", "084127.574000", "084127.577000", "084127.579000", "084127.582000", "084127.584000", "084127.586000", "084127.589000", "084127.591000", "084127.594000", "084127.596000", "084127.598000", "084127.601000", "084127.603000", "084127.605000", "084127.608000", "084127.610000", "084127.613000", "084127.615000", "084207.569000", "084207.572000", "084207.574000", "084207.576000", "084207.579000", "084207.581000", "084207.583000", "084207.586000", "084207.588000", "084207.594000", "084207.597000", "084207.599000", "084207.602000", "084207.604000", "084207.606000", "084207.609000", "084207.611000", "084207.613000", "084207.616000", "084207.618000", "084247.569000", "084247.572000", "084247.574000", "084247.576000", "084247.579000", "084247.581000", "084247.584000", "084247.586000", "084247.588000", "084247.591000", "084247.593000", "084247.595000", "084247.598000", "084247.600000", "084247.603000", "084247.605000", "084247.607000", "084247.610000", "084247.612000", "084247.614000", "084327.568000", "084327.571000", "084327.573000", "084327.589000", "084327.592000", "084327.594000", "084327.596000", "084327.599000", "084327.601000", "084327.603000", "084327.606000", "084327.608000", "084327.611000", "084327.613000", "084327.615000", "084327.617000", "084327.620000", "084327.622000", "084327.624000", "084327.627000", "084407.569000", "084407.572000", "084407.574000", "084407.576000", "084407.579000", "084407.581000", "084407.583000", "084407.586000", "084407.588000", "084407.590000", "084407.593000", "084407.595000", "084407.597000", "084407.600000", "084407.602000", "084407.604000", "084407.607000", "084407.609000", "084407.611000", "084407.614000", "084447.569000", "084447.572000", "084447.574000", "084447.576000", "084447.579000", "084447.581000", "084447.583000", "084447.586000", "084447.588000", "084447.590000", "084447.593000", "084447.595000", "084447.597000", "084447.600000", "084447.602000", "084447.604000", "084447.607000", "084447.609000", "084447.611000", "084447.614000", "084527.569000", "084527.572000", "084527.574000", "084527.576000", "084527.579000", "084527.581000", "084527.583000", "084527.586000", "084527.588000", "084527.590000", "084527.593000", "084527.595000", "084527.597000", "084527.600000", "084527.602000", "084527.605000", "084527.607000", "084527.609000", "084527.611000", "084527.614000", "084607.569000", "084607.572000", "084607.574000", "084607.576000", "084607.579000", "084607.581000", "084607.583000", "084607.586000", "084607.588000", "084607.590000", "084607.593000", "084607.601000", "084607.603000", "084607.605000", "084607.608000", "084607.610000", "084607.612000", "084607.615000", "084607.617000", "084607.619000", "084640.461000", "084640.471000", "084640.478000", "084640.486000", "084640.489000", "084640.492000", "084640.495000", "084640.498000", "084640.500000", "084640.503000", "084640.506000", "084640.509000", "084640.512000", "084640.515000", "084640.519000", "084640.522000", "084640.525000"],
      "InstanceCreationTime": ["084047.574000", "084047.577000", "084047.579000", "084047.582000", "084047.584000", "084047.586000", "084047.589000", "084047.591000", "084047.593000", "084047.596000", "084047.598000", "084047.609000", "084047.612000", "084047.614000", "084047.616000", "084047.619000", "084047.621000", "084047.623000", "084047.626000", "084047.628000", "084047.630000", "084047.633000", "084047.635000", "084127.569000", "084127.572000", "084127.574000", "084127.577000", "084127.579000", "084127.582000", "084127.584000", "084127.586000", "084127.589000", "084127.591000", "084127.594000", "084127.596000", "084127.598000", "084127.601000", "084127.603000", "084127.605000", "084127.608000", "084127.610000", "084127.613000", "084127.615000", "084207.569000", "084207.572000", "084207.574000", "084207.576000", "084207.579000", "084207.581000", "084207.583000", "084207.586000", "084207.588000", "084207.594000", "084207.597000", "084207.599000", "084207.602000", "084207.604000", "084207.606000", "084207.609000", "084207.611000", "084207.613000", "084207.616000", "084207.618000", "084247.569000", "084247.572000", "084247.574000", "084247.576000", "084247.579000", "084247.581000", "084247.584000", "084247.586000", "084247.588000", "084247.591000", "084247.593000", "084247.595000", "084247.598000", "084247.600000", "084247.603000", "084247.605000", "084247.607000", "084247.610000", "084247.612000", "084247.614000", "084327.568000", "084327.571000", "084327.573000", "084327.589000", "084327.592000", "084327.594000", "084327.596000", "084327.599000", "084327.601000", "084327.603000", "084327.606000", "084327.608000", "084327.611000", "084327.613000", "084327.615000", "084327.617000", "084327.620000", "084327.622000", "084327.624000", "084327.627000", "084407.569000", "084407.572000", "084407.574000", "084407.576000", "084407.579000", "084407.581000", "084407.583000", "084407.586000", "084407.588000", "084407.590000", "084407.593000", "084407.595000", "084407.597000", "084407.600000", "084407.602000", "084407.604000", "084407.607000", "084407.609000", "084407.611000", "084407.614000", "084447.569000", "084447.572000", "084447.574000", "084447.576000", "084447.579000", "084447.581000", "084447.583000", "084447.586000", "084447.588000", "084447.590000", "084447.593000", "084447.595000", "084447.597000", "084447.600000", "084447.602000", "084447.604000", "084447.607000", "084447.609000", "084447.611000", "084447.614000", "084527.569000", "084527.572000", "084527.574000", "084527.576000", "084527.579000", "084527.581000", "084527.583000", "084527.586000", "084527.588000", "084527.590000", "084527.593000", "084527.595000", "084527.597000", "084527.600000", "084527.602000", "084527.605000", "084527.607000", "084527.609000", "084527.611000", "084527.614000", "084607.569000", "084607.572000", "084607.574000", "084607.576000", "084607.579000", "084607.581000", "084607.583000", "084607.586000", "084607.588000", "084607.590000", "084607.593000", "084607.601000", "084607.603000", "084607.605000", "084607.608000", "084607.610000", "084607.612000", "084607.615000", "084607.617000", "084607.619000", "084640.461000", "084640.471000", "084640.478000", "084640.486000", "084640.489000", "084640.492000", "084640.495000", "084640.498000", "084640.500000", "084640.503000", "084640.506000", "084640.509000", "084640.512000", "084640.515000", "084640.519000", "084640.522000", "084640.525000"],
      "InstanceNumber": [1, 2, 3, 4, 5, 6, 7, 8, 9, 10, 11, 12, 13, 14, 15, 16, 17, 18, 19, 20, 21, 22, 23, 24, 25, 26, 27, 28, 29, 30, 31, 32, 33, 34, 35, 36, 37, 38, 39, 40, 41, 42, 43, 44, 45, 46, 47, 48, 49, 50, 51, 52, 53, 54, 55, 56, 57, 58, 59, 60, 61, 62, 63, 64, 65, 66, 67, 68, 69, 70, 71, 72, 73, 74, 75, 76, 77, 78, 79, 80, 81, 82, 83, 84, 85, 86, 87, 88, 89, 90, 91, 92, 93, 94, 95, 96, 97, 98, 99, 100, 101, 102, 103, 104, 105, 106, 107, 108, 109, 110, 111, 112, 113, 114, 115, 116, 117, 118, 119, 120, 121, 122, 123, 124, 125, 126, 127, 128, 129, 130, 131, 132, 133, 134, 135, 136, 137, 138, 139, 140, 141, 142, 143, 144, 145, 146, 147, 148, 149, 150, 151, 152, 153, 154, 155, 156, 157, 158, 159, 160, 161, 162, 163, 164, 165, 166, 167, 168, 169, 170, 171, 172, 173, 174, 175, 176, 177, 178, 179, 180, 181, 182, 183, 184, 185, 186, 187, 188, 189, 190, 191, 192, 193, 194, 195, 196, 197, 198, 199, 200],
      "LargestImagePixelValue": [4021, 4031, 4048, 4052, 4026, 4055, 4036, 4019, 4027, 4025, 4037, 4028, 4027, 4025, 4034, 4023, 4033, 4027, 4018, 4035, 4015, 4025, 4024, 4034, 4022, 4028, 4028, 4029, 4019, 4042, 4021, 4021, 4024, 4041, 4008, 4015, 4024, 4033, 4015, 4036, 4025, 4017, 4020, 4010, 4029, 4030, 4011, 4027, 4019, 4027, 4019, 4028, 4011, 4017, 4030, 4028, 4031, 4023, 4038, 4022, 4016, 4023, 4018, 4017, 4005, 4010, 4011, 4018, 4013, 4023, 4002, 4017, 4013, 4028, 4023, 3996, 4026, 4023, 4027, 4009, 4006, 4023, 4017, 4016, 4027, 4027, 4015, 4014, 4017, 4023, 4017, 4037, 4018, 4019, 4021, 4015, 4038, 4023, 4017, 4008, 4013, 4031, 4012, 4001, 4016, 4023, 4015, 4016, 4006, 4005, 4006, 4009, 4017, 4015, 4018, 4021, 4031, 4015, 4026, 4007, 4016, 4013, 4008, 4000, 4014, 4005, 4010, 4013, 4007, 4019, 4020, 4021, 4005, 4021, 4025, 4011, 4015, 4008, 4000, 4011, 4012, 4007, 3998, 4001, 4024, 4016, 4014, 4018, 4012, 4009, 4023, 4004, 4021, 3998, 4016, 4009, 4008, 4004, 4017, 4022, 4013, 4009, 4003, 3999, 4010, 4012, 4010, 4015, 4016, 4009, 4015, 4020, 4013, 3999, 4005, 3992, 4006, 3994, 4006, 4012, 3988, 4015, 4019, 3994, 4001, 4007, 4000, 3999, 4000, 4004, 4013, 3990, 4006, 3999, 4011, 4003, 3989, 4005, 3987, 4014],
      "WindowCenter": [1499.0, 1499.0, 1499.0, 1499.0, 1499.0, 1499.0, 1499.0, 1498.0, 1498.0, 1499.0, 1499.0, 1498.0, 1498.0, 1499.0, 1498.0, 1498.0, 1499.0, 1498.0, 1497.0, 1498.0, 1498.0, 1498.0, 1498.0, 1498.0, 1498.0, 1498.0, 1498.0, 1497.0, 1497.0, 1497.0, 1498.0, 1498.0, 1497.0, 1497.0, 1498.0, 1497.0, 1497.0, 1497.0, 1498.0, 1498.0, 1497.0, 1497.0, 1497.0, 1497.0, 1497.0, 1498.0, 1497.0, 1497.0, 1497.0, 1497.0, 1497.0, 1497.0, 1497.0, 1497.0, 1497.0, 1497.0, 1497.0, 1497.0, 1497.0, 1497.0, 1496.0, 1496.0, 1496.0, 1496.0, 1496.0, 1496.0, 1497.0, 1496.0, 1496.0, 1497.0, 1497.0, 1496.0, 1496.0, 1496.0, 1497.0, 1496.0, 1496.0, 1496.0, 1496.0, 1496.0, 1496.0, 1496.0, 1496.0, 1496.0, 1496.0, 1496.0, 1495.0, 1496.0, 1496.0, 1496.0, 1495.0, 1496.0, 1496.0, 1496.0, 1496.0, 1496.0, 1495.0, 1495.0, 1496.0, 1496.0, 1495.0, 1495.0, 1495.0, 1495.0, 1495.0, 1495.0, 1495.0, 1495.0, 1495.0, 1495.0, 1495.0, 1495.0, 1494.0, 1495.0, 1495.0, 1495.0, 1494.0, 1494.0, 1495.0, 1495.0, 1495.0, 1494.0, 1495.0, 1495.0, 1494.0, 1495.0, 1495.0, 1495.0, 1494.0, 1495.0, 1495.0, 1495.0, 1495.0, 1494.0, 1494.0, 1494.0, 1494.0, 1494.0, 1494.0, 1495.0, 1495.0, 1495.0, 1494.0, 1494.0, 1494.0, 1494.0, 1494.0, 1494.0, 1494.0, 1494.0, 1493.0, 1494.0, 1494.0, 1494.0, 1494.0, 1494.0, 1494.0, 1493.0, 1494.0, 1494.0, 1494.0, 1493.0, 1494.0, 1494.0, 1494.0, 1494.0, 1494.0, 1494.0, 1494.0, 1494.0, 1493.0, 1493.0, 1494.0, 1494.0, 1494.0, 1494.0, 1494.0, 1494.0, 1493.0, 1494.0, 1493.0, 1493.0, 1494.0, 1494.0, 1494.0, 1494.0, 1494.0, 1494.0, 1494.0, 1493.0, 1494.0, 1493.0, 1494.0, 1493.0, 1494.0, 1493.0, 1493.0, 1493.0, 1493.0, 1493.0],
      "WindowWidth": [3399.0, 3398.0, 3397.0, 3397.0, 3397.0, 3397.0, 3397.0, 3397.0, 3397.0, 3397.0, 3397.0, 3397.0, 3397.0, 3397.0, 3397.0, 3397.0, 3397.0, 3397.0, 3397.0, 3397.0, 3397.0, 3397.0, 3397.0, 3397.0, 3397.0, 3397.0, 3397.0, 3397.0, 3397.0, 3397.0, 3396.0, 3397.0, 3397.0, 3397.0, 3397.0, 3397.0, 3397.0, 3397.0, 3397.0, 3396.0, 3397.0, 3397.0, 3397.0, 3396.0, 3397.0, 3396.0, 3396.0, 3396.0, 3396.0, 3396.0, 3396.0, 3396.0, 3396.0, 3396.0, 3396.0, 3396.0, 3396.0, 3396.0, 3396.0, 3396.0, 3396.0, 3396.0, 3396.0, 3396.0, 3396.0, 3396.0, 3396.0, 3396.0, 3396.0, 3396.0, 3396.0, 3396.0, 3396.0, 3396.0, 3396.0, 3396.0, 3396.0, 3396.0, 3396.0, 3396.0, 3395.0, 3395.0, 3395.0, 3395.0, 3395.0, 3395.0, 3396.0, 3395.0, 3395.0, 3395.0, 3396.0, 3395.0, 3395.0, 3395.0, 3395.0, 3395.0, 3396.0, 3396.0, 3395.0, 3395.0, 3395.0, 3395.0, 3395.0, 3395.0, 3395.0, 3395.0, 3395.0, 3395.0, 3395.0, 3395.0, 3395.0, 3395.0, 3395.0, 3395.0, 3395.0, 3395.0, 3395.0, 3395.0, 3395.0, 3395.0, 3395.0, 3395.0, 3395.0, 3395.0, 3395.0, 3395.0, 3395.0, 3395.0, 3395.0, 3395.0, 3395.0, 3395.0, 3395.0, 3395.0, 3395.0, 3395.0, 3395.0, 3395.0, 3395.0, 3394.0, 3394.0, 3395.0, 3394.0, 3395.0, 3395.0, 3395.0, 3394.0, 3395.0, 3394.0, 3394.0, 3395.0, 3394.0, 3394.0, 3394.0, 3394.0, 3394.0, 3395.0, 3395.0, 3394.0, 3395.0, 3394.0, 3395.0, 3394.0, 3394.0, 3394.0, 3394.0, 3394.0, 3394.0, 3394.0, 3394.0, 3394.0, 3394.0, 3394.0, 3394.0, 3394.0, 3394.0, 3394.0, 3394.0, 3394.0, 3394.0, 3394.0, 3394.0, 3394.0, 3394.0, 3394.0, 3394.0, 3394.0, 3394.0, 3394.0, 3394.0, 3393.0, 3393.0, 3394.0, 3393.0, 3393.0, 3393.0, 3393.0, 3393.0, 3393.0, 3393.0]
    },
    "slices": {}
  }
}