{
  "AcquisitionMatrixPE": 80,
  "AcquisitionNumber": 1,
  "AcquisitionTime": "09:35:47.507500",
  "BandwidthPerPixelPhaseEncode": 25,
  "BaseResolution": 80,
  "BodyPartExamined": "BRAIN",
  "CoilCombinationMethod": "Sum of Squares",
  "ConsistencyInfo": "N4_VE11E_LATEST_20181129",
  "ConversionSoftware": "dcm2niix",
  "ConversionSoftwareVersion": "v1.0.20220720",
  "DerivedVendorReportedEchoSpacing": 0.0005,
  "DeviceSerialNumber": "66112",
  "DwellTime": 2.7e-06,
  "EchoTime": 0.03,
  "EchoTrainLength": 80,
  "EffectiveEchoSpacing": 0.0005,
  "FlipAngle": 10,
  "HeudiconvVersion": "0.13.1",
  "ImageOrientationPatientDICOM": [0.988571, 0.150501, 0.0088241, -0.145627, 0.938137, 0.314153],
  "ImageOrientationText": "Tra>Cor(18.2)>Sag(-2.2)",
  "ImageType": [
    "ORIGINAL",
    "PRIMARY",
    "M",
    "ND",
    "NORM",
    "MOSAIC"
],
  "ImagingFrequency": 123.252,
  "InPlanePhaseEncodingDirectionDICOM": "COL",
  "InstitutionAddress": "Maynard 3,Hanover,NH,US,03755",
  "InstitutionName": "Dartmouth College - PBS",
  "InstitutionalDepartmentName": "Department",
  "MRAcquisitionType": "2D",
  "MagneticFieldStrength": 3,
  "Manufacturer": "Siemens",
  "ManufacturersModelName": "Prisma",
  "MatrixCoilMode": "SENSE",
  "Modality": "MR",
  "NonlinearGradientCorrection": false,
  "PartialFourier": 1,
  "PatientPosition": "HFS",
  "PercentPhaseFOV": 100,
  "PercentSampling": 100,
  "PhaseEncodingDirection": "j-",
  "PhaseEncodingSteps": 80,
  "PhaseResolution": 1,
  "PixelBandwidth": 2315,
  "ProcedureStepDescription": "dbic^QA",
  "ProtocolName": "func-bold_fa-10",
  "PulseSequenceDetails": "%SiemensSeq%\\ep2d_bold",
  "ReceiveCoilActiveElements": "HC1-7;NC1,2",
  "ReceiveCoilName": "HeadNeck_64",
  "ReconMatrixPE": 80,
  "RepetitionTime": 2,
  "SAR": 0.00864976,
  "ScanOptions": "FS",
  "ScanningSequence": "EP",
  "SequenceName": "*epfid2d1_80",
  "SequenceVariant": "SK",
  "SeriesDescription": "func-bold_fa-10",
  "SeriesNumber": 9,
  "ShimSetting": [4140, -7702, -7518, 178, -79, -251, -69, 77],
  "SliceThickness": 3.5,
  "SliceTiming": [0.99, 0, 1.055, 0.065, 1.12, 0.13, 1.1875, 0.1975, 1.2525, 0.2625, 1.32, 0.33, 1.385, 0.395, 1.45, 0.46, 1.5175, 0.5275, 1.5825, 0.5925, 1.6475, 0.66, 1.715, 0.725, 1.78, 0.79, 1.8475, 0.8575, 1.9125, 0.9225],
  "SoftwareVersions": "syngo MR E11",
  "SpacingBetweenSlices": 3.99,
  "StationName": "AWP66112",
  "TotalReadoutTime": 0.0395,
  "TxRefAmp": 211.843,
  "dcmmeta_affine": [
    [-2.9657115936279297, -0.43688035011291504, -0.1556183099746704, 138.65333557128906],
    [-0.4515020549297333, 2.8144102096557617, 1.2442725896835327, -101.54896545410156],
    [0.026472296565771103, -0.9424600005149841, 3.7878315448760986, -18.741487503051758],
    [0.0, 0.0, 0.0, 1.0]
],
  "dcmmeta_reorient_transform": [
    [0.0, -1.0, 0.0, 79.0],
    [1.0, 0.0, 0.0, 0.0],
    [0.0, 0.0, 1.0, 0.0],
    [0.0, 0.0, 0.0, 1.0]
],
  "dcmmeta_shape": [80, 80, 30, 200],
  "dcmmeta_slice_dim": 2,
  "dcmmeta_version": 0.6,
  "global": {
    "const": {
      "AccessionNumber": "qa64",
      "AcquisitionMatrix": [80, 0, 0, 80],
      "AngioFlag": "N",
      "BitsAllocated": 16,
      "BitsStored": 12,
      "BodyPartExamined": "BRAIN",
      "Columns": 480,
      "EchoNumbers": 1,
      "EchoTime": 30.0,
      "EchoTrainLength": 80,
      "FlipAngle": 10.0,
      "HighBit": 11,
      "ImageOrientationPatient": [0.9885705229981, 0.15050068551548, 0.00882409874341, -0.1456267785968, 0.9381367273348, 0.31415334182698],
      "ImagePositionPatient": [-609.9060355712, -773.97188372437, -286.98229480834],
      "ImageType": [
        "ORIGINAL",
        "PRIMARY",
        "M",
        "ND",
        "NORM",
        "MOSAIC"
],
      "ImagedNucleus": "1H",
      "ImagingFrequency": 123.25236,
      "InPlanePhaseEncodingDirection": "COL",
      "MRAcquisitionType": "2D",
      "MagneticFieldStrength": 3.0,
      "Manufacturer": "SIEMENS",
      "ManufacturerModelName": "Prisma",
      "Modality": "MR",
      "NumberOfAverages": 1.0,
      "NumberOfPhaseEncodingSteps": 80,
      "PercentPhaseFieldOfView": 100.0,
      "PercentSampling": 100.0,
      "PerformedProcedureStepStartTime": "090637.221000",
      "PhotometricInterpretation": "MONOCHROME2",
      "PixelBandwidth": 2315.0,
      "PixelRepresentation": 0,
      "PixelSpacing": [3.0, 3.0],
      "ProtocolName": "func-bold_fa-10",
      "RepetitionTime": 2000.0,
      "Rows": 480,
      "SAR": 0.00864975945139,
      "SamplesPerPixel": 1,
      "ScanOptions": "FS",
      "ScanningSequence": "EP",
      "SequenceName": "*epfid2d1_80",
      "SequenceVariant": "SK",
      "SeriesDescription": "func-bold_fa-10",
      "SeriesNumber": 9,
      "SeriesTime": "093630.510000",
      "SliceLocation": -54.867467517642,
      "SliceThickness": 3.5,
      "SmallestImagePixelValue": 0,
      "SoftwareVersions": "syngo MR E11",
      "SpacingBetweenSlices": 3.989999980685,
      "SpecificCharacterSet": "ISO_IR 100",
      "StudyID": "1",
      "StudyTime": "090637.148000",
      "TransmitCoilName": "Body",
      "VariableFlipAngleFlag": "N",
      "WindowCenterWidthExplanation": "Algo1"
    },
    "slices": {}
  },
  "time": {
    "samples": {
      "AcquisitionNumber": [1, 2, 3, 4, 5, 6, 7, 8, 9, 10, 11, 12, 13, 14, 15, 16, 17, 18, 19, 20, 21, 22, 23, 24, 25, 26, 27, 28, 29, 30, 31, 32, 33, 34, 35, 36, 37, 38, 39, 40, 41, 42, 43, 44, 45, 46, 47, 48, 49, 50, 51, 52, 53, 54, 55, 56, 57, 58, 59, 60, 61, 62, 63, 64, 65, 66, 67, 68, 69, 70, 71, 72, 73, 74, 75, 76, 77, 78, 79, 80, 81, 82, 83, 84, 85, 86, 87, 88, 89, 90, 91, 92, 93, 94, 95, 96, 97, 98, 99, 100, 101, 102, 103, 104, 105, 106, 107, 108, 109, 110, 111, 112, 113, 114, 115, 116, 117, 118, 119, 120, 121, 122, 123, 124, 125, 126, 127, 128, 129, 130, 131, 132, 133, 134, 135, 136, 137, 138, 139, 140, 141, 142, 143, 144, 145, 146, 147, 148, 149, 150, 151, 152, 153, 154, 155, 156, 157, 158, 159, 160, 161, 162, 163, 164, 165, 166, 167, 168, 169, 170, 171, 172, 173, 174, 175, 176, 177, 178, 179, 180, 181, 182, 183, 184, 185, 186, 187, 188, 189, 190, 191, 192, 193, 194, 195, 196, 197, 198, 199, 200],
      "AcquisitionTime": ["093547.507500", "093549.507500", "093551.507500", "093553.507500", "093555.507500", "093557.507500", "093559.507500", "093601.507500", "093603.507500", "093605.507500", "093607.507500", "093609.507500", "093611.507500", "093613.507500", "093615.507500", "093617.507500", "093619.507500", "093621.507500", "093623.507500", "093625.507500", "093627.507500", "093629.507500", "093631.507500", "093633.507500", "093635.507500", "093637.507500", "093639.507500", "093641.507500", "093643.507500", "093645.507500", "093647.507500", "093649.507500", "093651.507500", "093653.507500", "093655.507500", "093657.507500", "093659.507500", "093701.507500", "093703.507500", "093705.507500", "093707.507500", "093709.507500", "093711.507500", "093713.507500", "093715.507500", "093717.507500", "093719.507500", "093721.507500", "093723.507500", "093725.507500", "093727.507500", "093729.507500", "093731.507500", "093733.507500", "093735.507500", "093737.507500", "093739.507500", "093741.507500", "093743.507500", "093745.507500", "093747.507500", "093749.507500", "093751.507500", "093753.507500", "093755.507500", "093757.507500", "093759.507500", "093801.507500", "093803.507500", "093805.507500", "093807.507500", "093809.507500", "093811.507500", "093813.507500", "093815.507500", "093817.507500", "093819.507500", "093821.507500", "093823.507500", "093825.507500", "093827.507500", "093829.507500", "093831.507500", "093833.507500", "093835.507500", "093837.507500", "093839.507500", "093841.507500", "093843.507500", "093845.507500", "093847.507500", "093849.507500", "093851.507500", "093853.507500", "093855.507500", "093857.507500", "093859.507500", "093901.507500", "093903.507500", "093905.507500", "093907.507500", "093909.507500", "093911.507500", "093913.507500", "093915.507500", "093917.507500", "093919.507500", "093921.507500", "093923.507500", "093925.507500", "093927.507500", "093929.507500", "093931.507500", "093933.507500", "093935.507500", "093937.507500", "093939.507500", "093941.507500", "093943.507500", "093945.507500", "093947.507500", "093949.507500", "093951.507500", "093953.507500", "093955.507500", "093957.507500", "093959.507500", "094001.507500", "094003.507500", "094005.507500", "094007.507500", "094009.507500", "094011.507500", "094013.507500", "094015.507500", "094017.507500", "094019.507500", "094021.507500", "094023.507500", "094025.507500", "094027.507500", "094029.507500", "094031.507500", "094033.507500", "094035.507500", "094037.507500", "094039.507500", "094041.507500", "094043.507500", "094045.507500", "094047.507500", "094049.507500", "094051.507500", "094053.507500", "094055.507500", "094057.507500", "094059.507500", "094101.507500", "094103.507500", "094105.507500", "094107.507500", "094109.507500", "094111.507500", "094113.507500", "094115.507500", "094117.507500", "094119.507500", "094121.507500", "094123.507500", "094125.507500", "094127.507500", "094129.507500", "094131.507500", "094133.507500", "094135.507500", "094137.507500", "094139.507500", "094141.507500", "094143.507500", "094145.507500", "094147.507500", "094149.507500", "094151.507500", "094153.507500", "094155.507500", "094157.507500", "094159.507500", "094201.507500", "094203.507500", "094205.507500", "094207.507500", "094209.507500", "094211.507500", "094213.507500", "094215.507500", "094217.507500", "094219.507500", "094221.507500", "094223.507500", "094225.507500"],
      "ContentTime": ["093630.514000", "093630.517000", "093630.519000", "093630.521000", "093630.523000", "093630.526000", "093630.528000", "093630.530000", "093630.533000", "093630.535000", "093630.537000", "093630.539000", "093630.542000", "093630.544000", "093630.546000", "093630.548000", "093630.551000", "093630.553000", "093630.555000", "093630.557000", "093630.560000", "093710.510000", "093710.513000", "093710.515000", "093710.518000", "093710.520000", "093710.522000", "093710.524000", "093710.527000", "093710.529000", "093710.531000", "093710.534000", "093710.536000", "093710.538000", "093710.540000", "093710.543000", "093710.545000", "093710.547000", "093710.549000", "093710.552000", "093710.554000", "093750.509000", "093750.512000", "093750.514000", "093750.516000", "093750.519000", "093750.521000", "093750.523000", "093750.526000", "093750.528000", "093750.530000", "093750.532000", "093750.535000", "093750.537000", "093750.539000", "093750.541000", "093750.544000", "093750.546000", "093750.548000", "093750.551000", "093750.553000", "093830.509000", "093830.512000", "093830.514000", "093830.516000", "093830.519000", "093830.521000", "093830.523000", "093830.525000", "093830.528000", "093830.530000", "093830.532000", "093830.534000", "093830.537000", "093830.539000", "093830.541000", "093830.544000", "093830.546000", "093830.548000", "093830.550000", "093830.553000", "093910.509000", "093910.512000", "093910.514000", "093910.516000", "093910.518000", "093910.521000", "093910.523000", "093910.525000", "093910.528000", "093910.530000", "093910.532000", "093910.534000", "093910.537000", "093910.539000", "093910.541000", "093910.544000", "093910.546000", "093910.548000", "093910.550000", "093910.553000", "093950.509000", "093950.512000", "093950.514000", "093950.516000", "093950.518000", "093950.521000", "093950.523000", "093950.525000", "093950.528000", "093950.530000", "093950.532000", "093950.534000", "093950.537000", "093950.539000", "093950.541000", "093950.544000", "093950.546000", "093950.548000", "093950.550000", "093950.553000", "094010.509000", "094010.512000", "094010.514000", "094010.516000", "094010.519000", "094010.521000", "094010.523000", "094010.526000", "094010.528000", "094010.530000", "094050.510000", "094050.512000", "094050.514000", "094050.517000", "094050.519000", "094050.521000", "094050.524000", "094050.526000", "094050.528000", "094050.530000", "094050.533000", "094050.535000", "094050.537000", "094050.539000", "094050.542000", "094050.544000", "094050.546000", "094050.549000", "094050.551000", "094050.553000", "094130.509000", "094130.512000", "094130.514000", "094130.516000", "094130.519000", "094130.521000", "094130.523000", "094130.525000", "094130.528000", "094130.530000", "094130.532000", "094130.535000", "094130.537000", "094130.539000", "094130.542000", "094130.544000", "094130.546000", "094130.548000", "094130.551000", "094130.553000", "094210.509000", "094210.512000", "094210.514000", "094210.516000", "094210.519000", "094210.521000", "094210.523000", "094210.526000", "094210.528000", "094210.530000", "094210.533000", "094210.535000", "094210.553000", "094210.555000", "094210.557000", "094210.560000", "094210.562000", "094210.564000", "094210.567000", "094210.569000", "094227.181000", "094227.183000", "094227.186000", "094227.188000", "094227.190000", "094227.193000", "094227.195000", "094227.197000", "094227.200000"],
      "InstanceCreationTime": ["093630.514000", "093630.517000", "093630.519000", "093630.521000", "093630.523000", "093630.526000", "093630.528000", "093630.530000", "093630.533000", "093630.535000", "093630.537000", "093630.539000", "093630.542000", "093630.544000", "093630.546000", "093630.548000", "093630.551000", "093630.553000", "093630.555000", "093630.557000", "093630.560000", "093710.510000", "093710.513000", "093710.515000", "093710.518000", "093710.520000", "093710.522000", "093710.524000", "093710.527000", "093710.529000", "093710.531000", "093710.534000", "093710.536000", "093710.538000", "093710.540000", "093710.543000", "093710.545000", "093710.547000", "093710.549000", "093710.552000", "093710.554000", "093750.509000", "093750.512000", "093750.514000", "093750.516000", "093750.519000", "093750.521000", "093750.523000", "093750.526000", "093750.528000", "093750.530000", "093750.532000", "093750.535000", "093750.537000", "093750.539000", "093750.541000", "093750.544000", "093750.546000", "093750.548000", "093750.551000", "093750.553000", "093830.509000", "093830.512000", "093830.514000", "093830.516000", "093830.519000", "093830.521000", "093830.523000", "093830.525000", "093830.528000", "093830.530000", "093830.532000", "093830.534000", "093830.537000", "093830.539000", "093830.541000", "093830.544000", "093830.546000", "093830.548000", "093830.550000", "093830.553000", "093910.509000", "093910.512000", "093910.514000", "093910.516000", "093910.518000", "093910.521000", "093910.523000", "093910.525000", "093910.528000", "093910.530000", "093910.532000", "093910.534000", "093910.537000", "093910.539000", "093910.541000", "093910.544000", "093910.546000", "093910.548000", "093910.550000", "093910.553000", "093950.509000", "093950.512000", "093950.514000", "093950.516000", "093950.518000", "093950.521000", "093950.523000", "093950.525000", "093950.528000", "093950.530000", "093950.532000", "093950.534000", "093950.537000", "093950.539000", "093950.541000", "093950.544000", "093950.546000", "093950.548000", "093950.550000", "093950.553000", "094010.509000", "094010.512000", "094010.514000", "094010.516000", "094010.519000", "094010.521000", "094010.523000", "094010.526000", "094010.528000", "094010.530000", "094050.510000", "094050.512000", "094050.514000", "094050.517000", "094050.519000", "094050.521000", "094050.524000", "094050.526000", "094050.528000", "094050.530000", "094050.533000", "094050.535000", "094050.537000", "094050.539000", "094050.542000", "094050.544000", "094050.546000", "094050.549000", "094050.551000", "094050.553000", "094130.509000", "094130.512000", "094130.514000", "094130.516000", "094130.519000", "094130.521000", "094130.523000", "094130.525000", "094130.528000", "094130.530000", "094130.532000", "094130.535000", "094130.537000", "094130.539000", "094130.542000", "094130.544000", "094130.546000", "094130.548000", "094130.551000", "094130.553000", "094210.509000", "094210.512000", "094210.514000", "094210.516000", "094210.519000", "094210.521000", "094210.523000", "094210.526000", "094210.528000", "094210.530000", "094210.533000", "094210.535000", "094210.553000", "094210.555000", "094210.557000", "094210.560000", "094210.562000", "094210.564000", "094210.567000", "094210.569000", "094227.181000", "094227.183000", "094227.186000", "094227.188000", "094227.190000", "094227.193000", "094227.195000", "094227.197000", "094227.200000"],
      "InstanceNumber": [1, 2, 3, 4, 5, 6, 7, 8, 9, 10, 11, 12, 13, 14, 15, 16, 17, 18, 19, 20, 21, 22, 23, 24, 25, 26, 27, 28, 29, 30, 31, 32, 33, 34, 35, 36, 37, 38, 39, 40, 41, 42, 43, 44, 45, 46, 47, 48, 49, 50, 51, 52, 53, 54, 55, 56, 57, 58, 59, 60, 61, 62, 63, 64, 65, 66, 67, 68, 69, 70, 71, 72, 73, 74, 75, 76, 77, 78, 79, 80, 81, 82, 83, 84, 85, 86, 87, 88, 89, 90, 91, 92, 93, 94, 95, 96, 97, 98, 99, 100, 101, 102, 103, 104, 105, 106, 107, 108, 109, 110, 111, 112, 113, 114, 115, 116, 117, 118, 119, 120, 121, 122, 123, 124, 125, 126, 127, 128, 129, 130, 131, 132, 133, 134, 135, 136, 137, 138, 139, 140, 141, 142, 143, 144, 145, 146, 147, 148, 149, 150, 151, 152, 153, 154, 155, 156, 157, 158, 159, 160, 161, 162, 163, 164, 165, 166, 167, 168, 169, 170, 171, 172, 173, 174, 175, 176, 177, 178, 179, 180, 181, 182, 183, 184, 185, 186, 187, 188, 189, 190, 191, 192, 193, 194, 195, 196, 197, 198, 199, 200],
      "LargestImagePixelValue": [613, 615, 615, 613, 613, 615, 616, 614, 615, 614, 614, 613, 616, 612, 616, 612, 615, 613, 619, 613, 614, 614, 616, 615, 613, 616, 614, 617, 614, 614, 612, 617, 616, 614, 613, 612, 613, 616, 614, 613, 613, 616, 612, 616, 616, 614, 614, 612, 614, 614, 616, 614, 614, 612, 614, 614, 614, 616, 616, 614, 614, 613, 614, 616, 616, 615, 613, 612, 614, 614, 615, 617, 613, 613, 614, 612, 616, 617, 615, 616, 615, 614, 613, 613, 615, 614, 614, 612, 612, 614, 614, 615, 614, 615, 614, 613, 613, 614, 616, 611, 615, 614, 614, 614, 614, 614, 616, 613, 617, 614, 615, 616, 617, 614, 614, 610, 614, 616, 613, 616, 615, 616, 613, 616, 612, 615, 614, 614, 616, 615, 613, 614, 614, 614, 611, 614, 615, 612, 614, 615, 616, 614, 615, 612, 613, 612, 615, 613, 619, 613, 617, 614, 612, 612, 614, 614, 615, 616, 611, 617, 614, 611, 613, 614, 611, 613, 615, 612, 612, 614, 612, 614, 613, 615, 611, 613, 611, 611, 612, 615, 613, 616, 614, 612, 612, 614, 613, 617, 614, 612, 614, 614, 615, 612, 613, 613, 614, 613, 619, 613],
      "WindowCenter": [446.0, 446.0, 446.0, 447.0, 446.0, 446.0, 446.0, 446.0, 446.0, 446.0, 446.0, 446.0, 446.0, 446.0, 446.0, 446.0, 446.0, 446.0, 446.0, 446.0, 446.0, 446.0, 446.0, 446.0, 446.0, 446.0, 446.0, 446.0, 446.0, 446.0, 446.0, 446.0, 446.0, 446.0, 446.0, 446.0, 446.0, 446.0, 446.0, 446.0, 446.0, 446.0, 446.0, 446.0, 446.0, 446.0, 446.0, 446.0, 445.0, 446.0, 445.0, 446.0, 445.0, 445.0, 445.0, 445.0, 445.0, 445.0, 445.0, 445.0, 445.0, 445.0, 445.0, 445.0, 446.0, 445.0, 446.0, 445.0, 446.0, 445.0, 446.0, 445.0, 445.0, 445.0, 445.0, 445.0, 445.0, 445.0, 445.0, 445.0, 445.0, 445.0, 445.0, 445.0, 445.0, 445.0, 445.0, 445.0, 445.0, 445.0, 445.0, 445.0, 445.0, 445.0, 445.0, 445.0, 445.0, 445.0, 445.0, 445.0, 445.0, 445.0, 445.0, 445.0, 445.0, 445.0, 445.0, 445.0, 445.0, 445.0, 445.0, 445.0, 445.0, 445.0, 445.0, 445.0, 445.0, 445.0, 445.0, 445.0, 445.0, 445.0, 445.0, 445.0, 445.0, 445.0, 445.0, 445.0, 445.0, 445.0, 445.0, 445.0, 445.0, 445.0, 445.0, 445.0, 445.0, 445.0, 445.0, 445.0, 445.0, 445.0, 445.0, 445.0, 445.0, 445.0, 445.0, 445.0, 445.0, 445.0, 445.0, 445.0, 445.0, 445.0, 445.0, 445.0, 445.0, 445.0, 445.0, 445.0, 445.0, 445.0, 445.0, 445.0, 445.0, 445.0, 445.0, 445.0, 445.0, 445.0, 445.0, 445.0, 445.0, 445.0, 445.0, 445.0, 445.0, 445.0, 445.0, 445.0, 445.0, 445.0, 445.0, 445.0, 445.0, 445.0, 445.0, 445.0, 445.0, 445.0, 445.0, 445.0, 445.0, 445.0, 445.0, 445.0, 445.0, 445.0, 445.0, 445.0],
      "WindowWidth": [929.0, 930.0, 929.0, 930.0, 929.0, 929.0, 929.0, 929.0, 929.0, 930.0, 929.0, 929.0, 929.0, 929.0, 929.0, 929.0, 929.0, 929.0, 929.0, 929.0, 929.0, 929.0, 929.0, 929.0, 929.0, 929.0, 929.0, 929.0, 929.0, 929.0, 929.0, 929.0, 929.0, 929.0, 929.0, 929.0, 929.0, 929.0, 929.0, 929.0, 929.0, 929.0, 929.0, 929.0, 929.0, 929.0, 929.0, 928.0, 928.0, 928.0, 928.0, 928.0, 928.0, 928.0, 928.0, 928.0, 928.0, 928.0, 928.0, 928.0, 928.0, 928.0, 928.0, 928.0, 928.0, 928.0, 928.0, 927.0, 928.0, 928.0, 928.0, 927.0, 928.0, 928.0, 928.0, 928.0, 928.0, 928.0, 928.0, 928.0, 928.0, 928.0, 927.0, 928.0, 927.0, 928.0, 927.0, 928.0, 927.0, 928.0, 927.0, 928.0, 927.0, 928.0, 927.0, 928.0, 927.0, 928.0, 927.0, 928.0, 927.0, 927.0, 928.0, 927.0, 927.0, 927.0, 928.0, 927.0, 928.0, 927.0, 928.0, 927.0, 928.0, 927.0, 928.0, 927.0, 928.0, 927.0, 927.0, 927.0, 927.0, 927.0, 927.0, 927.0, 927.0, 927.0, 927.0, 927.0, 927.0, 927.0, 927.0, 927.0, 926.0, 927.0, 926.0, 928.0, 927.0, 927.0, 926.0, 927.0, 926.0, 927.0, 926.0, 927.0, 927.0, 927.0, 927.0, 926.0, 927.0, 926.0, 927.0, 926.0, 927.0, 926.0, 927.0, 926.0, 927.0, 926.0, 927.0, 926.0, 927.0, 926.0, 927.0, 926.0, 927.0, 926.0, 926.0, 926.0, 926.0, 927.0, 926.0, 926.0, 926.0, 927.0, 926.0, 927.0, 926.0, 926.0, 926.0, 927.0, 926.0, 926.0, 926.0, 927.0, 926.0, 926.0, 926.0, 926.0, 926.0, 926.0, 926.0, 926.0, 926.0, 926.0, 926.0, 926.0, 927.0, 926.0, 926.0, 926.0]
    },
    "slices": {}
  }
}