{
  "AcquisitionMatrixPE": 80,
  "AcquisitionNumber": 1,
  "AcquisitionTime": "09:29:1.507500",
  "BandwidthPerPixelPhaseEncode": 25,
  "BaseResolution": 80,
  "BodyPartExamined": "BRAIN",
  "CoilCombinationMethod": "Sum of Squares",
  "ConsistencyInfo": "N4_VE11E_LATEST_20181129",
  "ConversionSoftware": "dcm2niix",
  "ConversionSoftwareVersion": "v1.0.20220720",
  "DerivedVendorReportedEchoSpacing": 0.0005,
  "DeviceSerialNumber": "66112",
  "DwellTime": 2.7e-06,
  "EchoTime": 0.03,
  "EchoTrainLength": 80,
  "EffectiveEchoSpacing": 0.0005,
  "FlipAngle": 77,
  "HeudiconvVersion": "0.13.1",
  "ImageOrientationPatientDICOM": [0.988571, 0.150501, 0.0088241, -0.145627, 0.938137, 0.314153],
  "ImageOrientationText": "Tra>Cor(18.2)>Sag(-2.2)",
  "ImageType": [
    "ORIGINAL",
    "PRIMARY",
    "M",
    "ND",
    "NORM",
    "MOSAIC"
],
  "ImagingFrequency": 123.252,
  "InPlanePhaseEncodingDirectionDICOM": "COL",
  "InstitutionAddress": "Maynard 3,Hanover,NH,US,03755",
  "InstitutionName": "Dartmouth College - PBS",
  "InstitutionalDepartmentName": "Department",
  "MRAcquisitionType": "2D",
  "MagneticFieldStrength": 3,
  "Manufacturer": "Siemens",
  "ManufacturersModelName": "Prisma",
  "MatrixCoilMode": "SENSE",
  "Modality": "MR",
  "NonlinearGradientCorrection": false,
  "PartialFourier": 1,
  "PatientPosition": "HFS",
  "PercentPhaseFOV": 100,
  "PercentSampling": 100,
  "PhaseEncodingDirection": "j-",
  "PhaseEncodingSteps": 80,
  "PhaseResolution": 1,
  "PixelBandwidth": 2315,
  "ProcedureStepDescription": "dbic^QA",
  "ProtocolName": "func-bold_fa-77",
  "PulseSequenceDetails": "%SiemensSeq%\\ep2d_bold",
  "ReceiveCoilActiveElements": "HC1-7;NC1,2",
  "ReceiveCoilName": "HeadNeck_64",
  "ReconMatrixPE": 80,
  "RepetitionTime": 2,
  "SAR": 0.0322452,
  "ScanOptions": "FS",
  "ScanningSequence": "EP",
  "SequenceName": "*epfid2d1_80",
  "SequenceVariant": "SK",
  "SeriesDescription": "func-bold_fa-77",
  "SeriesNumber": 7,
  "ShimSetting": [4140, -7702, -7518, 178, -79, -251, -69, 77],
  "SliceThickness": 3.5,
  "SliceTiming": [0.99, 0, 1.055, 0.065, 1.12, 0.13, 1.1875, 0.1975, 1.2525, 0.2625, 1.32, 0.33, 1.385, 0.395, 1.45, 0.46, 1.5175, 0.5275, 1.5825, 0.5925, 1.65, 0.66, 1.715, 0.725, 1.78, 0.79, 1.8475, 0.8575, 1.9125, 0.9225],
  "SoftwareVersions": "syngo MR E11",
  "SpacingBetweenSlices": 3.99,
  "StationName": "AWP66112",
  "TotalReadoutTime": 0.0395,
  "TxRefAmp": 211.843,
  "dcmmeta_affine": [
    [-2.9657115936279297, -0.43688035011291504, -0.1556183099746704, 138.65333557128906],
    [-0.4515020549297333, 2.8144102096557617, 1.2442725896835327, -101.54896545410156],
    [0.026472296565771103, -0.9424600005149841, 3.7878315448760986, -18.741487503051758],
    [0.0, 0.0, 0.0, 1.0]
],
  "dcmmeta_reorient_transform": [
    [0.0, -1.0, 0.0, 79.0],
    [1.0, 0.0, 0.0, 0.0],
    [0.0, 0.0, 1.0, 0.0],
    [0.0, 0.0, 0.0, 1.0]
],
  "dcmmeta_shape": [80, 80, 30, 200],
  "dcmmeta_slice_dim": 2,
  "dcmmeta_version": 0.6,
  "global": {
    "const": {
      "AccessionNumber": "qa64",
      "AcquisitionMatrix": [80, 0, 0, 80],
      "AngioFlag": "N",
      "BitsAllocated": 16,
      "BitsStored": 12,
      "BodyPartExamined": "BRAIN",
      "Columns": 480,
      "EchoNumbers": 1,
      "EchoTime": 30.0,
      "EchoTrainLength": 80,
      "FlipAngle": 77.0,
      "HighBit": 11,
      "ImageOrientationPatient": [0.9885705229981, 0.15050068551548, 0.00882409874341, -0.1456267785968, 0.9381367273348, 0.31415334182698],
      "ImagePositionPatient": [-609.9060355712, -773.97188372437, -286.98229480834],
      "ImageType": [
        "ORIGINAL",
        "PRIMARY",
        "M",
        "ND",
        "NORM",
        "MOSAIC"
],
      "ImagedNucleus": "1H",
      "ImagingFrequency": 123.252356,
      "InPlanePhaseEncodingDirection": "COL",
      "MRAcquisitionType": "2D",
      "MagneticFieldStrength": 3.0,
      "Manufacturer": "SIEMENS",
      "ManufacturerModelName": "Prisma",
      "Modality": "MR",
      "NumberOfAverages": 1.0,
      "NumberOfPhaseEncodingSteps": 80,
      "PercentPhaseFieldOfView": 100.0,
      "PercentSampling": 100.0,
      "PerformedProcedureStepStartTime": "090637.221000",
      "PhotometricInterpretation": "MONOCHROME2",
      "PixelBandwidth": 2315.0,
      "PixelRepresentation": 0,
      "PixelSpacing": [3.0, 3.0],
      "ProtocolName": "func-bold_fa-77",
      "RepetitionTime": 2000.0,
      "Rows": 480,
      "SAR": 0.03224524901473,
      "SamplesPerPixel": 1,
      "ScanOptions": "FS",
      "ScanningSequence": "EP",
      "SequenceName": "*epfid2d1_80",
      "SequenceVariant": "SK",
      "SeriesDescription": "func-bold_fa-77",
      "SeriesNumber": 7,
      "SeriesTime": "092950.681000",
      "SliceLocation": -54.867467517642,
      "SliceThickness": 3.5,
      "SmallestImagePixelValue": 0,
      "SoftwareVersions": "syngo MR E11",
      "SpacingBetweenSlices": 3.989999980685,
      "SpecificCharacterSet": "ISO_IR 100",
      "StudyID": "1",
      "StudyTime": "090637.148000",
      "TransmitCoilName": "Body",
      "VariableFlipAngleFlag": "N",
      "WindowCenterWidthExplanation": "Algo1"
    },
    "slices": {}
  },
  "time": {
    "samples": {
      "AcquisitionNumber": [1, 2, 3, 4, 5, 6, 7, 8, 9, 10, 11, 12, 13, 14, 15, 16, 17, 18, 19, 20, 21, 22, 23, 24, 25, 26, 27, 28, 29, 30, 31, 32, 33, 34, 35, 36, 37, 38, 39, 40, 41, 42, 43, 44, 45, 46, 47, 48, 49, 50, 51, 52, 53, 54, 55, 56, 57, 58, 59, 60, 61, 62, 63, 64, 65, 66, 67, 68, 69, 70, 71, 72, 73, 74, 75, 76, 77, 78, 79, 80, 81, 82, 83, 84, 85, 86, 87, 88, 89, 90, 91, 92, 93, 94, 95, 96, 97, 98, 99, 100, 101, 102, 103, 104, 105, 106, 107, 108, 109, 110, 111, 112, 113, 114, 115, 116, 117, 118, 119, 120, 121, 122, 123, 124, 125, 126, 127, 128, 129, 130, 131, 132, 133, 134, 135, 136, 137, 138, 139, 140, 141, 142, 143, 144, 145, 146, 147, 148, 149, 150, 151, 152, 153, 154, 155, 156, 157, 158, 159, 160, 161, 162, 163, 164, 165, 166, 167, 168, 169, 170, 171, 172, 173, 174, 175, 176, 177, 178, 179, 180, 181, 182, 183, 184, 185, 186, 187, 188, 189, 190, 191, 192, 193, 194, 195, 196, 197, 198, 199, 200],
      "AcquisitionTime": ["092901.507500", "092903.507500", "092905.507500", "092907.507500", "092909.507500", "092911.507500", "092913.507500", "092915.507500", "092917.507500", "092919.507500", "092921.507500", "092923.507500", "092925.507500", "092927.507500", "092929.507500", "092931.507500", "092933.507500", "092935.507500", "092937.507500", "092939.507500", "092941.507500", "092943.507500", "092945.507500", "092947.507500", "092949.507500", "092951.507500", "092953.507500", "092955.507500", "092957.507500", "092959.507500", "093001.507500", "093003.507500", "093005.507500", "093007.507500", "093009.507500", "093011.507500", "093013.507500", "093015.507500", "093017.507500", "093019.507500", "093021.507500", "093023.507500", "093025.507500", "093027.507500", "093029.507500", "093031.507500", "093033.507500", "093035.507500", "093037.507500", "093039.507500", "093041.507500", "093043.507500", "093045.507500", "093047.507500", "093049.507500", "093051.507500", "093053.507500", "093055.507500", "093057.507500", "093059.507500", "093101.507500", "093103.507500", "093105.507500", "093107.507500", "093109.507500", "093111.507500", "093113.507500", "093115.507500", "093117.507500", "093119.507500", "093121.507500", "093123.507500", "093125.507500", "093127.507500", "093129.507500", "093131.507500", "093133.507500", "093135.507500", "093137.507500", "093139.507500", "093141.507500", "093143.507500", "093145.507500", "093147.507500", "093149.507500", "093151.507500", "093153.507500", "093155.507500", "093157.507500", "093159.507500", "093201.507500", "093203.507500", "093205.507500", "093207.507500", "093209.507500", "093211.507500", "093213.507500", "093215.507500", "093217.507500", "093219.507500", "093221.507500", "093223.507500", "093225.507500", "093227.507500", "093229.507500", "093231.507500", "093233.507500", "093235.507500", "093237.507500", "093239.507500", "093241.507500", "093243.507500", "093245.507500", "093247.507500", "093249.507500", "093251.507500", "093253.507500", "093255.507500", "093257.507500", "093259.507500", "093301.507500", "093303.507500", "093305.507500", "093307.507500", "093309.507500", "093311.507500", "093313.507500", "093315.507500", "093317.507500", "093319.507500", "093321.507500", "093323.507500", "093325.507500", "093327.507500", "093329.507500", "093331.507500", "093333.507500", "093335.507500", "093337.507500", "093339.507500", "093341.507500", "093343.507500", "093345.507500", "093347.507500", "093349.507500", "093351.507500", "093353.507500", "093355.507500", "093357.507500", "093359.507500", "093401.507500", "093403.507500", "093405.507500", "093407.507500", "093409.507500", "093411.507500", "093413.507500", "093415.507500", "093417.507500", "093419.507500", "093421.507500", "093423.507500", "093425.507500", "093427.507500", "093429.507500", "093431.507500", "093433.507500", "093435.507500", "093437.507500", "093439.507500", "093441.507500", "093443.507500", "093445.507500", "093447.507500", "093449.507500", "093451.507500", "093453.507500", "093455.507500", "093457.507500", "093459.507500", "093501.507500", "093503.507500", "093505.507500", "093507.507500", "093509.507500", "093511.507500", "093513.507500", "093515.507500", "093517.507500", "093519.507500", "093521.507500", "093523.507500", "093525.507500", "093527.507500", "093529.507500", "093531.507500", "093533.507500", "093535.507500", "093537.507500", "093539.507500"],
      "ContentTime": ["092950.684000", "092950.689000", "092950.691000", "092950.693000", "092950.696000", "092950.698000", "092950.700000", "092950.702000", "092950.705000", "092950.707000", "092950.709000", "092950.712000", "092950.714000", "092950.716000", "092950.718000", "092950.721000", "092950.723000", "092950.725000", "092950.728000", "092950.730000", "092950.732000", "092950.735000", "092950.737000", "092950.739000", "093030.679000", "093030.682000", "093030.684000", "093030.688000", "093030.690000", "093030.692000", "093030.695000", "093030.697000", "093030.699000", "093030.701000", "093030.704000", "093030.706000", "093030.708000", "093030.711000", "093030.713000", "093030.715000", "093030.718000", "093030.720000", "093030.722000", "093030.724000", "093110.679000", "093110.682000", "093110.684000", "093110.687000", "093110.690000", "093110.692000", "093110.694000", "093110.696000", "093110.699000", "093110.701000", "093110.703000", "093110.706000", "093110.708000", "093110.710000", "093110.713000", "093110.715000", "093110.717000", "093110.720000", "093110.722000", "093110.724000", "093150.679000", "093150.682000", "093150.684000", "093150.688000", "093150.690000", "093150.692000", "093150.695000", "093150.697000", "093150.699000", "093150.701000", "093150.704000", "093150.706000", "093150.708000", "093150.711000", "093150.713000", "093150.715000", "093150.718000", "093150.720000", "093150.722000", "093150.725000", "093230.680000", "093230.683000", "093230.686000", "093230.689000", "093230.691000", "093230.693000", "093230.696000", "093230.698000", "093230.700000", "093230.703000", "093230.705000", "093230.707000", "093230.709000", "093230.712000", "093230.714000", "093230.716000", "093230.719000", "093230.721000", "093230.723000", "093230.726000", "093310.679000", "093310.682000", "093310.684000", "093310.687000", "093310.689000", "093310.691000", "093310.694000", "093310.696000", "093310.698000", "093310.701000", "093310.703000", "093310.705000", "093310.707000", "093310.710000", "093310.712000", "093310.714000", "093310.717000", "093310.719000", "093310.721000", "093310.724000", "093350.679000", "093350.682000", "093350.684000", "093350.687000", "093350.689000", "093350.692000", "093350.694000", "093350.696000", "093350.699000", "093350.701000", "093350.703000", "093350.706000", "093350.708000", "093350.710000", "093350.713000", "093350.715000", "093350.717000", "093350.719000", "093350.722000", "093350.724000", "093430.679000", "093430.682000", "093430.684000", "093430.687000", "093430.690000", "093430.692000", "093430.694000", "093430.696000", "093430.699000", "093430.701000", "093430.703000", "093430.706000", "093430.708000", "093430.710000", "093430.713000", "093430.715000", "093430.717000", "093430.720000", "093430.722000", "093430.724000", "093510.679000", "093510.682000", "093510.684000", "093510.687000", "093510.689000", "093510.691000", "093510.694000", "093510.696000", "093510.698000", "093510.701000", "093510.703000", "093510.705000", "093510.708000", "093510.710000", "093510.712000", "093510.714000", "093510.721000", "093510.723000", "093510.725000", "093510.728000", "093540.728000", "093540.731000", "093540.733000", "093540.735000", "093540.738000", "093540.740000", "093540.742000", "093540.745000", "093540.747000", "093540.749000", "093540.752000", "093540.754000", "093540.759000", "093540.762000", "093540.765000", "093540.767000"],
      "InstanceCreationTime": ["092950.684000", "092950.689000", "092950.691000", "092950.693000", "092950.696000", "092950.698000", "092950.700000", "092950.702000", "092950.705000", "092950.707000", "092950.709000", "092950.712000", "092950.714000", "092950.716000", "092950.718000", "092950.721000", "092950.723000", "092950.725000", "092950.728000", "092950.730000", "092950.732000", "092950.735000", "092950.737000", "092950.739000", "093030.679000", "093030.682000", "093030.684000", "093030.688000", "093030.690000", "093030.692000", "093030.695000", "093030.697000", "093030.699000", "093030.701000", "093030.704000", "093030.706000", "093030.708000", "093030.711000", "093030.713000", "093030.715000", "093030.718000", "093030.720000", "093030.722000", "093030.724000", "093110.679000", "093110.682000", "093110.684000", "093110.687000", "093110.690000", "093110.692000", "093110.694000", "093110.696000", "093110.699000", "093110.701000", "093110.703000", "093110.706000", "093110.708000", "093110.710000", "093110.713000", "093110.715000", "093110.717000", "093110.720000", "093110.722000", "093110.724000", "093150.679000", "093150.682000", "093150.684000", "093150.688000", "093150.690000", "093150.692000", "093150.695000", "093150.697000", "093150.699000", "093150.701000", "093150.704000", "093150.706000", "093150.708000", "093150.711000", "093150.713000", "093150.715000", "093150.718000", "093150.720000", "093150.722000", "093150.725000", "093230.680000", "093230.683000", "093230.686000", "093230.689000", "093230.691000", "093230.693000", "093230.696000", "093230.698000", "093230.700000", "093230.703000", "093230.705000", "093230.707000", "093230.709000", "093230.712000", "093230.714000", "093230.716000", "093230.719000", "093230.721000", "093230.723000", "093230.726000", "093310.679000", "093310.682000", "093310.684000", "093310.687000", "093310.689000", "093310.691000", "093310.694000", "093310.696000", "093310.698000", "093310.701000", "093310.703000", "093310.705000", "093310.707000", "093310.710000", "093310.712000", "093310.714000", "093310.717000", "093310.719000", "093310.721000", "093310.724000", "093350.679000", "093350.682000", "093350.684000", "093350.687000", "093350.689000", "093350.692000", "093350.694000", "093350.696000", "093350.699000", "093350.701000", "093350.703000", "093350.706000", "093350.708000", "093350.710000", "093350.713000", "093350.715000", "093350.717000", "093350.719000", "093350.722000", "093350.724000", "093430.679000", "093430.682000", "093430.684000", "093430.687000", "093430.690000", "093430.692000", "093430.694000", "093430.696000", "093430.699000", "093430.701000", "093430.703000", "093430.706000", "093430.708000", "093430.710000", "093430.713000", "093430.715000", "093430.717000", "093430.720000", "093430.722000", "093430.724000", "093510.679000", "093510.682000", "093510.684000", "093510.687000", "093510.689000", "093510.691000", "093510.694000", "093510.696000", "093510.698000", "093510.701000", "093510.703000", "093510.705000", "093510.708000", "093510.710000", "093510.712000", "093510.714000", "093510.721000", "093510.723000", "093510.725000", "093510.728000", "093540.728000", "093540.731000", "093540.733000", "093540.735000", "093540.738000", "093540.740000", "093540.742000", "093540.745000", "093540.747000", "093540.749000", "093540.752000", "093540.754000", "093540.759000", "093540.762000", "093540.765000", "093540.767000"],
      "InstanceNumber": [1, 2, 3, 4, 5, 6, 7, 8, 9, 10, 11, 12, 13, 14, 15, 16, 17, 18, 19, 20, 21, 22, 23, 24, 25, 26, 27, 28, 29, 30, 31, 32, 33, 34, 35, 36, 37, 38, 39, 40, 41, 42, 43, 44, 45, 46, 47, 48, 49, 50, 51, 52, 53, 54, 55, 56, 57, 58, 59, 60, 61, 62, 63, 64, 65, 66, 67, 68, 69, 70, 71, 72, 73, 74, 75, 76, 77, 78, 79, 80, 81, 82, 83, 84, 85, 86, 87, 88, 89, 90, 91, 92, 93, 94, 95, 96, 97, 98, 99, 100, 101, 102, 103, 104, 105, 106, 107, 108, 109, 110, 111, 112, 113, 114, 115, 116, 117, 118, 119, 120, 121, 122, 123, 124, 125, 126, 127, 128, 129, 130, 131, 132, 133, 134, 135, 136, 137, 138, 139, 140, 141, 142, 143, 144, 145, 146, 147, 148, 149, 150, 151, 152, 153, 154, 155, 156, 157, 158, 159, 160, 161, 162, 163, 164, 165, 166, 167, 168, 169, 170, 171, 172, 173, 174, 175, 176, 177, 178, 179, 180, 181, 182, 183, 184, 185, 186, 187, 188, 189, 190, 191, 192, 193, 194, 195, 196, 197, 198, 199, 200],
      "LargestImagePixelValue": [3664, 3664, 3667, 3666, 3666, 3664, 3669, 3667, 3662, 3667, 3669, 3666, 3661, 3668, 3662, 3665, 3666, 3670, 3668, 3667, 3667, 3667, 3667, 3667, 3667, 3664, 3667, 3670, 3666, 3662, 3667, 3665, 3670, 3668, 3668, 3666, 3665, 3663, 3666, 3664, 3667, 3663, 3665, 3664, 3662, 3667, 3661, 3661, 3667, 3665, 3662, 3664, 3668, 3664, 3659, 3666, 3669, 3667, 3667, 3669, 3662, 3664, 3663, 3666, 3667, 3671, 3663, 3666, 3667, 3664, 3665, 3665, 3662, 3666, 3658, 3668, 3665, 3667, 3672, 3663, 3665, 3664, 3663, 3663, 3665, 3666, 3674, 3666, 3666, 3665, 3668, 3664, 3663, 3666, 3662, 3665, 3666, 3665, 3668, 3662, 3663, 3664, 3659, 3667, 3661, 3662, 3662, 3661, 3660, 3665, 3661, 3660, 3662, 3661, 3663, 3662, 3666, 3662, 3666, 3667, 3666, 3664, 3663, 3661, 3664, 3660, 3664, 3662, 3660, 3660, 3659, 3659, 3661, 3660, 3662, 3663, 3662, 3665, 3660, 3661, 3662, 3664, 3663, 3664, 3664, 3664, 3664, 3669, 3662, 3663, 3665, 3661, 3664, 3665, 3663, 3661, 3658, 3662, 3659, 3666, 3661, 3661, 3666, 3661, 3664, 3663, 3661, 3665, 3665, 3663, 3664, 3664, 3665, 3666, 3663, 3665, 3663, 3665, 3665, 3667, 3666, 3665, 3664, 3663, 3665, 3664, 3668, 3662, 3667, 3665, 3666, 3664, 3665, 3666, 3669, 3666, 3667, 3667, 3667, 3667],
      "WindowCenter": [1356.0, 1356.0, 1356.0, 1356.0, 1356.0, 1356.0, 1357.0, 1356.0, 1356.0, 1356.0, 1356.0, 1357.0, 1356.0, 1356.0, 1356.0, 1356.0, 1356.0, 1355.0, 1356.0, 1355.0, 1356.0, 1356.0, 1356.0, 1355.0, 1355.0, 1356.0, 1355.0, 1355.0, 1355.0, 1355.0, 1355.0, 1356.0, 1355.0, 1355.0, 1355.0, 1356.0, 1355.0, 1355.0, 1355.0, 1355.0, 1355.0, 1355.0, 1355.0, 1356.0, 1355.0, 1355.0, 1355.0, 1356.0, 1354.0, 1355.0, 1355.0, 1355.0, 1356.0, 1355.0, 1355.0, 1355.0, 1355.0, 1355.0, 1355.0, 1355.0, 1355.0, 1355.0, 1355.0, 1355.0, 1354.0, 1355.0, 1355.0, 1354.0, 1354.0, 1354.0, 1354.0, 1354.0, 1355.0, 1354.0, 1355.0, 1354.0, 1355.0, 1355.0, 1355.0, 1354.0, 1355.0, 1354.0, 1354.0, 1354.0, 1355.0, 1354.0, 1355.0, 1354.0, 1354.0, 1354.0, 1354.0, 1353.0, 1355.0, 1354.0, 1354.0, 1355.0, 1354.0, 1355.0, 1355.0, 1355.0, 1355.0, 1354.0, 1354.0, 1354.0, 1354.0, 1354.0, 1354.0, 1354.0, 1354.0, 1354.0, 1354.0, 1354.0, 1353.0, 1354.0, 1354.0, 1354.0, 1354.0, 1354.0, 1354.0, 1354.0, 1354.0, 1354.0, 1354.0, 1354.0, 1354.0, 1354.0, 1353.0, 1353.0, 1354.0, 1354.0, 1353.0, 1353.0, 1353.0, 1353.0, 1353.0, 1353.0, 1353.0, 1354.0, 1354.0, 1353.0, 1354.0, 1354.0, 1353.0, 1353.0, 1353.0, 1353.0, 1353.0, 1353.0, 1353.0, 1353.0, 1353.0, 1353.0, 1353.0, 1353.0, 1353.0, 1353.0, 1353.0, 1353.0, 1353.0, 1353.0, 1353.0, 1353.0, 1353.0, 1353.0, 1353.0, 1353.0, 1353.0, 1353.0, 1353.0, 1353.0, 1353.0, 1353.0, 1353.0, 1353.0, 1353.0, 1353.0, 1353.0, 1353.0, 1353.0, 1352.0, 1352.0, 1353.0, 1352.0, 1353.0, 1353.0, 1352.0, 1353.0, 1352.0, 1353.0, 1352.0, 1353.0, 1352.0, 1353.0, 1353.0, 1352.0, 1353.0, 1353.0, 1352.0, 1352.0, 1352.0],
      "WindowWidth": [3254.0, 3254.0, 3254.0, 3254.0, 3254.0, 3254.0, 3253.0, 3254.0, 3254.0, 3254.0, 3254.0, 3253.0, 3254.0, 3254.0, 3254.0, 3253.0, 3254.0, 3253.0, 3253.0, 3253.0, 3254.0, 3253.0, 3253.0, 3253.0, 3253.0, 3253.0, 3253.0, 3253.0, 3253.0, 3253.0, 3253.0, 3253.0, 3253.0, 3253.0, 3253.0, 3253.0, 3253.0, 3253.0, 3253.0, 3253.0, 3253.0, 3253.0, 3253.0, 3253.0, 3253.0, 3253.0, 3253.0, 3253.0, 3253.0, 3253.0, 3253.0, 3253.0, 3252.0, 3253.0, 3253.0, 3253.0, 3253.0, 3253.0, 3253.0, 3253.0, 3253.0, 3253.0, 3253.0, 3253.0, 3252.0, 3252.0, 3253.0, 3252.0, 3252.0, 3253.0, 3252.0, 3252.0, 3252.0, 3252.0, 3253.0, 3253.0, 3253.0, 3253.0, 3253.0, 3252.0, 3253.0, 3253.0, 3253.0, 3253.0, 3252.0, 3253.0, 3252.0, 3252.0, 3252.0, 3252.0, 3252.0, 3253.0, 3252.0, 3252.0, 3252.0, 3252.0, 3252.0, 3252.0, 3252.0, 3252.0, 3252.0, 3252.0, 3252.0, 3252.0, 3252.0, 3252.0, 3252.0, 3252.0, 3252.0, 3252.0, 3252.0, 3252.0, 3252.0, 3252.0, 3252.0, 3252.0, 3252.0, 3252.0, 3252.0, 3252.0, 3252.0, 3252.0, 3252.0, 3252.0, 3252.0, 3252.0, 3252.0, 3252.0, 3252.0, 3252.0, 3252.0, 3251.0, 3252.0, 3252.0, 3252.0, 3252.0, 3251.0, 3252.0, 3251.0, 3252.0, 3252.0, 3252.0, 3252.0, 3252.0, 3252.0, 3251.0, 3252.0, 3251.0, 3252.0, 3251.0, 3252.0, 3251.0, 3251.0, 3251.0, 3251.0, 3251.0, 3251.0, 3251.0, 3251.0, 3251.0, 3251.0, 3251.0, 3251.0, 3251.0, 3251.0, 3251.0, 3251.0, 3251.0, 3251.0, 3251.0, 3251.0, 3251.0, 3251.0, 3251.0, 3251.0, 3251.0, 3251.0, 3251.0, 3251.0, 3251.0, 3251.0, 3251.0, 3251.0, 3251.0, 3251.0, 3251.0, 3251.0, 3251.0, 3251.0, 3251.0, 3251.0, 3251.0, 3251.0, 3251.0, 3251.0, 3251.0, 3251.0, 3251.0, 3251.0, 3251.0]
    },
    "slices": {}
  }
}