{
  "AcquisitionMatrixPE": 80,
  "AcquisitionNumber": 1,
  "AcquisitionTime": "09:27:52.115000",
  "BandwidthPerPixelPhaseEncode": 48.077,
  "BaseResolution": 80,
  "BodyPartExamined": "BRAIN",
  "CoilCombinationMethod": "Sum of Squares",
  "ConsistencyInfo": "N4_VE11E_LATEST_20181129",
  "ConversionSoftware": "dcm2niix",
  "ConversionSoftwareVersion": "v1.0.20220720",
  "DerivedVendorReportedEchoSpacing": 0.000519999,
  "DeviceSerialNumber": "66112",
  "DwellTime": 2.7e-06,
  "EchoTime": 0.035,
  "EchoTrainLength": 39,
  "EffectiveEchoSpacing": 0.00026,
  "FlipAngle": 90,
  "HeudiconvVersion": "0.13.1",
  "ImageOrientationPatientDICOM": [0.984651, 0.174382, 0.00727717, -0.168486, 0.938826, 0.300362],
  "ImageOrientationText": "Tra>Cor(17.3)>Sag(-2.6)",
  "ImageType": [
    "ORIGINAL",
    "PRIMARY",
    "M",
    "ND",
    "NORM",
    "MOSAIC"
],
  "ImagingFrequency": 123.261,
  "InPlanePhaseEncodingDirectionDICOM": "COL",
  "InstitutionAddress": "Maynard 3,Hanover,NH,US,03755",
  "InstitutionName": "Dartmouth College - PBS",
  "InstitutionalDepartmentName": "Department",
  "MRAcquisitionType": "2D",
  "MagneticFieldStrength": 3,
  "Manufacturer": "Siemens",
  "ManufacturersModelName": "Prisma",
  "MatrixCoilMode": "GRAPPA",
  "Modality": "MR",
  "NonlinearGradientCorrection": false,
  "ParallelReductionFactorInPlane": 2,
  "PartialFourier": 1,
  "PatientPosition": "HFS",
  "PercentPhaseFOV": 100,
  "PercentSampling": 100,
  "PhaseEncodingDirection": "j-",
  "PhaseEncodingSteps": 79,
  "PhaseResolution": 1,
  "PixelBandwidth": 2315,
  "ProcedureStepDescription": "dbic^QA",
  "ProtocolName": "func-bold_task-rest_acq-p2",
  "PulseSequenceDetails": "%SiemensSeq%\\ep2d_bold",
  "ReceiveCoilActiveElements": "HEA;HEP",
  "ReceiveCoilName": "Head_32",
  "ReconMatrixPE": 80,
  "RefLinesPE": 24,
  "RepetitionTime": 2,
  "SAR": 0.0467512,
  "ScanOptions": "FS",
  "ScanningSequence": "EP",
  "SequenceName": "*epfid2d1_80",
  "SequenceVariant": "SK",
  "SeriesDescription": "func-bold_task-rest_acq-p2",
  "SeriesNumber": 5,
  "ShimSetting": [4247, -7736, -7487, -40, -182, -61, -6, 94],
  "SliceThickness": 3.5,
  "SliceTiming": [0.99, 0, 1.055, 0.065, 1.1225, 0.1325, 1.1875, 0.1975, 1.2525, 0.2625, 1.32, 0.33, 1.385, 0.395, 1.4525, 0.4625, 1.5175, 0.5275, 1.5825, 0.5925, 1.65, 0.66, 1.715, 0.725, 1.7825, 0.7925, 1.8475, 0.8575, 1.9125, 0.9225],
  "SoftwareVersions": "syngo MR E11",
  "SpacingBetweenSlices": 3.99,
  "StationName": "AWP66112",
  "TaskName": "rest",
  "TotalReadoutTime": 0.02054,
  "TxRefAmp": 219.944,
  "dcmmeta_affine": [
    [-2.953953504562378, -0.5054590702056885, -0.18172764778137207, 142.70249938964844],
    [-0.5231462717056274, 2.816479206085205, 1.1849422454833984, -107.4184799194336],
    [0.021831514313817024, -0.9010863304138184, 3.805652141571045, -24.599374771118164],
    [0.0, 0.0, 0.0, 1.0]
],
  "dcmmeta_reorient_transform": [
    [0.0, -1.0, 0.0, 79.0],
    [1.0, 0.0, 0.0, 0.0],
    [0.0, 0.0, 1.0, 0.0],
    [0.0, 0.0, 0.0, 1.0]
],
  "dcmmeta_shape": [80, 80, 30, 200],
  "dcmmeta_slice_dim": 2,
  "dcmmeta_version": 0.6,
  "global": {
    "const": {
      "AccessionNumber": "qa",
      "AcquisitionMatrix": [80, 0, 0, 80],
      "AngioFlag": "N",
      "BitsAllocated": 16,
      "BitsStored": 12,
      "BodyPartExamined": "BRAIN",
      "Columns": 480,
      "EchoNumbers": 1,
      "EchoTime": 35.0,
      "EchoTrainLength": 39,
      "FlipAngle": 90.0,
      "HighBit": 11,
      "ImageOrientationPatient": [0.98465117022862, 0.17438209697018, 0.0072771714074, -0.1684863658828, 0.93882636836343, 0.30036210576094],
      "ImagePositionPatient": [-592.47010577666, -783.00845090568, -280.36876024358],
      "ImageType": [
        "ORIGINAL",
        "PRIMARY",
        "M",
        "ND",
        "NORM",
        "MOSAIC"
],
      "ImagedNucleus": "1H",
      "ImagingFrequency": 123.261259,
      "InPlanePhaseEncodingDirection": "COL",
      "MRAcquisitionType": "2D",
      "MagneticFieldStrength": 3.0,
      "Manufacturer": "SIEMENS",
      "ManufacturerModelName": "Prisma",
      "Modality": "MR",
      "NumberOfAverages": 1.0,
      "NumberOfPhaseEncodingSteps": 79,
      "PercentPhaseFieldOfView": 100.0,
      "PercentSampling": 100.0,
      "PerformedProcedureStepStartTime": "091745.280000",
      "PhotometricInterpretation": "MONOCHROME2",
      "PixelBandwidth": 2315.0,
      "PixelRepresentation": 0,
      "PixelSpacing": [3.0, 3.0],
      "ProtocolName": "func-bold_task-rest_acq-p2",
      "RepetitionTime": 2000.0,
      "Rows": 480,
      "SAR": 0.04675124686877,
      "SamplesPerPixel": 1,
      "ScanOptions": "FS",
      "ScanningSequence": "EP",
      "SequenceName": "*epfid2d1_80",
      "SequenceVariant": "SK",
      "SeriesDescription": "func-bold_task-rest_acq-p2",
      "SeriesNumber": 5,
      "SeriesTime": "092837.631000",
      "SliceLocation": -61.86324230329,
      "SliceThickness": 3.5,
      "SmallestImagePixelValue": 0,
      "SoftwareVersions": "syngo MR E11",
      "SpacingBetweenSlices": 3.9900001033227,
      "SpecificCharacterSet": "ISO_IR 100",
      "StudyID": "37",
      "StudyTime": "091745.207000",
      "TransmitCoilName": "Body",
      "VariableFlipAngleFlag": "N",
      "WindowCenterWidthExplanation": "Algo1"
    },
    "slices": {}
  },
  "time": {
    "samples": {
      "AcquisitionNumber": [1, 2, 3, 4, 5, 6, 7, 8, 9, 10, 11, 12, 13, 14, 15, 16, 17, 18, 19, 20, 21, 22, 23, 24, 25, 26, 27, 28, 29, 30, 31, 32, 33, 34, 35, 36, 37, 38, 39, 40, 41, 42, 43, 44, 45, 46, 47, 48, 49, 50, 51, 52, 53, 54, 55, 56, 57, 58, 59, 60, 61, 62, 63, 64, 65, 66, 67, 68, 69, 70, 71, 72, 73, 74, 75, 76, 77, 78, 79, 80, 81, 82, 83, 84, 85, 86, 87, 88, 89, 90, 91, 92, 93, 94, 95, 96, 97, 98, 99, 100, 101, 102, 103, 104, 105, 106, 107, 108, 109, 110, 111, 112, 113, 114, 115, 116, 117, 118, 119, 120, 121, 122, 123, 124, 125, 126, 127, 128, 129, 130, 131, 132, 133, 134, 135, 136, 137, 138, 139, 140, 141, 142, 143, 144, 145, 146, 147, 148, 149, 150, 151, 152, 153, 154, 155, 156, 157, 158, 159, 160, 161, 162, 163, 164, 165, 166, 167, 168, 169, 170, 171, 172, 173, 174, 175, 176, 177, 178, 179, 180, 181, 182, 183, 184, 185, 186, 187, 188, 189, 190, 191, 192, 193, 194, 195, 196, 197, 198, 199, 200],
      "AcquisitionTime": ["092752.115000", "092754.115000", "092756.115000", "092758.115000", "092800.115000", "092802.115000", "092804.115000", "092806.115000", "092808.115000", "092810.115000", "092812.115000", "092814.115000", "092816.115000", "092818.115000", "092820.115000", "092822.115000", "092824.115000", "092826.115000", "092828.115000", "092830.115000", "092832.115000", "092834.115000", "092836.115000", "092838.115000", "092840.115000", "092842.115000", "092844.115000", "092846.115000", "092848.115000", "092850.115000", "092852.115000", "092854.115000", "092856.115000", "092858.115000", "092900.115000", "092902.115000", "092904.115000", "092906.115000", "092908.115000", "092910.115000", "092912.115000", "092914.115000", "092916.115000", "092918.115000", "092920.115000", "092922.115000", "092924.115000", "092926.115000", "092928.115000", "092930.115000", "092932.115000", "092934.115000", "092936.115000", "092938.115000", "092940.115000", "092942.115000", "092944.115000", "092946.115000", "092948.115000", "092950.115000", "092952.115000", "092954.115000", "092956.115000", "092958.115000", "093000.115000", "093002.115000", "093004.115000", "093006.115000", "093008.115000", "093010.115000", "093012.115000", "093014.115000", "093016.115000", "093018.115000", "093020.115000", "093022.115000", "093024.115000", "093026.115000", "093028.115000", "093030.115000", "093032.115000", "093034.115000", "093036.115000", "093038.115000", "093040.115000", "093042.115000", "093044.115000", "093046.115000", "093048.115000", "093050.115000", "093052.115000", "093054.115000", "093056.115000", "093058.115000", "093100.115000", "093102.115000", "093104.115000", "093106.115000", "093108.115000", "093110.115000", "093112.115000", "093114.115000", "093116.115000", "093118.115000", "093120.115000", "093122.115000", "093124.115000", "093126.115000", "093128.115000", "093130.115000", "093132.115000", "093134.115000", "093136.115000", "093138.115000", "093140.115000", "093142.115000", "093144.115000", "093146.115000", "093148.115000", "093150.115000", "093152.115000", "093154.115000", "093156.115000", "093158.115000", "093200.115000", "093202.115000", "093204.115000", "093206.115000", "093208.115000", "093210.115000", "093212.115000", "093214.115000", "093216.115000", "093218.115000", "093220.115000", "093222.115000", "093224.115000", "093226.115000", "093228.115000", "093230.115000", "093232.115000", "093234.115000", "093236.115000", "093238.115000", "093240.115000", "093242.115000", "093244.115000", "093246.115000", "093248.115000", "093250.115000", "093252.115000", "093254.115000", "093256.115000", "093258.115000", "093300.115000", "093302.115000", "093304.115000", "093306.115000", "093308.115000", "093310.115000", "093312.115000", "093314.115000", "093316.115000", "093318.115000", "093320.115000", "093322.115000", "093324.115000", "093326.115000", "093328.115000", "093330.115000", "093332.115000", "093334.115000", "093336.115000", "093338.115000", "093340.115000", "093342.115000", "093344.115000", "093346.115000", "093348.115000", "093350.115000", "093352.115000", "093354.115000", "093356.115000", "093358.115000", "093400.115000", "093402.115000", "093404.115000", "093406.115000", "093408.115000", "093410.115000", "093412.115000", "093414.115000", "093416.115000", "093418.115000", "093420.115000", "093422.115000", "093424.115000", "093426.115000", "093428.115000", "093430.115000"],
      "ContentTime": ["092837.634000", "092837.637000", "092837.639000", "092837.642000", "092837.644000", "092837.646000", "092837.649000", "092837.651000", "092837.654000", "092837.656000", "092837.658000", "092837.661000", "092837.663000", "092837.665000", "092837.668000", "092837.670000", "092837.672000", "092837.675000", "092837.677000", "092837.679000", "092837.682000", "092837.684000", "092917.623000", "092917.626000", "092917.628000", "092917.630000", "092917.633000", "092917.635000", "092917.637000", "092917.640000", "092917.642000", "092917.644000", "092917.647000", "092917.649000", "092917.651000", "092917.654000", "092917.656000", "092917.658000", "092917.661000", "092917.663000", "092917.665000", "092917.667000", "092957.623000", "092957.626000", "092957.628000", "092957.631000", "092957.633000", "092957.635000", "092957.637000", "092957.640000", "092957.642000", "092957.644000", "092957.647000", "092957.649000", "092957.651000", "092957.654000", "092957.656000", "092957.658000", "092957.661000", "092957.663000", "092957.665000", "092957.667000", "093037.623000", "093037.626000", "093037.628000", "093037.631000", "093037.633000", "093037.635000", "093037.637000", "093037.640000", "093037.642000", "093037.644000", "093037.647000", "093037.649000", "093037.651000", "093037.654000", "093037.656000", "093037.658000", "093037.661000", "093037.663000", "093037.665000", "093037.668000", "093117.624000", "093117.627000", "093117.629000", "093117.631000", "093117.634000", "093117.636000", "093117.638000", "093117.641000", "093117.643000", "093117.645000", "093117.648000", "093117.650000", "093117.652000", "093117.654000", "093117.657000", "093117.659000", "093117.661000", "093117.664000", "093117.666000", "093117.668000", "093137.623000", "093137.626000", "093137.628000", "093137.630000", "093137.633000", "093137.635000", "093137.637000", "093137.640000", "093137.642000", "093137.644000", "093217.623000", "093217.626000", "093217.628000", "093217.631000", "093217.633000", "093217.642000", "093217.645000", "093217.647000", "093217.649000", "093217.652000", "093217.654000", "093217.656000", "093217.659000", "093217.661000", "093217.663000", "093217.666000", "093217.668000", "093217.671000", "093217.673000", "093217.675000", "093257.624000", "093257.626000", "093257.628000", "093257.631000", "093257.633000", "093257.635000", "093257.638000", "093257.640000", "093257.642000", "093257.644000", "093257.647000", "093257.649000", "093257.651000", "093257.654000", "093257.656000", "093257.658000", "093257.661000", "093257.663000", "093257.665000", "093257.668000", "093337.624000", "093337.627000", "093337.629000", "093337.632000", "093337.634000", "093337.636000", "093337.639000", "093337.641000", "093337.643000", "093337.646000", "093337.648000", "093337.650000", "093337.653000", "093337.655000", "093337.657000", "093337.660000", "093337.662000", "093337.664000", "093337.667000", "093337.669000", "093417.623000", "093417.626000", "093417.628000", "093417.631000", "093417.633000", "093417.636000", "093417.638000", "093417.640000", "093417.643000", "093417.645000", "093417.647000", "093417.650000", "093417.652000", "093417.655000", "093417.657000", "093417.659000", "093417.662000", "093417.664000", "093417.666000", "093417.669000", "093431.777000", "093431.781000", "093431.784000", "093431.786000", "093431.789000", "093431.791000", "093431.793000", "093431.797000"],
      "InstanceCreationTime": ["092837.634000", "092837.637000", "092837.639000", "092837.642000", "092837.644000", "092837.646000", "092837.649000", "092837.651000", "092837.654000", "092837.656000", "092837.658000", "092837.661000", "092837.663000", "092837.665000", "092837.668000", "092837.670000", "092837.672000", "092837.675000", "092837.677000", "092837.679000", "092837.682000", "092837.684000", "092917.623000", "092917.626000", "092917.628000", "092917.630000", "092917.633000", "092917.635000", "092917.637000", "092917.640000", "092917.642000", "092917.644000", "092917.647000", "092917.649000", "092917.651000", "092917.654000", "092917.656000", "092917.658000", "092917.661000", "092917.663000", "092917.665000", "092917.667000", "092957.623000", "092957.626000", "092957.628000", "092957.631000", "092957.633000", "092957.635000", "092957.637000", "092957.640000", "092957.642000", "092957.644000", "092957.647000", "092957.649000", "092957.651000", "092957.654000", "092957.656000", "092957.658000", "092957.661000", "092957.663000", "092957.665000", "092957.667000", "093037.623000", "093037.626000", "093037.628000", "093037.631000", "093037.633000", "093037.635000", "093037.637000", "093037.640000", "093037.642000", "093037.644000", "093037.647000", "093037.649000", "093037.651000", "093037.654000", "093037.656000", "093037.658000", "093037.661000", "093037.663000", "093037.665000", "093037.668000", "093117.624000", "093117.627000", "093117.629000", "093117.631000", "093117.634000", "093117.636000", "093117.638000", "093117.641000", "093117.643000", "093117.645000", "093117.648000", "093117.650000", "093117.652000", "093117.654000", "093117.657000", "093117.659000", "093117.661000", "093117.664000", "093117.666000", "093117.668000", "093137.623000", "093137.626000", "093137.628000", "093137.630000", "093137.633000", "093137.635000", "093137.637000", "093137.640000", "093137.642000", "093137.644000", "093217.623000", "093217.626000", "093217.628000", "093217.631000", "093217.633000", "093217.642000", "093217.645000", "093217.647000", "093217.649000", "093217.652000", "093217.654000", "093217.656000", "093217.659000", "093217.661000", "093217.663000", "093217.666000", "093217.668000", "093217.671000", "093217.673000", "093217.675000", "093257.624000", "093257.626000", "093257.628000", "093257.631000", "093257.633000", "093257.635000", "093257.638000", "093257.640000", "093257.642000", "093257.644000", "093257.647000", "093257.649000", "093257.651000", "093257.654000", "093257.656000", "093257.658000", "093257.661000", "093257.663000", "093257.665000", "093257.668000", "093337.624000", "093337.627000", "093337.629000", "093337.632000", "093337.634000", "093337.636000", "093337.639000", "093337.641000", "093337.643000", "093337.646000", "093337.648000", "093337.650000", "093337.653000", "093337.655000", "093337.657000", "093337.660000", "093337.662000", "093337.664000", "093337.667000", "093337.669000", "093417.623000", "093417.626000", "093417.628000", "093417.631000", "093417.633000", "093417.636000", "093417.638000", "093417.640000", "093417.643000", "093417.645000", "093417.647000", "093417.650000", "093417.652000", "093417.655000", "093417.657000", "093417.659000", "093417.662000", "093417.664000", "093417.666000", "093417.669000", "093431.777000", "093431.781000", "093431.784000", "093431.786000", "093431.789000", "093431.791000", "093431.793000", "093431.797000"],
      "InstanceNumber": [1, 2, 3, 4, 5, 6, 7, 8, 9, 10, 11, 12, 13, 14, 15, 16, 17, 18, 19, 20, 21, 22, 23, 24, 25, 26, 27, 28, 29, 30, 31, 32, 33, 34, 35, 36, 37, 38, 39, 40, 41, 42, 43, 44, 45, 46, 47, 48, 49, 50, 51, 52, 53, 54, 55, 56, 57, 58, 59, 60, 61, 62, 63, 64, 65, 66, 67, 68, 69, 70, 71, 72, 73, 74, 75, 76, 77, 78, 79, 80, 81, 82, 83, 84, 85, 86, 87, 88, 89, 90, 91, 92, 93, 94, 95, 96, 97, 98, 99, 100, 101, 102, 103, 104, 105, 106, 107, 108, 109, 110, 111, 112, 113, 114, 115, 116, 117, 118, 119, 120, 121, 122, 123, 124, 125, 126, 127, 128, 129, 130, 131, 132, 133, 134, 135, 136, 137, 138, 139, 140, 141, 142, 143, 144, 145, 146, 147, 148, 149, 150, 151, 152, 153, 154, 155, 156, 157, 158, 159, 160, 161, 162, 163, 164, 165, 166, 167, 168, 169, 170, 171, 172, 173, 174, 175, 176, 177, 178, 179, 180, 181, 182, 183, 184, 185, 186, 187, 188, 189, 190, 191, 192, 193, 194, 195, 196, 197, 198, 199, 200],
      "LargestImagePixelValue": [2199, 2207, 2203, 2209, 2208, 2199, 2203, 2201, 2191, 2203, 2208, 2198, 2200, 2205, 2203, 2199, 2199, 2209, 2198, 2206, 2208, 2199, 2190, 2201, 2204, 2198, 2213, 2203, 2202, 2213, 2213, 2196, 2204, 2206, 2201, 2195, 2203, 2208, 2214, 2193, 2208, 2197, 2201, 2203, 2202, 2196, 2200, 2201, 2203, 2196, 2196, 2201, 2200, 2210, 2196, 2200, 2192, 2208, 2205, 2200, 2199, 2193, 2199, 2194, 2206, 2196, 2202, 2192, 2203, 2192, 2196, 2209, 2200, 2206, 2201, 2196, 2194, 2201, 2203, 2200, 2202, 2199, 2200, 2202, 2198, 2199, 2203, 2190, 2190, 2199, 2215, 2186, 2197, 2197, 2200, 2194, 2194, 2194, 2196, 2201, 2197, 2199, 2200, 2198, 2197, 2200, 2198, 2204, 2193, 2194, 2196, 2190, 2193, 2195, 2201, 2193, 2187, 2188, 2193, 2187, 2202, 2192, 2193, 2188, 2202, 2189, 2197, 2204, 2188, 2197, 2195, 2189, 2193, 2202, 2196, 2186, 2190, 2192, 2197, 2192, 2202, 2192, 2193, 2195, 2191, 2202, 2196, 2190, 2202, 2194, 2190, 2193, 2198, 2187, 2196, 2196, 2187, 2191, 2186, 2187, 2200, 2197, 2197, 2193, 2196, 2198, 2192, 2199, 2190, 2187, 2184, 2194, 2197, 2189, 2199, 2201, 2193, 2191, 2189, 2186, 2196, 2184, 2187, 2190, 2189, 2188, 2187, 2192, 2194, 2188, 2201, 2176, 2201, 2181, 2191, 2180, 2196, 2184, 2195, 2191],
      "WindowCenter": [1034.0, 1034.0, 1033.0, 1033.0, 1033.0, 1033.0, 1033.0, 1033.0, 1033.0, 1033.0, 1033.0, 1033.0, 1033.0, 1033.0, 1033.0, 1033.0, 1033.0, 1033.0, 1033.0, 1033.0, 1033.0, 1033.0, 1033.0, 1033.0, 1033.0, 1033.0, 1033.0, 1033.0, 1033.0, 1033.0, 1033.0, 1033.0, 1033.0, 1033.0, 1033.0, 1033.0, 1033.0, 1033.0, 1033.0, 1033.0, 1033.0, 1033.0, 1033.0, 1033.0, 1033.0, 1033.0, 1033.0, 1033.0, 1033.0, 1033.0, 1033.0, 1033.0, 1033.0, 1033.0, 1034.0, 1033.0, 1033.0, 1033.0, 1033.0, 1033.0, 1033.0, 1033.0, 1033.0, 1033.0, 1033.0, 1033.0, 1033.0, 1033.0, 1033.0, 1033.0, 1033.0, 1033.0, 1033.0, 1034.0, 1033.0, 1033.0, 1033.0, 1033.0, 1033.0, 1032.0, 1032.0, 1033.0, 1033.0, 1032.0, 1033.0, 1033.0, 1032.0, 1032.0, 1033.0, 1032.0, 1033.0, 1033.0, 1032.0, 1032.0, 1032.0, 1032.0, 1032.0, 1032.0, 1032.0, 1032.0, 1033.0, 1032.0, 1032.0, 1032.0, 1032.0, 1032.0, 1032.0, 1032.0, 1032.0, 1032.0, 1032.0, 1032.0, 1032.0, 1032.0, 1032.0, 1032.0, 1032.0, 1032.0, 1032.0, 1033.0, 1032.0, 1032.0, 1032.0, 1032.0, 1032.0, 1032.0, 1032.0, 1032.0, 1032.0, 1032.0, 1032.0, 1032.0, 1032.0, 1032.0, 1032.0, 1032.0, 1032.0, 1032.0, 1032.0, 1032.0, 1032.0, 1032.0, 1032.0, 1032.0, 1032.0, 1032.0, 1032.0, 1032.0, 1032.0, 1032.0, 1032.0, 1032.0, 1032.0, 1032.0, 1032.0, 1032.0, 1032.0, 1032.0, 1032.0, 1032.0, 1033.0, 1032.0, 1032.0, 1032.0, 1032.0, 1032.0, 1032.0, 1032.0, 1032.0, 1032.0, 1032.0, 1032.0, 1032.0, 1032.0, 1032.0, 1032.0, 1032.0, 1032.0, 1032.0, 1032.0, 1032.0, 1032.0, 1032.0, 1032.0, 1032.0, 1032.0, 1032.0, 1032.0, 1032.0, 1032.0, 1032.0, 1032.0, 1032.0, 1032.0, 1032.0, 1033.0, 1032.0, 1032.0, 1032.0, 1031.0],
      "WindowWidth": [2311.0, 2311.0, 2310.0, 2310.0, 2310.0, 2310.0, 2311.0, 2310.0, 2310.0, 2310.0, 2310.0, 2310.0, 2310.0, 2310.0, 2310.0, 2310.0, 2310.0, 2310.0, 2310.0, 2310.0, 2310.0, 2310.0, 2310.0, 2310.0, 2310.0, 2310.0, 2310.0, 2310.0, 2310.0, 2310.0, 2310.0, 2310.0, 2310.0, 2310.0, 2310.0, 2309.0, 2310.0, 2310.0, 2310.0, 2309.0, 2310.0, 2309.0, 2310.0, 2310.0, 2309.0, 2309.0, 2310.0, 2310.0, 2309.0, 2309.0, 2309.0, 2309.0, 2309.0, 2309.0, 2310.0, 2309.0, 2309.0, 2309.0, 2309.0, 2309.0, 2309.0, 2309.0, 2309.0, 2309.0, 2309.0, 2309.0, 2309.0, 2309.0, 2309.0, 2309.0, 2309.0, 2309.0, 2309.0, 2309.0, 2309.0, 2309.0, 2309.0, 2309.0, 2309.0, 2309.0, 2309.0, 2309.0, 2309.0, 2309.0, 2309.0, 2309.0, 2309.0, 2309.0, 2308.0, 2309.0, 2308.0, 2308.0, 2309.0, 2308.0, 2308.0, 2308.0, 2308.0, 2308.0, 2308.0, 2309.0, 2309.0, 2308.0, 2308.0, 2308.0, 2308.0, 2308.0, 2308.0, 2308.0, 2308.0, 2308.0, 2308.0, 2308.0, 2308.0, 2308.0, 2308.0, 2308.0, 2308.0, 2308.0, 2308.0, 2309.0, 2308.0, 2308.0, 2308.0, 2308.0, 2308.0, 2308.0, 2308.0, 2308.0, 2307.0, 2307.0, 2307.0, 2307.0, 2307.0, 2307.0, 2307.0, 2307.0, 2307.0, 2307.0, 2307.0, 2307.0, 2307.0, 2307.0, 2307.0, 2307.0, 2307.0, 2307.0, 2307.0, 2307.0, 2307.0, 2307.0, 2307.0, 2306.0, 2307.0, 2307.0, 2306.0, 2307.0, 2306.0, 2307.0, 2307.0, 2306.0, 2307.0, 2307.0, 2306.0, 2306.0, 2307.0, 2306.0, 2306.0, 2306.0, 2307.0, 2306.0, 2306.0, 2306.0, 2306.0, 2306.0, 2306.0, 2306.0, 2306.0, 2306.0, 2306.0, 2306.0, 2306.0, 2307.0, 2306.0, 2306.0, 2306.0, 2306.0, 2306.0, 2306.0, 2306.0, 2306.0, 2306.0, 2306.0, 2306.0, 2306.0, 2306.0, 2306.0, 2306.0, 2306.0, 2306.0, 2306.0]
    },
    "slices": {}
  }
}