{
  "AccelFactPE": 2,
  "AcquisitionNumber": 1,
  "AcquisitionTime": "09:24:52.792500",
  "BandwidthPerPixelPhaseEncode": 48.077,
  "BodyPartExamined": "BRAIN",
  "ConversionSoftware": "dcm2niix",
  "ConversionSoftwareVersion": "v1.0.20170624 GCC6.3.0",
  "DeviceSerialNumber": "66112",
  "EchoTime": 0.035,
  "EchoTrainLength": 39,
  "EffectiveEchoSpacing": 0.00026,
  "FlipAngle": 90,
  "ImageType": [
    "ORIGINAL",
    "PRIMARY",
    "M",
    "ND",
    "NORM",
    "MOSAIC"
],
  "InstitutionAddress": "Maynard_3_Hanover_NH_US_03755",
  "InstitutionName": "Dartmouth_College_-_PBS",
  "MagneticFieldStrength": 3,
  "Manufacturer": "Siemens",
  "ManufacturersModelName": "Prisma",
  "PhaseEncodingDirection": "j-",
  "PhaseEncodingLines": 80,
  "ProcedureStepDescription": "dbic_QA",
  "ProtocolName": "func-bold_task-rest_acq-p2",
  "RepetitionTime": 2,
  "ScanningSequence": "EP",
  "SequenceName": "_epfid2d1_80",
  "SequenceVariant": "SK",
  "SeriesDescription": "func-bold_task-rest_acq-p2",
  "SliceTiming": [0.99, 0, 1.0575, 0.0675, 1.1225, 0.1325, 1.1875, 0.1975, 1.255, 0.265, 1.32, 0.33, 1.3875, 0.3975, 1.4525, 0.4625, 1.5175, 0.5275, 1.585, 0.595, 1.65, 0.66, 1.7175, 0.7275, 1.7825, 0.7925, 1.8475, 0.8575, 1.915, 0.925],
  "SoftwareVersions": "syngo_MR_E11",
  "TaskName": "rest",
  "TotalReadoutTime": 0.02002,
  "TrueEchoSpacing": 0.000519999,
  "dcmmeta_affine": [
    [-2.9406309127807617, 0.5641475915908813, 0.24677562713623047, 87.3809814453125],
    [0.593854546546936, 2.8014349937438965, 1.1890664100646973, -143.80807495117188],
    [0.005142090376466513, -0.9130712747573853, 3.8007001876831055, -24.524511337280273],
    [0.0, 0.0, 0.0, 1.0]
],
  "dcmmeta_reorient_transform": [
    [0.0, -1.0, 0.0, 79.0],
    [1.0, 0.0, 0.0, 0.0],
    [0.0, 0.0, 1.0, 0.0],
    [0.0, 0.0, 0.0, 1.0]
],
  "dcmmeta_shape": [80, 80, 30, 200],
  "dcmmeta_slice_dim": 2,
  "dcmmeta_version": 0.6,
  "global": {
    "const": {
      "AccessionNumber": "qa",
      "AcquisitionMatrix": [80, 0, 0, 80],
      "AngioFlag": "N",
      "BitsAllocated": 16,
      "BitsStored": 12,
      "BodyPartExamined": "BRAIN",
      "Columns": 480,
      "EchoNumbers": 1,
      "EchoTime": 35.0,
      "EchoTrainLength": 39,
      "FlipAngle": 90.0,
      "HighBit": 11,
      "ImageOrientationPatient": [0.98021031440403, -0.1979515133471, 0.00171403020297, 0.18804919287093, 0.93381168246378, 0.30435709742793],
      "ImagePositionPatient": [-832.90434588647, -519.0213996296, -280.29981983492],
      "ImageType": [
        "ORIGINAL",
        "PRIMARY",
        "M",
        "ND",
        "NORM",
        "MOSAIC"
],
      "ImagedNucleus": "1H",
      "ImagingFrequency": 123.252507,
      "InPlanePhaseEncodingDirection": "COL",
      "MRAcquisitionType": "2D",
      "MagneticFieldStrength": 3.0,
      "Manufacturer": "SIEMENS",
      "ManufacturerModelName": "Prisma",
      "Modality": "MR",
      "NumberOfAverages": 1.0,
      "NumberOfPhaseEncodingSteps": 79,
      "PercentPhaseFieldOfView": 100.0,
      "PercentSampling": 100.0,
      "PerformedProcedureStepStartTime": "092143.629000",
      "PhotometricInterpretation": "MONOCHROME2",
      "PixelBandwidth": 2315.0,
      "PixelRepresentation": 0,
      "PixelSpacing": [3.0, 3.0],
      "PositionReferenceIndicator": "",
      "ProtocolName": "func-bold_task-rest_acq-p2",
      "RepetitionTime": 2000.0,
      "Rows": 480,
      "SAR": 0.05540126741237,
      "SamplesPerPixel": 1,
      "ScanOptions": "FS",
      "ScanningSequence": "EP",
      "SequenceName": "*epfid2d1_80",
      "SequenceVariant": "SK",
      "SeriesDescription": "func-bold_task-rest_acq-p2",
      "SeriesNumber": 5,
      "SeriesTime": "092522.948000",
      "SliceLocation": -60.813075935608,
      "SliceThickness": 3.5,
      "SmallestImagePixelValue": 0,
      "SoftwareVersions": "syngo MR E11",
      "SpacingBetweenSlices": 3.9899999267598,
      "SpecificCharacterSet": "ISO_IR 100",
      "StudyID": "80",
      "StudyTime": "092143.451000",
      "TransmitCoilName": "Body",
      "VariableFlipAngleFlag": "N",
      "WindowCenterWidthExplanation": "Algo1",
      "dBdt": 0.0},
    "slices": {}
  },
  "time": {
    "samples": {
      "AcquisitionNumber": [1, 2, 3, 4, 5, 6, 7, 8, 9, 10, 11, 12, 13, 14, 15, 16, 17, 18, 19, 20, 21, 22, 23, 24, 25, 26, 27, 28, 29, 30, 31, 32, 33, 34, 35, 36, 37, 38, 39, 40, 41, 42, 43, 44, 45, 46, 47, 48, 49, 50, 51, 52, 53, 54, 55, 56, 57, 58, 59, 60, 61, 62, 63, 64, 65, 66, 67, 68, 69, 70, 71, 72, 73, 74, 75, 76, 77, 78, 79, 80, 81, 82, 83, 84, 85, 86, 87, 88, 89, 90, 91, 92, 93, 94, 95, 96, 97, 98, 99, 100, 101, 102, 103, 104, 105, 106, 107, 108, 109, 110, 111, 112, 113, 114, 115, 116, 117, 118, 119, 120, 121, 122, 123, 124, 125, 126, 127, 128, 129, 130, 131, 132, 133, 134, 135, 136, 137, 138, 139, 140, 141, 142, 143, 144, 145, 146, 147, 148, 149, 150, 151, 152, 153, 154, 155, 156, 157, 158, 159, 160, 161, 162, 163, 164, 165, 166, 167, 168, 169, 170, 171, 172, 173, 174, 175, 176, 177, 178, 179, 180, 181, 182, 183, 184, 185, 186, 187, 188, 189, 190, 191, 192, 193, 194, 195, 196, 197, 198, 199, 200],
      "AcquisitionTime": ["092452.792500", "092454.792500", "092456.792500", "092458.792500", "092500.792500", "092502.792500", "092504.792500", "092506.792500", "092508.792500", "092510.792500", "092512.792500", "092514.792500", "092516.792500", "092518.792500", "092520.792500", "092522.792500", "092524.792500", "092526.792500", "092528.792500", "092530.792500", "092532.792500", "092534.792500", "092536.792500", "092538.792500", "092540.792500", "092542.792500", "092544.792500", "092546.792500", "092548.792500", "092550.792500", "092552.792500", "092554.792500", "092556.792500", "092558.792500", "092600.792500", "092602.792500", "092604.792500", "092606.792500", "092608.792500", "092610.792500", "092612.792500", "092614.792500", "092616.792500", "092618.792500", "092620.792500", "092622.792500", "092624.792500", "092626.792500", "092628.792500", "092630.792500", "092632.792500", "092634.792500", "092636.792500", "092638.792500", "092640.792500", "092642.792500", "092644.792500", "092646.792500", "092648.792500", "092650.792500", "092652.792500", "092654.792500", "092656.792500", "092658.792500", "092700.792500", "092702.792500", "092704.792500", "092706.792500", "092708.792500", "092710.792500", "092712.792500", "092714.792500", "092716.792500", "092718.792500", "092720.792500", "092722.792500", "092724.792500", "092726.792500", "092728.792500", "092730.792500", "092732.792500", "092734.792500", "092736.792500", "092738.792500", "092740.792500", "092742.792500", "092744.792500", "092746.792500", "092748.792500", "092750.792500", "092752.792500", "092754.792500", "092756.792500", "092758.792500", "092800.792500", "092802.792500", "092804.792500", "092806.792500", "092808.792500", "092810.792500", "092812.792500", "092814.792500", "092816.792500", "092818.792500", "092820.792500", "092822.792500", "092824.792500", "092826.792500", "092828.792500", "092830.792500", "092832.792500", "092834.792500", "092836.792500", "092838.792500", "092840.792500", "092842.792500", "092844.792500", "092846.792500", "092848.792500", "092850.792500", "092852.792500", "092854.792500", "092856.792500", "092858.792500", "092900.792500", "092902.792500", "092904.792500", "092906.792500", "092908.792500", "092910.792500", "092912.792500", "092914.792500", "092916.792500", "092918.792500", "092920.792500", "092922.792500", "092924.792500", "092926.792500", "092928.792500", "092930.792500", "092932.792500", "092934.792500", "092936.792500", "092938.792500", "092940.792500", "092942.792500", "092944.792500", "092946.792500", "092948.792500", "092950.792500", "092952.792500", "092954.792500", "092956.792500", "092958.792500", "093000.792500", "093002.792500", "093004.792500", "093006.792500", "093008.792500", "093010.792500", "093012.792500", "093014.792500", "093016.792500", "093018.792500", "093020.792500", "093022.792500", "093024.792500", "093026.792500", "093028.792500", "093030.792500", "093032.792500", "093034.792500", "093036.792500", "093038.792500", "093040.792500", "093042.792500", "093044.792500", "093046.792500", "093048.792500", "093050.792500", "093052.792500", "093054.792500", "093056.792500", "093058.792500", "093100.792500", "093102.792500", "093104.792500", "093106.792500", "093108.792500", "093110.792500", "093112.792500", "093114.792500", "093116.792500", "093118.792500", "093120.792500", "093122.792500", "093124.792500", "093126.792500", "093128.792500", "093130.792500"],
      "ContentTime": ["092522.952000", "092522.955000", "092522.958000", "092522.960000", "092522.963000", "092522.982000", "092522.985000", "092522.987000", "092522.990000", "092522.992000", "092522.995000", "092522.997000", "092523.001000", "092523.003000", "092523.006000", "092602.945000", "092602.948000", "092602.959000", "092602.962000", "092602.964000", "092602.967000", "092602.969000", "092602.972000", "092602.974000", "092602.977000", "092602.979000", "092602.982000", "092602.985000", "092602.987000", "092602.990000", "092602.996000", "092603.000000", "092603.003000", "092603.005000", "092603.008000", "092642.946000", "092642.949000", "092642.952000", "092642.954000", "092642.957000", "092642.960000", "092642.962000", "092642.965000", "092642.970000", "092642.973000", "092642.975000", "092642.978000", "092642.980000", "092642.983000", "092642.986000", "092642.988000", "092642.991000", "092642.993000", "092642.996000", "092642.998000", "092722.947000", "092722.949000", "092722.952000", "092722.955000", "092722.957000", "092722.960000", "092722.963000", "092722.966000", "092722.968000", "092722.971000", "092722.973000", "092722.976000", "092722.979000", "092722.981000", "092722.984000", "092722.986000", "092722.989000", "092722.992000", "092722.994000", "092722.997000", "092802.947000", "092802.949000", "092802.952000", "092802.955000", "092802.957000", "092802.960000", "092802.962000", "092802.965000", "092802.968000", "092802.970000", "092802.973000", "092802.975000", "092802.978000", "092802.980000", "092802.983000", "092802.985000", "092802.988000", "092802.991000", "092802.993000", "092802.996000", "092842.946000", "092842.948000", "092842.951000", "092842.954000", "092842.966000", "092842.968000", "092842.971000", "092842.973000", "092842.976000", "092842.978000", "092842.981000", "092842.983000", "092842.986000", "092842.989000", "092842.991000", "092842.994000", "092842.996000", "092843.000000", "092843.002000", "092843.005000", "092922.947000", "092922.950000", "092922.952000", "092922.955000", "092922.957000", "092922.960000", "092922.963000", "092922.965000", "092922.968000", "092922.970000", "092922.973000", "092922.976000", "092922.978000", "092922.981000", "092922.983000", "092922.986000", "092922.989000", "092922.991000", "092922.994000", "092922.996000", "093002.947000", "093002.949000", "093002.952000", "093002.955000", "093002.957000", "093002.960000", "093002.962000", "093002.965000", "093002.967000", "093002.970000", "093002.972000", "093002.975000", "093002.978000", "093002.980000", "093002.983000", "093002.986000", "093002.988000", "093002.991000", "093002.994000", "093002.996000", "093042.945000", "093042.948000", "093042.951000", "093042.953000", "093042.956000", "093042.959000", "093042.961000", "093042.964000", "093042.966000", "093042.969000", "093042.971000", "093042.974000", "093042.976000", "093042.979000", "093042.982000", "093042.993000", "093042.996000", "093042.998000", "093043.002000", "093043.005000", "093122.947000", "093122.949000", "093122.952000", "093122.955000", "093122.957000", "093122.960000", "093122.963000", "093122.965000", "093122.968000", "093122.971000", "093122.973000", "093122.976000", "093122.978000", "093122.981000", "093122.984000", "093122.987000", "093122.989000", "093122.992000", "093122.995000", "093122.997000", "093132.545000", "093132.547000", "093132.550000", "093132.553000", "093132.556000"],
      "InstanceCreationTime": ["092522.952000", "092522.955000", "092522.958000", "092522.960000", "092522.963000", "092522.982000", "092522.985000", "092522.987000", "092522.990000", "092522.992000", "092522.995000", "092522.997000", "092523.001000", "092523.003000", "092523.006000", "092602.945000", "092602.948000", "092602.959000", "092602.962000", "092602.964000", "092602.967000", "092602.969000", "092602.972000", "092602.974000", "092602.977000", "092602.979000", "092602.982000", "092602.985000", "092602.987000", "092602.990000", "092602.996000", "092603.000000", "092603.003000", "092603.005000", "092603.008000", "092642.946000", "092642.949000", "092642.952000", "092642.954000", "092642.957000", "092642.960000", "092642.962000", "092642.965000", "092642.970000", "092642.973000", "092642.975000", "092642.978000", "092642.980000", "092642.983000", "092642.986000", "092642.988000", "092642.991000", "092642.993000", "092642.996000", "092642.998000", "092722.947000", "092722.949000", "092722.952000", "092722.955000", "092722.957000", "092722.960000", "092722.963000", "092722.966000", "092722.968000", "092722.971000", "092722.973000", "092722.976000", "092722.979000", "092722.981000", "092722.984000", "092722.986000", "092722.989000", "092722.992000", "092722.994000", "092722.997000", "092802.947000", "092802.949000", "092802.952000", "092802.955000", "092802.957000", "092802.960000", "092802.962000", "092802.965000", "092802.968000", "092802.970000", "092802.973000", "092802.975000", "092802.978000", "092802.980000", "092802.983000", "092802.985000", "092802.988000", "092802.991000", "092802.993000", "092802.996000", "092842.946000", "092842.948000", "092842.951000", "092842.954000", "092842.966000", "092842.968000", "092842.971000", "092842.973000", "092842.976000", "092842.978000", "092842.981000", "092842.983000", "092842.986000", "092842.989000", "092842.991000", "092842.994000", "092842.996000", "092843.000000", "092843.002000", "092843.005000", "092922.947000", "092922.950000", "092922.952000", "092922.955000", "092922.957000", "092922.960000", "092922.963000", "092922.965000", "092922.968000", "092922.970000", "092922.973000", "092922.976000", "092922.978000", "092922.981000", "092922.983000", "092922.986000", "092922.989000", "092922.991000", "092922.994000", "092922.996000", "093002.947000", "093002.949000", "093002.952000", "093002.955000", "093002.957000", "093002.960000", "093002.962000", "093002.965000", "093002.967000", "093002.970000", "093002.972000", "093002.975000", "093002.978000", "093002.980000", "093002.983000", "093002.986000", "093002.988000", "093002.991000", "093002.994000", "093002.996000", "093042.945000", "093042.948000", "093042.951000", "093042.953000", "093042.956000", "093042.959000", "093042.961000", "093042.964000", "093042.966000", "093042.969000", "093042.971000", "093042.974000", "093042.976000", "093042.979000", "093042.982000", "093042.993000", "093042.996000", "093042.998000", "093043.002000", "093043.005000", "093122.947000", "093122.949000", "093122.952000", "093122.955000", "093122.957000", "093122.960000", "093122.963000", "093122.965000", "093122.968000", "093122.971000", "093122.973000", "093122.976000", "093122.978000", "093122.981000", "093122.984000", "093122.987000", "093122.989000", "093122.992000", "093122.995000", "093122.997000", "093132.545000", "093132.547000", "093132.550000", "093132.553000", "093132.556000"],
      "InstanceNumber": [1, 2, 3, 4, 5, 6, 7, 8, 9, 10, 11, 12, 13, 14, 15, 16, 17, 18, 19, 20, 21, 22, 23, 24, 25, 26, 27, 28, 29, 30, 31, 32, 33, 34, 35, 36, 37, 38, 39, 40, 41, 42, 43, 44, 45, 46, 47, 48, 49, 50, 51, 52, 53, 54, 55, 56, 57, 58, 59, 60, 61, 62, 63, 64, 65, 66, 67, 68, 69, 70, 71, 72, 73, 74, 75, 76, 77, 78, 79, 80, 81, 82, 83, 84, 85, 86, 87, 88, 89, 90, 91, 92, 93, 94, 95, 96, 97, 98, 99, 100, 101, 102, 103, 104, 105, 106, 107, 108, 109, 110, 111, 112, 113, 114, 115, 116, 117, 118, 119, 120, 121, 122, 123, 124, 125, 126, 127, 128, 129, 130, 131, 132, 133, 134, 135, 136, 137, 138, 139, 140, 141, 142, 143, 144, 145, 146, 147, 148, 149, 150, 151, 152, 153, 154, 155, 156, 157, 158, 159, 160, 161, 162, 163, 164, 165, 166, 167, 168, 169, 170, 171, 172, 173, 174, 175, 176, 177, 178, 179, 180, 181, 182, 183, 184, 185, 186, 187, 188, 189, 190, 191, 192, 193, 194, 195, 196, 197, 198, 199, 200],
      "LargestImagePixelValue": [2240, 2230, 2234, 2236, 2234, 2239, 2235, 2239, 2235, 2230, 2237, 2228, 2232, 2233, 2235, 2230, 2237, 2231, 2233, 2237, 2237, 2238, 2239, 2229, 2231, 2232, 2231, 2235, 2240, 2237, 2232, 2227, 2241, 2229, 2237, 2232, 2238, 2241, 2234, 2230, 2237, 2235, 2235, 2232, 2238, 2236, 2228, 2231, 2234, 2229, 2235, 2239, 2234, 2233, 2232, 2237, 2241, 2227, 2235, 2234, 2238, 2237, 2228, 2233, 2238, 2237, 2230, 2238, 2235, 2228, 2235, 2236, 2238, 2231, 2232, 2232, 2232, 2238, 2231, 2239, 2232, 2234, 2235, 2233, 2236, 2232, 2235, 2228, 2232, 2231, 2231, 2236, 2231, 2229, 2230, 2229, 2235, 2234, 2240, 2230, 2227, 2234, 2230, 2232, 2232, 2230, 2235, 2235, 2233, 2238, 2237, 2230, 2238, 2232, 2233, 2232, 2240, 2232, 2239, 2236, 2234, 2230, 2235, 2235, 2231, 2231, 2232, 2237, 2228, 2233, 2231, 2234, 2228, 2235, 2229, 2231, 2223, 2230, 2230, 2236, 2232, 2230, 2239, 2235, 2236, 2229, 2233, 2234, 2228, 2234, 2231, 2230, 2230, 2235, 2233, 2234, 2232, 2243, 2229, 2233, 2234, 2229, 2231, 2236, 2230, 2232, 2230, 2232, 2228, 2227, 2231, 2232, 2229, 2228, 2233, 2230, 2240, 2230, 2230, 2233, 2231, 2229, 2227, 2234, 2234, 2231, 2232, 2228, 2237, 2230, 2230, 2228, 2235, 2230, 2224, 2235, 2232, 2230, 2227, 2237],
      "WindowCenter": [972.0, 972.0, 972.0, 972.0, 972.0, 972.0, 972.0, 972.0, 972.0, 972.0, 972.0, 972.0, 972.0, 972.0, 972.0, 972.0, 972.0, 972.0, 972.0, 972.0, 972.0, 972.0, 972.0, 972.0, 972.0, 972.0, 972.0, 972.0, 972.0, 972.0, 971.0, 972.0, 972.0, 971.0, 972.0, 971.0, 972.0, 972.0, 972.0, 972.0, 971.0, 971.0, 971.0, 971.0, 971.0, 971.0, 971.0, 971.0, 971.0, 971.0, 971.0, 971.0, 971.0, 971.0, 971.0, 971.0, 971.0, 971.0, 971.0, 971.0, 971.0, 971.0, 971.0, 971.0, 971.0, 971.0, 971.0, 971.0, 971.0, 971.0, 971.0, 971.0, 971.0, 971.0, 971.0, 971.0, 971.0, 971.0, 971.0, 971.0, 971.0, 971.0, 971.0, 971.0, 971.0, 971.0, 971.0, 971.0, 971.0, 971.0, 971.0, 971.0, 971.0, 971.0, 971.0, 971.0, 971.0, 971.0, 971.0, 971.0, 971.0, 971.0, 971.0, 971.0, 971.0, 971.0, 971.0, 971.0, 971.0, 971.0, 971.0, 971.0, 971.0, 971.0, 971.0, 971.0, 971.0, 971.0, 971.0, 971.0, 971.0, 971.0, 971.0, 971.0, 971.0, 971.0, 971.0, 971.0, 971.0, 971.0, 971.0, 971.0, 971.0, 971.0, 971.0, 971.0, 971.0, 971.0, 971.0, 971.0, 971.0, 971.0, 971.0, 971.0, 971.0, 971.0, 971.0, 971.0, 971.0, 971.0, 971.0, 971.0, 971.0, 971.0, 971.0, 971.0, 971.0, 971.0, 971.0, 971.0, 971.0, 971.0, 971.0, 970.0, 970.0, 970.0, 970.0, 970.0, 970.0, 970.0, 970.0, 970.0, 970.0, 970.0, 970.0, 970.0, 971.0, 970.0, 970.0, 970.0, 970.0, 970.0, 970.0, 970.0, 970.0, 970.0, 970.0, 970.0, 970.0, 970.0, 970.0, 970.0, 970.0, 970.0, 970.0, 970.0, 970.0, 970.0, 970.0, 970.0],
      "WindowWidth": [2120.0, 2120.0, 2120.0, 2120.0, 2120.0, 2119.0, 2119.0, 2119.0, 2119.0, 2119.0, 2119.0, 2119.0, 2119.0, 2119.0, 2119.0, 2119.0, 2119.0, 2119.0, 2119.0, 2119.0, 2119.0, 2119.0, 2119.0, 2119.0, 2119.0, 2119.0, 2119.0, 2119.0, 2119.0, 2119.0, 2119.0, 2118.0, 2119.0, 2119.0, 2118.0, 2119.0, 2118.0, 2118.0, 2118.0, 2118.0, 2118.0, 2118.0, 2118.0, 2118.0, 2118.0, 2119.0, 2118.0, 2118.0, 2118.0, 2118.0, 2118.0, 2118.0, 2118.0, 2118.0, 2118.0, 2118.0, 2118.0, 2118.0, 2118.0, 2118.0, 2118.0, 2118.0, 2118.0, 2118.0, 2118.0, 2118.0, 2118.0, 2118.0, 2118.0, 2118.0, 2118.0, 2118.0, 2118.0, 2118.0, 2118.0, 2118.0, 2118.0, 2118.0, 2118.0, 2118.0, 2118.0, 2118.0, 2118.0, 2118.0, 2118.0, 2118.0, 2118.0, 2118.0, 2118.0, 2118.0, 2118.0, 2118.0, 2118.0, 2118.0, 2118.0, 2118.0, 2118.0, 2118.0, 2118.0, 2117.0, 2117.0, 2118.0, 2117.0, 2117.0, 2117.0, 2117.0, 2117.0, 2117.0, 2117.0, 2117.0, 2117.0, 2117.0, 2117.0, 2117.0, 2117.0, 2117.0, 2117.0, 2117.0, 2117.0, 2117.0, 2117.0, 2117.0, 2117.0, 2117.0, 2117.0, 2117.0, 2117.0, 2117.0, 2117.0, 2116.0, 2117.0, 2117.0, 2117.0, 2117.0, 2117.0, 2117.0, 2116.0, 2117.0, 2116.0, 2116.0, 2117.0, 2116.0, 2116.0, 2117.0, 2116.0, 2116.0, 2117.0, 2116.0, 2116.0, 2116.0, 2116.0, 2116.0, 2116.0, 2116.0, 2116.0, 2116.0, 2116.0, 2116.0, 2116.0, 2116.0, 2116.0, 2116.0, 2116.0, 2116.0, 2116.0, 2116.0, 2116.0, 2116.0, 2116.0, 2116.0, 2116.0, 2116.0, 2116.0, 2116.0, 2116.0, 2116.0, 2115.0, 2116.0, 2116.0, 2116.0, 2116.0, 2115.0, 2116.0, 2116.0, 2116.0, 2116.0, 2116.0, 2116.0, 2116.0, 2116.0, 2116.0, 2115.0, 2115.0, 2116.0, 2115.0, 2116.0, 2116.0, 2116.0, 2115.0, 2115.0]
    },
    "slices": {}
  }
}