{
  "AcquisitionMatrixPE": 122,
  "AcquisitionNumber": 1,
  "AcquisitionTime": "09:29:10.587500",
  "BandwidthPerPixelPhaseEncode": 28.76,
  "BaseResolution": 122,
  "BodyPartExamined": "BRAIN",
  "CoilCombinationMethod": "Adaptive Combine",
  "ConsistencyInfo": "N4_VE11C_LATEST_20160120",
  "ConversionSoftware": "dcm2niix",
  "ConversionSoftwareVersion": "v1.0.20220720",
  "DerivedVendorReportedEchoSpacing": 0.000570008,
  "DeviceSerialNumber": "66112",
  "DiffusionScheme": "Monopolar",
  "DwellTime": 2e-06,
  "EchoTime": 0.075,
  "EchoTrainLength": 61,
  "EffectiveEchoSpacing": 0.000285004,
  "FlipAngle": 90,
  "HeudiconvVersion": "0.13.1",
  "ImageOrientationPatientDICOM": [0.996691, 0.0811567, 0.00444036, -0.0786164, 0.948745, 0.306108],
  "ImageOrientationText": "Tra>Cor(17.8)>Sag(-1.2)",
  "ImageType": [
    "ORIGINAL",
    "PRIMARY",
    "DIFFUSION",
    "NONE",
    "ND",
    "NORM"
],
  "ImagingFrequency": 123.252,
  "InPlanePhaseEncodingDirectionDICOM": "COL",
  "InstitutionAddress": "Maynard 3,Hanover,NH,US,03755",
  "InstitutionName": "Dartmouth College - PBS",
  "InstitutionalDepartmentName": "Department",
  "MRAcquisitionType": "2D",
  "MagneticFieldStrength": 3,
  "Manufacturer": "Siemens",
  "ManufacturersModelName": "Prisma",
  "MatrixCoilMode": "GRAPPA",
  "Modality": "MR",
  "NonlinearGradientCorrection": false,
  "ParallelReductionFactorInPlane": 2,
  "PartialFourier": 1,
  "PatientPosition": "HFS",
  "PercentPhaseFOV": 100,
  "PercentSampling": 100,
  "PhaseEncodingDirection": "j-",
  "PhaseEncodingSteps": 122,
  "PhaseResolution": 1,
  "PixelBandwidth": 2050,
  "ProcedureStepDescription": "dbic^QA",
  "ProtocolName": "dwi_acq-DTI-30-p2",
  "PulseSequenceDetails": "%SiemensSeq%\\ep2d_diff",
  "ReceiveCoilActiveElements": "HEA;HEP",
  "ReceiveCoilName": "Head_32",
  "ReconMatrixPE": 122,
  "RefLinesPE": 38,
  "RepetitionTime": 7.7,
  "SAR": 0.101592,
  "ScanOptions": "FS",
  "ScanningSequence": "EP",
  "SequenceName": "*ep_b0",
  "SequenceVariant": "SK\\SP",
  "SeriesDescription": "dwi_acq-DTI-30-p2",
  "SeriesNumber": 8,
  "ShimSetting": [4143, -7696, -7515, 261, -75, -117, -41, 64],
  "SliceThickness": 2,
  "SliceTiming": [3.83594, 0, 3.94531, 0.10938, 4.05469, 0.21875, 4.16406, 0.32812, 4.27344, 0.4375, 4.38281, 0.54688, 4.49219, 0.65625, 4.60156, 0.76562, 4.71875, 0.875, 4.82812, 0.98438, 4.9375, 1.09375, 5.03906, 1.20312, 5.15625, 1.3125, 5.26562, 1.42188, 5.375, 1.53125, 5.48438, 1.64062, 5.59375, 1.75, 5.70312, 1.85938, 5.8125, 1.96875, 5.92188, 2.08594, 6.03125, 2.1875, 6.14062, 2.29688, 6.25, 2.40625, 6.35938, 2.52344, 6.46875, 2.63281, 6.57812, 2.74219, 6.6875, 2.85156, 6.79688, 2.96094, 6.90625, 3.07031, 7.01562, 3.17969, 7.125, 3.28906, 7.23438, 3.39844, 7.34375, 3.50781, 7.46094, 3.61719, 7.57031, 3.72656],
  "SoftwareVersions": "syngo MR E11",
  "SpacingBetweenSlices": 2,
  "SpoilingState": true,
  "StationName": "AWP66112",
  "TotalReadoutTime": 0.0344855,
  "TxRefAmp": 230.059,
  "dcmmeta_affine": [
    [-1.9607045650482178, -0.15465512871742249, -0.04125988483428955, 130.57400512695312],
    [-0.1596525013446808, 1.8663841485977173, 0.6108875274658203, -116.67921447753906],
    [0.008735137060284615, -0.6021789908409119, 1.9039726257324219, -29.881736755371094],
    [0.0, 0.0, 0.0, 1.0]
],
  "dcmmeta_reorient_transform": [
    [0.0, -1.0, 0.0, 121.0],
    [1.0, 0.0, 0.0, 0.0],
    [0.0, 0.0, -1.0, 69.0],
    [0.0, 0.0, 0.0, 1.0]
],
  "dcmmeta_shape": [122, 122, 70, 31],
  "dcmmeta_slice_dim": 2,
  "dcmmeta_version": 0.6,
  "global": {
    "const": {
      "AccessionNumber": "qa",
      "AcquisitionMatrix": [122, 0, 0, 122],
      "AngioFlag": "N",
      "BitsAllocated": 16,
      "BitsStored": 12,
      "BodyPartExamined": "BRAIN",
      "Columns": 122,
      "EchoNumbers": 1,
      "EchoTime": 75.0,
      "EchoTrainLength": 61,
      "FlipAngle": 90.0,
      "HighBit": 11,
      "ImageOrientationPatient": [0.99669146434715, 0.08115668851815, 0.00444036105581, -0.0786163574398, 0.94874526495211, 0.30610764540249],
      "ImageType": [
        "ORIGINAL",
        "PRIMARY",
        "DIFFUSION",
        "NONE",
        "ND",
        "NORM"
],
      "ImagedNucleus": "1H",
      "ImagingFrequency": 123.252478,
      "InPlanePhaseEncodingDirection": "COL",
      "MRAcquisitionType": "2D",
      "MagneticFieldStrength": 3.0,
      "Manufacturer": "SIEMENS",
      "ManufacturerModelName": "Prisma",
      "Modality": "MR",
      "NumberOfAverages": 1.0,
      "NumberOfPhaseEncodingSteps": 122,
      "PercentPhaseFieldOfView": 100.0,
      "PercentSampling": 100.0,
      "PerformedProcedureStepStartTime": "083427.444000",
      "PhotometricInterpretation": "MONOCHROME2",
      "PixelBandwidth": 2050.0,
      "PixelRepresentation": 0,
      "PixelSpacing": [1.9672131538391, 1.9672131538391],
      "ProtocolName": "dwi_acq-DTI-30-p2",
      "RepetitionTime": 7700.0,
      "Rows": 122,
      "SAR": 0.10159217285787,
      "SamplesPerPixel": 1,
      "ScanOptions": "FS",
      "ScanningSequence": "EP",
      "SequenceVariant": [
        "SK",
        "SP"
],
      "SeriesDescription": "dwi_acq-DTI-30-p2",
      "SeriesNumber": 8,
      "SeriesTime": "092928.061000",
      "SliceThickness": 2.0,
      "SmallestImagePixelValue": 0,
      "SoftwareVersions": "syngo MR E11",
      "SpacingBetweenSlices": 2.0,
      "SpecificCharacterSet": "ISO_IR 100",
      "StudyID": "106",
      "StudyTime": "083427.354000",
      "TransmitCoilName": "Body",
      "VariableFlipAngleFlag": "N",
      "WindowCenterWidthExplanation": "Algo1",
      "dBdt": 0.0},
    "slices": {
      "AcquisitionTime": ["092910.587500", "092906.747500", "092910.697500", "092906.857500", "092910.807500", "092906.967500", "092910.915000", "092907.075000", "092911.025000", "092907.185000", "092911.135000", "092907.295000", "092911.245000", "092907.405000", "092911.355000", "092907.515000", "092911.465000", "092907.625000", "092911.575000", "092907.735000", "092911.685000", "092907.845000", "092911.792500", "092907.955000", "092911.902500", "092908.062500", "092912.012500", "092908.172500", "092912.122500", "092908.282500", "092912.232500", "092908.392500", "092912.342500", "092908.502500", "092912.452500", "092908.612500", "092912.562500", "092908.722500", "092912.672500", "092908.832500", "092912.780000", "092908.940000", "092912.890000", "092909.050000", "092913.000000", "092909.160000", "092913.110000", "092909.270000", "092913.220000", "092909.380000", "092913.330000", "092909.490000", "092913.440000", "092909.600000", "092913.550000", "092909.710000", "092913.660000", "092909.820000", "092913.767500", "092909.927500", "092913.877500", "092910.037500", "092913.987500", "092910.147500", "092914.097500", "092910.257500", "092914.207500", "092910.367500", "092914.317500", "092910.477500", "092918.287500", "092914.447500", "092918.397500", "092914.557500", "092918.507500", "092914.667500", "092918.615000", "092914.775000", "092918.725000", "092914.885000", "092918.835000", "092914.995000", "092918.945000", "092915.105000", "092919.055000", "092915.215000", "092919.165000", "092915.325000", "092919.275000", "092915.435000", "092919.385000", "092915.545000", "092919.492500", "092915.655000", "092919.602500", "092915.762500", "092919.712500", "092915.872500", "092919.822500", "092915.982500", "092919.932500", "092916.092500", "092920.042500", "092916.202500", "092920.152500", "092916.312500", "092920.262500", "092916.422500", "092920.372500", "092916.532500", "092920.480000", "092916.640000", "092920.590000", "092916.750000", "092920.700000", "092916.860000", "092920.810000", "092916.970000", "092920.920000", "092917.080000", "092921.030000", "092917.190000", "092921.140000", "092917.300000", "092921.250000", "092917.410000", "092921.360000", "092917.520000", "092921.467500", "092917.627500", "092921.577500", "092917.737500", "092921.687500", "092917.847500", "092921.797500", "092917.957500", "092921.907500", "092918.067500", "092922.017500", "092918.177500", "092925.987500", "092922.147500", "092926.097500", "092922.257500", "092926.207500", "092922.367500", "092926.315000", "092922.475000", "092926.425000", "092922.585000", "092926.535000", "092922.695000", "092926.645000", "092922.805000", "092926.755000", "092922.915000", "092926.865000", "092923.025000", "092926.975000", "092923.135000", "092927.085000", "092923.245000", "092927.192500", "092923.355000", "092927.302500", "092923.462500", "092927.412500", "092923.572500", "092927.522500", "092923.682500", "092927.632500", "092923.792500", "092927.742500", "092923.902500", "092927.852500", "092924.012500", "092927.962500", "092924.122500", "092928.072500", "092924.232500", "092928.180000", "092924.340000", "092928.290000", "092924.450000", "092928.400000", "092924.560000", "092928.510000", "092924.670000", "092928.620000", "092924.780000", "092928.730000", "092924.890000", "092928.840000", "092925.000000", "092928.950000", "092925.110000", "092929.060000", "092925.220000", "092929.167500", "092925.327500", "092929.277500", "092925.437500", "092929.387500", "092925.547500", "092929.497500", "092925.657500", "092929.607500", "092925.767500", "092929.717500", "092925.877500", "092933.687500", "092929.847500", "092933.797500", "092929.957500", "092933.907500", "092930.067500", "092934.015000", "092930.175000", "092934.125000", "092930.285000", "092934.235000", "092930.395000", "092934.345000", "092930.505000", "092934.455000", "092930.615000", "092934.565000", "092930.725000", "092934.675000", "092930.835000", "092934.785000", "092930.945000", "092934.892500", "092931.055000", "092935.002500", "092931.162500", "092935.112500", "092931.272500", "092935.222500", "092931.382500", "092935.332500", "092931.492500", "092935.442500", "092931.602500", "092935.552500", "092931.712500", "092935.662500", "092931.822500", "092935.772500", "092931.932500", "092935.880000", "092932.040000", "092935.990000", "092932.150000", "092936.100000", "092932.260000", "092936.210000", "092932.370000", "092936.320000", "092932.480000", "092936.430000", "092932.590000", "092936.540000", "092932.700000", "092936.650000", "092932.810000", "092936.760000", "092932.920000", "092936.867500", "092933.027500", "092936.977500", "092933.137500", "092937.087500", "092933.247500", "092937.197500", "092933.357500", "092937.307500", "092933.467500", "092937.417500", "092933.577500", "092941.387500", "092937.547500", "092941.497500", "092937.657500", "092941.607500", "092937.767500", "092941.715000", "092937.875000", "092941.825000", "092937.985000", "092941.935000", "092938.095000", "092942.045000", "092938.205000", "092942.155000", "092938.315000", "092942.265000", "092938.425000", "092942.375000", "092938.535000", "092942.485000", "092938.645000", "092942.592500", "092938.755000", "092942.702500", "092938.862500", "092942.812500", "092938.972500", "092942.922500", "092939.082500", "092943.032500", "092939.192500", "092943.142500", "092939.302500", "092943.252500", "092939.412500", "092943.362500", "092939.522500", "092943.472500", "092939.632500", "092943.580000", "092939.740000", "092943.690000", "092939.850000", "092943.800000", "092939.960000", "092943.910000", "092940.070000", "092944.020000", "092940.180000", "092944.130000", "092940.290000", "092944.240000", "092940.400000", "092944.350000", "092940.510000", "092944.460000", "092940.620000", "092944.567500", "092940.727500", "092944.677500", "092940.837500", "092944.787500", "092940.947500", "092944.897500", "092941.057500", "092945.007500", "092941.167500", "092945.117500", "092941.277500", "092949.087500", "092945.247500", "092949.197500", "092945.357500", "092949.307500", "092945.467500", "092949.415000", "092945.575000", "092949.525000", "092945.685000", "092949.635000", "092945.795000", "092949.745000", "092945.905000", "092949.855000", "092946.015000", "092949.965000", "092946.125000", "092950.075000", "092946.235000", "092950.185000", "092946.345000", "092950.292500", "092946.455000", "092950.402500", "092946.562500", "092950.512500", "092946.672500", "092950.622500", "092946.782500", "092950.732500", "092946.892500", "092950.842500", "092947.002500", "092950.952500", "092947.112500", "092951.062500", "092947.222500", "092951.172500", "092947.332500", "092951.280000", "092947.440000", "092951.390000", "092947.550000", "092951.500000", "092947.660000", "092951.610000", "092947.770000", "092951.720000", "092947.880000", "092951.830000", "092947.990000", "092951.940000", "092948.100000", "092952.050000", "092948.210000", "092952.160000", "092948.320000", "092952.267500", "092948.427500", "092952.377500", "092948.537500", "092952.487500", "092948.647500", "092952.597500", "092948.757500", "092952.707500", "092948.867500", "092952.817500", "092948.977500", "092956.787500", "092952.947500", "092956.897500", "092953.057500", "092957.007500", "092953.167500", "092957.115000", "092953.275000", "092957.225000", "092953.385000", "092957.335000", "092953.495000", "092957.445000", "092953.605000", "092957.555000", "092953.715000", "092957.665000", "092953.825000", "092957.775000", "092953.935000", "092957.885000", "092954.045000", "092957.992500", "092954.155000", "092958.102500", "092954.262500", "092958.212500", "092954.372500", "092958.322500", "092954.482500", "092958.432500", "092954.592500", "092958.542500", "092954.702500", "092958.652500", "092954.812500", "092958.762500", "092954.922500", "092958.872500", "092955.032500", "092958.980000", "092955.140000", "092959.090000", "092955.250000", "092959.200000", "092955.360000", "092959.310000", "092955.470000", "092959.420000", "092955.580000", "092959.530000", "092955.690000", "092959.640000", "092955.800000", "092959.750000", "092955.910000", "092959.860000", "092956.020000", "092959.967500", "092956.127500", "093000.077500", "092956.237500", "093000.187500", "092956.347500", "093000.297500", "092956.457500", "093000.407500", "092956.567500", "093000.517500", "092956.677500", "093004.487500", "093000.647500", "093004.597500", "093000.757500", "093004.707500", "093000.867500", "093004.815000", "093000.975000", "093004.925000", "093001.085000", "093005.035000", "093001.195000", "093005.145000", "093001.305000", "093005.255000", "093001.415000", "093005.365000", "093001.525000", "093005.475000", "093001.635000", "093005.585000", "093001.745000", "093005.692500", "093001.855000", "093005.802500", "093001.962500", "093005.912500", "093002.072500", "093006.022500", "093002.182500", "093006.132500", "093002.292500", "093006.242500", "093002.402500", "093006.352500", "093002.512500", "093006.462500", "093002.622500", "093006.572500", "093002.732500", "093006.680000", "093002.840000", "093006.790000", "093002.950000", "093006.900000", "093003.060000", "093007.010000", "093003.170000", "093007.120000", "093003.280000", "093007.230000", "093003.390000", "093007.340000", "093003.500000", "093007.450000", "093003.610000", "093007.560000", "093003.720000", "093007.667500", "093003.827500", "093007.777500", "093003.937500", "093007.887500", "093004.047500", "093007.997500", "093004.157500", "093008.107500", "093004.267500", "093008.217500", "093004.377500", "093012.187500", "093008.347500", "093012.297500", "093008.457500", "093012.407500", "093008.567500", "093012.515000", "093008.675000", "093012.625000", "093008.785000", "093012.735000", "093008.895000", "093012.845000", "093009.005000", "093012.955000", "093009.115000", "093013.065000", "093009.225000", "093013.175000", "093009.335000", "093013.285000", "093009.445000", "093013.392500", "093009.555000", "093013.502500", "093009.662500", "093013.612500", "093009.772500", "093013.722500", "093009.882500", "093013.832500", "093009.992500", "093013.942500", "093010.102500", "093014.052500", "093010.212500", "093014.162500", "093010.322500", "093014.272500", "093010.432500", "093014.380000", "093010.540000", "093014.490000", "093010.650000", "093014.600000", "093010.760000", "093014.710000", "093010.870000", "093014.820000", "093010.980000", "093014.930000", "093011.090000", "093015.040000", "093011.200000", "093015.150000", "093011.310000", "093015.260000", "093011.420000", "093015.367500", "093011.527500", "093015.477500", "093011.637500", "093015.587500", "093011.747500", "093015.697500", "093011.857500", "093015.807500", "093011.967500", "093015.917500", "093012.077500", "093019.887500", "093016.047500", "093019.997500", "093016.157500", "093020.107500", "093016.267500", "093020.215000", "093016.375000", "093020.325000", "093016.485000", "093020.435000", "093016.595000", "093020.545000", "093016.705000", "093020.655000", "093016.815000", "093020.765000", "093016.925000", "093020.875000", "093017.035000", "093020.985000", "093017.145000", "093021.092500", "093017.255000", "093021.202500", "093017.362500", "093021.312500", "093017.472500", "093021.422500", "093017.582500", "093021.532500", "093017.692500", "093021.642500", "093017.802500", "093021.752500", "093017.912500", "093021.862500", "093018.022500", "093021.972500", "093018.132500", "093022.080000", "093018.240000", "093022.190000", "093018.350000", "093022.300000", "093018.460000", "093022.410000", "093018.570000", "093022.520000", "093018.680000", "093022.630000", "093018.790000", "093022.740000", "093018.900000", "093022.850000", "093019.010000", "093022.960000", "093019.120000", "093023.067500", "093019.227500", "093023.177500", "093019.337500", "093023.287500", "093019.447500", "093023.397500", "093019.557500", "093023.507500", "093019.667500", "093023.617500", "093019.777500", "093027.587500", "093023.747500", "093027.697500", "093023.857500", "093027.807500", "093023.967500", "093027.915000", "093024.075000", "093028.025000", "093024.185000", "093028.135000", "093024.295000", "093028.245000", "093024.405000", "093028.355000", "093024.515000", "093028.465000", "093024.625000", "093028.575000", "093024.735000", "093028.685000", "093024.845000", "093028.792500", "093024.955000", "093028.902500", "093025.062500", "093029.012500", "093025.172500", "093029.122500", "093025.282500", "093029.232500", "093025.392500", "093029.342500", "093025.502500", "093029.452500", "093025.612500", "093029.562500", "093025.722500", "093029.672500", "093025.832500", "093029.780000", "093025.940000", "093029.890000", "093026.050000", "093030.000000", "093026.160000", "093030.110000", "093026.270000", "093030.220000", "093026.380000", "093030.330000", "093026.490000", "093030.440000", "093026.600000", "093030.550000", "093026.710000", "093030.660000", "093026.820000", "093030.767500", "093026.927500", "093030.877500", "093027.037500", "093030.987500", "093027.147500", "093031.097500", "093027.257500", "093031.207500", "093027.367500", "093031.317500", "093027.477500", "093035.287500", "093031.447500", "093035.397500", "093031.557500", "093035.507500", "093031.667500", "093035.615000", "093031.775000", "093035.725000", "093031.885000", "093035.835000", "093031.995000", "093035.945000", "093032.105000", "093036.055000", "093032.215000", "093036.165000", "093032.325000", "093036.275000", "093032.435000", "093036.385000", "093032.545000", "093036.492500", "093032.655000", "093036.602500", "093032.762500", "093036.712500", "093032.872500", "093036.822500", "093032.982500", "093036.932500", "093033.092500", "093037.042500", "093033.202500", "093037.152500", "093033.312500", "093037.262500", "093033.422500", "093037.372500", "093033.532500", "093037.480000", "093033.640000", "093037.590000", "093033.750000", "093037.700000", "093033.860000", "093037.810000", "093033.970000", "093037.920000", "093034.080000", "093038.030000", "093034.190000", "093038.140000", "093034.300000", "093038.250000", "093034.410000", "093038.360000", "093034.520000", "093038.467500", "093034.627500", "093038.577500", "093034.737500", "093038.687500", "093034.847500", "093038.797500", "093034.957500", "093038.907500", "093035.067500", "093039.017500", "093035.177500", "093042.987500", "093039.147500", "093043.097500", "093039.257500", "093043.207500", "093039.367500", "093043.315000", "093039.475000", "093043.425000", "093039.585000", "093043.535000", "093039.695000", "093043.645000", "093039.805000", "093043.755000", "093039.915000", "093043.865000", "093040.025000", "093043.975000", "093040.135000", "093044.085000", "093040.245000", "093044.192500", "093040.355000", "093044.302500", "093040.462500", "093044.412500", "093040.572500", "093044.522500", "093040.682500", "093044.632500", "093040.792500", "093044.742500", "093040.902500", "093044.852500", "093041.012500", "093044.962500", "093041.122500", "093045.072500", "093041.232500", "093045.180000", "093041.340000", "093045.290000", "093041.450000", "093045.400000", "093041.560000", "093045.510000", "093041.670000", "093045.620000", "093041.780000", "093045.730000", "093041.890000", "093045.840000", "093042.000000", "093045.950000", "093042.110000", "093046.060000", "093042.220000", "093046.167500", "093042.327500", "093046.277500", "093042.437500", "093046.387500", "093042.547500", "093046.497500", "093042.657500", "093046.607500", "093042.767500", "093046.717500", "093042.877500", "093050.687500", "093046.847500", "093050.797500", "093046.957500", "093050.907500", "093047.067500", "093051.015000", "093047.175000", "093051.125000", "093047.285000", "093051.235000", "093047.395000", "093051.345000", "093047.505000", "093051.455000", "093047.615000", "093051.565000", "093047.725000", "093051.675000", "093047.835000", "093051.785000", "093047.945000", "093051.892500", "093048.055000", "093052.002500", "093048.162500", "093052.112500", "093048.272500", "093052.222500", "093048.382500", "093052.332500", "093048.492500", "093052.442500", "093048.602500", "093052.552500", "093048.712500", "093052.662500", "093048.822500", "093052.772500", "093048.932500", "093052.880000", "093049.040000", "093052.990000", "093049.150000", "093053.100000", "093049.260000", "093053.210000", "093049.370000", "093053.320000", "093049.480000", "093053.430000", "093049.590000", "093053.540000", "093049.700000", "093053.650000", "093049.810000", "093053.760000", "093049.920000", "093053.867500", "093050.027500", "093053.977500", "093050.137500", "093054.087500", "093050.247500", "093054.197500", "093050.357500", "093054.307500", "093050.467500", "093054.417500", "093050.577500", "093058.387500", "093054.547500", "093058.497500", "093054.657500", "093058.607500", "093054.767500", "093058.715000", "093054.875000", "093058.825000", "093054.985000", "093058.935000", "093055.095000", "093059.045000", "093055.205000", "093059.155000", "093055.315000", "093059.265000", "093055.425000", "093059.375000", "093055.535000", "093059.485000", "093055.645000", "093059.592500", "093055.755000", "093059.702500", "093055.862500", "093059.812500", "093055.972500", "093059.922500", "093056.082500", "093100.032500", "093056.192500", "093100.142500", "093056.302500", "093100.252500", "093056.412500", "093100.362500", "093056.522500", "093100.472500", "093056.632500", "093100.580000", "093056.740000", "093100.690000", "093056.850000", "093100.800000", "093056.960000", "093100.910000", "093057.070000", "093101.020000", "093057.180000", "093101.130000", "093057.290000", "093101.240000", "093057.400000", "093101.350000", "093057.510000", "093101.460000", "093057.620000", "093101.567500", "093057.727500", "093101.677500", "093057.837500", "093101.787500", "093057.947500", "093101.897500", "093058.057500", "093102.007500", "093058.167500", "093102.117500", "093058.277500", "093106.087500", "093102.247500", "093106.197500", "093102.357500", "093106.307500", "093102.467500", "093106.415000", "093102.575000", "093106.525000", "093102.685000", "093106.635000", "093102.795000", "093106.745000", "093102.905000", "093106.855000", "093103.015000", "093106.965000", "093103.125000", "093107.075000", "093103.235000", "093107.185000", "093103.345000", "093107.292500", "093103.455000", "093107.402500", "093103.562500", "093107.512500", "093103.672500", "093107.622500", "093103.782500", "093107.732500", "093103.892500", "093107.842500", "093104.002500", "093107.952500", "093104.112500", "093108.062500", "093104.222500", "093108.172500", "093104.332500", "093108.280000", "093104.440000", "093108.390000", "093104.550000", "093108.500000", "093104.660000", "093108.610000", "093104.770000", "093108.720000", "093104.880000", "093108.830000", "093104.990000", "093108.940000", "093105.100000", "093109.050000", "093105.210000", "093109.160000", "093105.320000", "093109.267500", "093105.427500", "093109.377500", "093105.537500", "093109.487500", "093105.647500", "093109.597500", "093105.757500", "093109.707500", "093105.867500", "093109.817500", "093105.977500", "093113.787500", "093109.947500", "093113.897500", "093110.057500", "093114.007500", "093110.167500", "093114.115000", "093110.275000", "093114.225000", "093110.385000", "093114.335000", "093110.495000", "093114.445000", "093110.605000", "093114.555000", "093110.715000", "093114.665000", "093110.825000", "093114.775000", "093110.935000", "093114.885000", "093111.045000", "093114.992500", "093111.155000", "093115.102500", "093111.262500", "093115.212500", "093111.372500", "093115.322500", "093111.482500", "093115.432500", "093111.592500", "093115.542500", "093111.702500", "093115.652500", "093111.812500", "093115.762500", "093111.922500", "093115.872500", "093112.032500", "093115.980000", "093112.140000", "093116.090000", "093112.250000", "093116.200000", "093112.360000", "093116.310000", "093112.470000", "093116.420000", "093112.580000", "093116.530000", "093112.690000", "093116.640000", "093112.800000", "093116.750000", "093112.910000", "093116.860000", "093113.020000", "093116.967500", "093113.127500", "093117.077500", "093113.237500", "093117.187500", "093113.347500", "093117.297500", "093113.457500", "093117.407500", "093113.567500", "093117.517500", "093113.677500", "093121.487500", "093117.647500", "093121.597500", "093117.757500", "093121.707500", "093117.867500", "093121.815000", "093117.975000", "093121.925000", "093118.085000", "093122.035000", "093118.195000", "093122.145000", "093118.305000", "093122.255000", "093118.415000", "093122.365000", "093118.525000", "093122.475000", "093118.635000", "093122.585000", "093118.745000", "093122.692500", "093118.855000", "093122.802500", "093118.962500", "093122.912500", "093119.072500", "093123.022500", "093119.182500", "093123.132500", "093119.292500", "093123.242500", "093119.402500", "093123.352500", "093119.512500", "093123.462500", "093119.622500", "093123.572500", "093119.732500", "093123.680000", "093119.840000", "093123.790000", "093119.950000", "093123.900000", "093120.060000", "093124.010000", "093120.170000", "093124.120000", "093120.280000", "093124.230000", "093120.390000", "093124.340000", "093120.500000", "093124.450000", "093120.610000", "093124.560000", "093120.720000", "093124.667500", "093120.827500", "093124.777500", "093120.937500", "093124.887500", "093121.047500", "093124.997500", "093121.157500", "093125.107500", "093121.267500", "093125.217500", "093121.377500", "093129.187500", "093125.347500", "093129.297500", "093125.457500", "093129.407500", "093125.567500", "093129.515000", "093125.675000", "093129.625000", "093125.785000", "093129.735000", "093125.895000", "093129.845000", "093126.005000", "093129.955000", "093126.115000", "093130.065000", "093126.225000", "093130.175000", "093126.335000", "093130.285000", "093126.445000", "093130.392500", "093126.555000", "093130.502500", "093126.662500", "093130.612500", "093126.772500", "093130.722500", "093126.882500", "093130.832500", "093126.992500", "093130.942500", "093127.102500", "093131.052500", "093127.212500", "093131.162500", "093127.322500", "093131.272500", "093127.432500", "093131.380000", "093127.540000", "093131.490000", "093127.650000", "093131.600000", "093127.760000", "093131.710000", "093127.870000", "093131.820000", "093127.980000", "093131.930000", "093128.090000", "093132.040000", "093128.200000", "093132.150000", "093128.310000", "093132.260000", "093128.420000", "093132.367500", "093128.527500", "093132.477500", "093128.637500", "093132.587500", "093128.747500", "093132.697500", "093128.857500", "093132.807500", "093128.967500", "093132.917500", "093129.077500", "093136.887500", "093133.047500", "093136.997500", "093133.157500", "093137.107500", "093133.267500", "093137.215000", "093133.375000", "093137.325000", "093133.485000", "093137.435000", "093133.595000", "093137.545000", "093133.705000", "093137.655000", "093133.815000", "093137.765000", "093133.925000", "093137.875000", "093134.035000", "093137.985000", "093134.145000", "093138.092500", "093134.255000", "093138.202500", "093134.362500", "093138.312500", "093134.472500", "093138.422500", "093134.582500", "093138.532500", "093134.692500", "093138.642500", "093134.802500", "093138.752500", "093134.912500", "093138.862500", "093135.022500", "093138.972500", "093135.132500", "093139.080000", "093135.240000", "093139.190000", "093135.350000", "093139.300000", "093135.460000", "093139.410000", "093135.570000", "093139.520000", "093135.680000", "093139.630000", "093135.790000", "093139.740000", "093135.900000", "093139.850000", "093136.010000", "093139.960000", "093136.120000", "093140.067500", "093136.227500", "093140.177500", "093136.337500", "093140.287500", "093136.447500", "093140.397500", "093136.557500", "093140.507500", "093136.667500", "093140.617500", "093136.777500", "093144.587500", "093140.747500", "093144.697500", "093140.857500", "093144.807500", "093140.967500", "093144.915000", "093141.075000", "093145.025000", "093141.185000", "093145.135000", "093141.295000", "093145.245000", "093141.405000", "093145.355000", "093141.515000", "093145.465000", "093141.625000", "093145.575000", "093141.735000", "093145.685000", "093141.845000", "093145.792500", "093141.955000", "093145.902500", "093142.062500", "093146.012500", "093142.172500", "093146.122500", "093142.282500", "093146.232500", "093142.392500", "093146.342500", "093142.502500", "093146.452