{
  "AcquisitionMatrixPE": 122,
  "AcquisitionNumber": 1,
  "AcquisitionTime": "10:53:10.195000",
  "BandwidthPerPixelPhaseEncode": 28.76,
  "BaseResolution": 122,
  "BodyPartExamined": "BRAIN",
  "CoilCombinationMethod": "Adaptive Combine",
  "ConsistencyInfo": "N4_VE11C_LATEST_20160120",
  "ConversionSoftware": "dcm2niix",
  "ConversionSoftwareVersion": "v1.0.20220720",
  "DerivedVendorReportedEchoSpacing": 0.000570008,
  "DeviceSerialNumber": "66112",
  "DiffusionScheme": "Monopolar",
  "DwellTime": 2e-06,
  "EchoTime": 0.075,
  "EchoTrainLength": 61,
  "EffectiveEchoSpacing": 0.000285004,
  "FlipAngle": 90,
  "HeudiconvVersion": "0.13.1",
  "ImageOrientationPatientDICOM": [0.991114, -0.132904, 0.00533694, 0.125031, 0.94459, 0.303508],
  "ImageOrientationText": "Tra>Cor(17.5)>Sag(2.6)",
  "ImageType": [
    "ORIGINAL",
    "PRIMARY",
    "DIFFUSION",
    "NONE",
    "ND",
    "NORM"
],
  "ImagingFrequency": 123.252,
  "InPlanePhaseEncodingDirectionDICOM": "COL",
  "InstitutionAddress": "Maynard 3,Hanover,NH,US,03755",
  "InstitutionName": "Dartmouth College - PBS",
  "InstitutionalDepartmentName": "Department",
  "MRAcquisitionType": "2D",
  "MagneticFieldStrength": 3,
  "Manufacturer": "Siemens",
  "ManufacturersModelName": "Prisma",
  "MatrixCoilMode": "GRAPPA",
  "Modality": "MR",
  "NonlinearGradientCorrection": false,
  "ParallelReductionFactorInPlane": 2,
  "PartialFourier": 1,
  "PatientPosition": "HFS",
  "PercentPhaseFOV": 100,
  "PercentSampling": 100,
  "PhaseEncodingDirection": "j-",
  "PhaseEncodingSteps": 122,
  "PhaseResolution": 1,
  "PixelBandwidth": 2050,
  "ProcedureStepDescription": "dbic^QA",
  "ProtocolName": "dwi_acq-DTI-30-p2",
  "PulseSequenceDetails": "%SiemensSeq%\\ep2d_diff",
  "ReceiveCoilActiveElements": "HEA;HEP",
  "ReceiveCoilName": "Head_32",
  "ReconMatrixPE": 122,
  "RefLinesPE": 38,
  "RepetitionTime": 7.7,
  "SAR": 0.102068,
  "ScanOptions": "FS",
  "ScanningSequence": "EP",
  "SequenceName": "*ep_b0",
  "SequenceVariant": "SK\\SP",
  "SeriesDescription": "dwi_acq-DTI-30-p2",
  "SeriesNumber": 12,
  "ShimSetting": [4143, -7696, -7513, 270, -77, -91, -10, 62],
  "SliceThickness": 2,
  "SliceTiming": [3.84375, 0, 3.95312, 0.11719, 4.0625, 0.22656, 4.17188, 0.33594, 4.28125, 0.44531, 4.39062, 0.55469, 4.5, 0.66406, 4.60938, 0.77344, 4.71875, 0.88281, 4.82812, 0.99219, 4.9375, 1.10156, 5.05469, 1.21094, 5.16406, 1.32031, 5.27344, 1.42969, 5.38281, 1.53906, 5.49219, 1.64844, 5.60156, 1.75781, 5.71094, 1.86719, 5.82031, 1.97656, 5.92969, 2.08594, 6.03906, 2.19531, 6.14844, 2.30469, 6.25781, 2.42188, 6.36719, 2.53125, 6.47656, 2.64062, 6.58594, 2.74219, 6.69531, 2.85938, 6.80469, 2.96875, 6.91406, 3.07812, 7.02344, 3.1875, 7.13281, 3.29688, 7.24219, 3.40625, 7.35938, 3.51562, 7.46094, 3.625, 7.57031, 3.73438],
  "SoftwareVersions": "syngo MR E11",
  "SpacingBetweenSlices": 2,
  "SpoilingState": true,
  "StationName": "AWP66112",
  "TotalReadoutTime": 0.0344855,
  "TxRefAmp": 224.773,
  "dcmmeta_affine": [
    [-1.9497334957122803, 0.2459629327058792, 0.09075736999511719, 102.55949401855469],
    [0.2614509165287018, 1.8582099676132202, 0.6002883911132812, -138.1080780029297],
    [0.01049889624118805, -0.5970640778541565, 1.9056243896484375, -29.240676879882812],
    [0.0, 0.0, 0.0, 1.0]
],
  "dcmmeta_reorient_transform": [
    [0.0, -1.0, 0.0, 121.0],
    [1.0, 0.0, 0.0, 0.0],
    [0.0, 0.0, -1.0, 69.0],
    [0.0, 0.0, 0.0, 1.0]
],
  "dcmmeta_shape": [122, 122, 70, 31],
  "dcmmeta_slice_dim": 2,
  "dcmmeta_version": 0.6,
  "global": {
    "const": {
      "AccessionNumber": "qa",
      "AcquisitionMatrix": [122, 0, 0, 122],
      "AngioFlag": "N",
      "BitsAllocated": 16,
      "BitsStored": 12,
      "BodyPartExamined": "BRAIN",
      "Columns": 122,
      "EchoNumbers": 1,
      "EchoTime": 75.0,
      "EchoTrainLength": 61,
      "FlipAngle": 90.0,
      "HighBit": 11,
      "ImageOrientationPatient": [0.99111451799245, -0.1329042110189, 0.00533693901479, 0.12503115682937, 0.94459005544799, 0.30350755669452],
      "ImageType": [
        "ORIGINAL",
        "PRIMARY",
        "DIFFUSION",
        "NONE",
        "ND",
        "NORM"
],
      "ImagedNucleus": "1H",
      "ImagingFrequency": 123.252361,
      "InPlanePhaseEncodingDirection": "COL",
      "MRAcquisitionType": "2D",
      "MagneticFieldStrength": 3.0,
      "Manufacturer": "SIEMENS",
      "ManufacturerModelName": "Prisma",
      "Modality": "MR",
      "NumberOfAverages": 1.0,
      "NumberOfPhaseEncodingSteps": 122,
      "PercentPhaseFieldOfView": 100.0,
      "PercentSampling": 100.0,
      "PerformedProcedureStepStartTime": "102348.914000",
      "PhotometricInterpretation": "MONOCHROME2",
      "PixelBandwidth": 2050.0,
      "PixelRepresentation": 0,
      "PixelSpacing": [1.9672131538391, 1.9672131538391],
      "ProtocolName": "dwi_acq-DTI-30-p2",
      "RepetitionTime": 7700.0,
      "Rows": 122,
      "SAR": 0.10206834180876,
      "SamplesPerPixel": 1,
      "ScanOptions": "FS",
      "ScanningSequence": "EP",
      "SequenceVariant": [
        "SK",
        "SP"
],
      "SeriesDescription": "dwi_acq-DTI-30-p2",
      "SeriesNumber": 12,
      "SeriesTime": "105327.481000",
      "SliceThickness": 2.0,
      "SmallestImagePixelValue": 0,
      "SoftwareVersions": "syngo MR E11",
      "SpacingBetweenSlices": 2.0,
      "SpecificCharacterSet": "ISO_IR 100",
      "StudyID": "21",
      "StudyTime": "102348.871000",
      "TransmitCoilName": "Body",
      "VariableFlipAngleFlag": "N",
      "WindowCenterWidthExplanation": "Algo1",
      "dBdt": 0.0},
    "slices": {
      "AcquisitionTime": ["105310.195000", "105306.355000", "105310.305000", "105306.465000", "105310.415000", "105306.575000", "105310.525000", "105306.685000", "105310.635000", "105306.795000", "105310.745000", "105306.905000", "105310.855000", "105307.015000", "105310.962500", "105307.122500", "105311.072500", "105307.232500", "105311.182500", "105307.342500", "105311.292500", "105307.452500", "105311.402500", "105307.562500", "105311.512500", "105307.672500", "105311.622500", "105307.782500", "105311.732500", "105307.892500", "105311.840000", "105308.002500", "105311.950000", "105308.110000", "105312.060000", "105308.220000", "105312.170000", "105308.330000", "105312.280000", "105308.440000", "105312.390000", "105308.550000", "105312.500000", "105308.660000", "105312.610000", "105308.770000", "105312.720000", "105308.880000", "105312.827500", "105308.990000", "105312.937500", "105309.097500", "105313.047500", "105309.207500", "105313.157500", "105309.317500", "105313.267500", "105309.427500", "105313.377500", "105309.537500", "105313.487500", "105309.647500", "105313.597500", "105309.757500", "105313.707500", "105309.867500", "105313.815000", "105309.975000", "105313.925000", "105310.085000", "105317.895000", "105314.055000", "105318.005000", "105314.165000", "105318.115000", "105314.275000", "105318.225000", "105314.385000", "105318.335000", "105314.495000", "105318.445000", "105314.605000", "105318.555000", "105314.715000", "105318.662500", "105314.822500", "105318.772500", "105314.932500", "105318.882500", "105315.042500", "105318.992500", "105315.152500", "105319.102500", "105315.262500", "105319.212500", "105315.372500", "105319.322500", "105315.482500", "105319.432500", "105315.592500", "105319.540000", "105315.702500", "105319.650000", "105315.810000", "105319.760000", "105315.920000", "105319.870000", "105316.030000", "105319.980000", "105316.140000", "105320.090000", "105316.250000", "105320.200000", "105316.360000", "105320.310000", "105316.470000", "105320.420000", "105316.580000", "105320.527500", "105316.690000", "105320.637500", "105316.797500", "105320.747500", "105316.907500", "105320.857500", "105317.017500", "105320.967500", "105317.127500", "105321.077500", "105317.237500", "105321.187500", "105317.347500", "105321.297500", "105317.457500", "105321.407500", "105317.567500", "105321.515000", "105317.675000", "105321.625000", "105317.785000", "105325.595000", "105321.755000", "105325.705000", "105321.865000", "105325.815000", "105321.975000", "105325.925000", "105322.085000", "105326.035000", "105322.195000", "105326.145000", "105322.305000", "105326.255000", "105322.415000", "105326.362500", "105322.522500", "105326.472500", "105322.632500", "105326.582500", "105322.742500", "105326.692500", "105322.852500", "105326.802500", "105322.962500", "105326.912500", "105323.072500", "105327.022500", "105323.182500", "105327.132500", "105323.292500", "105327.240000", "105323.402500", "105327.350000", "105323.510000", "105327.460000", "105323.620000", "105327.570000", "105323.730000", "105327.680000", "105323.840000", "105327.790000", "105323.950000", "105327.900000", "105324.060000", "105328.010000", "105324.170000", "105328.120000", "105324.280000", "105328.227500", "105324.390000", "105328.337500", "105324.497500", "105328.447500", "105324.607500", "105328.557500", "105324.717500", "105328.667500", "105324.827500", "105328.777500", "105324.937500", "105328.887500", "105325.047500", "105328.997500", "105325.157500", "105329.107500", "105325.267500", "105329.215000", "105325.375000", "105329.325000", "105325.485000", "105333.295000", "105329.455000", "105333.405000", "105329.565000", "105333.515000", "105329.675000", "105333.625000", "105329.785000", "105333.735000", "105329.895000", "105333.845000", "105330.005000", "105333.955000", "105330.115000", "105334.062500", "105330.222500", "105334.172500", "105330.332500", "105334.282500", "105330.442500", "105334.392500", "105330.552500", "105334.502500", "105330.662500", "105334.612500", "105330.772500", "105334.722500", "105330.882500", "105334.832500", "105330.992500", "105334.940000", "105331.102500", "105335.050000", "105331.210000", "105335.160000", "105331.320000", "105335.270000", "105331.430000", "105335.380000", "105331.540000", "105335.490000", "105331.650000", "105335.600000", "105331.760000", "105335.710000", "105331.870000", "105335.820000", "105331.980000", "105335.927500", "105332.090000", "105336.037500", "105332.197500", "105336.147500", "105332.307500", "105336.257500", "105332.417500", "105336.367500", "105332.527500", "105336.477500", "105332.637500", "105336.587500", "105332.747500", "105336.697500", "105332.857500", "105336.807500", "105332.967500", "105336.915000", "105333.075000", "105337.025000", "105333.185000", "105340.995000", "105337.155000", "105341.105000", "105337.265000", "105341.215000", "105337.375000", "105341.325000", "105337.485000", "105341.435000", "105337.595000", "105341.545000", "105337.705000", "105341.655000", "105337.815000", "105341.762500", "105337.922500", "105341.872500", "105338.032500", "105341.982500", "105338.142500", "105342.092500", "105338.252500", "105342.202500", "105338.362500", "105342.312500", "105338.472500", "105342.422500", "105338.582500", "105342.532500", "105338.692500", "105342.640000", "105338.802500", "105342.750000", "105338.910000", "105342.860000", "105339.020000", "105342.970000", "105339.130000", "105343.080000", "105339.240000", "105343.190000", "105339.350000", "105343.300000", "105339.460000", "105343.410000", "105339.570000", "105343.520000", "105339.680000", "105343.627500", "105339.790000", "105343.737500", "105339.897500", "105343.847500", "105340.007500", "105343.957500", "105340.117500", "105344.067500", "105340.227500", "105344.177500", "105340.337500", "105344.287500", "105340.447500", "105344.397500", "105340.557500", "105344.507500", "105340.667500", "105344.615000", "105340.775000", "105344.725000", "105340.885000", "105348.695000", "105344.855000", "105348.805000", "105344.965000", "105348.915000", "105345.075000", "105349.025000", "105345.185000", "105349.135000", "105345.295000", "105349.245000", "105345.405000", "105349.355000", "105345.515000", "105349.462500", "105345.622500", "105349.572500", "105345.732500", "105349.682500", "105345.842500", "105349.792500", "105345.952500", "105349.902500", "105346.062500", "105350.012500", "105346.172500", "105350.122500", "105346.282500", "105350.232500", "105346.392500", "105350.340000", "105346.502500", "105350.450000", "105346.610000", "105350.560000", "105346.720000", "105350.670000", "105346.830000", "105350.780000", "105346.940000", "105350.890000", "105347.050000", "105351.000000", "105347.160000", "105351.110000", "105347.270000", "105351.220000", "105347.380000", "105351.327500", "105347.490000", "105351.437500", "105347.597500", "105351.547500", "105347.707500", "105351.657500", "105347.817500", "105351.767500", "105347.927500", "105351.877500", "105348.037500", "105351.987500", "105348.147500", "105352.097500", "105348.257500", "105352.207500", "105348.367500", "105352.315000", "105348.475000", "105352.425000", "105348.585000", "105356.395000", "105352.555000", "105356.505000", "105352.665000", "105356.615000", "105352.775000", "105356.725000", "105352.885000", "105356.835000", "105352.995000", "105356.945000", "105353.105000", "105357.055000", "105353.215000", "105357.162500", "105353.322500", "105357.272500", "105353.432500", "105357.382500", "105353.542500", "105357.492500", "105353.652500", "105357.602500", "105353.762500", "105357.712500", "105353.872500", "105357.822500", "105353.982500", "105357.932500", "105354.092500", "105358.040000", "105354.202500", "105358.150000", "105354.310000", "105358.260000", "105354.420000", "105358.370000", "105354.530000", "105358.480000", "105354.640000", "105358.590000", "105354.750000", "105358.700000", "105354.860000", "105358.810000", "105354.970000", "105358.920000", "105355.080000", "105359.027500", "105355.190000", "105359.137500", "105355.297500", "105359.247500", "105355.407500", "105359.357500", "105355.517500", "105359.467500", "105355.627500", "105359.577500", "105355.737500", "105359.687500", "105355.847500", "105359.797500", "105355.957500", "105359.907500", "105356.067500", "105400.015000", "105356.175000", "105400.125000", "105356.285000", "105404.095000", "105400.255000", "105404.205000", "105400.365000", "105404.315000", "105400.475000", "105404.425000", "105400.585000", "105404.535000", "105400.695000", "105404.645000", "105400.805000", "105404.755000", "105400.915000", "105404.862500", "105401.022500", "105404.972500", "105401.132500", "105405.082500", "105401.242500", "105405.192500", "105401.352500", "105405.302500", "105401.462500", "105405.412500", "105401.572500", "105405.522500", "105401.682500", "105405.632500", "105401.792500", "105405.740000", "105401.902500", "105405.850000", "105402.010000", "105405.960000", "105402.120000", "105406.070000", "105402.230000", "105406.180000", "105402.340000", "105406.290000", "105402.450000", "105406.400000", "105402.560000", "105406.510000", "105402.670000", "105406.620000", "105402.780000", "105406.727500", "105402.890000", "105406.837500", "105402.997500", "105406.947500", "105403.107500", "105407.057500", "105403.217500", "105407.167500", "105403.327500", "105407.277500", "105403.437500", "105407.387500", "105403.547500", "105407.497500", "105403.657500", "105407.607500", "105403.767500", "105407.715000", "105403.875000", "105407.825000", "105403.985000", "105411.795000", "105407.955000", "105411.905000", "105408.065000", "105412.015000", "105408.175000", "105412.125000", "105408.285000", "105412.235000", "105408.395000", "105412.345000", "105408.505000", "105412.455000", "105408.615000", "105412.562500", "105408.722500", "105412.672500", "105408.832500", "105412.782500", "105408.942500", "105412.892500", "105409.052500", "105413.002500", "105409.162500", "105413.112500", "105409.272500", "105413.222500", "105409.382500", "105413.332500", "105409.492500", "105413.440000", "105409.602500", "105413.550000", "105409.710000", "105413.660000", "105409.820000", "105413.770000", "105409.930000", "105413.880000", "105410.040000", "105413.990000", "105410.150000", "105414.100000", "105410.260000", "105414.210000", "105410.370000", "105414.320000", "105410.480000", "105414.427500", "105410.590000", "105414.537500", "105410.697500", "105414.647500", "105410.807500", "105414.757500", "105410.917500", "105414.867500", "105411.027500", "105414.977500", "105411.137500", "105415.087500", "105411.247500", "105415.197500", "105411.357500", "105415.307500", "105411.467500", "105415.415000", "105411.575000", "105415.525000", "105411.685000", "105419.495000", "105415.655000", "105419.605000", "105415.765000", "105419.715000", "105415.875000", "105419.825000", "105415.985000", "105419.935000", "105416.095000", "105420.045000", "105416.205000", "105420.155000", "105416.315000", "105420.262500", "105416.422500", "105420.372500", "105416.532500", "105420.482500", "105416.642500", "105420.592500", "105416.752500", "105420.702500", "105416.862500", "105420.812500", "105416.972500", "105420.922500", "105417.082500", "105421.032500", "105417.192500", "105421.140000", "105417.302500", "105421.250000", "105417.410000", "105421.360000", "105417.520000", "105421.470000", "105417.630000", "105421.580000", "105417.740000", "105421.690000", "105417.850000", "105421.800000", "105417.960000", "105421.910000", "105418.070000", "105422.020000", "105418.180000", "105422.127500", "105418.290000", "105422.237500", "105418.397500", "105422.347500", "105418.507500", "105422.457500", "105418.617500", "105422.567500", "105418.727500", "105422.677500", "105418.837500", "105422.787500", "105418.947500", "105422.897500", "105419.057500", "105423.007500", "105419.167500", "105423.115000", "105419.275000", "105423.225000", "105419.385000", "105427.195000", "105423.355000", "105427.305000", "105423.465000", "105427.415000", "105423.575000", "105427.525000", "105423.685000", "105427.635000", "105423.795000", "105427.745000", "105423.905000", "105427.855000", "105424.015000", "105427.962500", "105424.122500", "105428.072500", "105424.232500", "105428.182500", "105424.342500", "105428.292500", "105424.452500", "105428.402500", "105424.562500", "105428.512500", "105424.672500", "105428.622500", "105424.782500", "105428.732500", "105424.892500", "105428.840000", "105425.002500", "105428.950000", "105425.110000", "105429.060000", "105425.220000", "105429.170000", "105425.330000", "105429.280000", "105425.440000", "105429.390000", "105425.550000", "105429.500000", "105425.660000", "105429.610000", "105425.770000", "105429.720000", "105425.880000", "105429.827500", "105425.990000", "105429.937500", "105426.097500", "105430.047500", "105426.207500", "105430.157500", "105426.317500", "105430.267500", "105426.427500", "105430.377500", "105426.537500", "105430.487500", "105426.647500", "105430.597500", "105426.757500", "105430.707500", "105426.867500", "105430.815000", "105426.975000", "105430.925000", "105427.085000", "105434.895000", "105431.055000", "105435.005000", "105431.165000", "105435.115000", "105431.275000", "105435.225000", "105431.385000", "105435.335000", "105431.495000", "105435.445000", "105431.605000", "105435.555000", "105431.715000", "105435.662500", "105431.822500", "105435.772500", "105431.932500", "105435.882500", "105432.042500", "105435.992500", "105432.152500", "105436.102500", "105432.262500", "105436.212500", "105432.372500", "105436.322500", "105432.482500", "105436.432500", "105432.592500", "105436.540000", "105432.702500", "105436.650000", "105432.810000", "105436.760000", "105432.920000", "105436.870000", "105433.030000", "105436.980000", "105433.140000", "105437.090000", "105433.250000", "105437.200000", "105433.360000", "105437.310000", "105433.470000", "105437.420000", "105433.580000", "105437.527500", "105433.690000", "105437.637500", "105433.797500", "105437.747500", "105433.907500", "105437.857500", "105434.017500", "105437.967500", "105434.127500", "105438.077500", "105434.237500", "105438.187500", "105434.347500", "105438.297500", "105434.457500", "105438.407500", "105434.567500", "105438.515000", "105434.675000", "105438.625000", "105434.785000", "105442.595000", "105438.755000", "105442.705000", "105438.865000", "105442.815000", "105438.975000", "105442.925000", "105439.085000", "105443.035000", "105439.195000", "105443.145000", "105439.305000", "105443.255000", "105439.415000", "105443.362500", "105439.522500", "105443.472500", "105439.632500", "105443.582500", "105439.742500", "105443.692500", "105439.852500", "105443.802500", "105439.962500", "105443.912500", "105440.072500", "105444.022500", "105440.182500", "105444.132500", "105440.292500", "105444.240000", "105440.402500", "105444.350000", "105440.510000", "105444.460000", "105440.620000", "105444.570000", "105440.730000", "105444.680000", "105440.840000", "105444.790000", "105440.950000", "105444.900000", "105441.060000", "105445.010000", "105441.170000", "105445.120000", "105441.280000", "105445.227500", "105441.390000", "105445.337500", "105441.497500", "105445.447500", "105441.607500", "105445.557500", "105441.717500", "105445.667500", "105441.827500", "105445.777500", "105441.937500", "105445.887500", "105442.047500", "105445.997500", "105442.157500", "105446.107500", "105442.267500", "105446.215000", "105442.375000", "105446.325000", "105442.485000", "105450.295000", "105446.455000", "105450.405000", "105446.565000", "105450.515000", "105446.675000", "105450.625000", "105446.785000", "105450.735000", "105446.895000", "105450.845000", "105447.005000", "105450.955000", "105447.115000", "105451.062500", "105447.222500", "105451.172500", "105447.332500", "105451.282500", "105447.442500", "105451.392500", "105447.552500", "105451.502500", "105447.662500", "105451.612500", "105447.772500", "105451.722500", "105447.882500", "105451.832500", "105447.992500", "105451.940000", "105448.102500", "105452.050000", "105448.210000", "105452.160000", "105448.320000", "105452.270000", "105448.430000", "105452.380000", "105448.540000", "105452.490000", "105448.650000", "105452.600000", "105448.760000", "105452.710000", "105448.870000", "105452.820000", "105448.980000", "105452.927500", "105449.090000", "105453.037500", "105449.197500", "105453.147500", "105449.307500", "105453.257500", "105449.417500", "105453.367500", "105449.527500", "105453.477500", "105449.637500", "105453.587500", "105449.747500", "105453.697500", "105449.857500", "105453.807500", "105449.967500", "105453.915000", "105450.075000", "105454.025000", "105450.185000", "105457.995000", "105454.155000", "105458.105000", "105454.265000", "105458.215000", "105454.375000", "105458.325000", "105454.485000", "105458.435000", "105454.595000", "105458.545000", "105454.705000", "105458.655000", "105454.815000", "105458.762500", "105454.922500", "105458.872500", "105455.032500", "105458.982500", "105455.142500", "105459.092500", "105455.252500", "105459.202500", "105455.362500", "105459.312500", "105455.472500", "105459.422500", "105455.582500", "105459.532500", "105455.692500", "105459.640000", "105455.802500", "105459.750000", "105455.910000", "105459.860000", "105456.020000", "105459.970000", "105456.130000", "105500.080000", "105456.240000", "105500.190000", "105456.350000", "105500.300000", "105456.460000", "105500.410000", "105456.570000", "105500.520000", "105456.680000", "105500.627500", "105456.790000", "105500.737500", "105456.897500", "105500.847500", "105457.007500", "105500.957500", "105457.117500", "105501.067500", "105457.227500", "105501.177500", "105457.337500", "105501.287500", "105457.447500", "105501.397500", "105457.557500", "105501.507500", "105457.667500", "105501.615000", "105457.775000", "105501.725000", "105457.885000", "105505.695000", "105501.855000", "105505.805000", "105501.965000", "105505.915000", "105502.075000", "105506.025000", "105502.185000", "105506.135000", "105502.295000", "105506.245000", "105502.405000", "105506.355000", "105502.515000", "105506.462500", "105502.622500", "105506.572500", "105502.732500", "105506.682500", "105502.842500", "105506.792500", "105502.952500", "105506.902500", "105503.062500", "105507.012500", "105503.172500", "105507.122500", "105503.282500", "105507.232500", "105503.392500", "105507.340000", "105503.502500", "105507.450000", "105503.610000", "105507.560000", "105503.720000", "105507.670000", "105503.830000", "105507.780000", "105503.940000", "105507.890000", "105504.050000", "105508.000000", "105504.160000", "105508.110000", "105504.270000", "105508.220000", "105504.380000", "105508.327500", "105504.490000", "105508.437500", "105504.597500", "105508.547500", "105504.707500", "105508.657500", "105504.817500", "105508.767500", "105504.927500", "105508.877500", "105505.037500", "105508.987500", "105505.147500", "105509.097500", "105505.257500", "105509.207500", "105505.367500", "105509.315000", "105505.475000", "105509.425000", "105505.585000", "105513.395000", "105509.555000", "105513.505000", "105509.665000", "105513.615000", "105509.775000", "105513.725000", "105509.885000", "105513.835000", "105509.995000", "105513.945000", "105510.105000", "105514.055000", "105510.215000", "105514.162500", "105510.322500", "105514.272500", "105510.432500", "105514.382500", "105510.542500", "105514.492500", "105510.652500", "105514.602500", "105510.762500", "105514.712500", "105510.872500", "105514.822500", "105510.982500", "105514.932500", "105511.092500", "105515.040000", "105511.202500", "105515.150000", "105511.310000", "105515.260000", "105511.420000", "105515.370000", "105511.530000", "105515.480000", "105511.640000", "105515.590000", "105511.750000", "105515.700000", "105511.860000", "105515.810000", "105511.970000", "105515.920000", "105512.080000", "105516.027500", "105512.190000", "105516.137500", "105512.297500", "105516.247500", "105512.407500", "105516.357500", "105512.517500", "105516.467500", "105512.627500", "105516.577500", "105512.737500", "105516.687500", "105512.847500", "105516.797500", "105512.957500", "105516.907500", "105513.067500", "105517.015000", "105513.175000", "105517.125000", "105513.285000", "105521.095000", "105517.255000", "105521.205000", "105517.365000", "105521.315000", "105517.475000", "105521.425000", "105517.585000", "105521.535000", "105517.695000", "105521.645000", "105517.805000", "105521.755000", "105517.915000", "105521.862500", "105518.022500", "105521.972500", "105518.132500", "105522.082500", "105518.242500", "105522.192500", "105518.352500", "105522.302500", "105518.462500", "105522.412500", "105518.572500", "105522.522500", "105518.682500", "105522.632500", "105518.792500", "105522.740000", "105518.902500", "105522.850000", "105519.010000", "105522.960000", "105519.120000", "105523.070000", "105519.230000", "105523.180000", "105519.340000", "105523.290000", "105519.450000", "105523.400000", "105519.560000", "105523.510000", "105519.670000", "105523.620000", "105519.780000", "105523.727500", "105519.890000", "105523.837500", "105519.997500", "105523.947500", "105520.107500", "105524.057500", "105520.217500", "105524.167500", "105520.327500", "105524.277500", "105520.437500", "105524.387500", "105520.547500", "105524.497500", "105520.657500", "105524.607500", "105520.767500", "105524.715000", "105520.875000", "105524.825000", "105520.985000", "105528.795000", "105524.955000", "105528.905000", "105525.065000", "105529.015000", "105525.175000", "105529.125000", "105525.285000", "105529.235000", "105525.395000", "105529.345000", "105525.505000", "105529.455000", "105525.615000", "105529.562500", "105525.722500", "105529.672500", "105525.832500", "105529.782500", "105525.942500", "105529.892500", "105526.052500", "105530.002500", "105526.162500", "105530.112500", "105526.272500", "105530.222500", "105526.382500", "105530.332500", "105526.492500", "105530.440000", "105526.602500", "105530.550000", "105526.710000", "105530.660000", "105526.820000", "105530.770000", "105526.930000", "105530.880000", "105527.040000", "105530.990000", "105527.150000", "105531.100000", "105527.260000", "105531.210000", "105527.370000", "105531.320000", "105527.480000", "105531.427500", "105527.590000", "105531.537500", "105527.697500", "105531.647500", "105527.807500", "105531.757500", "105527.917500", "105531.867500", "105528.027500", "105531.977500", "105528.137500", "105532.087500", "105528.247500", "105532.197500", "105528.357500", "105532.307500", "105528.467500", "105532.415000", "105528.575000", "105532.525000", "105528.685000", "105536.495000", "105532.655000", "105536.605000", "105532.765000", "105536.715000", "105532.875000", "105536.825000", "105532.985000", "105536.935000", "105533.095000", "105537.045000", "105533.205000", "105537.155000", "105533.315000", "105537.262500", "105533.422500", "105537.372500", "105533.532500", "105537.482500", "105533.642500", "105537.592500", "105533.752500", "105537.702500", "105533.862500", "105537.812500", "105533.972500", "105537.922500", "105534.082500", "105538.032500", "105534.192500", "105538.140000", "105534.302500", "105538.250000", "105534.410000", "105538.360000", "105534.520000", "105538.470000", "105534.630000", "105538.580000", "105534.740000", "105538.690000", "105534.850000", "105538.800000", "105534.960000", "105538.910000", "105535.070000", "105539.020000", "105535.180000", "105539.127500", "105535.290000", "105539.237500", "105535.397500", "105539.347500", "105535.507500", "105539.457500", "105535.617500", "105539.567500", "105535.727500", "105539.677500", "105535.837500", "105539.787500", "105535.947500", "105539.897500", "105536.057500", "105540.007500", "105536.167500", "105540.115000", "105536.275000", "105540.225000", "105536.385000", "105544.195000", "105540.355000", "105544.305000", "105540.465000", "105544.415000", "105540.575000", "105544.525000", "105540.685000", "105544.635000", "105540.795000", "105544.745000", "105540.905000", "105544.855000", "105541.015000", "105544.962500", "105541.122500", "105545.072500", "105541.232500", "105545.182500", "105541.342500", "105545.292500", "105541.452500", "105545.402500", "105541.562500", "105545.512500", "105541.672500", "105545.622500", "105541.782500", "105545.732500", "105541.892500", "105545.840000", "105542.002500", "105545.950000", "105542.110000", "105546.0600