{
  "AcquisitionMatrixPE": 80,
  "AcquisitionNumber": 1,
  "AcquisitionTime": "08:20:42.205000",
  "BandwidthPerPixelPhaseEncode": 48.077,
  "BaseResolution": 80,
  "BodyPartExamined": "BRAIN",
  "CoilCombinationMethod": "Sum of Squares",
  "ConsistencyInfo": "N4_VE11C_LATEST_20160120",
  "ConversionSoftware": "dcm2niix",
  "ConversionSoftwareVersion": "v1.0.20220720",
  "DerivedVendorReportedEchoSpacing": 0.000519999,
  "DeviceSerialNumber": "66112",
  "DwellTime": 2.7e-06,
  "EchoTime": 0.035,
  "EchoTrainLength": 39,
  "EffectiveEchoSpacing": 0.00026,
  "FlipAngle": 90,
  "HeudiconvVersion": "0.13.1",
  "ImageOrientationPatientDICOM": [0.988556, 0.150463, 0.0108874, -0.145977, 0.935878, 0.320661],
  "ImageOrientationText": "Tra>Cor(18.6)>Sag(-2.2)",
  "ImageType": [
    "ORIGINAL",
    "PRIMARY",
    "M",
    "ND",
    "NORM",
    "MOSAIC"
],
  "ImagingFrequency": 123.252,
  "InPlanePhaseEncodingDirectionDICOM": "COL",
  "InstitutionAddress": "Maynard 3,Hanover,NH,US,03755",
  "InstitutionName": "Dartmouth College - PBS",
  "InstitutionalDepartmentName": "Department",
  "MRAcquisitionType": "2D",
  "MagneticFieldStrength": 3,
  "Manufacturer": "Siemens",
  "ManufacturersModelName": "Prisma",
  "MatrixCoilMode": "GRAPPA",
  "Modality": "MR",
  "NonlinearGradientCorrection": false,
  "ParallelReductionFactorInPlane": 2,
  "PartialFourier": 1,
  "PatientPosition": "HFS",
  "PercentPhaseFOV": 100,
  "PercentSampling": 100,
  "PhaseEncodingDirection": "j-",
  "PhaseEncodingSteps": 79,
  "PhaseResolution": 1,
  "PixelBandwidth": 2315,
  "ProcedureStepDescription": "dbic^QA",
  "ProtocolName": "func-bold_task-rest_acq-p2",
  "PulseSequenceDetails": "%SiemensSeq%\\ep2d_bold",
  "ReceiveCoilActiveElements": "HC1-7;NC1,2",
  "ReceiveCoilName": "HeadNeck_64",
  "ReconMatrixPE": 80,
  "RefLinesPE": 24,
  "RepetitionTime": 2,
  "SAR": 0.0361326,
  "ScanOptions": "FS",
  "ScanningSequence": "EP",
  "SequenceName": "*epfid2d1_80",
  "SequenceVariant": "SK",
  "SeriesDescription": "func-bold_task-rest_acq-p2",
  "SeriesNumber": 5,
  "ShimSetting": [4144, -7690, -7501, 198, -76, -301, -30, 72],
  "SliceThickness": 3.5,
  "SliceTiming": [0.99, 0, 1.055, 0.065, 1.12, 0.13, 1.1875, 0.1975, 1.2525, 0.2625, 1.32, 0.33, 1.385, 0.395, 1.45, 0.46, 1.5175, 0.5275, 1.5825, 0.5925, 1.65, 0.66, 1.715, 0.725, 1.78, 0.79, 1.8475, 0.8575, 1.9125, 0.9225],
  "SoftwareVersions": "syngo MR E11",
  "SpacingBetweenSlices": 3.99,
  "StationName": "AWP66112",
  "TaskName": "rest",
  "TotalReadoutTime": 0.02054,
  "TxRefAmp": 214.592,
  "dcmmeta_affine": [
    [-2.9656667709350586, -0.4379315674304962, -0.1518533080816269, 141.28128051757812],
    [-0.4513903856277466, 2.807633399963379, 1.2711358070373535, -94.97039794921875],
    [0.03266217187047005, -0.9619825482368469, 3.779054641723633, -33.21158981323242],
    [0.0, 0.0, 0.0, 1.0]
],
  "dcmmeta_reorient_transform": [
    [0.0, -1.0, 0.0, 79.0],
    [1.0, 0.0, 0.0, 0.0],
    [0.0, 0.0, 1.0, 0.0],
    [0.0, 0.0, 0.0, 1.0]
],
  "dcmmeta_shape": [80, 80, 30, 200],
  "dcmmeta_slice_dim": 2,
  "dcmmeta_version": 0.6,
  "global": {
    "const": {
      "AccessionNumber": "qa64",
      "AcquisitionMatrix": [80, 0, 0, 80],
      "AngioFlag": "N",
      "BitsAllocated": 16,
      "BitsStored": 12,
      "BodyPartExamined": "BRAIN",
      "Columns": 480,
      "EchoNumbers": 1,
      "EchoTime": 35.0,
      "EchoTrainLength": 39,
      "FlipAngle": 90.0,
      "HighBit": 11,
      "ImageOrientationPatient": [0.98855561900966, 0.15046346014856, 0.01088739108079, -0.1459771924613, 0.93587781127703, 0.320660851431],
      "ImagePositionPatient": [-612.23173872129, -778.63740488909, -308.1371589249],
      "ImageType": [
        "ORIGINAL",
        "PRIMARY",
        "M",
        "ND",
        "NORM",
        "MOSAIC"
],
      "ImagedNucleus": "1H",
      "ImagingFrequency": 123.25238,
      "InPlanePhaseEncodingDirection": "COL",
      "MRAcquisitionType": "2D",
      "MagneticFieldStrength": 3.0,
      "Manufacturer": "SIEMENS",
      "ManufacturerModelName": "Prisma",
      "Modality": "MR",
      "NumberOfAverages": 1.0,
      "NumberOfPhaseEncodingSteps": 79,
      "PercentPhaseFieldOfView": 100.0,
      "PercentSampling": 100.0,
      "PerformedProcedureStepStartTime": "081834.582000",
      "PhotometricInterpretation": "MONOCHROME2",
      "PixelBandwidth": 2315.0,
      "PixelRepresentation": 0,
      "PixelSpacing": [3.0, 3.0],
      "ProtocolName": "func-bold_task-rest_acq-p2",
      "RepetitionTime": 2000.0,
      "Rows": 480,
      "SAR": 0.03613261072008,
      "SamplesPerPixel": 1,
      "ScanOptions": "FS",
      "ScanningSequence": "EP",
      "SequenceName": "*epfid2d1_80",
      "SequenceVariant": "SK",
      "SeriesDescription": "func-bold_task-rest_acq-p2",
      "SeriesNumber": 5,
      "SeriesTime": "082118.255000",
      "SliceLocation": -67.088401951083,
      "SliceThickness": 3.5,
      "SmallestImagePixelValue": 0,
      "SoftwareVersions": "syngo MR E11",
      "SpacingBetweenSlices": 3.9900000333162,
      "SpecificCharacterSet": "ISO_IR 100",
      "StudyID": "7",
      "StudyTime": "081834.506000",
      "TransmitCoilName": "Body",
      "VariableFlipAngleFlag": "N",
      "WindowCenterWidthExplanation": "Algo1",
      "dBdt": 0.0},
    "slices": {}
  },
  "time": {
    "samples": {
      "AcquisitionNumber": [1, 2, 3, 4, 5, 6, 7, 8, 9, 10, 11, 12, 13, 14, 15, 16, 17, 18, 19, 20, 21, 22, 23, 24, 25, 26, 27, 28, 29, 30, 31, 32, 33, 34, 35, 36, 37, 38, 39, 40, 41, 42, 43, 44, 45, 46, 47, 48, 49, 50, 51, 52, 53, 54, 55, 56, 57, 58, 59, 60, 61, 62, 63, 64, 65, 66, 67, 68, 69, 70, 71, 72, 73, 74, 75, 76, 77, 78, 79, 80, 81, 82, 83, 84, 85, 86, 87, 88, 89, 90, 91, 92, 93, 94, 95, 96, 97, 98, 99, 100, 101, 102, 103, 104, 105, 106, 107, 108, 109, 110, 111, 112, 113, 114, 115, 116, 117, 118, 119, 120, 121, 122, 123, 124, 125, 126, 127, 128, 129, 130, 131, 132, 133, 134, 135, 136, 137, 138, 139, 140, 141, 142, 143, 144, 145, 146, 147, 148, 149, 150, 151, 152, 153, 154, 155, 156, 157, 158, 159, 160, 161, 162, 163, 164, 165, 166, 167, 168, 169, 170, 171, 172, 173, 174, 175, 176, 177, 178, 179, 180, 181, 182, 183, 184, 185, 186, 187, 188, 189, 190, 191, 192, 193, 194, 195, 196, 197, 198, 199, 200],
      "AcquisitionTime": ["082042.205000", "082044.205000", "082046.205000", "082048.205000", "082050.205000", "082052.205000", "082054.205000", "082056.205000", "082058.205000", "082100.205000", "082102.205000", "082104.205000", "082106.205000", "082108.205000", "082110.205000", "082112.205000", "082114.205000", "082116.205000", "082118.205000", "082120.205000", "082122.205000", "082124.205000", "082126.205000", "082128.205000", "082130.205000", "082132.205000", "082134.205000", "082136.205000", "082138.205000", "082140.205000", "082142.205000", "082144.205000", "082146.205000", "082148.205000", "082150.205000", "082152.205000", "082154.205000", "082156.205000", "082158.205000", "082200.205000", "082202.205000", "082204.205000", "082206.205000", "082208.205000", "082210.205000", "082212.205000", "082214.205000", "082216.205000", "082218.205000", "082220.205000", "082222.205000", "082224.205000", "082226.205000", "082228.205000", "082230.205000", "082232.205000", "082234.205000", "082236.205000", "082238.205000", "082240.205000", "082242.205000", "082244.205000", "082246.205000", "082248.205000", "082250.205000", "082252.205000", "082254.205000", "082256.205000", "082258.205000", "082300.205000", "082302.205000", "082304.205000", "082306.205000", "082308.205000", "082310.205000", "082312.205000", "082314.205000", "082316.205000", "082318.205000", "082320.205000", "082322.205000", "082324.205000", "082326.205000", "082328.205000", "082330.205000", "082332.205000", "082334.205000", "082336.205000", "082338.205000", "082340.205000", "082342.205000", "082344.205000", "082346.205000", "082348.205000", "082350.205000", "082352.205000", "082354.205000", "082356.205000", "082358.205000", "082400.205000", "082402.205000", "082404.205000", "082406.205000", "082408.205000", "082410.205000", "082412.205000", "082414.205000", "082416.205000", "082418.205000", "082420.205000", "082422.205000", "082424.205000", "082426.205000", "082428.205000", "082430.205000", "082432.205000", "082434.205000", "082436.205000", "082438.205000", "082440.205000", "082442.205000", "082444.205000", "082446.205000", "082448.205000", "082450.205000", "082452.205000", "082454.205000", "082456.205000", "082458.205000", "082500.205000", "082502.205000", "082504.205000", "082506.205000", "082508.205000", "082510.205000", "082512.205000", "082514.205000", "082516.205000", "082518.205000", "082520.205000", "082522.205000", "082524.205000", "082526.205000", "082528.205000", "082530.205000", "082532.205000", "082534.205000", "082536.205000", "082538.205000", "082540.205000", "082542.205000", "082544.205000", "082546.205000", "082548.205000", "082550.205000", "082552.205000", "082554.205000", "082556.205000", "082558.205000", "082600.205000", "082602.205000", "082604.205000", "082606.205000", "082608.205000", "082610.205000", "082612.205000", "082614.205000", "082616.205000", "082618.205000", "082620.205000", "082622.205000", "082624.205000", "082626.205000", "082628.205000", "082630.205000", "082632.205000", "082634.205000", "082636.205000", "082638.205000", "082640.205000", "082642.205000", "082644.205000", "082646.205000", "082648.205000", "082650.205000", "082652.205000", "082654.205000", "082656.205000", "082658.205000", "082700.205000", "082702.205000", "082704.205000", "082706.205000", "082708.205000", "082710.205000", "082712.205000", "082714.205000", "082716.205000", "082718.205000", "082720.205000"],
      "ContentTime": ["082118.259000", "082118.262000", "082118.265000", "082118.268000", "082118.275000", "082118.277000", "082118.280000", "082118.283000", "082118.285000", "082118.288000", "082118.290000", "082118.293000", "082118.296000", "082118.298000", "082118.301000", "082118.303000", "082118.306000", "082118.309000", "082158.254000", "082158.256000", "082158.259000", "082158.262000", "082158.264000", "082158.267000", "082158.284000", "082158.286000", "082158.289000", "082158.291000", "082158.294000", "082158.297000", "082158.299000", "082158.302000", "082158.305000", "082158.307000", "082158.311000", "082158.314000", "082158.317000", "082158.319000", "082238.252000", "082238.255000", "082238.258000", "082238.261000", "082238.263000", "082238.266000", "082238.269000", "082238.271000", "082238.274000", "082238.276000", "082238.279000", "082238.282000", "082238.284000", "082238.287000", "082238.290000", "082238.292000", "082238.295000", "082238.297000", "082238.300000", "082238.303000", "082318.254000", "082318.256000", "082318.259000", "082318.262000", "082318.265000", "082318.267000", "082318.270000", "082318.272000", "082318.275000", "082318.278000", "082318.280000", "082318.283000", "082318.286000", "082318.288000", "082318.291000", "082318.294000", "082318.296000", "082318.299000", "082318.301000", "082318.304000", "082358.254000", "082358.256000", "082358.259000", "082358.262000", "082358.264000", "082358.267000", "082358.270000", "082358.273000", "082358.275000", "082358.278000", "082358.280000", "082358.283000", "082358.285000", "082358.288000", "082358.291000", "082358.293000", "082358.296000", "082358.299000", "082358.301000", "082358.304000", "082438.252000", "082438.255000", "082438.258000", "082438.261000", "082438.263000", "082438.266000", "082438.269000", "082438.271000", "082438.274000", "082438.276000", "082438.279000", "082438.282000", "082438.284000", "082438.287000", "082438.290000", "082438.292000", "082438.295000", "082438.298000", "082438.300000", "082438.303000", "082518.254000", "082518.257000", "082518.259000", "082518.262000", "082518.265000", "082518.267000", "082518.270000", "082518.273000", "082518.276000", "082518.278000", "082518.281000", "082518.284000", "082518.286000", "082518.292000", "082518.295000", "082518.298000", "082518.300000", "082518.303000", "082518.306000", "082518.308000", "082558.254000", "082558.256000", "082558.259000", "082558.262000", "082558.265000", "082558.267000", "082558.270000", "082558.272000", "082558.275000", "082558.278000", "082558.280000", "082558.283000", "082558.286000", "082558.288000", "082558.291000", "082558.294000", "082558.296000", "082558.299000", "082558.301000", "082558.304000", "082638.254000", "082638.257000", "082638.260000", "082638.262000", "082638.265000", "082638.267000", "082638.270000", "082638.273000", "082638.275000", "082638.278000", "082638.281000", "082638.283000", "082638.286000", "082638.288000", "082638.291000", "082638.294000", "082638.296000", "082638.299000", "082638.302000", "082638.304000", "082718.253000", "082718.255000", "082718.265000", "082718.267000", "082718.270000", "082718.273000", "082718.275000", "082718.278000", "082718.281000", "082718.283000", "082718.286000", "082718.289000", "082718.291000", "082718.294000", "082718.296000", "082718.299000", "082718.302000", "082718.305000", "082718.307000", "082718.310000", "082722.092000", "082722.095000"],
      "InstanceCreationTime": ["082118.259000", "082118.262000", "082118.265000", "082118.268000", "082118.275000", "082118.277000", "082118.280000", "082118.283000", "082118.285000", "082118.288000", "082118.290000", "082118.293000", "082118.296000", "082118.298000", "082118.301000", "082118.303000", "082118.306000", "082118.309000", "082158.254000", "082158.256000", "082158.259000", "082158.262000", "082158.264000", "082158.267000", "082158.284000", "082158.286000", "082158.289000", "082158.291000", "082158.294000", "082158.297000", "082158.299000", "082158.302000", "082158.305000", "082158.307000", "082158.311000", "082158.314000", "082158.317000", "082158.319000", "082238.252000", "082238.255000", "082238.258000", "082238.261000", "082238.263000", "082238.266000", "082238.269000", "082238.271000", "082238.274000", "082238.276000", "082238.279000", "082238.282000", "082238.284000", "082238.287000", "082238.290000", "082238.292000", "082238.295000", "082238.297000", "082238.300000", "082238.303000", "082318.254000", "082318.256000", "082318.259000", "082318.262000", "082318.265000", "082318.267000", "082318.270000", "082318.272000", "082318.275000", "082318.278000", "082318.280000", "082318.283000", "082318.286000", "082318.288000", "082318.291000", "082318.294000", "082318.296000", "082318.299000", "082318.301000", "082318.304000", "082358.254000", "082358.256000", "082358.259000", "082358.262000", "082358.264000", "082358.267000", "082358.270000", "082358.273000", "082358.275000", "082358.278000", "082358.280000", "082358.283000", "082358.285000", "082358.288000", "082358.291000", "082358.293000", "082358.296000", "082358.299000", "082358.301000", "082358.304000", "082438.252000", "082438.255000", "082438.258000", "082438.261000", "082438.263000", "082438.266000", "082438.269000", "082438.271000", "082438.274000", "082438.276000", "082438.279000", "082438.282000", "082438.284000", "082438.287000", "082438.290000", "082438.292000", "082438.295000", "082438.298000", "082438.300000", "082438.303000", "082518.254000", "082518.257000", "082518.259000", "082518.262000", "082518.265000", "082518.267000", "082518.270000", "082518.273000", "082518.276000", "082518.278000", "082518.281000", "082518.284000", "082518.286000", "082518.292000", "082518.295000", "082518.298000", "082518.300000", "082518.303000", "082518.306000", "082518.308000", "082558.254000", "082558.256000", "082558.259000", "082558.262000", "082558.265000", "082558.267000", "082558.270000", "082558.272000", "082558.275000", "082558.278000", "082558.280000", "082558.283000", "082558.286000", "082558.288000", "082558.291000", "082558.294000", "082558.296000", "082558.299000", "082558.301000", "082558.304000", "082638.254000", "082638.257000", "082638.260000", "082638.262000", "082638.265000", "082638.267000", "082638.270000", "082638.273000", "082638.275000", "082638.278000", "082638.281000", "082638.283000", "082638.286000", "082638.288000", "082638.291000", "082638.294000", "082638.296000", "082638.299000", "082638.302000", "082638.304000", "082718.253000", "082718.255000", "082718.265000", "082718.267000", "082718.270000", "082718.273000", "082718.275000", "082718.278000", "082718.281000", "082718.283000", "082718.286000", "082718.289000", "082718.291000", "082718.294000", "082718.296000", "082718.299000", "082718.302000", "082718.305000", "082718.307000", "082718.310000", "082722.092000", "082722.095000"],
      "InstanceNumber": [1, 2, 3, 4, 5, 6, 7, 8, 9, 10, 11, 12, 13, 14, 15, 16, 17, 18, 19, 20, 21, 22, 23, 24, 25, 26, 27, 28, 29, 30, 31, 32, 33, 34, 35, 36, 37, 38, 39, 40, 41, 42, 43, 44, 45, 46, 47, 48, 49, 50, 51, 52, 53, 54, 55, 56, 57, 58, 59, 60, 61, 62, 63, 64, 65, 66, 67, 68, 69, 70, 71, 72, 73, 74, 75, 76, 77, 78, 79, 80, 81, 82, 83, 84, 85, 86, 87, 88, 89, 90, 91, 92, 93, 94, 95, 96, 97, 98, 99, 100, 101, 102, 103, 104, 105, 106, 107, 108, 109, 110, 111, 112, 113, 114, 115, 116, 117, 118, 119, 120, 121, 122, 123, 124, 125, 126, 127, 128, 129, 130, 131, 132, 133, 134, 135, 136, 137, 138, 139, 140, 141, 142, 143, 144, 145, 146, 147, 148, 149, 150, 151, 152, 153, 154, 155, 156, 157, 158, 159, 160, 161, 162, 163, 164, 165, 166, 167, 168, 169, 170, 171, 172, 173, 174, 175, 176, 177, 178, 179, 180, 181, 182, 183, 184, 185, 186, 187, 188, 189, 190, 191, 192, 193, 194, 195, 196, 197, 198, 199, 200],
      "LargestImagePixelValue": [3742, 3744, 3757, 3745, 3753, 3749, 3745, 3751, 3743, 3755, 3741, 3744, 3744, 3748, 3762, 3746, 3751, 3752, 3752, 3752, 3757, 3751, 3748, 3747, 3745, 3747, 3747, 3743, 3750, 3744, 3745, 3747, 3763, 3753, 3756, 3747, 3747, 3745, 3748, 3743, 3741, 3750, 3751, 3744, 3748, 3749, 3747, 3754, 3757, 3740, 3740, 3756, 3752, 3748, 3741, 3752, 3757, 3752, 3741, 3753, 3757, 3740, 3730, 3742, 3742, 3748, 3743, 3744, 3754, 3742, 3750, 3743, 3747, 3740, 3737, 3759, 3747, 3759, 3747, 3751, 3754, 3740, 3769, 3740, 3745, 3759, 3748, 3757, 3731, 3747, 3746, 3750, 3753, 3748, 3745, 3763, 3748, 3738, 3744, 3736, 3743, 3737, 3743, 3742, 3745, 3740, 3747, 3747, 3748, 3750, 3747, 3736, 3751, 3730, 3741, 3737, 3751, 3754, 3749, 3751, 3744, 3744, 3752, 3746, 3740, 3748, 3766, 3755, 3739, 3737, 3743, 3745, 3743, 3740, 3745, 3738, 3738, 3746, 3748, 3742, 3744, 3738, 3745, 3735, 3744, 3740, 3739, 3745, 3733, 3739, 3737, 3741, 3744, 3729, 3741, 3741, 3740, 3737, 3738, 3735, 3741, 3739, 3732, 3730, 3740, 3760, 3740, 3745, 3740, 3748, 3731, 3750, 3744, 3730, 3732, 3739, 3745, 3735, 3740, 3751, 3743, 3740, 3733, 3743, 3740, 3737, 3732, 3724, 3740, 3734, 3738, 3723, 3729, 3728, 3748, 3738, 3736, 3731, 3738, 3727],
      "WindowCenter": [1432.0, 1431.0, 1431.0, 1431.0, 1431.0, 1431.0, 1430.0, 1429.0, 1430.0, 1429.0, 1429.0, 1430.0, 1430.0, 1430.0, 1430.0, 1431.0, 1430.0, 1430.0, 1429.0, 1429.0, 1429.0, 1429.0, 1429.0, 1428.0, 1429.0, 1429.0, 1429.0, 1429.0, 1429.0, 1429.0, 1428.0, 1428.0, 1428.0, 1428.0, 1428.0, 1428.0, 1429.0, 1428.0, 1428.0, 1428.0, 1428.0, 1427.0, 1428.0, 1428.0, 1428.0, 1428.0, 1428.0, 1428.0, 1428.0, 1428.0, 1427.0, 1428.0, 1428.0, 1428.0, 1428.0, 1427.0, 1428.0, 1428.0, 1428.0, 1428.0, 1427.0, 1428.0, 1427.0, 1427.0, 1427.0, 1427.0, 1427.0, 1427.0, 1427.0, 1428.0, 1427.0, 1427.0, 1427.0, 1428.0, 1427.0, 1426.0, 1426.0, 1427.0, 1427.0, 1426.0, 1426.0, 1427.0, 1427.0, 1426.0, 1426.0, 1426.0, 1426.0, 1426.0, 1427.0, 1426.0, 1426.0, 1426.0, 1426.0, 1427.0, 1427.0, 1426.0, 1426.0, 1425.0, 1425.0, 1425.0, 1426.0, 1426.0, 1426.0, 1426.0, 1426.0, 1425.0, 1426.0, 1425.0, 1425.0, 1425.0, 1425.0, 1425.0, 1425.0, 1425.0, 1425.0, 1425.0, 1425.0, 1425.0, 1425.0, 1425.0, 1425.0, 1425.0, 1425.0, 1425.0, 1425.0, 1424.0, 1425.0, 1425.0, 1425.0, 1425.0, 1424.0, 1424.0, 1424.0, 1425.0, 1424.0, 1424.0, 1425.0, 1425.0, 1425.0, 1424.0, 1425.0, 1425.0, 1424.0, 1424.0, 1424.0, 1424.0, 1424.0, 1424.0, 1424.0, 1424.0, 1424.0, 1424.0, 1424.0, 1424.0, 1424.0, 1424.0, 1423.0, 1424.0, 1424.0, 1424.0, 1424.0, 1424.0, 1424.0, 1424.0, 1423.0, 1423.0, 1424.0, 1424.0, 1424.0, 1424.0, 1424.0, 1423.0, 1423.0, 1424.0, 1423.0, 1423.0, 1423.0, 1423.0, 1423.0, 1424.0, 1423.0, 1423.0, 1423.0, 1424.0, 1424.0, 1423.0, 1423.0, 1424.0, 1423.0, 1423.0, 1424.0, 1424.0, 1423.0, 1423.0, 1423.0, 1422.0, 1423.0, 1422.0, 1423.0, 1423.0],
      "WindowWidth": [3306.0, 3305.0, 3305.0, 3305.0, 3305.0, 3304.0, 3304.0, 3304.0, 3304.0, 3304.0, 3304.0, 3303.0, 3304.0, 3304.0, 3305.0, 3304.0, 3304.0, 3303.0, 3303.0, 3303.0, 3303.0, 3303.0, 3303.0, 3303.0, 3303.0, 3303.0, 3303.0, 3302.0, 3303.0, 3302.0, 3303.0, 3303.0, 3303.0, 3303.0, 3302.0, 3303.0, 3302.0, 3302.0, 3302.0, 3302.0, 3302.0, 3302.0, 3302.0, 3302.0, 3302.0, 3302.0, 3301.0, 3302.0, 3302.0, 3301.0, 3302.0, 3301.0, 3301.0, 3301.0, 3301.0, 3302.0, 3301.0, 3301.0, 3301.0, 3301.0, 3302.0, 3301.0, 3301.0, 3301.0, 3301.0, 3301.0, 3301.0, 3301.0, 3301.0, 3300.0, 3301.0, 3301.0, 3300.0, 3300.0, 3300.0, 3301.0, 3301.0, 3300.0, 3300.0, 3300.0, 3300.0, 3300.0, 3300.0, 3300.0, 3300.0, 3300.0, 3300.0, 3300.0, 3300.0, 3300.0, 3300.0, 3300.0, 3300.0, 3300.0, 3300.0, 3300.0, 3299.0, 3300.0, 3300.0, 3300.0, 3299.0, 3299.0, 3299.0, 3299.0, 3299.0, 3300.0, 3299.0, 3300.0, 3300.0, 3300.0, 3300.0, 3299.0, 3299.0, 3299.0, 3299.0, 3299.0, 3299.0, 3299.0, 3299.0, 3299.0, 3299.0, 3299.0, 3298.0, 3299.0, 3298.0, 3299.0, 3298.0, 3298.0, 3298.0, 3298.0, 3298.0, 3298.0, 3298.0, 3298.0, 3298.0, 3298.0, 3298.0, 3298.0, 3298.0, 3298.0, 3298.0, 3298.0, 3298.0, 3298.0, 3297.0, 3298.0, 3298.0, 3297.0, 3297.0, 3297.0, 3298.0, 3298.0, 3298.0, 3298.0, 3297.0, 3297.0, 3297.0, 3297.0, 3297.0, 3297.0, 3297.0, 3297.0, 3297.0, 3297.0, 3297.0, 3297.0, 3297.0, 3297.0, 3297.0, 3297.0, 3297.0, 3297.0, 3297.0, 3297.0, 3297.0, 3297.0, 3297.0, 3297.0, 3296.0, 3296.0, 3297.0, 3297.0, 3296.0, 3296.0, 3296.0, 3296.0, 3297.0, 3296.0, 3296.0, 3296.0, 3296.0, 3296.0, 3296.0, 3296.0, 3296.0, 3296.0, 3296.0, 3296.0, 3295.0, 3296.0]
    },
    "slices": {}
  }
}