{
  "AcquisitionMatrixPE": 80,
  "AcquisitionNumber": 1,
  "AcquisitionTime": "08:34:17.535000",
  "BandwidthPerPixelPhaseEncode": 25,
  "BaseResolution": 80,
  "BodyPartExamined": "BRAIN",
  "CoilCombinationMethod": "Sum of Squares",
  "ConsistencyInfo": "N4_VE11C_LATEST_20160120",
  "ConversionSoftware": "dcm2niix",
  "ConversionSoftwareVersion": "v1.0.20220720",
  "DerivedVendorReportedEchoSpacing": 0.0005,
  "DeviceSerialNumber": "66112",
  "DwellTime": 2.7e-06,
  "EchoTime": 0.03,
  "EchoTrainLength": 80,
  "EffectiveEchoSpacing": 0.0005,
  "FlipAngle": 10,
  "HeudiconvVersion": "0.13.1",
  "ImageOrientationPatientDICOM": [0.988556, 0.150463, 0.0108874, -0.145977, 0.935878, 0.320661],
  "ImageOrientationText": "Tra>Cor(18.6)>Sag(-2.2)",
  "ImageType": [
    "ORIGINAL",
    "PRIMARY",
    "M",
    "ND",
    "NORM",
    "MOSAIC"
],
  "ImagingFrequency": 123.252,
  "InPlanePhaseEncodingDirectionDICOM": "COL",
  "InstitutionAddress": "Maynard 3,Hanover,NH,US,03755",
  "InstitutionName": "Dartmouth College - PBS",
  "InstitutionalDepartmentName": "Department",
  "MRAcquisitionType": "2D",
  "MagneticFieldStrength": 3,
  "Manufacturer": "Siemens",
  "ManufacturersModelName": "Prisma",
  "MatrixCoilMode": "SENSE",
  "Modality": "MR",
  "NonlinearGradientCorrection": false,
  "PartialFourier": 1,
  "PatientPosition": "HFS",
  "PercentPhaseFOV": 100,
  "PercentSampling": 100,
  "PhaseEncodingDirection": "j-",
  "PhaseEncodingSteps": 80,
  "PhaseResolution": 1,
  "PixelBandwidth": 2315,
  "ProcedureStepDescription": "dbic^QA",
  "ProtocolName": "func-bold_fa-10",
  "PulseSequenceDetails": "%SiemensSeq%\\ep2d_bold",
  "ReceiveCoilActiveElements": "HC1-7;NC1,2",
  "ReceiveCoilName": "HeadNeck_64",
  "ReconMatrixPE": 80,
  "RepetitionTime": 2,
  "SAR": 0.00761688,
  "ScanOptions": "FS",
  "ScanningSequence": "EP",
  "SequenceName": "*epfid2d1_80",
  "SequenceVariant": "SK",
  "SeriesDescription": "func-bold_fa-10",
  "SeriesNumber": 9,
  "ShimSetting": [4144, -7690, -7501, 199, -76, -299, -28, 72],
  "SliceThickness": 3.5,
  "SliceTiming": [0.99, 0, 1.055, 0.065, 1.12, 0.13, 1.1875, 0.1975, 1.2525, 0.2625, 1.32, 0.33, 1.385, 0.395, 1.45, 0.46, 1.5175, 0.5275, 1.5825, 0.5925, 1.65, 0.66, 1.715, 0.725, 1.78, 0.79, 1.8475, 0.8575, 1.9125, 0.9225],
  "SoftwareVersions": "syngo MR E11",
  "SpacingBetweenSlices": 3.99,
  "StationName": "AWP66112",
  "TotalReadoutTime": 0.0395,
  "TxRefAmp": 214.592,
  "dcmmeta_affine": [
    [-2.9656667709350586, -0.4379315674304962, -0.1518533080816269, 139.0543670654297],
    [-0.4513903856277466, 2.807633399963379, 1.2711358070373535, -93.05492401123047],
    [0.03266217187047005, -0.9619825482368469, 3.779054641723633, -32.5961799621582],
    [0.0, 0.0, 0.0, 1.0]
],
  "dcmmeta_reorient_transform": [
    [0.0, -1.0, 0.0, 79.0],
    [1.0, 0.0, 0.0, 0.0],
    [0.0, 0.0, 1.0, 0.0],
    [0.0, 0.0, 0.0, 1.0]
],
  "dcmmeta_shape": [80, 80, 30, 200],
  "dcmmeta_slice_dim": 2,
  "dcmmeta_version": 0.6,
  "global": {
    "const": {
      "AccessionNumber": "qa64",
      "AcquisitionMatrix": [80, 0, 0, 80],
      "AngioFlag": "N",
      "BitsAllocated": 16,
      "BitsStored": 12,
      "BodyPartExamined": "BRAIN",
      "Columns": 480,
      "EchoNumbers": 1,
      "EchoTime": 30.0,
      "EchoTrainLength": 80,
      "FlipAngle": 10.0,
      "HighBit": 11,
      "ImageOrientationPatient": [0.98855561900966, 0.15046346014856, 0.01088739108079, -0.1459771924613, 0.93587781127703, 0.320660851431],
      "ImagePositionPatient": [-610.00482407705, -780.55287691973, -307.52174907382],
      "ImageType": [
        "ORIGINAL",
        "PRIMARY",
        "M",
        "ND",
        "NORM",
        "MOSAIC"
],
      "ImagedNucleus": "1H",
      "ImagingFrequency": 123.252377,
      "InPlanePhaseEncodingDirection": "COL",
      "MRAcquisitionType": "2D",
      "MagneticFieldStrength": 3.0,
      "Manufacturer": "SIEMENS",
      "ManufacturerModelName": "Prisma",
      "Modality": "MR",
      "NumberOfAverages": 1.0,
      "NumberOfPhaseEncodingSteps": 80,
      "PercentPhaseFieldOfView": 100.0,
      "PercentSampling": 100.0,
      "PerformedProcedureStepStartTime": "081834.582000",
      "PhotometricInterpretation": "MONOCHROME2",
      "PixelBandwidth": 2315.0,
      "PixelRepresentation": 0,
      "PixelSpacing": [3.0, 3.0],
      "ProtocolName": "func-bold_fa-10",
      "RepetitionTime": 2000.0,
      "Rows": 480,
      "SAR": 0.00761688168733,
      "SamplesPerPixel": 1,
      "ScanOptions": "FS",
      "ScanningSequence": "EP",
      "SequenceName": "*epfid2d1_80",
      "SequenceVariant": "SK",
      "SeriesDescription": "func-bold_fa-10",
      "SeriesNumber": 9,
      "SeriesTime": "083458.395000",
      "SliceLocation": -65.810543081715,
      "SliceThickness": 3.5,
      "SmallestImagePixelValue": 0,
      "SoftwareVersions": "syngo MR E11",
      "SpacingBetweenSlices": 3.9900000126758,
      "SpecificCharacterSet": "ISO_IR 100",
      "StudyID": "7",
      "StudyTime": "081834.506000",
      "TransmitCoilName": "Body",
      "VariableFlipAngleFlag": "N",
      "WindowCenterWidthExplanation": "Algo1",
      "dBdt": 0.0},
    "slices": {}
  },
  "time": {
    "samples": {
      "AcquisitionNumber": [1, 2, 3, 4, 5, 6, 7, 8, 9, 10, 11, 12, 13, 14, 15, 16, 17, 18, 19, 20, 21, 22, 23, 24, 25, 26, 27, 28, 29, 30, 31, 32, 33, 34, 35, 36, 37, 38, 39, 40, 41, 42, 43, 44, 45, 46, 47, 48, 49, 50, 51, 52, 53, 54, 55, 56, 57, 58, 59, 60, 61, 62, 63, 64, 65, 66, 67, 68, 69, 70, 71, 72, 73, 74, 75, 76, 77, 78, 79, 80, 81, 82, 83, 84, 85, 86, 87, 88, 89, 90, 91, 92, 93, 94, 95, 96, 97, 98, 99, 100, 101, 102, 103, 104, 105, 106, 107, 108, 109, 110, 111, 112, 113, 114, 115, 116, 117, 118, 119, 120, 121, 122, 123, 124, 125, 126, 127, 128, 129, 130, 131, 132, 133, 134, 135, 136, 137, 138, 139, 140, 141, 142, 143, 144, 145, 146, 147, 148, 149, 150, 151, 152, 153, 154, 155, 156, 157, 158, 159, 160, 161, 162, 163, 164, 165, 166, 167, 168, 169, 170, 171, 172, 173, 174, 175, 176, 177, 178, 179, 180, 181, 182, 183, 184, 185, 186, 187, 188, 189, 190, 191, 192, 193, 194, 195, 196, 197, 198, 199, 200],
      "AcquisitionTime": ["083417.535000", "083419.535000", "083421.535000", "083423.535000", "083425.535000", "083427.535000", "083429.535000", "083431.535000", "083433.535000", "083435.535000", "083437.535000", "083439.535000", "083441.535000", "083443.535000", "083445.535000", "083447.535000", "083449.535000", "083451.535000", "083453.535000", "083455.535000", "083457.535000", "083459.535000", "083501.535000", "083503.535000", "083505.535000", "083507.535000", "083509.535000", "083511.535000", "083513.535000", "083515.535000", "083517.535000", "083519.535000", "083521.535000", "083523.535000", "083525.535000", "083527.535000", "083529.535000", "083531.535000", "083533.535000", "083535.535000", "083537.535000", "083539.535000", "083541.535000", "083543.535000", "083545.535000", "083547.535000", "083549.535000", "083551.535000", "083553.535000", "083555.535000", "083557.535000", "083559.535000", "083601.535000", "083603.535000", "083605.535000", "083607.535000", "083609.535000", "083611.535000", "083613.535000", "083615.535000", "083617.535000", "083619.535000", "083621.535000", "083623.535000", "083625.535000", "083627.535000", "083629.535000", "083631.535000", "083633.535000", "083635.535000", "083637.535000", "083639.535000", "083641.535000", "083643.535000", "083645.535000", "083647.535000", "083649.535000", "083651.535000", "083653.535000", "083655.535000", "083657.535000", "083659.535000", "083701.535000", "083703.535000", "083705.535000", "083707.535000", "083709.535000", "083711.535000", "083713.535000", "083715.535000", "083717.535000", "083719.535000", "083721.535000", "083723.535000", "083725.535000", "083727.535000", "083729.535000", "083731.535000", "083733.535000", "083735.535000", "083737.535000", "083739.535000", "083741.535000", "083743.535000", "083745.535000", "083747.535000", "083749.535000", "083751.535000", "083753.535000", "083755.535000", "083757.535000", "083759.535000", "083801.535000", "083803.535000", "083805.535000", "083807.535000", "083809.535000", "083811.535000", "083813.535000", "083815.535000", "083817.535000", "083819.535000", "083821.535000", "083823.535000", "083825.535000", "083827.535000", "083829.535000", "083831.535000", "083833.535000", "083835.535000", "083837.535000", "083839.535000", "083841.535000", "083843.535000", "083845.535000", "083847.535000", "083849.535000", "083851.535000", "083853.535000", "083855.535000", "083857.535000", "083859.535000", "083901.535000", "083903.535000", "083905.535000", "083907.535000", "083909.535000", "083911.535000", "083913.535000", "083915.535000", "083917.535000", "083919.535000", "083921.535000", "083923.535000", "083925.535000", "083927.535000", "083929.535000", "083931.535000", "083933.535000", "083935.535000", "083937.535000", "083939.535000", "083941.535000", "083943.535000", "083945.535000", "083947.535000", "083949.535000", "083951.535000", "083953.535000", "083955.535000", "083957.535000", "083959.535000", "084001.535000", "084003.535000", "084005.535000", "084007.535000", "084009.535000", "084011.535000", "084013.535000", "084015.535000", "084017.535000", "084019.535000", "084021.535000", "084023.535000", "084025.535000", "084027.535000", "084029.535000", "084031.535000", "084033.535000", "084035.535000", "084037.535000", "084039.535000", "084041.535000", "084043.535000", "084045.535000", "084047.535000", "084049.535000", "084051.535000", "084053.535000", "084055.535000"],
      "ContentTime": ["083458.398000", "083458.402000", "083458.404000", "083458.407000", "083458.410000", "083458.412000", "083458.415000", "083458.417000", "083458.420000", "083458.422000", "083458.436000", "083458.438000", "083458.441000", "083458.443000", "083458.446000", "083458.448000", "083458.451000", "083458.453000", "083458.456000", "083458.459000", "083538.393000", "083538.397000", "083538.399000", "083538.402000", "083538.404000", "083538.407000", "083538.410000", "083538.412000", "083538.415000", "083538.418000", "083538.420000", "083538.423000", "083538.425000", "083538.428000", "083538.430000", "083538.433000", "083538.436000", "083538.438000", "083538.441000", "083538.443000", "083618.393000", "083618.395000", "083618.398000", "083618.401000", "083618.404000", "083618.415000", "083618.417000", "083618.420000", "083618.422000", "083618.425000", "083618.427000", "083618.430000", "083618.433000", "083618.435000", "083618.438000", "083618.440000", "083618.443000", "083618.445000", "083618.448000", "083618.450000", "083658.393000", "083658.396000", "083658.399000", "083658.401000", "083658.404000", "083658.407000", "083658.409000", "083658.412000", "083658.415000", "083658.417000", "083658.420000", "083658.422000", "083658.425000", "083658.427000", "083658.430000", "083658.433000", "083658.435000", "083658.438000", "083658.440000", "083658.443000", "083738.393000", "083738.396000", "083738.399000", "083738.402000", "083738.404000", "083738.407000", "083738.409000", "083738.412000", "083738.415000", "083738.417000", "083738.420000", "083738.422000", "083738.425000", "083738.428000", "083738.430000", "083738.433000", "083738.435000", "083738.438000", "083738.440000", "083738.443000", "083818.394000", "083818.396000", "083818.399000", "083818.407000", "083818.410000", "083818.412000", "083818.415000", "083818.417000", "083818.420000", "083818.423000", "083818.425000", "083818.428000", "083818.431000", "083818.433000", "083818.436000", "083818.438000", "083818.441000", "083818.444000", "083818.446000", "083818.449000", "083858.393000", "083858.395000", "083858.398000", "083858.401000", "083858.404000", "083858.406000", "083858.409000", "083858.411000", "083858.414000", "083858.417000", "083858.419000", "083858.422000", "083858.424000", "083858.427000", "083858.429000", "083858.432000", "083858.435000", "083858.437000", "083858.440000", "083858.442000", "083938.393000", "083938.396000", "083938.399000", "083938.401000", "083938.404000", "083938.407000", "083938.409000", "083938.412000", "083938.415000", "083938.417000", "083938.420000", "083938.422000", "083938.425000", "083938.428000", "083938.430000", "083938.433000", "083938.435000", "083938.438000", "083938.441000", "083938.443000", "084018.394000", "084018.396000", "084018.399000", "084018.402000", "084018.404000", "084018.407000", "084018.410000", "084018.412000", "084018.415000", "084018.417000", "084018.420000", "084018.423000", "084018.425000", "084018.428000", "084018.431000", "084018.433000", "084018.436000", "084018.438000", "084018.441000", "084018.443000", "084057.104000", "084057.107000", "084057.109000", "084057.112000", "084057.122000", "084057.124000", "084057.127000", "084057.129000", "084057.132000", "084057.136000", "084057.141000", "084057.145000", "084057.150000", "084057.159000", "084057.162000", "084057.165000", "084057.168000", "084057.171000", "084057.174000", "084057.177000"],
      "InstanceCreationTime": ["083458.398000", "083458.402000", "083458.404000", "083458.407000", "083458.410000", "083458.412000", "083458.415000", "083458.417000", "083458.420000", "083458.422000", "083458.436000", "083458.438000", "083458.441000", "083458.443000", "083458.446000", "083458.448000", "083458.451000", "083458.453000", "083458.456000", "083458.459000", "083538.393000", "083538.397000", "083538.399000", "083538.402000", "083538.404000", "083538.407000", "083538.410000", "083538.412000", "083538.415000", "083538.418000", "083538.420000", "083538.423000", "083538.425000", "083538.428000", "083538.430000", "083538.433000", "083538.436000", "083538.438000", "083538.441000", "083538.443000", "083618.393000", "083618.395000", "083618.398000", "083618.401000", "083618.404000", "083618.415000", "083618.417000", "083618.420000", "083618.422000", "083618.425000", "083618.427000", "083618.430000", "083618.433000", "083618.435000", "083618.438000", "083618.440000", "083618.443000", "083618.445000", "083618.448000", "083618.450000", "083658.393000", "083658.396000", "083658.399000", "083658.401000", "083658.404000", "083658.407000", "083658.409000", "083658.412000", "083658.415000", "083658.417000", "083658.420000", "083658.422000", "083658.425000", "083658.427000", "083658.430000", "083658.433000", "083658.435000", "083658.438000", "083658.440000", "083658.443000", "083738.393000", "083738.396000", "083738.399000", "083738.402000", "083738.404000", "083738.407000", "083738.409000", "083738.412000", "083738.415000", "083738.417000", "083738.420000", "083738.422000", "083738.425000", "083738.428000", "083738.430000", "083738.433000", "083738.435000", "083738.438000", "083738.440000", "083738.443000", "083818.394000", "083818.396000", "083818.399000", "083818.407000", "083818.410000", "083818.412000", "083818.415000", "083818.417000", "083818.420000", "083818.423000", "083818.425000", "083818.428000", "083818.431000", "083818.433000", "083818.436000", "083818.438000", "083818.441000", "083818.444000", "083818.446000", "083818.449000", "083858.393000", "083858.395000", "083858.398000", "083858.401000", "083858.404000", "083858.406000", "083858.409000", "083858.411000", "083858.414000", "083858.417000", "083858.419000", "083858.422000", "083858.424000", "083858.427000", "083858.429000", "083858.432000", "083858.435000", "083858.437000", "083858.440000", "083858.442000", "083938.393000", "083938.396000", "083938.399000", "083938.401000", "083938.404000", "083938.407000", "083938.409000", "083938.412000", "083938.415000", "083938.417000", "083938.420000", "083938.422000", "083938.425000", "083938.428000", "083938.430000", "083938.433000", "083938.435000", "083938.438000", "083938.441000", "083938.443000", "084018.394000", "084018.396000", "084018.399000", "084018.402000", "084018.404000", "084018.407000", "084018.410000", "084018.412000", "084018.415000", "084018.417000", "084018.420000", "084018.423000", "084018.425000", "084018.428000", "084018.431000", "084018.433000", "084018.436000", "084018.438000", "084018.441000", "084018.443000", "084057.104000", "084057.107000", "084057.109000", "084057.112000", "084057.122000", "084057.124000", "084057.127000", "084057.129000", "084057.132000", "084057.136000", "084057.141000", "084057.145000", "084057.150000", "084057.159000", "084057.162000", "084057.165000", "084057.168000", "084057.171000", "084057.174000", "084057.177000"],
      "InstanceNumber": [1, 2, 3, 4, 5, 6, 7, 8, 9, 10, 11, 12, 13, 14, 15, 16, 17, 18, 19, 20, 21, 22, 23, 24, 25, 26, 27, 28, 29, 30, 31, 32, 33, 34, 35, 36, 37, 38, 39, 40, 41, 42, 43, 44, 45, 46, 47, 48, 49, 50, 51, 52, 53, 54, 55, 56, 57, 58, 59, 60, 61, 62, 63, 64, 65, 66, 67, 68, 69, 70, 71, 72, 73, 74, 75, 76, 77, 78, 79, 80, 81, 82, 83, 84, 85, 86, 87, 88, 89, 90, 91, 92, 93, 94, 95, 96, 97, 98, 99, 100, 101, 102, 103, 104, 105, 106, 107, 108, 109, 110, 111, 112, 113, 114, 115, 116, 117, 118, 119, 120, 121, 122, 123, 124, 125, 126, 127, 128, 129, 130, 131, 132, 133, 134, 135, 136, 137, 138, 139, 140, 141, 142, 143, 144, 145, 146, 147, 148, 149, 150, 151, 152, 153, 154, 155, 156, 157, 158, 159, 160, 161, 162, 163, 164, 165, 166, 167, 168, 169, 170, 171, 172, 173, 174, 175, 176, 177, 178, 179, 180, 181, 182, 183, 184, 185, 186, 187, 188, 189, 190, 191, 192, 193, 194, 195, 196, 197, 198, 199, 200],
      "LargestImagePixelValue": [612, 612, 615, 616, 619, 613, 612, 613, 612, 616, 614, 614, 613, 614, 615, 617, 612, 612, 609, 615, 615, 611, 614, 615, 614, 613, 615, 615, 615, 610, 612, 618, 613, 615, 615, 618, 610, 613, 616, 614, 607, 614, 615, 610, 613, 614, 614, 614, 615, 612, 611, 613, 615, 612, 611, 615, 612, 613, 613, 613, 612, 610, 610, 613, 614, 613, 609, 608, 612, 613, 617, 613, 614, 613, 612, 613, 615, 613, 610, 618, 609, 612, 612, 614, 611, 614, 612, 611, 611, 611, 613, 614, 612, 610, 610, 608, 612, 612, 613, 612, 612, 614, 614, 610, 611, 616, 613, 617, 610, 610, 613, 610, 618, 611, 612, 611, 615, 616, 615, 613, 615, 611, 609, 613, 614, 612, 610, 613, 608, 611, 609, 613, 609, 610, 610, 609, 610, 610, 610, 612, 609, 611, 609, 616, 611, 613, 612, 607, 615, 614, 611, 609, 610, 609, 616, 610, 608, 611, 611, 615, 612, 611, 610, 609, 610, 612, 612, 611, 614, 613, 613, 612, 613, 611, 612, 612, 613, 616, 611, 615, 613, 613, 609, 609, 610, 609, 612, 610, 608, 611, 612, 612, 610, 607, 612, 612, 612, 609, 612, 608],
      "WindowCenter": [446.0, 446.0, 446.0, 446.0, 446.0, 446.0, 446.0, 446.0, 446.0, 446.0, 446.0, 446.0, 446.0, 446.0, 446.0, 446.0, 446.0, 446.0, 445.0, 446.0, 446.0, 446.0, 446.0, 446.0, 446.0, 446.0, 446.0, 446.0, 446.0, 446.0, 446.0, 446.0, 446.0, 446.0, 446.0, 446.0, 446.0, 445.0, 446.0, 446.0, 445.0, 445.0, 445.0, 445.0, 445.0, 445.0, 445.0, 445.0, 445.0, 445.0, 445.0, 445.0, 445.0, 445.0, 445.0, 445.0, 445.0, 445.0, 445.0, 445.0, 445.0, 445.0, 445.0, 445.0, 445.0, 445.0, 445.0, 445.0, 445.0, 445.0, 445.0, 445.0, 445.0, 445.0, 445.0, 445.0, 445.0, 445.0, 445.0, 445.0, 444.0, 445.0, 445.0, 445.0, 445.0, 445.0, 445.0, 445.0, 445.0, 445.0, 445.0, 445.0, 445.0, 445.0, 445.0, 444.0, 445.0, 445.0, 445.0, 445.0, 445.0, 445.0, 445.0, 445.0, 445.0, 445.0, 445.0, 445.0, 445.0, 445.0, 445.0, 445.0, 445.0, 445.0, 445.0, 445.0, 445.0, 445.0, 445.0, 445.0, 445.0, 445.0, 444.0, 445.0, 445.0, 445.0, 445.0, 445.0, 444.0, 445.0, 444.0, 445.0, 444.0, 445.0, 445.0, 444.0, 445.0, 445.0, 445.0, 445.0, 444.0, 445.0, 444.0, 445.0, 445.0, 445.0, 445.0, 444.0, 445.0, 445.0, 445.0, 444.0, 445.0, 444.0, 445.0, 445.0, 444.0, 445.0, 445.0, 445.0, 445.0, 445.0, 445.0, 444.0, 445.0, 445.0, 445.0, 445.0, 445.0, 445.0, 445.0, 445.0, 445.0, 445.0, 445.0, 445.0, 445.0, 445.0, 445.0, 445.0, 445.0, 445.0, 444.0, 444.0, 445.0, 444.0, 445.0, 445.0, 444.0, 445.0, 445.0, 445.0, 445.0, 444.0, 445.0, 445.0, 445.0, 443.0, 445.0, 443.0],
      "WindowWidth": [928.0, 928.0, 928.0, 928.0, 928.0, 928.0, 928.0, 928.0, 928.0, 928.0, 928.0, 928.0, 928.0, 928.0, 928.0, 928.0, 928.0, 928.0, 927.0, 927.0, 927.0, 927.0, 927.0, 928.0, 928.0, 927.0, 927.0, 927.0, 927.0, 927.0, 928.0, 927.0, 928.0, 928.0, 927.0, 927.0, 927.0, 927.0, 928.0, 928.0, 927.0, 927.0, 927.0, 927.0, 927.0, 927.0, 927.0, 927.0, 927.0, 927.0, 927.0, 927.0, 927.0, 927.0, 927.0, 927.0, 927.0, 927.0, 927.0, 927.0, 927.0, 927.0, 927.0, 927.0, 927.0, 927.0, 926.0, 926.0, 927.0, 927.0, 927.0, 927.0, 927.0, 927.0, 927.0, 927.0, 927.0, 927.0, 927.0, 927.0, 926.0, 927.0, 927.0, 927.0, 927.0, 927.0, 927.0, 927.0, 927.0, 927.0, 927.0, 927.0, 927.0, 927.0, 927.0, 925.0, 927.0, 927.0, 927.0, 927.0, 927.0, 927.0, 927.0, 926.0, 926.0, 926.0, 927.0, 927.0, 927.0, 927.0, 927.0, 927.0, 927.0, 927.0, 927.0, 927.0, 926.0, 926.0, 926.0, 926.0, 926.0, 927.0, 925.0, 927.0, 926.0, 926.0, 926.0, 926.0, 925.0, 926.0, 925.0, 926.0, 925.0, 926.0, 926.0, 925.0, 926.0, 927.0, 927.0, 926.0, 925.0, 926.0, 925.0, 926.0, 926.0, 926.0, 926.0, 925.0, 926.0, 926.0, 926.0, 925.0, 926.0, 925.0, 926.0, 926.0, 925.0, 926.0, 926.0, 926.0, 926.0, 926.0, 926.0, 924.0, 926.0, 926.0, 926.0, 926.0, 926.0, 926.0, 926.0, 925.0, 925.0, 925.0, 925.0, 925.0, 925.0, 925.0, 925.0, 926.0, 926.0, 925.0, 924.0, 924.0, 925.0, 925.0, 925.0, 925.0, 925.0, 925.0, 925.0, 925.0, 925.0, 924.0, 925.0, 925.0, 925.0, 924.0, 925.0, 924.0]
    },
    "slices": {}
  }
}