{
  "AcquisitionMatrixPE": 80,
  "AcquisitionNumber": 1,
  "AcquisitionTime": "08:27:30.537500",
  "BandwidthPerPixelPhaseEncode": 25,
  "BaseResolution": 80,
  "BodyPartExamined": "BRAIN",
  "CoilCombinationMethod": "Sum of Squares",
  "ConsistencyInfo": "N4_VE11C_LATEST_20160120",
  "ConversionSoftware": "dcm2niix",
  "ConversionSoftwareVersion": "v1.0.20220720",
  "DerivedVendorReportedEchoSpacing": 0.0005,
  "DeviceSerialNumber": "66112",
  "DwellTime": 2.7e-06,
  "EchoTime": 0.03,
  "EchoTrainLength": 80,
  "EffectiveEchoSpacing": 0.0005,
  "FlipAngle": 77,
  "HeudiconvVersion": "0.13.1",
  "ImageOrientationPatientDICOM": [0.988556, 0.150463, 0.0108874, -0.145977, 0.935878, 0.320661],
  "ImageOrientationText": "Tra>Cor(18.6)>Sag(-2.2)",
  "ImageType": [
    "ORIGINAL",
    "PRIMARY",
    "M",
    "ND",
    "NORM",
    "MOSAIC"
],
  "ImagingFrequency": 123.252,
  "InPlanePhaseEncodingDirectionDICOM": "COL",
  "InstitutionAddress": "Maynard 3,Hanover,NH,US,03755",
  "InstitutionName": "Dartmouth College - PBS",
  "InstitutionalDepartmentName": "Department",
  "MRAcquisitionType": "2D",
  "MagneticFieldStrength": 3,
  "Manufacturer": "Siemens",
  "ManufacturersModelName": "Prisma",
  "MatrixCoilMode": "SENSE",
  "Modality": "MR",
  "NonlinearGradientCorrection": false,
  "PartialFourier": 1,
  "PatientPosition": "HFS",
  "PercentPhaseFOV": 100,
  "PercentSampling": 100,
  "PhaseEncodingDirection": "j-",
  "PhaseEncodingSteps": 80,
  "PhaseResolution": 1,
  "PixelBandwidth": 2315,
  "ProcedureStepDescription": "dbic^QA",
  "ProtocolName": "func-bold_fa-77",
  "PulseSequenceDetails": "%SiemensSeq%\\ep2d_bold",
  "ReceiveCoilActiveElements": "HC1-7;NC1,2",
  "ReceiveCoilName": "HeadNeck_64",
  "ReconMatrixPE": 80,
  "RepetitionTime": 2,
  "SAR": 0.0283948,
  "ScanOptions": "FS",
  "ScanningSequence": "EP",
  "SequenceName": "*epfid2d1_80",
  "SequenceVariant": "SK",
  "SeriesDescription": "func-bold_fa-77",
  "SeriesNumber": 7,
  "ShimSetting": [4144, -7690, -7501, 199, -76, -299, -28, 72],
  "SliceThickness": 3.5,
  "SliceTiming": [0.99, 0, 1.055, 0.065, 1.1225, 0.1325, 1.1875, 0.1975, 1.255, 0.265, 1.32, 0.33, 1.385, 0.395, 1.4525, 0.4625, 1.5175, 0.5275, 1.585, 0.595, 1.65, 0.66, 1.715, 0.725, 1.7825, 0.7925, 1.8475, 0.8575, 1.915, 0.925],
  "SoftwareVersions": "syngo MR E11",
  "SpacingBetweenSlices": 3.99,
  "StationName": "AWP66112",
  "TotalReadoutTime": 0.0395,
  "TxRefAmp": 214.592,
  "dcmmeta_affine": [
    [-2.9656667709350586, -0.4379315674304962, -0.1518533080816269, 139.0543670654297],
    [-0.4513903856277466, 2.807633399963379, 1.2711358070373535, -93.05492401123047],
    [0.03266217187047005, -0.9619825482368469, 3.779054641723633, -32.5961799621582],
    [0.0, 0.0, 0.0, 1.0]
],
  "dcmmeta_reorient_transform": [
    [0.0, -1.0, 0.0, 79.0],
    [1.0, 0.0, 0.0, 0.0],
    [0.0, 0.0, 1.0, 0.0],
    [0.0, 0.0, 0.0, 1.0]
],
  "dcmmeta_shape": [80, 80, 30, 200],
  "dcmmeta_slice_dim": 2,
  "dcmmeta_version": 0.6,
  "global": {
    "const": {
      "AccessionNumber": "qa64",
      "AcquisitionMatrix": [80, 0, 0, 80],
      "AngioFlag": "N",
      "BitsAllocated": 16,
      "BitsStored": 12,
      "BodyPartExamined": "BRAIN",
      "Columns": 480,
      "EchoNumbers": 1,
      "EchoTime": 30.0,
      "EchoTrainLength": 80,
      "FlipAngle": 77.0,
      "HighBit": 11,
      "ImageOrientationPatient": [0.98855561900966, 0.15046346014856, 0.01088739108079, -0.1459771924613, 0.93587781127703, 0.320660851431],
      "ImagePositionPatient": [-610.00482407705, -780.55287691973, -307.52174907382],
      "ImageType": [
        "ORIGINAL",
        "PRIMARY",
        "M",
        "ND",
        "NORM",
        "MOSAIC"
],
      "ImagedNucleus": "1H",
      "ImagingFrequency": 123.252377,
      "InPlanePhaseEncodingDirection": "COL",
      "MRAcquisitionType": "2D",
      "MagneticFieldStrength": 3.0,
      "Manufacturer": "SIEMENS",
      "ManufacturerModelName": "Prisma",
      "Modality": "MR",
      "NumberOfAverages": 1.0,
      "NumberOfPhaseEncodingSteps": 80,
      "PercentPhaseFieldOfView": 100.0,
      "PercentSampling": 100.0,
      "PerformedProcedureStepStartTime": "081834.582000",
      "PhotometricInterpretation": "MONOCHROME2",
      "PixelBandwidth": 2315.0,
      "PixelRepresentation": 0,
      "PixelSpacing": [3.0, 3.0],
      "ProtocolName": "func-bold_fa-77",
      "RepetitionTime": 2000.0,
      "Rows": 480,
      "SAR": 0.02839480796242,
      "SamplesPerPixel": 1,
      "ScanOptions": "FS",
      "ScanningSequence": "EP",
      "SequenceName": "*epfid2d1_80",
      "SequenceVariant": "SK",
      "SeriesDescription": "func-bold_fa-77",
      "SeriesNumber": 7,
      "SeriesTime": "082818.325000",
      "SliceLocation": -65.810543081715,
      "SliceThickness": 3.5,
      "SmallestImagePixelValue": 0,
      "SoftwareVersions": "syngo MR E11",
      "SpacingBetweenSlices": 3.9900000126758,
      "SpecificCharacterSet": "ISO_IR 100",
      "StudyID": "7",
      "StudyTime": "081834.506000",
      "TransmitCoilName": "Body",
      "VariableFlipAngleFlag": "N",
      "WindowCenterWidthExplanation": "Algo1",
      "dBdt": 0.0},
    "slices": {}
  },
  "time": {
    "samples": {
      "AcquisitionNumber": [1, 2, 3, 4, 5, 6, 7, 8, 9, 10, 11, 12, 13, 14, 15, 16, 17, 18, 19, 20, 21, 22, 23, 24, 25, 26, 27, 28, 29, 30, 31, 32, 33, 34, 35, 36, 37, 38, 39, 40, 41, 42, 43, 44, 45, 46, 47, 48, 49, 50, 51, 52, 53, 54, 55, 56, 57, 58, 59, 60, 61, 62, 63, 64, 65, 66, 67, 68, 69, 70, 71, 72, 73, 74, 75, 76, 77, 78, 79, 80, 81, 82, 83, 84, 85, 86, 87, 88, 89, 90, 91, 92, 93, 94, 95, 96, 97, 98, 99, 100, 101, 102, 103, 104, 105, 106, 107, 108, 109, 110, 111, 112, 113, 114, 115, 116, 117, 118, 119, 120, 121, 122, 123, 124, 125, 126, 127, 128, 129, 130, 131, 132, 133, 134, 135, 136, 137, 138, 139, 140, 141, 142, 143, 144, 145, 146, 147, 148, 149, 150, 151, 152, 153, 154, 155, 156, 157, 158, 159, 160, 161, 162, 163, 164, 165, 166, 167, 168, 169, 170, 171, 172, 173, 174, 175, 176, 177, 178, 179, 180, 181, 182, 183, 184, 185, 186, 187, 188, 189, 190, 191, 192, 193, 194, 195, 196, 197, 198, 199, 200],
      "AcquisitionTime": ["082730.537500", "082732.537500", "082734.537500", "082736.537500", "082738.537500", "082740.537500", "082742.537500", "082744.537500", "082746.537500", "082748.537500", "082750.537500", "082752.537500", "082754.537500", "082756.537500", "082758.537500", "082800.537500", "082802.537500", "082804.537500", "082806.537500", "082808.537500", "082810.537500", "082812.537500", "082814.537500", "082816.537500", "082818.537500", "082820.537500", "082822.537500", "082824.537500", "082826.537500", "082828.537500", "082830.537500", "082832.537500", "082834.537500", "082836.537500", "082838.537500", "082840.537500", "082842.537500", "082844.537500", "082846.537500", "082848.537500", "082850.537500", "082852.537500", "082854.537500", "082856.537500", "082858.537500", "082900.537500", "082902.537500", "082904.537500", "082906.537500", "082908.537500", "082910.537500", "082912.537500", "082914.537500", "082916.537500", "082918.537500", "082920.537500", "082922.537500", "082924.537500", "082926.537500", "082928.537500", "082930.537500", "082932.537500", "082934.537500", "082936.537500", "082938.537500", "082940.537500", "082942.537500", "082944.537500", "082946.537500", "082948.537500", "082950.537500", "082952.537500", "082954.537500", "082956.537500", "082958.537500", "083000.537500", "083002.537500", "083004.537500", "083006.537500", "083008.537500", "083010.537500", "083012.537500", "083014.537500", "083016.537500", "083018.537500", "083020.537500", "083022.537500", "083024.537500", "083026.537500", "083028.537500", "083030.537500", "083032.537500", "083034.537500", "083036.537500", "083038.537500", "083040.537500", "083042.537500", "083044.537500", "083046.537500", "083048.537500", "083050.537500", "083052.537500", "083054.537500", "083056.537500", "083058.537500", "083100.537500", "083102.537500", "083104.537500", "083106.537500", "083108.537500", "083110.537500", "083112.537500", "083114.537500", "083116.537500", "083118.537500", "083120.537500", "083122.537500", "083124.537500", "083126.537500", "083128.537500", "083130.537500", "083132.537500", "083134.537500", "083136.537500", "083138.537500", "083140.537500", "083142.537500", "083144.537500", "083146.537500", "083148.537500", "083150.537500", "083152.537500", "083154.537500", "083156.537500", "083158.537500", "083200.537500", "083202.537500", "083204.537500", "083206.537500", "083208.537500", "083210.537500", "083212.537500", "083214.537500", "083216.537500", "083218.537500", "083220.537500", "083222.537500", "083224.537500", "083226.537500", "083228.537500", "083230.537500", "083232.537500", "083234.537500", "083236.537500", "083238.537500", "083240.537500", "083242.537500", "083244.537500", "083246.537500", "083248.537500", "083250.537500", "083252.537500", "083254.537500", "083256.537500", "083258.537500", "083300.537500", "083302.537500", "083304.537500", "083306.537500", "083308.537500", "083310.537500", "083312.537500", "083314.537500", "083316.537500", "083318.537500", "083320.537500", "083322.537500", "083324.537500", "083326.537500", "083328.537500", "083330.537500", "083332.537500", "083334.537500", "083336.537500", "083338.537500", "083340.537500", "083342.537500", "083344.537500", "083346.537500", "083348.537500", "083350.537500", "083352.537500", "083354.537500", "083356.537500", "083358.537500", "083400.537500", "083402.537500", "083404.537500", "083406.537500", "083408.537500"],
      "ContentTime": ["082818.328000", "082818.332000", "082818.335000", "082818.338000", "082818.341000", "082818.343000", "082818.346000", "082818.349000", "082818.351000", "082818.354000", "082818.356000", "082818.359000", "082818.362000", "082818.364000", "082818.367000", "082818.369000", "082818.372000", "082818.375000", "082818.377000", "082818.380000", "082818.382000", "082818.385000", "082818.388000", "082818.390000", "082858.323000", "082858.326000", "082858.329000", "082858.332000", "082858.334000", "082858.337000", "082858.340000", "082858.343000", "082858.346000", "082858.349000", "082858.352000", "082858.354000", "082858.357000", "082858.360000", "082858.362000", "082858.365000", "082858.368000", "082858.370000", "082858.373000", "082858.375000", "082938.323000", "082938.325000", "082938.328000", "082938.331000", "082938.334000", "082938.336000", "082938.339000", "082938.342000", "082938.344000", "082938.347000", "082938.349000", "082938.352000", "082938.355000", "082938.357000", "082938.360000", "082938.362000", "082938.365000", "082938.367000", "082938.370000", "082938.373000", "083018.323000", "083018.326000", "083018.329000", "083018.332000", "083018.334000", "083018.337000", "083018.339000", "083018.342000", "083018.345000", "083018.347000", "083018.350000", "083018.352000", "083018.355000", "083018.358000", "083018.360000", "083018.363000", "083018.366000", "083018.368000", "083018.371000", "083018.373000", "083058.323000", "083058.327000", "083058.329000", "083058.332000", "083058.334000", "083058.337000", "083058.340000", "083058.342000", "083058.346000", "083058.349000", "083058.352000", "083058.355000", "083058.357000", "083058.360000", "083058.362000", "083058.365000", "083058.368000", "083058.370000", "083058.373000", "083058.375000", "083138.323000", "083138.326000", "083138.328000", "083138.331000", "083138.334000", "083138.336000", "083138.339000", "083138.343000", "083138.346000", "083138.349000", "083138.351000", "083138.354000", "083138.357000", "083138.359000", "083138.362000", "083138.365000", "083138.367000", "083138.370000", "083138.373000", "083138.375000", "083218.324000", "083218.327000", "083218.329000", "083218.332000", "083218.335000", "083218.337000", "083218.340000", "083218.343000", "083218.346000", "083218.348000", "083218.351000", "083218.353000", "083218.356000", "083218.359000", "083218.361000", "083218.364000", "083218.366000", "083218.369000", "083218.372000", "083218.374000", "083258.324000", "083258.327000", "083258.329000", "083258.332000", "083258.334000", "083258.337000", "083258.340000", "083258.342000", "083258.345000", "083258.348000", "083258.350000", "083258.353000", "083258.356000", "083258.358000", "083258.361000", "083258.363000", "083258.366000", "083258.368000", "083258.371000", "083258.374000", "083338.324000", "083338.327000", "083338.330000", "083338.332000", "083338.335000", "083338.338000", "083338.340000", "083338.343000", "083338.345000", "083338.348000", "083338.350000", "083338.354000", "083338.356000", "083338.359000", "083338.361000", "083338.364000", "083338.367000", "083338.369000", "083338.372000", "083338.375000", "083410.323000", "083410.326000", "083410.329000", "083410.332000", "083410.339000", "083410.342000", "083410.344000", "083410.347000", "083410.350000", "083410.352000", "083410.357000", "083410.361000", "083410.364000", "083410.367000", "083410.370000", "083410.377000"],
      "InstanceCreationTime": ["082818.328000", "082818.332000", "082818.335000", "082818.338000", "082818.341000", "082818.343000", "082818.346000", "082818.349000", "082818.351000", "082818.354000", "082818.356000", "082818.359000", "082818.362000", "082818.364000", "082818.367000", "082818.369000", "082818.372000", "082818.375000", "082818.377000", "082818.380000", "082818.382000", "082818.385000", "082818.388000", "082818.390000", "082858.323000", "082858.326000", "082858.329000", "082858.332000", "082858.334000", "082858.337000", "082858.340000", "082858.343000", "082858.346000", "082858.349000", "082858.352000", "082858.354000", "082858.357000", "082858.360000", "082858.362000", "082858.365000", "082858.368000", "082858.370000", "082858.373000", "082858.375000", "082938.323000", "082938.325000", "082938.328000", "082938.331000", "082938.334000", "082938.336000", "082938.339000", "082938.342000", "082938.344000", "082938.347000", "082938.349000", "082938.352000", "082938.355000", "082938.357000", "082938.360000", "082938.362000", "082938.365000", "082938.367000", "082938.370000", "082938.373000", "083018.323000", "083018.326000", "083018.329000", "083018.332000", "083018.334000", "083018.337000", "083018.339000", "083018.342000", "083018.345000", "083018.347000", "083018.350000", "083018.352000", "083018.355000", "083018.358000", "083018.360000", "083018.363000", "083018.366000", "083018.368000", "083018.371000", "083018.373000", "083058.323000", "083058.327000", "083058.329000", "083058.332000", "083058.334000", "083058.337000", "083058.340000", "083058.342000", "083058.346000", "083058.349000", "083058.352000", "083058.355000", "083058.357000", "083058.360000", "083058.362000", "083058.365000", "083058.368000", "083058.370000", "083058.373000", "083058.375000", "083138.323000", "083138.326000", "083138.328000", "083138.331000", "083138.334000", "083138.336000", "083138.339000", "083138.343000", "083138.346000", "083138.349000", "083138.351000", "083138.354000", "083138.357000", "083138.359000", "083138.362000", "083138.365000", "083138.367000", "083138.370000", "083138.373000", "083138.375000", "083218.324000", "083218.327000", "083218.329000", "083218.332000", "083218.335000", "083218.337000", "083218.340000", "083218.343000", "083218.346000", "083218.348000", "083218.351000", "083218.353000", "083218.356000", "083218.359000", "083218.361000", "083218.364000", "083218.366000", "083218.369000", "083218.372000", "083218.374000", "083258.324000", "083258.327000", "083258.329000", "083258.332000", "083258.334000", "083258.337000", "083258.340000", "083258.342000", "083258.345000", "083258.348000", "083258.350000", "083258.353000", "083258.356000", "083258.358000", "083258.361000", "083258.363000", "083258.366000", "083258.368000", "083258.371000", "083258.374000", "083338.324000", "083338.327000", "083338.330000", "083338.332000", "083338.335000", "083338.338000", "083338.340000", "083338.343000", "083338.345000", "083338.348000", "083338.350000", "083338.354000", "083338.356000", "083338.359000", "083338.361000", "083338.364000", "083338.367000", "083338.369000", "083338.372000", "083338.375000", "083410.323000", "083410.326000", "083410.329000", "083410.332000", "083410.339000", "083410.342000", "083410.344000", "083410.347000", "083410.350000", "083410.352000", "083410.357000", "083410.361000", "083410.364000", "083410.367000", "083410.370000", "083410.377000"],
      "InstanceNumber": [1, 2, 3, 4, 5, 6, 7, 8, 9, 10, 11, 12, 13, 14, 15, 16, 17, 18, 19, 20, 21, 22, 23, 24, 25, 26, 27, 28, 29, 30, 31, 32, 33, 34, 35, 36, 37, 38, 39, 40, 41, 42, 43, 44, 45, 46, 47, 48, 49, 50, 51, 52, 53, 54, 55, 56, 57, 58, 59, 60, 61, 62, 63, 64, 65, 66, 67, 68, 69, 70, 71, 72, 73, 74, 75, 76, 77, 78, 79, 80, 81, 82, 83, 84, 85, 86, 87, 88, 89, 90, 91, 92, 93, 94, 95, 96, 97, 98, 99, 100, 101, 102, 103, 104, 105, 106, 107, 108, 109, 110, 111, 112, 113, 114, 115, 116, 117, 118, 119, 120, 121, 122, 123, 124, 125, 126, 127, 128, 129, 130, 131, 132, 133, 134, 135, 136, 137, 138, 139, 140, 141, 142, 143, 144, 145, 146, 147, 148, 149, 150, 151, 152, 153, 154, 155, 156, 157, 158, 159, 160, 161, 162, 163, 164, 165, 166, 167, 168, 169, 170, 171, 172, 173, 174, 175, 176, 177, 178, 179, 180, 181, 182, 183, 184, 185, 186, 187, 188, 189, 190, 191, 192, 193, 194, 195, 196, 197, 198, 199, 200],
      "LargestImagePixelValue": [3740, 3732, 3731, 3733, 3731, 3732, 3733, 3733, 3734, 3728, 3736, 3733, 3732, 3733, 3732, 3732, 3729, 3729, 3733, 3733, 3729, 3730, 3730, 3736, 3727, 3735, 3733, 3735, 3726, 3729, 3729, 3734, 3731, 3731, 3726, 3729, 3724, 3726, 3728, 3726, 3725, 3727, 3732, 3729, 3733, 3732, 3732, 3727, 3722, 3733, 3735, 3730, 3725, 3729, 3725, 3726, 3721, 3724, 3725, 3718, 3732, 3725, 3723, 3722, 3721, 3718, 3717, 3723, 3720, 3723, 3719, 3714, 3718, 3719, 3720, 3721, 3724, 3720, 3729, 3728, 3716, 3722, 3723, 3723, 3720, 3721, 3719, 3719, 3720, 3723, 3717, 3717, 3718, 3715, 3717, 3719, 3718, 3722, 3719, 3722, 3715, 3722, 3715, 3718, 3722, 3719, 3728, 3717, 3720, 3714, 3717, 3717, 3720, 3717, 3715, 3719, 3719, 3715, 3717, 3716, 3716, 3716, 3721, 3720, 3715, 3717, 3719, 3717, 3721, 3716, 3715, 3715, 3713, 3716, 3715, 3713, 3719, 3716, 3713, 3714, 3711, 3714, 3716, 3718, 3717, 3715, 3720, 3713, 3714, 3729, 3713, 3721, 3715, 3713, 3713, 3713, 3711, 3712, 3711, 3713, 3715, 3715, 3709, 3709, 3712, 3712, 3710, 3716, 3720, 3719, 3709, 3718, 3710, 3710, 3710, 3709, 3711, 3711, 3710, 3712, 3710, 3713, 3712, 3710, 3711, 3712, 3711, 3711, 3712, 3712, 3707, 3702, 3711, 3709, 3710, 3710, 3710, 3717, 3716, 3718],
      "WindowCenter": [1361.0, 1361.0, 1360.0, 1361.0, 1361.0, 1361.0, 1361.0, 1361.0, 1361.0, 1361.0, 1362.0, 1360.0, 1361.0, 1361.0, 1361.0, 1361.0, 1361.0, 1361.0, 1361.0, 1360.0, 1361.0, 1361.0, 1361.0, 1360.0, 1360.0, 1360.0, 1360.0, 1359.0, 1360.0, 1360.0, 1360.0, 1361.0, 1360.0, 1360.0, 1360.0, 1359.0, 1359.0, 1359.0, 1359.0, 1359.0, 1359.0, 1360.0, 1359.0, 1359.0, 1359.0, 1359.0, 1359.0, 1359.0, 1359.0, 1359.0, 1359.0, 1359.0, 1359.0, 1358.0, 1358.0, 1359.0, 1358.0, 1358.0, 1358.0, 1358.0, 1359.0, 1358.0, 1358.0, 1358.0, 1358.0, 1358.0, 1357.0, 1357.0, 1357.0, 1358.0, 1357.0, 1357.0, 1357.0, 1356.0, 1357.0, 1357.0, 1357.0, 1357.0, 1358.0, 1358.0, 1357.0, 1357.0, 1356.0, 1357.0, 1356.0, 1357.0, 1358.0, 1356.0, 1357.0, 1357.0, 1356.0, 1356.0, 1356.0, 1356.0, 1356.0, 1356.0, 1356.0, 1356.0, 1356.0, 1358.0, 1356.0, 1357.0, 1356.0, 1356.0, 1356.0, 1357.0, 1357.0, 1356.0, 1356.0, 1356.0, 1356.0, 1356.0, 1356.0, 1356.0, 1356.0, 1356.0, 1356.0, 1356.0, 1356.0, 1357.0, 1356.0, 1355.0, 1356.0, 1355.0, 1355.0, 1356.0, 1355.0, 1356.0, 1356.0, 1355.0, 1355.0, 1355.0, 1356.0, 1355.0, 1356.0, 1355.0, 1356.0, 1354.0, 1355.0, 1355.0, 1355.0, 1355.0, 1355.0, 1355.0, 1354.0, 1355.0, 1355.0, 1355.0, 1356.0, 1357.0, 1355.0, 1356.0, 1354.0, 1355.0, 1354.0, 1354.0, 1355.0, 1355.0, 1354.0, 1355.0, 1354.0, 1355.0, 1355.0, 1355.0, 1354.0, 1354.0, 1355.0, 1355.0, 1356.0, 1355.0, 1355.0, 1354.0, 1354.0, 1354.0, 1354.0, 1354.0, 1354.0, 1354.0, 1354.0, 1354.0, 1354.0, 1354.0, 1354.0, 1354.0, 1354.0, 1354.0, 1354.0, 1354.0, 1354.0, 1354.0, 1354.0, 1354.0, 1354.0, 1354.0, 1354.0, 1353.0, 1354.0, 1356.0, 1356.0, 1355.0],
      "WindowWidth": [3259.0, 3258.0, 3258.0, 3259.0, 3259.0, 3258.0, 3258.0, 3258.0, 3258.0, 3258.0, 3258.0, 3258.0, 3258.0, 3258.0, 3257.0, 3257.0, 3258.0, 3257.0, 3258.0, 3257.0, 3258.0, 3257.0, 3257.0, 3257.0, 3257.0, 3257.0, 3256.0, 3257.0, 3256.0, 3257.0, 3257.0, 3257.0, 3257.0, 3257.0, 3256.0, 3256.0, 3255.0, 3255.0, 3255.0, 3254.0, 3255.0, 3256.0, 3256.0, 3255.0, 3256.0, 3256.0, 3256.0, 3254.0, 3254.0, 3256.0, 3255.0, 3256.0, 3254.0, 3254.0, 3253.0, 3252.0, 3253.0, 3253.0, 3253.0, 3254.0, 3256.0, 3254.0, 3253.0, 3253.0, 3253.0, 3252.0, 3252.0, 3252.0, 3252.0, 3251.0, 3252.0, 3252.0, 3252.0, 3252.0, 3252.0, 3252.0, 3252.0, 3251.0, 3254.0, 3254.0, 3251.0, 3251.0, 3251.0, 3251.0, 3251.0, 3251.0, 3252.0, 3251.0, 3251.0, 3251.0, 3251.0, 3251.0, 3251.0, 3251.0, 3251.0, 3251.0, 3251.0, 3251.0, 3251.0, 3252.0, 3251.0, 3250.0, 3251.0, 3251.0, 3251.0, 3250.0, 3252.0, 3250.0, 3251.0, 3250.0, 3250.0, 3250.0, 3250.0, 3250.0, 3250.0, 3250.0, 3250.0, 3250.0, 3251.0, 3250.0, 3251.0, 3251.0, 3250.0, 3251.0, 3251.0, 3250.0, 3250.0, 3250.0, 3250.0, 3250.0, 3250.0, 3250.0, 3249.0, 3250.0, 3249.0, 3249.0, 3249.0, 3250.0, 3250.0, 3249.0, 3249.0, 3249.0, 3249.0, 3249.0, 3249.0, 3249.0, 3248.0, 3249.0, 3250.0, 3252.0, 3248.0, 3249.0, 3249.0, 3248.0, 3248.0, 3248.0, 3248.0, 3248.0, 3249.0, 3248.0, 3248.0, 3248.0, 3249.0, 3248.0, 3248.0, 3248.0, 3248.0, 3249.0, 3251.0, 3249.0, 3248.0, 3248.0, 3248.0, 3248.0, 3248.0, 3248.0, 3248.0, 3248.0, 3248.0, 3248.0, 3248.0, 3247.0, 3248.0, 3247.0, 3247.0, 3247.0, 3248.0, 3247.0, 3247.0, 3247.0, 3247.0, 3247.0, 3247.0, 3247.0, 3247.0, 3247.0, 3248.0, 3251.0, 3251.0, 3251.0]
    },
    "slices": {}
  }
}