{
  "AcquisitionDateTime": "2017-03-27T92:72:3.117188", 
  "ConversionSoftware": "dcm2niix", 
  "ConversionSoftwareVersion": "v1.0.20170130", 
  "EchoTime": 0.035, 
  "EffectiveEchoSpacing": 0.000279999, 
  "FlipAngle": 90, 
  "ImageType": [
    "ORIGINAL", 
    "PRIMARY", 
    "M", 
    "ND", 
    "NORM", 
    "MOSAIC"
], 
  "MagneticFieldStrength": 3, 
  "Manufacturer": "Siemens", 
  "ManufacturersModelName": "Prisma", 
  "PhaseEncodingDirection": "j-", 
  "ProcedureStepDescription": "dbic_QA", 
  "ProtocolName": "func-bold_task-rest_acq-p2-s4-3.5mm", 
  "RepetitionTime": 2, 
  "SliceTiming": [1.485, 0, 0.99, 0.2475, 1.2375, 0.7425, 1.7325, 0.495, 1.485, 0, 0.99, 0.2475, 1.2375, 0.7425, 1.7325, 0.495, 1.485, 0, 0.99, 0.2475, 1.2375, 0.7425, 1.7325, 0.495, 1.485, 0, 0.99, 0.2475, 1.2375, 0.7425, 1.7325, 0.495], 
  "dcmmeta_affine": [
    [-2.91574764251709, -0.6860302686691284, -0.2216685712337494, 154.54791259765625], 
    [-0.7042378783226013, 2.7765116691589355, 1.1858885288238525, -92.4777603149414], 
    [0.04964661970734596, -0.9057291150093079, 3.803239583969116, -32.66009521484375], 
    [0.0, 0.0, 0.0, 1.0]
], 
  "dcmmeta_reorient_transform": [
    [0.0, -1.0, 0.0, 79.0], 
    [1.0, 0.0, 0.0, 0.0], 
    [0.0, 0.0, 1.0, 0.0], 
    [0.0, 0.0, 0.0, 1.0]
], 
  "dcmmeta_shape": [80, 80, 32, 200], 
  "dcmmeta_slice_dim": 2, 
  "dcmmeta_version": 0.6, 
  "global": {
    "const": {
      "AccessionNumber": "qa", 
      "AcquisitionMatrix": [80, 0, 0, 80], 
      "AngioFlag": "N", 
      "BitsAllocated": 16, 
      "BitsStored": 12, 
      "BodyPartExamined": "BRAIN", 
      "Columns": 480, 
      "EchoNumbers": 1, 
      "EchoTime": 35.0, 
      "EchoTrainLength": 39, 
      "FlipAngle": 90.0, 
      "HighBit": 11, 
      "ImageOrientationPatient": [0.9719158751812, 0.23474596130327, 0.01654887375556, -0.2286767555459, 0.92550390347881, 0.3019096986161], 
      "ImagePositionPatient": [-546.29499553649, -823.01658229245, -295.28783751287], 
      "ImageType": [
        "ORIGINAL", 
        "PRIMARY", 
        "M", 
        "ND", 
        "NORM", 
        "MOSAIC"
], 
      "ImagedNucleus": "1H", 
      "ImagingFrequency": 123.252534, 
      "InPlanePhaseEncodingDirection": "COL", 
      "MRAcquisitionType": "2D", 
      "MagneticFieldStrength": 3.0, 
      "Manufacturer": "SIEMENS", 
      "ManufacturerModelName": "Prisma", 
      "Modality": "MR", 
      "NumberOfAverages": 1.0, 
      "NumberOfPhaseEncodingSteps": 79, 
      "PercentPhaseFieldOfView": 100.0, 
      "PercentSampling": 100.0, 
      "PerformedProcedureStepStartTime": "091823.970000", 
      "PhotometricInterpretation": "MONOCHROME2", 
      "PixelBandwidth": 2315.0, 
      "PixelRepresentation": 0, 
      "PixelSpacing": [3.0, 3.0], 
      "PositionReferenceIndicator": "", 
      "ProtocolName": "func-bold_task-rest_acq-p2-s4-3.5mm", 
      "RepetitionTime": 2000.0, 
      "Rows": 480, 
      "SAR": 0.02092915872928, 
      "SamplesPerPixel": 1, 
      "ScanOptions": "FS", 
      "ScanningSequence": "EP", 
      "SequenceName": "*epfid2d1_80", 
      "SequenceVariant": "SK", 
      "SeriesDescription": "func-bold_task-rest_acq-p2-s4-3.5mm", 
      "SeriesNumber": 7, 
      "SeriesTime": "092809.990000", 
      "SliceLocation": -67.203233759936, 
      "SliceThickness": 3.5, 
      "SmallestImagePixelValue": 0, 
      "SoftwareVersions": "syngo MR E11", 
      "SpacingBetweenSlices": 3.9899999149894, 
      "SpecificCharacterSet": "ISO_IR 100", 
      "StudyID": "43", 
      "StudyTime": "091823.893000", 
      "TransmitCoilName": "Body", 
      "VariableFlipAngleFlag": "N", 
      "WindowCenter": 919.0, 
      "WindowCenterWidthExplanation": "Algo1", 
      "dBdt": 0.0}, 
    "slices": {}
  }, 
  "time": {
    "samples": {
      "AcquisitionNumber": [1, 2, 3, 4, 5, 6, 7, 8, 9, 10, 11, 12, 13, 14, 15, 16, 17, 18, 19, 20, 21, 22, 23, 24, 25, 26, 27, 28, 29, 30, 31, 32, 33, 34, 35, 36, 37, 38, 39, 40, 41, 42, 43, 44, 45, 46, 47, 48, 49, 50, 51, 52, 53, 54, 55, 56, 57, 58, 59, 60, 61, 62, 63, 64, 65, 66, 67, 68, 69, 70, 71, 72, 73, 74, 75, 76, 77, 78, 79, 80, 81, 82, 83, 84, 85, 86, 87, 88, 89, 90, 91, 92, 93, 94, 95, 96, 97, 98, 99, 100, 101, 102, 103, 104, 105, 106, 107, 108, 109, 110, 111, 112, 113, 114, 115, 116, 117, 118, 119, 120, 121, 122, 123, 124, 125, 126, 127, 128, 129, 130, 131, 132, 133, 134, 135, 136, 137, 138, 139, 140, 141, 142, 143, 144, 145, 146, 147, 148, 149, 150, 151, 152, 153, 154, 155, 156, 157, 158, 159, 160, 161, 162, 163, 164, 165, 166, 167, 168, 169, 170, 171, 172, 173, 174, 175, 176, 177, 178, 179, 180, 181, 182, 183, 184, 185, 186, 187, 188, 189, 190, 191, 192, 193, 194, 195, 196, 197, 198, 199, 200], 
      "AcquisitionTime": ["092723.120000", "092725.120000", "092727.120000", "092729.120000", "092731.120000", "092733.120000", "092735.120000", "092737.120000", "092739.120000", "092741.120000", "092743.120000", "092745.120000", "092747.120000", "092749.120000", "092751.120000", "092753.120000", "092755.120000", "092757.120000", "092759.120000", "092801.120000", "092803.120000", "092805.120000", "092807.120000", "092809.120000", "092811.120000", "092813.120000", "092815.120000", "092817.120000", "092819.120000", "092821.120000", "092823.120000", "092825.120000", "092827.120000", "092829.120000", "092831.120000", "092833.120000", "092835.120000", "092837.120000", "092839.120000", "092841.120000", "092843.120000", "092845.120000", "092847.120000", "092849.120000", "092851.120000", "092853.120000", "092855.120000", "092857.120000", "092859.120000", "092901.120000", "092903.120000", "092905.120000", "092907.120000", "092909.120000", "092911.120000", "092913.120000", "092915.120000", "092917.120000", "092919.120000", "092921.120000", "092923.120000", "092925.120000", "092927.120000", "092929.120000", "092931.120000", "092933.120000", "092935.120000", "092937.120000", "092939.120000", "092941.120000", "092943.120000", "092945.120000", "092947.120000", "092949.120000", "092951.120000", "092953.120000", "092955.120000", "092957.120000", "092959.120000", "093001.120000", "093003.120000", "093005.120000", "093007.120000", "093009.120000", "093011.120000", "093013.120000", "093015.120000", "093017.120000", "093019.120000", "093021.120000", "093023.120000", "093025.120000", "093027.120000", "093029.120000", "093031.120000", "093033.120000", "093035.120000", "093037.120000", "093039.120000", "093041.120000", "093043.120000", "093045.120000", "093047.120000", "093049.120000", "093051.120000", "093053.120000", "093055.120000", "093057.120000", "093059.120000", "093101.120000", "093103.120000", "093105.120000", "093107.120000", "093109.120000", "093111.120000", "093113.120000", "093115.120000", "093117.120000", "093119.120000", "093121.120000", "093123.120000", "093125.120000", "093127.120000", "093129.120000", "093131.120000", "093133.120000", "093135.120000", "093137.120000", "093139.120000", "093141.120000", "093143.120000", "093145.120000", "093147.120000", "093149.120000", "093151.120000", "093153.120000", "093155.120000", "093157.120000", "093159.120000", "093201.120000", "093203.120000", "093205.120000", "093207.120000", "093209.120000", "093211.120000", "093213.120000", "093215.120000", "093217.120000", "093219.120000", "093221.120000", "093223.120000", "093225.120000", "093227.120000", "093229.120000", "093231.120000", "093233.120000", "093235.120000", "093237.120000", "093239.120000", "093241.120000", "093243.120000", "093245.120000", "093247.120000", "093249.120000", "093251.120000", "093253.120000", "093255.120000", "093257.120000", "093259.120000", "093301.120000", "093303.120000", "093305.120000", "093307.120000", "093309.120000", "093311.120000", "093313.120000", "093315.120000", "093317.120000", "093319.120000", "093321.120000", "093323.120000", "093325.120000", "093327.120000", "093329.120000", "093331.120000", "093333.120000", "093335.120000", "093337.120000", "093339.120000", "093341.120000", "093343.120000", "093345.120000", "093347.120000", "093349.120000", "093351.120000", "093353.120000", "093355.120000", "093357.120000", "093359.120000", "093401.120000"], 
      "ContentTime": ["092809.993000", "092809.997000", "092810.001000", "092810.003000", "092810.006000", "092810.009000", "092810.011000", "092810.014000", "092810.017000", "092810.019000", "092810.022000", "092810.025000", "092810.027000", "092810.035000", "092810.043000", "092810.051000", "092810.054000", "092810.056000", "092810.059000", "092810.062000", "092810.064000", "092810.067000", "092810.070000", "092810.072000", "092849.989000", "092849.992000", "092849.994000", "092849.997000", "092850.001000", "092850.004000", "092850.006000", "092850.009000", "092850.012000", "092850.015000", "092850.017000", "092850.020000", "092850.023000", "092850.025000", "092850.028000", "092850.043000", "092850.045000", "092850.048000", "092850.051000", "092850.053000", "092929.990000", "092929.992000", "092929.995000", "092929.998000", "092930.001000", "092930.003000", "092930.006000", "092930.009000", "092930.012000", "092930.014000", "092930.017000", "092930.020000", "092930.022000", "092930.025000", "092930.028000", "092930.030000", "092930.033000", "092930.036000", "092930.038000", "092930.041000", "093009.990000", "093009.992000", "093009.995000", "093009.998000", "093010.001000", "093010.004000", "093010.007000", "093010.010000", "093010.012000", "093010.015000", "093010.018000", "093010.021000", "093010.023000", "093010.026000", "093010.029000", "093010.031000", "093010.034000", "093010.037000", "093010.039000", "093010.042000", "093049.988000", "093049.992000", "093049.994000", "093049.997000", "093050.001000", "093050.003000", "093050.010000", "093050.013000", "093050.016000", "093050.018000", "093050.021000", "093050.024000", "093050.026000", "093050.029000", "093050.032000", "093050.034000", "093050.037000", "093050.040000", "093050.042000", "093050.045000", "093129.989000", "093129.992000", "093129.994000", "093129.997000", "093130.001000", "093130.003000", "093130.006000", "093130.009000", "093130.012000", "093130.014000", "093130.017000", "093130.020000", "093130.023000", "093130.025000", "093130.028000", "093130.031000", "093130.033000", "093130.036000", "093130.038000", "093130.041000", "093209.990000", "093209.993000", "093209.995000", "093209.998000", "093210.002000", "093210.004000", "093210.007000", "093210.010000", "093210.012000", "093210.015000", "093210.018000", "093210.021000", "093210.023000", "093210.026000", "093210.029000", "093210.031000", "093210.034000", "093210.037000", "093210.040000", "093210.042000", "093249.988000", "093249.992000", "093249.994000", "093249.997000", "093250.001000", "093250.003000", "093250.006000", "093250.009000", "093250.012000", "093250.015000", "093250.017000", "093250.020000", "093250.022000", "093250.025000", "093250.028000", "093250.030000", "093250.033000", "093250.036000", "093250.038000", "093250.041000", "093329.989000", "093329.991000", "093329.994000", "093329.997000", "093330.001000", "093330.003000", "093330.006000", "093330.009000", "093330.020000", "093330.023000", "093330.026000", "093330.028000", "093330.031000", "093330.034000", "093330.036000", "093330.039000", "093330.042000", "093330.044000", "093330.047000", "093330.050000", "093401.949000", "093401.952000", "093401.955000", "093401.958000", "093401.961000", "093401.963000", "093401.966000", "093401.969000", "093401.971000", "093401.974000", "093401.977000", "093401.981000", "093401.984000", "093401.987000", "093401.990000", "093401.993000"], 
      "InstanceCreationTime": ["092809.993000", "092809.997000", "092810.001000", "092810.003000", "092810.006000", "092810.009000", "092810.011000", "092810.014000", "092810.017000", "092810.019000", "092810.022000", "092810.025000", "092810.027000", "092810.035000", "092810.043000", "092810.051000", "092810.054000", "092810.056000", "092810.059000", "092810.062000", "092810.064000", "092810.067000", "092810.070000", "092810.072000", "092849.989000", "092849.992000", "092849.994000", "092849.997000", "092850.001000", "092850.004000", "092850.006000", "092850.009000", "092850.012000", "092850.015000", "092850.017000", "092850.020000", "092850.023000", "092850.025000", "092850.028000", "092850.043000", "092850.045000", "092850.048000", "092850.051000", "092850.053000", "092929.990000", "092929.992000", "092929.995000", "092929.998000", "092930.001000", "092930.003000", "092930.006000", "092930.009000", "092930.012000", "092930.014000", "092930.017000", "092930.020000", "092930.022000", "092930.025000", "092930.028000", "092930.030000", "092930.033000", "092930.036000", "092930.038000", "092930.041000", "093009.990000", "093009.992000", "093009.995000", "093009.998000", "093010.001000", "093010.004000", "093010.007000", "093010.010000", "093010.012000", "093010.015000", "093010.018000", "093010.021000", "093010.023000", "093010.026000", "093010.029000", "093010.031000", "093010.034000", "093010.037000", "093010.039000", "093010.042000", "093049.988000", "093049.992000", "093049.994000", "093049.997000", "093050.001000", "093050.003000", "093050.010000", "093050.013000", "093050.016000", "093050.018000", "093050.021000", "093050.024000", "093050.026000", "093050.029000", "093050.032000", "093050.034000", "093050.037000", "093050.040000", "093050.042000", "093050.045000", "093129.989000", "093129.992000", "093129.994000", "093129.997000", "093130.001000", "093130.003000", "093130.006000", "093130.009000", "093130.012000", "093130.014000", "093130.017000", "093130.020000", "093130.023000", "093130.025000", "093130.028000", "093130.031000", "093130.033000", "093130.036000", "093130.038000", "093130.041000", "093209.990000", "093209.993000", "093209.995000", "093209.998000", "093210.002000", "093210.004000", "093210.007000", "093210.010000", "093210.012000", "093210.015000", "093210.018000", "093210.021000", "093210.023000", "093210.026000", "093210.029000", "093210.031000", "093210.034000", "093210.037000", "093210.040000", "093210.042000", "093249.988000", "093249.992000", "093249.994000", "093249.997000", "093250.001000", "093250.003000", "093250.006000", "093250.009000", "093250.012000", "093250.015000", "093250.017000", "093250.020000", "093250.022000", "093250.025000", "093250.028000", "093250.030000", "093250.033000", "093250.036000", "093250.038000", "093250.041000", "093329.989000", "093329.991000", "093329.994000", "093329.997000", "093330.001000", "093330.003000", "093330.006000", "093330.009000", "093330.020000", "093330.023000", "093330.026000", "093330.028000", "093330.031000", "093330.034000", "093330.036000", "093330.039000", "093330.042000", "093330.044000", "093330.047000", "093330.050000", "093401.949000", "093401.952000", "093401.955000", "093401.958000", "093401.961000", "093401.963000", "093401.966000", "093401.969000", "093401.971000", "093401.974000", "093401.977000", "093401.981000", "093401.984000", "093401.987000", "093401.990000", "093401.993000"], 
      "InstanceNumber": [1, 2, 3, 4, 5, 6, 7, 8, 9, 10, 11, 12, 13, 14, 15, 16, 17, 18, 19, 20, 21, 22, 23, 24, 25, 26, 27, 28, 29, 30, 31, 32, 33, 34, 35, 36, 37, 38, 39, 40, 41, 42, 43, 44, 45, 46, 47, 48, 49, 50, 51, 52, 53, 54, 55, 56, 57, 58, 59, 60, 61, 62, 63, 64, 65, 66, 67, 68, 69, 70, 71, 72, 73, 74, 75, 76, 77, 78, 79, 80, 81, 82, 83, 84, 85, 86, 87, 88, 89, 90, 91, 92, 93, 94, 95, 96, 97, 98, 99, 100, 101, 102, 103, 104, 105, 106, 107, 108, 109, 110, 111, 112, 113, 114, 115, 116, 117, 118, 119, 120, 121, 122, 123, 124, 125, 126, 127, 128, 129, 130, 131, 132, 133, 134, 135, 136, 137, 138, 139, 140, 141, 142, 143, 144, 145, 146, 147, 148, 149, 150, 151, 152, 153, 154, 155, 156, 157, 158, 159, 160, 161, 162, 163, 164, 165, 166, 167, 168, 169, 170, 171, 172, 173, 174, 175, 176, 177, 178, 179, 180, 181, 182, 183, 184, 185, 186, 187, 188, 189, 190, 191, 192, 193, 194, 195, 196, 197, 198, 199, 200], 
      "LargestImagePixelValue": [2178, 2182, 2182, 2183, 2184, 2185, 2189, 2190, 2186, 2187, 2191, 2188, 2193, 2186, 2193, 2191, 2187, 2187, 2182, 2180, 2179, 2177, 2179, 2180, 2190, 2183, 2189, 2183, 2179, 2176, 2175, 2178, 2181, 2187, 2187, 2189, 2187, 2182, 2184, 2182, 2183, 2180, 2182, 2182, 2177, 2179, 2177, 2180, 2176, 2183, 2183, 2184, 2183, 2191, 2187, 2183, 2169, 2168, 2166, 2162, 2171, 2176, 2177, 2177, 2174, 2177, 2170, 2178, 2176, 2180, 2172, 2174, 2169, 2172, 2174, 2179, 2176, 2180, 2172, 2167, 2176, 2171, 2173, 2176, 2173, 2184, 2176, 2181, 2181, 2180, 2177, 2173, 2165, 2173, 2167, 2167, 2182, 2185, 2179, 2181, 2180, 2184, 2191, 2187, 2184, 2188, 2184, 2181, 2188, 2185, 2192, 2189, 2185, 2183, 2188, 2184, 2186, 2182, 2186, 2181, 2181, 2178, 2181, 2177, 2186, 2184, 2186, 2185, 2185, 2182, 2178, 2179, 2178, 2174, 2169, 2162, 2165, 2170, 2171, 2174, 2167, 2168, 2164, 2174, 2171, 2174, 2171, 2178, 2175, 2177, 2169, 2179, 2178, 2182, 2186, 2180, 2177, 2179, 2177, 2179, 2163, 2162, 2167, 2172, 2175, 2177, 2174, 2179, 2177, 2180, 2181, 2170, 2164, 2166, 2163, 2169, 2169, 2172, 2179, 2175, 2179, 2183, 2183, 2177, 2180, 2171, 2173, 2181, 2175, 2173, 2178, 2173, 2172, 2179, 2169, 2164, 2171, 2168, 2167, 2165], 
      "WindowWidth": [2092.0, 2092.0, 2092.0, 2092.0, 2092.0, 2092.0, 2092.0, 2092.0, 2092.0, 2092.0, 2092.0, 2092.0, 2092.0, 2092.0, 2092.0, 2092.0, 2092.0, 2092.0, 2092.0, 2092.0, 2092.0, 2092.0, 2092.0, 2092.0, 2092.0, 2092.0, 2092.0, 2092.0, 2092.0, 2092.0, 2092.0, 2092.0, 2092.0, 2092.0, 2092.0, 2092.0, 2092.0, 2092.0, 2092.0, 2092.0, 2092.0, 2092.0, 2092.0, 2092.0, 2092.0, 2092.0, 2092.0, 2092.0, 2092.0, 2092.0, 2092.0, 2092.0, 2092.0, 2092.0, 2092.0, 2092.0, 2092.0, 2092.0, 2092.0, 2092.0, 2092.0, 2092.0, 2092.0, 2092.0, 2092.0, 2092.0, 2092.0, 2092.0, 2092.0, 2092.0, 2092.0, 2092.0, 2092.0, 2092.0, 2092.0, 2092.0, 2092.0, 2092.0, 2092.0, 2092.0, 2092.0, 2092.0, 2092.0, 2092.0, 2092.0, 2092.0, 2092.0, 2092.0, 2092.0, 2092.0, 2092.0, 2092.0, 2092.0, 2092.0, 2092.0, 2092.0, 2092.0, 2092.0, 2092.0, 2092.0, 2092.0, 2092.0, 2092.0, 2092.0, 2092.0, 2092.0, 2092.0, 2092.0, 2092.0, 2092.0, 2092.0, 2092.0, 2092.0, 2092.0, 2092.0, 2092.0, 2092.0, 2092.0, 2092.0, 2092.0, 2092.0, 2092.0, 2092.0, 2092.0, 2092.0, 2092.0, 2092.0, 2092.0, 2092.0, 2092.0, 2092.0, 2092.0, 2092.0, 2092.0, 2092.0, 2092.0, 2092.0, 2092.0, 2092.0, 2092.0, 2092.0, 2092.0, 2092.0, 2092.0, 2092.0, 2092.0, 2092.0, 2092.0, 2092.0, 2092.0, 2092.0, 2092.0, 2092.0, 2092.0, 2092.0, 2092.0, 2092.0, 2092.0, 2092.0, 2092.0, 2092.0, 2092.0, 2092.0, 2092.0, 2092.0, 2092.0, 2092.0, 2092.0, 2092.0, 2091.0, 2092.0, 2092.0, 2092.0, 2092.0, 2092.0, 2092.0, 2092.0, 2092.0, 2092.0, 2092.0, 2092.0, 2092.0, 2092.0, 2092.0, 2092.0, 2092.0, 2092.0, 2091.0, 2092.0, 2092.0, 2092.0, 2092.0, 2091.0, 2092.0, 2092.0, 2092.0, 2091.0, 2091.0, 2092.0, 2092.0]
    }, 
    "slices": {}
  }
}