{
  "AcquisitionMatrixPE": 122,
  "AcquisitionNumber": 1,
  "AcquisitionTime": "10:08:7.460000",
  "BandwidthPerPixelPhaseEncode": 27.785,
  "BaseResolution": 122,
  "BodyPartExamined": "BRAIN",
  "CoilCombinationMethod": "Adaptive Combine",
  "ConsistencyInfo": "N4_VE11C_LATEST_20160120",
  "ConversionSoftware": "dcm2niix",
  "ConversionSoftwareVersion": "v1.0.20220720",
  "DerivedVendorReportedEchoSpacing": 0.000590011,
  "DeviceSerialNumber": "66112",
  "DiffusionScheme": "Monopolar",
  "DwellTime": 2e-06,
  "EchoTime": 0.068,
  "EchoTrainLength": 61,
  "EffectiveEchoSpacing": 0.000295005,
  "FlipAngle": 90,
  "HeudiconvVersion": "0.13.1",
  "ImageOrientationPatientDICOM": [0.986086, -0.166224, 0.0020878, 0.157769, 0.939736, 0.303322],
  "ImageOrientationText": "Tra>Cor(17.4)>Sag(3.0)",
  "ImageType": [
    "ORIGINAL",
    "PRIMARY",
    "DIFFUSION",
    "NONE",
    "ND",
    "NORM"
],
  "ImagingFrequency": 123.252,
  "InPlanePhaseEncodingDirectionDICOM": "COL",
  "InstitutionAddress": "Maynard 3,Hanover,NH,US,03755",
  "InstitutionName": "Dartmouth College - PBS",
  "InstitutionalDepartmentName": "Department",
  "MRAcquisitionType": "2D",
  "MagneticFieldStrength": 3,
  "Manufacturer": "Siemens",
  "ManufacturersModelName": "Prisma",
  "Modality": "MR",
  "MultibandAccelerationFactor": 4,
  "NonlinearGradientCorrection": false,
  "ParallelReductionFactorInPlane": 2,
  "PartialFourier": 1,
  "PatientPosition": "HFS",
  "PercentPhaseFOV": 100,
  "PercentSampling": 100,
  "PhaseEncodingDirection": "j-",
  "PhaseEncodingSteps": 122,
  "PhaseResolution": 1,
  "PixelBandwidth": 2050,
  "ProcedureStepDescription": "dbic^QA",
  "ProtocolName": "dwi_acq-DTI-30-p2-s4",
  "PulseSequenceDetails": "%SiemensSeq%\\ep2d_diff",
  "ReceiveCoilActiveElements": "HEA;HEP",
  "ReceiveCoilName": "Head_32",
  "ReconMatrixPE": 122,
  "RefLinesPE": 38,
  "RepetitionTime": 3.6,
  "SAR": 0.160634,
  "ScanOptions": "FS",
  "ScanningSequence": "EP",
  "SequenceName": "*ep_b0",
  "SequenceVariant": "SK\\SP",
  "SeriesDescription": "dwi_acq-DTI-30-p2-s4",
  "SeriesNumber": 9,
  "ShimSetting": [4147, -7686, -7516, 298, -82, -159, -84, 85],
  "SliceThickness": 2,
  "SliceTiming": [2.58594, 0, 1.78906, 0.20312, 1.99219, 0.39844, 2.1875, 0.59375, 2.39062, 0.99219, 2.78125, 1.19531, 2.98438, 1.39062, 3.17969, 1.59375, 3.38281, 0.79688, 2.58594, 0, 1.78906, 0.20312, 1.99219, 0.39844, 2.1875, 0.59375, 2.39062, 0.99219, 2.78125, 1.19531, 2.98438, 1.39062, 3.17969, 1.59375, 3.38281, 0.79688, 2.58594, 0, 1.78906, 0.20312, 1.99219, 0.39844, 2.1875, 0.59375, 2.39062, 0.99219, 2.78125, 1.19531, 2.98438, 1.39062, 3.17969, 1.59375, 3.38281, 0.79688, 2.58594, 0, 1.78906, 0.20312, 1.99219, 0.39844, 2.1875, 0.59375, 2.39062, 0.99219, 2.78125, 1.19531, 2.98438, 1.39062, 3.17969, 1.59375, 3.38281, 0.79688],
  "SoftwareVersions": "syngo MR E11",
  "SpacingBetweenSlices": 2,
  "SpoilingState": true,
  "StationName": "AWP66112",
  "TotalReadoutTime": 0.0356956,
  "TxRefAmp": 234.563,
  "dcmmeta_affine": [
    [-1.9398409128189087, 0.3103649914264679, 0.10476300120353699, 92.7448501586914],
    [0.32699838280677795, 1.8486617803573608, 0.5975437164306641, -145.5406036376953],
    [0.004107154440134764, -0.5966997742652893, 1.9057693481445312, -31.412391662597656],
    [0.0, 0.0, 0.0, 1.0]
],
  "dcmmeta_reorient_transform": [
    [0.0, -1.0, 0.0, 121.0],
    [1.0, 0.0, 0.0, 0.0],
    [0.0, 0.0, -1.0, 71.0],
    [0.0, 0.0, 0.0, 1.0]
],
  "dcmmeta_shape": [122, 122, 72, 31],
  "dcmmeta_slice_dim": 2,
  "dcmmeta_version": 0.6,
  "global": {
    "const": {
      "AccessionNumber": "qa",
      "AcquisitionMatrix": [122, 0, 0, 122],
      "AngioFlag": "N",
      "BitsAllocated": 16,
      "BitsStored": 12,
      "BodyPartExamined": "BRAIN",
      "Columns": 122,
      "EchoNumbers": 1,
      "EchoTime": 68.0,
      "EchoTrainLength": 61,
      "FlipAngle": 90.0,
      "HighBit": 11,
      "ImageOrientationPatient": [0.98608577878151, -0.1662241798355, 0.00208780335995, 0.15776886651366, 0.93973640460268, 0.30332239387065],
      "ImageType": [
        "ORIGINAL",
        "PRIMARY",
        "DIFFUSION",
        "NONE",
        "ND",
        "NORM"
],
      "ImagedNucleus": "1H",
      "ImagingFrequency": 123.252462,
      "InPlanePhaseEncodingDirection": "COL",
      "MRAcquisitionType": "2D",
      "MagneticFieldStrength": 3.0,
      "Manufacturer": "SIEMENS",
      "ManufacturerModelName": "Prisma",
      "Modality": "MR",
      "NumberOfAverages": 1.0,
      "NumberOfPhaseEncodingSteps": 122,
      "PercentPhaseFieldOfView": 100.0,
      "PercentSampling": 100.0,
      "PerformedProcedureStepStartTime": "092832.433000",
      "PhotometricInterpretation": "MONOCHROME2",
      "PixelBandwidth": 2050.0,
      "PixelRepresentation": 0,
      "PixelSpacing": [1.9672131538391, 1.9672131538391],
      "ProtocolName": "dwi_acq-DTI-30-p2-s4",
      "RepetitionTime": 3600.0,
      "Rows": 122,
      "SAR": 0.16063390077269,
      "SamplesPerPixel": 1,
      "ScanOptions": "FS",
      "ScanningSequence": "EP",
      "SequenceVariant": [
        "SK",
        "SP"
],
      "SeriesDescription": "dwi_acq-DTI-30-p2-s4",
      "SeriesNumber": 9,
      "SeriesTime": "100816.378000",
      "SliceThickness": 2.0,
      "SmallestImagePixelValue": 0,
      "SoftwareVersions": "syngo MR E11",
      "SpacingBetweenSlices": 2.0,
      "SpecificCharacterSet": "ISO_IR 100",
      "StudyID": "55",
      "StudyTime": "092832.339000",
      "TransmitCoilName": "Body",
      "VariableFlipAngleFlag": "N",
      "WindowCenterWidthExplanation": "Algo1",
      "dBdt": 0.0},
    "slices": {
      "AcquisitionTime": ["100807.460000", "100804.875000", "100806.665000", "100805.075000", "100806.865000", "100805.272500", "100807.062500", "100805.472500", "100807.262500", "100805.870000", "100807.660000", "100806.070000", "100807.857500", "100806.267500", "100808.057500", "100806.467500", "100808.257500", "100805.670000", "100807.460000", "100804.875000", "100806.665000", "100805.075000", "100806.865000", "100805.272500", "100807.062500", "100805.472500", "100807.262500", "100805.870000", "100807.660000", "100806.070000", "100807.857500", "100806.267500", "100808.057500", "100806.467500", "100808.257500", "100805.670000", "100807.460000", "100804.875000", "100806.665000", "100805.075000", "100806.865000", "100805.272500", "100807.062500", "100805.472500", "100807.262500", "100805.870000", "100807.660000", "100806.070000", "100807.857500", "100806.267500", "100808.057500", "100806.467500", "100808.257500", "100805.670000", "100807.460000", "100804.875000", "100806.665000", "100805.075000", "100806.865000", "100805.272500", "100807.062500", "100805.472500", "100807.262500", "100805.870000", "100807.660000", "100806.070000", "100807.857500", "100806.267500", "100808.057500", "100806.467500", "100808.257500", "100805.670000", "100811.060000", "100808.475000", "100810.265000", "100808.675000", "100810.465000", "100808.872500", "100810.662500", "100809.072500", "100810.862500", "100809.470000", "100811.260000", "100809.670000", "100811.457500", "100809.867500", "100811.657500", "100810.067500", "100811.857500", "100809.270000", "100811.060000", "100808.475000", "100810.265000", "100808.675000", "100810.465000", "100808.872500", "100810.662500", "100809.072500", "100810.862500", "100809.470000", "100811.260000", "100809.670000", "100811.457500", "100809.867500", "100811.657500", "100810.067500", "100811.857500", "100809.270000", "100811.060000", "100808.475000", "100810.265000", "100808.675000", "100810.465000", "100808.872500", "100810.662500", "100809.072500", "100810.862500", "100809.470000", "100811.260000", "100809.670000", "100811.457500", "100809.867500", "100811.657500", "100810.067500", "100811.857500", "100809.270000", "100811.060000", "100808.475000", "100810.265000", "100808.675000", "100810.465000", "100808.872500", "100810.662500", "100809.072500", "100810.862500", "100809.470000", "100811.260000", "100809.670000", "100811.457500", "100809.867500", "100811.657500", "100810.067500", "100811.857500", "100809.270000", "100814.660000", "100812.075000", "100813.865000", "100812.275000", "100814.065000", "100812.472500", "100814.262500", "100812.672500", "100814.462500", "100813.070000", "100814.860000", "100813.270000", "100815.057500", "100813.467500", "100815.257500", "100813.667500", "100815.457500", "100812.870000", "100814.660000", "100812.075000", "100813.865000", "100812.275000", "100814.065000", "100812.472500", "100814.262500", "100812.672500", "100814.462500", "100813.070000", "100814.860000", "100813.270000", "100815.057500", "100813.467500", "100815.257500", "100813.667500", "100815.457500", "100812.870000", "100814.660000", "100812.075000", "100813.865000", "100812.275000", "100814.065000", "100812.472500", "100814.262500", "100812.672500", "100814.462500", "100813.070000", "100814.860000", "100813.270000", "100815.057500", "100813.467500", "100815.257500", "100813.667500", "100815.457500", "100812.870000", "100814.660000", "100812.075000", "100813.865000", "100812.275000", "100814.065000", "100812.472500", "100814.262500", "100812.672500", "100814.462500", "100813.070000", "100814.860000", "100813.270000", "100815.057500", "100813.467500", "100815.257500", "100813.667500", "100815.457500", "100812.870000", "100818.260000", "100815.675000", "100817.465000", "100815.875000", "100817.665000", "100816.072500", "100817.862500", "100816.272500", "100818.062500", "100816.670000", "100818.460000", "100816.870000", "100818.657500", "100817.067500", "100818.857500", "100817.267500", "100819.057500", "100816.470000", "100818.260000", "100815.675000", "100817.465000", "100815.875000", "100817.665000", "100816.072500", "100817.862500", "100816.272500", "100818.062500", "100816.670000", "100818.460000", "100816.870000", "100818.657500", "100817.067500", "100818.857500", "100817.267500", "100819.057500", "100816.470000", "100818.260000", "100815.675000", "100817.465000", "100815.875000", "100817.665000", "100816.072500", "100817.862500", "100816.272500", "100818.062500", "100816.670000", "100818.460000", "100816.870000", "100818.657500", "100817.067500", "100818.857500", "100817.267500", "100819.057500", "100816.470000", "100818.260000", "100815.675000", "100817.465000", "100815.875000", "100817.665000", "100816.072500", "100817.862500", "100816.272500", "100818.062500", "100816.670000", "100818.460000", "100816.870000", "100818.657500", "100817.067500", "100818.857500", "100817.267500", "100819.057500", "100816.470000", "100821.860000", "100819.275000", "100821.065000", "100819.475000", "100821.265000", "100819.672500", "100821.462500", "100819.872500", "100821.662500", "100820.270000", "100822.060000", "100820.470000", "100822.257500", "100820.667500", "100822.457500", "100820.867500", "100822.657500", "100820.070000", "100821.860000", "100819.275000", "100821.065000", "100819.475000", "100821.265000", "100819.672500", "100821.462500", "100819.872500", "100821.662500", "100820.270000", "100822.060000", "100820.470000", "100822.257500", "100820.667500", "100822.457500", "100820.867500", "100822.657500", "100820.070000", "100821.860000", "100819.275000", "100821.065000", "100819.475000", "100821.265000", "100819.672500", "100821.462500", "100819.872500", "100821.662500", "100820.270000", "100822.060000", "100820.470000", "100822.257500", "100820.667500", "100822.457500", "100820.867500", "100822.657500", "100820.070000", "100821.860000", "100819.275000", "100821.065000", "100819.475000", "100821.265000", "100819.672500", "100821.462500", "100819.872500", "100821.662500", "100820.270000", "100822.060000", "100820.470000", "100822.257500", "100820.667500", "100822.457500", "100820.867500", "100822.657500", "100820.070000", "100825.460000", "100822.875000", "100824.665000", "100823.075000", "100824.865000", "100823.272500", "100825.062500", "100823.472500", "100825.262500", "100823.870000", "100825.660000", "100824.070000", "100825.857500", "100824.267500", "100826.057500", "100824.467500", "100826.257500", "100823.670000", "100825.460000", "100822.875000", "100824.665000", "100823.075000", "100824.865000", "100823.272500", "100825.062500", "100823.472500", "100825.262500", "100823.870000", "100825.660000", "100824.070000", "100825.857500", "100824.267500", "100826.057500", "100824.467500", "100826.257500", "100823.670000", "100825.460000", "100822.875000", "100824.665000", "100823.075000", "100824.865000", "100823.272500", "100825.062500", "100823.472500", "100825.262500", "100823.870000", "100825.660000", "100824.070000", "100825.857500", "100824.267500", "100826.057500", "100824.467500", "100826.257500", "100823.670000", "100825.460000", "100822.875000", "100824.665000", "100823.075000", "100824.865000", "100823.272500", "100825.062500", "100823.472500", "100825.262500", "100823.870000", "100825.660000", "100824.070000", "100825.857500", "100824.267500", "100826.057500", "100824.467500", "100826.257500", "100823.670000", "100829.060000", "100826.475000", "100828.265000", "100826.675000", "100828.465000", "100826.872500", "100828.662500", "100827.072500", "100828.862500", "100827.470000", "100829.260000", "100827.670000", "100829.457500", "100827.867500", "100829.657500", "100828.067500", "100829.857500", "100827.270000", "100829.060000", "100826.475000", "100828.265000", "100826.675000", "100828.465000", "100826.872500", "100828.662500", "100827.072500", "100828.862500", "100827.470000", "100829.260000", "100827.670000", "100829.457500", "100827.867500", "100829.657500", "100828.067500", "100829.857500", "100827.270000", "100829.060000", "100826.475000", "100828.265000", "100826.675000", "100828.465000", "100826.872500", "100828.662500", "100827.072500", "100828.862500", "100827.470000", "100829.260000", "100827.670000", "100829.457500", "100827.867500", "100829.657500", "100828.067500", "100829.857500", "100827.270000", "100829.060000", "100826.475000", "100828.265000", "100826.675000", "100828.465000", "100826.872500", "100828.662500", "100827.072500", "100828.862500", "100827.470000", "100829.260000", "100827.670000", "100829.457500", "100827.867500", "100829.657500", "100828.067500", "100829.857500", "100827.270000", "100832.660000", "100830.075000", "100831.865000", "100830.275000", "100832.065000", "100830.472500", "100832.262500", "100830.672500", "100832.462500", "100831.070000", "100832.860000", "100831.270000", "100833.057500", "100831.467500", "100833.257500", "100831.667500", "100833.457500", "100830.870000", "100832.660000", "100830.075000", "100831.865000", "100830.275000", "100832.065000", "100830.472500", "100832.262500", "100830.672500", "100832.462500", "100831.070000", "100832.860000", "100831.270000", "100833.057500", "100831.467500", "100833.257500", "100831.667500", "100833.457500", "100830.870000", "100832.660000", "100830.075000", "100831.865000", "100830.275000", "100832.065000", "100830.472500", "100832.262500", "100830.672500", "100832.462500", "100831.070000", "100832.860000", "100831.270000", "100833.057500", "100831.467500", "100833.257500", "100831.667500", "100833.457500", "100830.870000", "100832.660000", "100830.075000", "100831.865000", "100830.275000", "100832.065000", "100830.472500", "100832.262500", "100830.672500", "100832.462500", "100831.070000", "100832.860000", "100831.270000", "100833.057500", "100831.467500", "100833.257500", "100831.667500", "100833.457500", "100830.870000", "100836.260000", "100833.675000", "100835.465000", "100833.875000", "100835.665000", "100834.072500", "100835.862500", "100834.272500", "100836.062500", "100834.670000", "100836.460000", "100834.870000", "100836.657500", "100835.067500", "100836.857500", "100835.267500", "100837.057500", "100834.470000", "100836.260000", "100833.675000", "100835.465000", "100833.875000", "100835.665000", "100834.072500", "100835.862500", "100834.272500", "100836.062500", "100834.670000", "100836.460000", "100834.870000", "100836.657500", "100835.067500", "100836.857500", "100835.267500", "100837.057500", "100834.470000", "100836.260000", "100833.675000", "100835.465000", "100833.875000", "100835.665000", "100834.072500", "100835.862500", "100834.272500", "100836.062500", "100834.670000", "100836.460000", "100834.870000", "100836.657500", "100835.067500", "100836.857500", "100835.267500", "100837.057500", "100834.470000", "100836.260000", "100833.675000", "100835.465000", "100833.875000", "100835.665000", "100834.072500", "100835.862500", "100834.272500", "100836.062500", "100834.670000", "100836.460000", "100834.870000", "100836.657500", "100835.067500", "100836.857500", "100835.267500", "100837.057500", "100834.470000", "100839.860000", "100837.275000", "100839.065000", "100837.475000", "100839.265000", "100837.672500", "100839.462500", "100837.872500", "100839.662500", "100838.270000", "100840.060000", "100838.470000", "100840.257500", "100838.667500", "100840.457500", "100838.867500", "100840.657500", "100838.070000", "100839.860000", "100837.275000", "100839.065000", "100837.475000", "100839.265000", "100837.672500", "100839.462500", "100837.872500", "100839.662500", "100838.270000", "100840.060000", "100838.470000", "100840.257500", "100838.667500", "100840.457500", "100838.867500", "100840.657500", "100838.070000", "100839.860000", "100837.275000", "100839.065000", "100837.475000", "100839.265000", "100837.672500", "100839.462500", "100837.872500", "100839.662500", "100838.270000", "100840.060000", "100838.470000", "100840.257500", "100838.667500", "100840.457500", "100838.867500", "100840.657500", "100838.070000", "100839.860000", "100837.275000", "100839.065000", "100837.475000", "100839.265000", "100837.672500", "100839.462500", "100837.872500", "100839.662500", "100838.270000", "100840.060000", "100838.470000", "100840.257500", "100838.667500", "100840.457500", "100838.867500", "100840.657500", "100838.070000", "100843.460000", "100840.875000", "100842.665000", "100841.075000", "100842.865000", "100841.272500", "100843.062500", "100841.472500", "100843.262500", "100841.870000", "100843.660000", "100842.070000", "100843.857500", "100842.267500", "100844.057500", "100842.467500", "100844.257500", "100841.670000", "100843.460000", "100840.875000", "100842.665000", "100841.075000", "100842.865000", "100841.272500", "100843.062500", "100841.472500", "100843.262500", "100841.870000", "100843.660000", "100842.070000", "100843.857500", "100842.267500", "100844.057500", "100842.467500", "100844.257500", "100841.670000", "100843.460000", "100840.875000", "100842.665000", "100841.075000", "100842.865000", "100841.272500", "100843.062500", "100841.472500", "100843.262500", "100841.870000", "100843.660000", "100842.070000", "100843.857500", "100842.267500", "100844.057500", "100842.467500", "100844.257500", "100841.670000", "100843.460000", "100840.875000", "100842.665000", "100841.075000", "100842.865000", "100841.272500", "100843.062500", "100841.472500", "100843.262500", "100841.870000", "100843.660000", "100842.070000", "100843.857500", "100842.267500", "100844.057500", "100842.467500", "100844.257500", "100841.670000", "100847.060000", "100844.475000", "100846.265000", "100844.675000", "100846.465000", "100844.872500", "100846.662500", "100845.072500", "100846.862500", "100845.470000", "100847.260000", "100845.670000", "100847.457500", "100845.867500", "100847.657500", "100846.067500", "100847.857500", "100845.270000", "100847.060000", "100844.475000", "100846.265000", "100844.675000", "100846.465000", "100844.872500", "100846.662500", "100845.072500", "100846.862500", "100845.470000", "100847.260000", "100845.670000", "100847.457500", "100845.867500", "100847.657500", "100846.067500", "100847.857500", "100845.270000", "100847.060000", "100844.475000", "100846.265000", "100844.675000", "100846.465000", "100844.872500", "100846.662500", "100845.072500", "100846.862500", "100845.470000", "100847.260000", "100845.670000", "100847.457500", "100845.867500", "100847.657500", "100846.067500", "100847.857500", "100845.270000", "100847.060000", "100844.475000", "100846.265000", "100844.675000", "100846.465000", "100844.872500", "100846.662500", "100845.072500", "100846.862500", "100845.470000", "100847.260000", "100845.670000", "100847.457500", "100845.867500", "100847.657500", "100846.067500", "100847.857500", "100845.270000", "100850.660000", "100848.075000", "100849.865000", "100848.275000", "100850.065000", "100848.472500", "100850.262500", "100848.672500", "100850.462500", "100849.070000", "100850.860000", "100849.270000", "100851.057500", "100849.467500", "100851.257500", "100849.667500", "100851.457500", "100848.870000", "100850.660000", "100848.075000", "100849.865000", "100848.275000", "100850.065000", "100848.472500", "100850.262500", "100848.672500", "100850.462500", "100849.070000", "100850.860000", "100849.270000", "100851.057500", "100849.467500", "100851.257500", "100849.667500", "100851.457500", "100848.870000", "100850.660000", "100848.075000", "100849.865000", "100848.275000", "100850.065000", "100848.472500", "100850.262500", "100848.672500", "100850.462500", "100849.070000", "100850.860000", "100849.270000", "100851.057500", "100849.467500", "100851.257500", "100849.667500", "100851.457500", "100848.870000", "100850.660000", "100848.075000", "100849.865000", "100848.275000", "100850.065000", "100848.472500", "100850.262500", "100848.672500", "100850.462500", "100849.070000", "100850.860000", "100849.270000", "100851.057500", "100849.467500", "100851.257500", "100849.667500", "100851.457500", "100848.870000", "100854.260000", "100851.675000", "100853.465000", "100851.875000", "100853.665000", "100852.072500", "100853.862500", "100852.272500", "100854.062500", "100852.670000", "100854.460000", "100852.870000", "100854.657500", "100853.067500", "100854.857500", "100853.267500", "100855.057500", "100852.470000", "100854.260000", "100851.675000", "100853.465000", "100851.875000", "100853.665000", "100852.072500", "100853.862500", "100852.272500", "100854.062500", "100852.670000", "100854.460000", "100852.870000", "100854.657500", "100853.067500", "100854.857500", "100853.267500", "100855.057500", "100852.470000", "100854.260000", "100851.675000", "100853.465000", "100851.875000", "100853.665000", "100852.072500", "100853.862500", "100852.272500", "100854.062500", "100852.670000", "100854.460000", "100852.870000", "100854.657500", "100853.067500", "100854.857500", "100853.267500", "100855.057500", "100852.470000", "100854.260000", "100851.675000", "100853.465000", "100851.875000", "100853.665000", "100852.072500", "100853.862500", "100852.272500", "100854.062500", "100852.670000", "100854.460000", "100852.870000", "100854.657500", "100853.067500", "100854.857500", "100853.267500", "100855.057500", "100852.470000", "100857.860000", "100855.275000", "100857.065000", "100855.475000", "100857.265000", "100855.672500", "100857.462500", "100855.872500", "100857.662500", "100856.270000", "100858.060000", "100856.470000", "100858.257500", "100856.667500", "100858.457500", "100856.867500", "100858.657500", "100856.070000", "100857.860000", "100855.275000", "100857.065000", "100855.475000", "100857.265000", "100855.672500", "100857.462500", "100855.872500", "100857.662500", "100856.270000", "100858.060000", "100856.470000", "100858.257500", "100856.667500", "100858.457500", "100856.867500", "100858.657500", "100856.070000", "100857.860000", "100855.275000", "100857.065000", "100855.475000", "100857.265000", "100855.672500", "100857.462500", "100855.872500", "100857.662500", "100856.270000", "100858.060000", "100856.470000", "100858.257500", "100856.667500", "100858.457500", "100856.867500", "100858.657500", "100856.070000", "100857.860000", "100855.275000", "100857.065000", "100855.475000", "100857.265000", "100855.672500", "100857.462500", "100855.872500", "100857.662500", "100856.270000", "100858.060000", "100856.470000", "100858.257500", "100856.667500", "100858.457500", "100856.867500", "100858.657500", "100856.070000", "100901.460000", "100858.875000", "100900.665000", "100859.075000", "100900.865000", "100859.272500", "100901.062500", "100859.472500", "100901.262500", "100859.870000", "100901.660000", "100900.070000", "100901.857500", "100900.267500", "100902.057500", "100900.467500", "100902.257500", "100859.670000", "100901.460000", "100858.875000", "100900.665000", "100859.075000", "100900.865000", "100859.272500", "100901.062500", "100859.472500", "100901.262500", "100859.870000", "100901.660000", "100900.070000", "100901.857500", "100900.267500", "100902.057500", "100900.467500", "100902.257500", "100859.670000", "100901.460000", "100858.875000", "100900.665000", "100859.075000", "100900.865000", "100859.272500", "100901.062500", "100859.472500", "100901.262500", "100859.870000", "100901.660000", "100900.070000", "100901.857500", "100900.267500", "100902.057500", "100900.467500", "100902.257500", "100859.670000", "100901.460000", "100858.875000", "100900.665000", "100859.075000", "100900.865000", "100859.272500", "100901.062500", "100859.472500", "100901.262500", "100859.870000", "100901.660000", "100900.070000", "100901.857500", "100900.267500", "100902.057500", "100900.467500", "100902.257500", "100859.670000", "100905.060000", "100902.475000", "100904.265000", "100902.675000", "100904.465000", "100902.872500", "100904.662500", "100903.072500", "100904.862500", "100903.470000", "100905.260000", "100903.670000", "100905.457500", "100903.867500", "100905.657500", "100904.067500", "100905.857500", "100903.270000", "100905.060000", "100902.475000", "100904.265000", "100902.675000", "100904.465000", "100902.872500", "100904.662500", "100903.072500", "100904.862500", "100903.470000", "100905.260000", "100903.670000", "100905.457500", "100903.867500", "100905.657500", "100904.067500", "100905.857500", "100903.270000", "100905.060000", "100902.475000", "100904.265000", "100902.675000", "100904.465000", "100902.872500", "100904.662500", "100903.072500", "100904.862500", "100903.470000", "100905.260000", "100903.670000", "100905.457500", "100903.867500", "100905.657500", "100904.067500", "100905.857500", "100903.270000", "100905.060000", "100902.475000", "100904.265000", "100902.675000", "100904.465000", "100902.872500", "100904.662500", "100903.072500", "100904.862500", "100903.470000", "100905.260000", "100903.670000", "100905.457500", "100903.867500", "100905.657500", "100904.067500", "100905.857500", "100903.270000", "100908.660000", "100906.075000", "100907.865000", "100906.275000", "100908.065000", "100906.472500", "100908.262500", "100906.672500", "100908.462500", "100907.070000", "100908.860000", "100907.270000", "100909.057500", "100907.467500", "100909.257500", "100907.667500", "100909.457500", "100906.870000", "100908.660000", "100906.075000", "100907.865000", "100906.275000", "100908.065000", "100906.472500", "100908.262500", "100906.672500", "100908.462500", "100907.070000", "100908.860000", "100907.270000", "100909.057500", "100907.467500", "100909.257500", "100907.667500", "100909.457500", "100906.870000", "100908.660000", "100906.075000", "100907.865000", "100906.275000", "100908.065000", "100906.472500", "100908.262500", "100906.672500", "100908.462500", "100907.070000", "100908.860000", "100907.270000", "100909.057500", "100907.467500", "100909.257500", "100907.667500", "100909.457500", "100906.870000", "100908.660000", "100906.075000", "100907.865000", "100906.275000", "100908.065000", "100906.472500", "100908.262500", "100906.672500", "100908.462500", "100907.070000", "100908.860000", "100907.270000", "100909.057500", "100907.467500", "100909.257500", "100907.667500", "100909.457500", "100906.870000", "100912.260000", "100909.675000", "100911.465000", "100909.875000", "100911.665000", "100910.072500", "100911.862500", "100910.272500", "100912.062500", "100910.670000", "100912.460000", "100910.870000", "100912.657500", "100911.067500", "100912.857500", "100911.267500", "100913.057500", "100910.470000", "100912.260000", "100909.675000", "100911.465000", "100909.875000", "100911.665000", "100910.072500", "100911.862500", "100910.272500", "100912.062500", "100910.670000", "100912.460000", "100910.870000", "100912.657500", "100911.067500", "100912.857500", "100911.267500", "100913.057500", "100910.470000", "100912.260000", "100909.675000", "100911.465000", "100909.875000", "100911.665000", "100910.072500", "100911.862500", "100910.272500", "100912.062500", "100910.670000", "100912.460000", "100910.870000", "100912.657500", "100911.067500", "100912.857500", "100911.267500", "100913.057500", "100910.470000", "100912.260000", "100909.675000", "100911.465000", "100909.875000", "100911.665000", "100910.072500", "100911.862500", "100910.272500", "100912.062500", "100910.670000", "100912.460000", "100910.870000", "100912.657500", "100911.067500", "100912.857500", "100911.267500", "100913.057500", "100910.470000", "100915.860000", "100913.275000", "100915.065000", "100913.475000", "100915.265000", "100913.672500", "100915.462500", "100913.872500", "100915.662500", "100914.270000", "100916.060000", "100914.470000", "100916.257500", "100914.667500", "100916.457500", "100914.867500", "100916.657500", "100914.070000", "100915.860000", "100913.275000", "100915.065000", "100913.475000", "100915.265000", "100913.672500", "100915.462500", "100913.872500", "100915.662500", "100914.270000", "100916.060000", "100914.470000", "100916.257500", "100914.667500", "100916.457500", "100914.867500", "100916.657500", "100914.070000", "100915.860000", "100913.275000", "100915.065000", "100913.475000", "100915.265000", "100913.672500", "100915.462500", "100913.872500", "100915.662500", "100914.270000", "100916.060000", "100914.470000", "100916.257500", "100914.667500", "100916.457500", "100914.867500", "100916.657500", "100914.070000", "100915.860000", "100913.275000", "100915.065000", "100913.475000", "100915.265000", "100913.672500", "100915.462500", "100913.872500", "100915.662500", "100914.270000", "100916.060000", "100914