{
  "AcquisitionMatrixPE": 122,
  "AcquisitionNumber": 1,
  "AcquisitionTime": "10:03:45.195000",
  "BandwidthPerPixelPhaseEncode": 28.76,
  "BaseResolution": 122,
  "BodyPartExamined": "BRAIN",
  "CoilCombinationMethod": "Adaptive Combine",
  "ConsistencyInfo": "N4_VE11C_LATEST_20160120",
  "ConversionSoftware": "dcm2niix",
  "ConversionSoftwareVersion": "v1.0.20220720",
  "DerivedVendorReportedEchoSpacing": 0.000570008,
  "DeviceSerialNumber": "66112",
  "DiffusionScheme": "Monopolar",
  "DwellTime": 2e-06,
  "EchoTime": 0.075,
  "EchoTrainLength": 61,
  "EffectiveEchoSpacing": 0.000285004,
  "FlipAngle": 90,
  "HeudiconvVersion": "0.13.1",
  "ImageOrientationPatientDICOM": [0.986086, -0.166224, 0.0020878, 0.157769, 0.939736, 0.303322],
  "ImageOrientationText": "Tra>Cor(17.4)>Sag(3.0)",
  "ImageType": [
    "ORIGINAL",
    "PRIMARY",
    "DIFFUSION",
    "NONE",
    "ND",
    "NORM"
],
  "ImagingFrequency": 123.252,
  "InPlanePhaseEncodingDirectionDICOM": "COL",
  "InstitutionAddress": "Maynard 3,Hanover,NH,US,03755",
  "InstitutionName": "Dartmouth College - PBS",
  "InstitutionalDepartmentName": "Department",
  "MRAcquisitionType": "2D",
  "MagneticFieldStrength": 3,
  "Manufacturer": "Siemens",
  "ManufacturersModelName": "Prisma",
  "MatrixCoilMode": "GRAPPA",
  "Modality": "MR",
  "NonlinearGradientCorrection": false,
  "ParallelReductionFactorInPlane": 2,
  "PartialFourier": 1,
  "PatientPosition": "HFS",
  "PercentPhaseFOV": 100,
  "PercentSampling": 100,
  "PhaseEncodingDirection": "j-",
  "PhaseEncodingSteps": 122,
  "PhaseResolution": 1,
  "PixelBandwidth": 2050,
  "ProcedureStepDescription": "dbic^QA",
  "ProtocolName": "dwi_acq-DTI-30-p2",
  "PulseSequenceDetails": "%SiemensSeq%\\ep2d_diff",
  "ReceiveCoilActiveElements": "HEA;HEP",
  "ReceiveCoilName": "Head_32",
  "ReconMatrixPE": 122,
  "RefLinesPE": 38,
  "RepetitionTime": 7.7,
  "SAR": 0.101679,
  "ScanOptions": "FS",
  "ScanningSequence": "EP",
  "SequenceName": "*ep_b0",
  "SequenceVariant": "SK\\SP",
  "SeriesDescription": "dwi_acq-DTI-30-p2",
  "SeriesNumber": 8,
  "ShimSetting": [4147, -7686, -7516, 296, -83, -156, -84, 86],
  "SliceThickness": 2,
  "SliceTiming": [3.84375, 0, 3.95312, 0.11719, 4.0625, 0.22656, 4.17188, 0.33594, 4.28125, 0.44531, 4.39062, 0.55469, 4.5, 0.66406, 4.61719, 0.77344, 4.71875, 0.88281, 4.82812, 0.99219, 4.9375, 1.10156, 5.05469, 1.21094, 5.16406, 1.32031, 5.27344, 1.42969, 5.38281, 1.53906, 5.49219, 1.64844, 5.60156, 1.75781, 5.71094, 1.86719, 5.82031, 1.97656, 5.92969, 2.08594, 6.03906, 2.19531, 6.14844, 2.30469, 6.25781, 2.42188, 6.36719, 2.53125, 6.47656, 2.64062, 6.58594, 2.75, 6.69531, 2.85938, 6.80469, 2.96875, 6.91406, 3.07812, 7.02344, 3.1875, 7.13281, 3.29688, 7.24219, 3.40625, 7.35938, 3.51562, 7.46875, 3.625, 7.57031, 3.73438],
  "SoftwareVersions": "syngo MR E11",
  "SpacingBetweenSlices": 2,
  "SpoilingState": true,
  "StationName": "AWP66112",
  "TotalReadoutTime": 0.0344855,
  "TxRefAmp": 234.563,
  "dcmmeta_affine": [
    [-1.9398409128189087, 0.3103649914264679, 0.10476300120353699, 92.849609375],
    [0.32699838280677795, 1.8486617803573608, 0.5975456237792969, -144.9431915283203],
    [0.004107154440134764, -0.5966997742652893, 1.9057693481445312, -29.506622314453125],
    [0.0, 0.0, 0.0, 1.0]
],
  "dcmmeta_reorient_transform": [
    [0.0, -1.0, 0.0, 121.0],
    [1.0, 0.0, 0.0, 0.0],
    [0.0, 0.0, -1.0, 69.0],
    [0.0, 0.0, 0.0, 1.0]
],
  "dcmmeta_shape": [122, 122, 70, 31],
  "dcmmeta_slice_dim": 2,
  "dcmmeta_version": 0.6,
  "global": {
    "const": {
      "AccessionNumber": "qa",
      "AcquisitionMatrix": [122, 0, 0, 122],
      "AngioFlag": "N",
      "BitsAllocated": 16,
      "BitsStored": 12,
      "BodyPartExamined": "BRAIN",
      "Columns": 122,
      "EchoNumbers": 1,
      "EchoTime": 75.0,
      "EchoTrainLength": 61,
      "FlipAngle": 90.0,
      "HighBit": 11,
      "ImageOrientationPatient": [0.98608577878151, -0.1662241798355, 0.00208780335995, 0.15776886651366, 0.93973640460268, 0.30332239387065],
      "ImageType": [
        "ORIGINAL",
        "PRIMARY",
        "DIFFUSION",
        "NONE",
        "ND",
        "NORM"
],
      "ImagedNucleus": "1H",
      "ImagingFrequency": 123.252459,
      "InPlanePhaseEncodingDirection": "COL",
      "MRAcquisitionType": "2D",
      "MagneticFieldStrength": 3.0,
      "Manufacturer": "SIEMENS",
      "ManufacturerModelName": "Prisma",
      "Modality": "MR",
      "NumberOfAverages": 1.0,
      "NumberOfPhaseEncodingSteps": 122,
      "PercentPhaseFieldOfView": 100.0,
      "PercentSampling": 100.0,
      "PerformedProcedureStepStartTime": "092832.433000",
      "PhotometricInterpretation": "MONOCHROME2",
      "PixelBandwidth": 2050.0,
      "PixelRepresentation": 0,
      "PixelSpacing": [1.9672131538391, 1.9672131538391],
      "ProtocolName": "dwi_acq-DTI-30-p2",
      "RepetitionTime": 7700.0,
      "Rows": 122,
      "SAR": 0.10167947102502,
      "SamplesPerPixel": 1,
      "ScanOptions": "FS",
      "ScanningSequence": "EP",
      "SequenceVariant": [
        "SK",
        "SP"
],
      "SeriesDescription": "dwi_acq-DTI-30-p2",
      "SeriesNumber": 8,
      "SeriesTime": "100347.677000",
      "SliceThickness": 2.0,
      "SmallestImagePixelValue": 0,
      "SoftwareVersions": "syngo MR E11",
      "SpacingBetweenSlices": 2.0,
      "SpecificCharacterSet": "ISO_IR 100",
      "StudyID": "55",
      "StudyTime": "092832.339000",
      "TransmitCoilName": "Body",
      "VariableFlipAngleFlag": "N",
      "WindowCenterWidthExplanation": "Algo1",
      "dBdt": 0.0},
    "slices": {
      "AcquisitionTime": ["100345.195000", "100341.355000", "100345.305000", "100341.465000", "100345.415000", "100341.575000", "100345.525000", "100341.685000", "100345.635000", "100341.795000", "100345.745000", "100341.905000", "100345.855000", "100342.015000", "100345.965000", "100342.125000", "100346.072500", "100342.235000", "100346.182500", "100342.342500", "100346.292500", "100342.452500", "100346.402500", "100342.562500", "100346.512500", "100342.672500", "100346.622500", "100342.782500", "100346.732500", "100342.892500", "100346.842500", "100343.002500", "100346.952500", "100343.112500", "100347.060000", "100343.222500", "100347.170000", "100343.330000", "100347.280000", "100343.440000", "100347.390000", "100343.550000", "100347.500000", "100343.660000", "100347.610000", "100343.770000", "100347.720000", "100343.880000", "100347.830000", "100343.990000", "100347.940000", "100344.100000", "100348.047500", "100344.207500", "100348.157500", "100344.317500", "100348.267500", "100344.427500", "100348.377500", "100344.537500", "100348.487500", "100344.647500", "100348.597500", "100344.757500", "100348.707500", "100344.867500", "100348.817500", "100344.977500", "100348.925000", "100345.087500", "100352.895000", "100349.055000", "100353.005000", "100349.165000", "100353.115000", "100349.275000", "100353.225000", "100349.385000", "100353.335000", "100349.495000", "100353.445000", "100349.605000", "100353.555000", "100349.715000", "100353.665000", "100349.825000", "100353.772500", "100349.935000", "100353.882500", "100350.042500", "100353.992500", "100350.152500", "100354.102500", "100350.262500", "100354.212500", "100350.372500", "100354.322500", "100350.482500", "100354.432500", "100350.592500", "100354.542500", "100350.702500", "100354.652500", "100350.812500", "100354.760000", "100350.922500", "100354.870000", "100351.030000", "100354.980000", "100351.140000", "100355.090000", "100351.250000", "100355.200000", "100351.360000", "100355.310000", "100351.470000", "100355.420000", "100351.580000", "100355.530000", "100351.690000", "100355.640000", "100351.800000", "100355.747500", "100351.907500", "100355.857500", "100352.017500", "100355.967500", "100352.127500", "100356.077500", "100352.237500", "100356.187500", "100352.347500", "100356.297500", "100352.457500", "100356.407500", "100352.567500", "100356.517500", "100352.677500", "100356.625000", "100352.787500", "100400.595000", "100356.755000", "100400.705000", "100356.865000", "100400.815000", "100356.975000", "100400.925000", "100357.085000", "100401.035000", "100357.195000", "100401.145000", "100357.305000", "100401.255000", "100357.415000", "100401.365000", "100357.525000", "100401.472500", "100357.635000", "100401.582500", "100357.742500", "100401.692500", "100357.852500", "100401.802500", "100357.962500", "100401.912500", "100358.072500", "100402.022500", "100358.182500", "100402.132500", "100358.292500", "100402.242500", "100358.402500", "100402.352500", "100358.512500", "100402.460000", "100358.622500", "100402.570000", "100358.730000", "100402.680000", "100358.840000", "100402.790000", "100358.950000", "100402.900000", "100359.060000", "100403.010000", "100359.170000", "100403.120000", "100359.280000", "100403.230000", "100359.390000", "100403.340000", "100359.500000", "100403.447500", "100359.607500", "100403.557500", "100359.717500", "100403.667500", "100359.827500", "100403.777500", "100359.937500", "100403.887500", "100400.047500", "100403.997500", "100400.157500", "100404.107500", "100400.267500", "100404.217500", "100400.377500", "100404.325000", "100400.487500", "100408.295000", "100404.455000", "100408.405000", "100404.565000", "100408.515000", "100404.675000", "100408.625000", "100404.785000", "100408.735000", "100404.895000", "100408.845000", "100405.005000", "100408.955000", "100405.115000", "100409.065000", "100405.225000", "100409.172500", "100405.335000", "100409.282500", "100405.442500", "100409.392500", "100405.552500", "100409.502500", "100405.662500", "100409.612500", "100405.772500", "100409.722500", "100405.882500", "100409.832500", "100405.992500", "100409.942500", "100406.102500", "100410.052500", "100406.212500", "100410.160000", "100406.322500", "100410.270000", "100406.430000", "100410.380000", "100406.540000", "100410.490000", "100406.650000", "100410.600000", "100406.760000", "100410.710000", "100406.870000", "100410.820000", "100406.980000", "100410.930000", "100407.090000", "100411.040000", "100407.200000", "100411.147500", "100407.307500", "100411.257500", "100407.417500", "100411.367500", "100407.527500", "100411.477500", "100407.637500", "100411.587500", "100407.747500", "100411.697500", "100407.857500", "100411.807500", "100407.967500", "100411.917500", "100408.077500", "100412.025000", "100408.187500", "100415.995000", "100412.155000", "100416.105000", "100412.265000", "100416.215000", "100412.375000", "100416.325000", "100412.485000", "100416.435000", "100412.595000", "100416.545000", "100412.705000", "100416.655000", "100412.815000", "100416.765000", "100412.925000", "100416.872500", "100413.035000", "100416.982500", "100413.142500", "100417.092500", "100413.252500", "100417.202500", "100413.362500", "100417.312500", "100413.472500", "100417.422500", "100413.582500", "100417.532500", "100413.692500", "100417.642500", "100413.802500", "100417.752500", "100413.912500", "100417.860000", "100414.022500", "100417.970000", "100414.130000", "100418.080000", "100414.240000", "100418.190000", "100414.350000", "100418.300000", "100414.460000", "100418.410000", "100414.570000", "100418.520000", "100414.680000", "100418.630000", "100414.790000", "100418.740000", "100414.900000", "100418.847500", "100415.007500", "100418.957500", "100415.117500", "100419.067500", "100415.227500", "100419.177500", "100415.337500", "100419.287500", "100415.447500", "100419.397500", "100415.557500", "100419.507500", "100415.667500", "100419.617500", "100415.777500", "100419.725000", "100415.887500", "100423.695000", "100419.855000", "100423.805000", "100419.965000", "100423.915000", "100420.075000", "100424.025000", "100420.185000", "100424.135000", "100420.295000", "100424.245000", "100420.405000", "100424.355000", "100420.515000", "100424.465000", "100420.625000", "100424.572500", "100420.735000", "100424.682500", "100420.842500", "100424.792500", "100420.952500", "100424.902500", "100421.062500", "100425.012500", "100421.172500", "100425.122500", "100421.282500", "100425.232500", "100421.392500", "100425.342500", "100421.502500", "100425.452500", "100421.612500", "100425.560000", "100421.722500", "100425.670000", "100421.830000", "100425.780000", "100421.940000", "100425.890000", "100422.050000", "100426.000000", "100422.160000", "100426.110000", "100422.270000", "100426.220000", "100422.380000", "100426.330000", "100422.490000", "100426.440000", "100422.600000", "100426.547500", "100422.707500", "100426.657500", "100422.817500", "100426.767500", "100422.927500", "100426.877500", "100423.037500", "100426.987500", "100423.147500", "100427.097500", "100423.257500", "100427.207500", "100423.367500", "100427.317500", "100423.477500", "100427.425000", "100423.587500", "100431.395000", "100427.555000", "100431.505000", "100427.665000", "100431.615000", "100427.775000", "100431.725000", "100427.885000", "100431.835000", "100427.995000", "100431.945000", "100428.105000", "100432.055000", "100428.215000", "100432.165000", "100428.325000", "100432.272500", "100428.435000", "100432.382500", "100428.542500", "100432.492500", "100428.652500", "100432.602500", "100428.762500", "100432.712500", "100428.872500", "100432.822500", "100428.982500", "100432.932500", "100429.092500", "100433.042500", "100429.202500", "100433.152500", "100429.312500", "100433.260000", "100429.422500", "100433.370000", "100429.530000", "100433.480000", "100429.640000", "100433.590000", "100429.750000", "100433.700000", "100429.860000", "100433.810000", "100429.970000", "100433.920000", "100430.080000", "100434.030000", "100430.190000", "100434.140000", "100430.300000", "100434.247500", "100430.407500", "100434.357500", "100430.517500", "100434.467500", "100430.627500", "100434.577500", "100430.737500", "100434.687500", "100430.847500", "100434.797500", "100430.957500", "100434.907500", "100431.067500", "100435.017500", "100431.177500", "100435.125000", "100431.287500", "100439.095000", "100435.255000", "100439.205000", "100435.365000", "100439.315000", "100435.475000", "100439.425000", "100435.585000", "100439.535000", "100435.695000", "100439.645000", "100435.805000", "100439.755000", "100435.915000", "100439.865000", "100436.025000", "100439.972500", "100436.135000", "100440.082500", "100436.242500", "100440.192500", "100436.352500", "100440.302500", "100436.462500", "100440.412500", "100436.572500", "100440.522500", "100436.682500", "100440.632500", "100436.792500", "100440.742500", "100436.902500", "100440.852500", "100437.012500", "100440.960000", "100437.122500", "100441.070000", "100437.230000", "100441.180000", "100437.340000", "100441.290000", "100437.450000", "100441.400000", "100437.560000", "100441.510000", "100437.670000", "100441.620000", "100437.780000", "100441.730000", "100437.890000", "100441.840000", "100438.000000", "100441.947500", "100438.107500", "100442.057500", "100438.217500", "100442.167500", "100438.327500", "100442.277500", "100438.437500", "100442.387500", "100438.547500", "100442.497500", "100438.657500", "100442.607500", "100438.767500", "100442.717500", "100438.877500", "100442.825000", "100438.987500", "100446.795000", "100442.955000", "100446.905000", "100443.065000", "100447.015000", "100443.175000", "100447.125000", "100443.285000", "100447.235000", "100443.395000", "100447.345000", "100443.505000", "100447.455000", "100443.615000", "100447.565000", "100443.725000", "100447.672500", "100443.835000", "100447.782500", "100443.942500", "100447.892500", "100444.052500", "100448.002500", "100444.162500", "100448.112500", "100444.272500", "100448.222500", "100444.382500", "100448.332500", "100444.492500", "100448.442500", "100444.602500", "100448.552500", "100444.712500", "100448.660000", "100444.822500", "100448.770000", "100444.930000", "100448.880000", "100445.040000", "100448.990000", "100445.150000", "100449.100000", "100445.260000", "100449.210000", "100445.370000", "100449.320000", "100445.480000", "100449.430000", "100445.590000", "100449.540000", "100445.700000", "100449.647500", "100445.807500", "100449.757500", "100445.917500", "100449.867500", "100446.027500", "100449.977500", "100446.137500", "100450.087500", "100446.247500", "100450.197500", "100446.357500", "100450.307500", "100446.467500", "100450.417500", "100446.577500", "100450.525000", "100446.687500", "100454.495000", "100450.655000", "100454.605000", "100450.765000", "100454.715000", "100450.875000", "100454.825000", "100450.985000", "100454.935000", "100451.095000", "100455.045000", "100451.205000", "100455.155000", "100451.315000", "100455.265000", "100451.425000", "100455.372500", "100451.535000", "100455.482500", "100451.642500", "100455.592500", "100451.752500", "100455.702500", "100451.862500", "100455.812500", "100451.972500", "100455.922500", "100452.082500", "100456.032500", "100452.192500", "100456.142500", "100452.302500", "100456.252500", "100452.412500", "100456.360000", "100452.522500", "100456.470000", "100452.630000", "100456.580000", "100452.740000", "100456.690000", "100452.850000", "100456.800000", "100452.960000", "100456.910000", "100453.070000", "100457.020000", "100453.180000", "100457.130000", "100453.290000", "100457.240000", "100453.400000", "100457.347500", "100453.507500", "100457.457500", "100453.617500", "100457.567500", "100453.727500", "100457.677500", "100453.837500", "100457.787500", "100453.947500", "100457.897500", "100454.057500", "100458.007500", "100454.167500", "100458.117500", "100454.277500", "100458.225000", "100454.387500", "100502.195000", "100458.355000", "100502.305000", "100458.465000", "100502.415000", "100458.575000", "100502.525000", "100458.685000", "100502.635000", "100458.795000", "100502.745000", "100458.905000", "100502.855000", "100459.015000", "100502.965000", "100459.125000", "100503.072500", "100459.235000", "100503.182500", "100459.342500", "100503.292500", "100459.452500", "100503.402500", "100459.562500", "100503.512500", "100459.672500", "100503.622500", "100459.782500", "100503.732500", "100459.892500", "100503.842500", "100500.002500", "100503.952500", "100500.112500", "100504.060000", "100500.222500", "100504.170000", "100500.330000", "100504.280000", "100500.440000", "100504.390000", "100500.550000", "100504.500000", "100500.660000", "100504.610000", "100500.770000", "100504.720000", "100500.880000", "100504.830000", "100500.990000", "100504.940000", "100501.100000", "100505.047500", "100501.207500", "100505.157500", "100501.317500", "100505.267500", "100501.427500", "100505.377500", "100501.537500", "100505.487500", "100501.647500", "100505.597500", "100501.757500", "100505.707500", "100501.867500", "100505.817500", "100501.977500", "100505.925000", "100502.087500", "100509.895000", "100506.055000", "100510.005000", "100506.165000", "100510.115000", "100506.275000", "100510.225000", "100506.385000", "100510.335000", "100506.495000", "100510.445000", "100506.605000", "100510.555000", "100506.715000", "100510.665000", "100506.825000", "100510.772500", "100506.935000", "100510.882500", "100507.042500", "100510.992500", "100507.152500", "100511.102500", "100507.262500", "100511.212500", "100507.372500", "100511.322500", "100507.482500", "100511.432500", "100507.592500", "100511.542500", "100507.702500", "100511.652500", "100507.812500", "100511.760000", "100507.922500", "100511.870000", "100508.030000", "100511.980000", "100508.140000", "100512.090000", "100508.250000", "100512.200000", "100508.360000", "100512.310000", "100508.470000", "100512.420000", "100508.580000", "100512.530000", "100508.690000", "100512.640000", "100508.800000", "100512.747500", "100508.907500", "100512.857500", "100509.017500", "100512.967500", "100509.127500", "100513.077500", "100509.237500", "100513.187500", "100509.347500", "100513.297500", "100509.457500", "100513.407500", "100509.567500", "100513.517500", "100509.677500", "100513.625000", "100509.787500", "100517.595000", "100513.755000", "100517.705000", "100513.865000", "100517.815000", "100513.975000", "100517.925000", "100514.085000", "100518.035000", "100514.195000", "100518.145000", "100514.305000", "100518.255000", "100514.415000", "100518.365000", "100514.525000", "100518.472500", "100514.635000", "100518.582500", "100514.742500", "100518.692500", "100514.852500", "100518.802500", "100514.962500", "100518.912500", "100515.072500", "100519.022500", "100515.182500", "100519.132500", "100515.292500", "100519.242500", "100515.402500", "100519.352500", "100515.512500", "100519.460000", "100515.622500", "100519.570000", "100515.730000", "100519.680000", "100515.840000", "100519.790000", "100515.950000", "100519.900000", "100516.060000", "100520.010000", "100516.170000", "100520.120000", "100516.280000", "100520.230000", "100516.390000", "100520.340000", "100516.500000", "100520.447500", "100516.607500", "100520.557500", "100516.717500", "100520.667500", "100516.827500", "100520.777500", "100516.937500", "100520.887500", "100517.047500", "100520.997500", "100517.157500", "100521.107500", "100517.267500", "100521.217500", "100517.377500", "100521.325000", "100517.487500", "100525.295000", "100521.455000", "100525.405000", "100521.565000", "100525.515000", "100521.675000", "100525.625000", "100521.785000", "100525.735000", "100521.895000", "100525.845000", "100522.005000", "100525.955000", "100522.115000", "100526.065000", "100522.225000", "100526.172500", "100522.335000", "100526.282500", "100522.442500", "100526.392500", "100522.552500", "100526.502500", "100522.662500", "100526.612500", "100522.772500", "100526.722500", "100522.882500", "100526.832500", "100522.992500", "100526.942500", "100523.102500", "100527.052500", "100523.212500", "100527.160000", "100523.322500", "100527.270000", "100523.430000", "100527.380000", "100523.540000", "100527.490000", "100523.650000", "100527.600000", "100523.760000", "100527.710000", "100523.870000", "100527.820000", "100523.980000", "100527.930000", "100524.090000", "100528.040000", "100524.200000", "100528.147500", "100524.307500", "100528.257500", "100524.417500", "100528.367500", "100524.527500", "100528.477500", "100524.637500", "100528.587500", "100524.747500", "100528.697500", "100524.857500", "100528.807500", "100524.967500", "100528.917500", "100525.077500", "100529.025000", "100525.187500", "100532.995000", "100529.155000", "100533.105000", "100529.265000", "100533.215000", "100529.375000", "100533.325000", "100529.485000", "100533.435000", "100529.595000", "100533.545000", "100529.705000", "100533.655000", "100529.815000", "100533.765000", "100529.925000", "100533.872500", "100530.035000", "100533.982500", "100530.142500", "100534.092500", "100530.252500", "100534.202500", "100530.362500", "100534.312500", "100530.472500", "100534.422500", "100530.582500", "100534.532500", "100530.692500", "100534.642500", "100530.802500", "100534.752500", "100530.912500", "100534.860000", "100531.022500", "100534.970000", "100531.130000", "100535.080000", "100531.240000", "100535.190000", "100531.350000", "100535.300000", "100531.460000", "100535.410000", "100531.570000", "100535.520000", "100531.680000", "100535.630000", "100531.790000", "100535.740000", "100531.900000", "100535.847500", "100532.007500", "100535.957500", "100532.117500", "100536.067500", "100532.227500", "100536.177500", "100532.337500", "100536.287500", "100532.447500", "100536.397500", "100532.557500", "100536.507500", "100532.667500", "100536.617500", "100532.777500", "100536.725000", "100532.887500", "100540.695000", "100536.855000", "100540.805000", "100536.965000", "100540.915000", "100537.075000", "100541.025000", "100537.185000", "100541.135000", "100537.295000", "100541.245000", "100537.405000", "100541.355000", "100537.515000", "100541.465000", "100537.625000", "100541.572500", "100537.735000", "100541.682500", "100537.842500", "100541.792500", "100537.952500", "100541.902500", "100538.062500", "100542.012500", "100538.172500", "100542.122500", "100538.282500", "100542.232500", "100538.392500", "100542.342500", "100538.502500", "100542.452500", "100538.612500", "100542.560000", "100538.722500", "100542.670000", "100538.830000", "100542.780000", "100538.940000", "100542.890000", "100539.050000", "100543.000000", "100539.160000", "100543.110000", "100539.270000", "100543.220000", "100539.380000", "100543.330000", "100539.490000", "100543.440000", "100539.600000", "100543.547500", "100539.707500", "100543.657500", "100539.817500", "100543.767500", "100539.927500", "100543.877500", "100540.037500", "100543.987500", "100540.147500", "100544.097500", "100540.257500", "100544.207500", "100540.367500", "100544.317500", "100540.477500", "100544.425000", "100540.587500", "100548.395000", "100544.555000", "100548.505000", "100544.665000", "100548.615000", "100544.775000", "100548.725000", "100544.885000", "100548.835000", "100544.995000", "100548.945000", "100545.105000", "100549.055000", "100545.215000", "100549.165000", "100545.325000", "100549.272500", "100545.435000", "100549.382500", "100545.542500", "100549.492500", "100545.652500", "100549.602500", "100545.762500", "100549.712500", "100545.872500", "100549.822500", "100545.982500", "100549.932500", "100546.092500", "100550.042500", "100546.202500", "100550.152500", "100546.312500", "100550.260000", "100546.422500", "100550.370000", "100546.530000", "100550.480000", "100546.640000", "100550.590000", "100546.750000", "100550.700000", "100546.860000", "100550.810000", "100546.970000", "100550.920000", "100547.080000", "100551.030000", "100547.190000", "100551.140000", "100547.300000", "100551.247500", "100547.407500", "100551.357500", "100547.517500", "100551.467500", "100547.627500", "100551.577500", "100547.737500", "100551.687500", "100547.847500", "100551.797500", "100547.957500", "100551.907500", "100548.067500", "100552.017500", "100548.177500", "100552.125000", "100548.287500", "100556.095000", "100552.255000", "100556.205000", "100552.365000", "100556.315000", "100552.475000", "100556.425000", "100552.585000", "100556.535000", "100552.695000", "100556.645000", "100552.805000", "100556.755000", "100552.915000", "100556.865000", "100553.025000", "100556.972500", "100553.135000", "100557.082500", "100553.242500", "100557.192500", "100553.352500", "100557.302500", "100553.462500", "100557.412500", "100553.572500", "100557.522500", "100553.682500", "100557.632500", "100553.792500", "100557.742500", "100553.902500", "100557.852500", "100554.012500", "100557.960000", "100554.122500", "100558.070000", "100554.230000", "100558.180000", "100554.340000", "100558.290000", "100554.450000", "100558.400000", "100554.560000", "100558.510000", "100554.670000", "100558.620000", "100554.780000", "100558.730000", "100554.890000", "100558.840000", "100555.000000", "100558.947500", "100555.107500", "100559.057500", "100555.217500", "100559.167500", "100555.327500", "100559.277500", "100555.437500", "100559.387500", "100555.547500", "100559.497500", "100555.657500", "100559.607500", "100555.767500", "100559.717500", "100555.877500", "100559.825000", "100555.987500", "100603.795000", "100559.955000", "100603.905000", "100600.065000", "100604.015000", "100600.175000", "100604.125000", "100600.285000", "100604.235000", "100600.395000", "100604.345000", "100600.505000", "100604.455000", "100600.615000", "100604.565000", "100600.725000", "100604.672500", "100600.835000", "100604.782500", "100600.942500", "100604.892500", "100601.052500", "100605.002500", "100601.162500", "100605.112500", "100601.272500", "100605.222500", "100601.382500", "100605.332500", "100601.492500", "100605.442500", "100601.602500", "100605.552500", "100601.712500", "100605.660000", "100601.822500", "100605.770000", "100601.930000", "100605.880000", "100602.040000", "100605.990000", "100602.150000", "100606.100000", "100602.260000", "100606.210000", "100602.370000", "100606.320000", "100602.480000", "100606.430000", "100602.590000", "100606.540000", "100602.700000", "100606.647500", "100602.807500", "100606.757500", "100602.917500", "100606.867500", "100603.027500", "100606.977500", "100603.137500", "100607.087500", "100603.247500", "100607.197500", "100603.357500", "100607.307500", "100603.467500", "100607.417500", "100603.577500", "100607.525000", "100603.687500", "100611.495000", "100607.655000", "100611.605000", "100607.765000", "100611.715000", "100607.875000", "100611.825000", "100607.985000", "100611.935000", "100608.095000", "100612.045000", "100608.205000", "100612.155000", "100608.315000", "100612.265000", "100608.425000", "100612.372500", "100608.535000", "100612.482500", "100608.642500", "100612.592500", "100608.752500", "100612.702500", "100608.862500", "100612.812500", "100608.972500", "100612.922500", "100609.082500", "100613.032500", "100609.192500", "100613.142500", "100609.302500", "100613.252500", "100609.412500", "100613.360000", "100609.522500", "100613.470000", "100609.630000", "100613.580000", "100609.740000", "100613.690000", "100609.850000", "100613.800000", "100609.960000", "100613.910000", "100610.070000", "100614.020000", "100610.180000", "100614.130000", "100610.290000", "100614.240000", "100610.400000", "100614.347500", "100610.507500", "100614.457500", "100610.617500", "100614.567500", "100610.727500", "100614.677500", "100610.837500", "100614.787500", "100610.947500", "100614.897500", "100611.057500", "100615.007500", "100611.167500", "100615.117500", "100611.277500", "100615.225000", "100611.387500", "100619.195000", "100615.355000", "100619.305000", "100615.465000", "100619.415000", "100615.575000", "100619.525000", "100615.685000", "100619.635000", "100615.795000", "100619.745000", "100615.905000", "100619.855000", "100616.015000", "100619.965000", "100616.125000", "100620.072500", "100616.235000", "100620.182500", "100616.342500", "100620.292500", "100616.452500", "100620.402500", "100616.562500", "100620.512500", "100616.672500", "100620.622500", "100616.782500", "100620.732500", "100616.892500", "100620.842500", "100617.002500", "100620.952500", "100617.112500", "100621.060000", "10