{
  "AcquisitionMatrixPE": 122,
  "AcquisitionNumber": 1,
  "AcquisitionTime": "09:10:37.060000",
  "BandwidthPerPixelPhaseEncode": 28.76,
  "BaseResolution": 122,
  "BodyPartExamined": "BRAIN",
  "CoilCombinationMethod": "Adaptive Combine",
  "ConsistencyInfo": "N4_VE11C_LATEST_20160120",
  "ConversionSoftware": "dcm2niix",
  "ConversionSoftwareVersion": "v1.0.20220720",
  "DerivedVendorReportedEchoSpacing": 0.000570008,
  "DeviceSerialNumber": "66112",
  "DiffusionScheme": "Monopolar",
  "DwellTime": 2e-06,
  "EchoTime": 0.075,
  "EchoTrainLength": 61,
  "EffectiveEchoSpacing": 0.000285004,
  "FlipAngle": 90,
  "HeudiconvVersion": "0.13.1",
  "ImageOrientationPatientDICOM": [0.988368, 0.151674, 0.0111088, -0.147889, 0.941533, 0.302727],
  "ImageOrientationText": "Tra>Cor(17.5)>Sag(-2.0)",
  "ImageType": [
    "ORIGINAL",
    "PRIMARY",
    "DIFFUSION",
    "NONE",
    "ND",
    "NORM"
],
  "ImagingFrequency": 123.252,
  "InPlanePhaseEncodingDirectionDICOM": "COL",
  "InstitutionAddress": "Maynard 3,Hanover,NH,US,03755",
  "InstitutionName": "Dartmouth College - PBS",
  "InstitutionalDepartmentName": "Department",
  "MRAcquisitionType": "2D",
  "MagneticFieldStrength": 3,
  "Manufacturer": "Siemens",
  "ManufacturersModelName": "Prisma",
  "MatrixCoilMode": "GRAPPA",
  "Modality": "MR",
  "NonlinearGradientCorrection": false,
  "ParallelReductionFactorInPlane": 2,
  "PartialFourier": 1,
  "PatientPosition": "HFS",
  "PercentPhaseFOV": 100,
  "PercentSampling": 100,
  "PhaseEncodingDirection": "j-",
  "PhaseEncodingSteps": 122,
  "PhaseResolution": 1,
  "PixelBandwidth": 2050,
  "ProcedureStepDescription": "dbic^QA",
  "ProtocolName": "dwi_acq-DTI-30-p2",
  "PulseSequenceDetails": "%SiemensSeq%\\ep2d_diff",
  "ReceiveCoilActiveElements": "HEA;HEP",
  "ReceiveCoilName": "Head_32",
  "ReconMatrixPE": 122,
  "RefLinesPE": 38,
  "RepetitionTime": 7.7,
  "SAR": 0.101637,
  "ScanOptions": "FS",
  "ScanningSequence": "EP",
  "SequenceName": "*ep_b0",
  "SequenceVariant": "SK\\SP",
  "SeriesDescription": "dwi_acq-DTI-30-p2",
  "SeriesNumber": 8,
  "ShimSetting": [4145, -7694, -7506, 343, -34, -173, -48, 48],
  "SliceThickness": 2,
  "SliceTiming": [3.84375, 0, 3.95312, 0.10938, 4.0625, 0.21875, 4.17188, 0.32812, 4.28125, 0.4375, 4.39062, 0.55469, 4.5, 0.66406, 4.60938, 0.76562, 4.71875, 0.875, 4.82812, 0.99219, 4.9375, 1.10156, 5.04688, 1.21094, 5.15625, 1.32031, 5.26562, 1.42969, 5.375, 1.53906, 5.48438, 1.64844, 5.59375, 1.75781, 5.70312, 1.86719, 5.8125, 1.97656, 5.92969, 2.08594, 6.03906, 2.19531, 6.14844, 2.30469, 6.25781, 2.41406, 6.36719, 2.52344, 6.47656, 2.63281, 6.58594, 2.74219, 6.69531, 2.85156, 6.80469, 2.96094, 6.91406, 3.07031, 7.02344, 3.1875, 7.13281, 3.29688, 7.24219, 3.40625, 7.35156, 3.51562, 7.46094, 3.625, 7.57031, 3.73438],
  "SoftwareVersions": "syngo MR E11",
  "SpacingBetweenSlices": 2,
  "SpoilingState": true,
  "StationName": "AWP66112",
  "TotalReadoutTime": 0.0344855,
  "TxRefAmp": 237.643,
  "dcmmeta_affine": [
    [-1.9443309307098389, -0.2909291982650757, -0.07091283798217773, 141.85946655273438],
    [-0.2983744740486145, 1.8521969318389893, 0.6016979217529297, -115.43791961669922],
    [0.021853381767868996, -0.5955286026000977, 1.9060287475585938, -31.550214767456055],
    [0.0, 0.0, 0.0, 1.0]
],
  "dcmmeta_reorient_transform": [
    [0.0, -1.0, 0.0, 121.0],
    [1.0, 0.0, 0.0, 0.0],
    [0.0, 0.0, -1.0, 69.0],
    [0.0, 0.0, 0.0, 1.0]
],
  "dcmmeta_shape": [122, 122, 70, 31],
  "dcmmeta_slice_dim": 2,
  "dcmmeta_version": 0.6,
  "global": {
    "const": {
      "AccessionNumber": "qa",
      "AcquisitionMatrix": [122, 0, 0, 122],
      "AngioFlag": "N",
      "BitsAllocated": 16,
      "BitsStored": 12,
      "BodyPartExamined": "BRAIN",
      "Columns": 122,
      "EchoNumbers": 1,
      "EchoTime": 75.0,
      "EchoTrainLength": 61,
      "FlipAngle": 90.0,
      "HighBit": 11,
      "ImageOrientationPatient": [0.98836819309418, 0.15167369382246, 0.01110880200596, -0.1478890027272, 0.94153341970162, 0.30272704282458],
      "ImageType": [
        "ORIGINAL",
        "PRIMARY",
        "DIFFUSION",
        "NONE",
        "ND",
        "NORM"
],
      "ImagedNucleus": "1H",
      "ImagingFrequency": 123.252481,
      "InPlanePhaseEncodingDirection": "COL",
      "MRAcquisitionType": "2D",
      "MagneticFieldStrength": 3.0,
      "Manufacturer": "SIEMENS",
      "ManufacturerModelName": "Prisma",
      "Modality": "MR",
      "NumberOfAverages": 1.0,
      "NumberOfPhaseEncodingSteps": 122,
      "PercentPhaseFieldOfView": 100.0,
      "PercentSampling": 100.0,
      "PerformedProcedureStepStartTime": "085230.912000",
      "PhotometricInterpretation": "MONOCHROME2",
      "PixelBandwidth": 2050.0,
      "PixelRepresentation": 0,
      "PixelSpacing": [1.9672131538391, 1.9672131538391],
      "ProtocolName": "dwi_acq-DTI-30-p2",
      "RepetitionTime": 7700.0,
      "Rows": 122,
      "SAR": 0.10163739405913,
      "SamplesPerPixel": 1,
      "ScanOptions": "FS",
      "ScanningSequence": "EP",
      "SequenceVariant": [
        "SK",
        "SP"
],
      "SeriesDescription": "dwi_acq-DTI-30-p2",
      "SeriesNumber": 8,
      "SeriesTime": "091052.163000",
      "SliceThickness": 2.0,
      "SmallestImagePixelValue": 0,
      "SoftwareVersions": "syngo MR E11",
      "SpacingBetweenSlices": 2.0,
      "SpecificCharacterSet": "ISO_IR 100",
      "StudyID": "45",
      "StudyTime": "085230.832000",
      "TransmitCoilName": "Body",
      "VariableFlipAngleFlag": "N",
      "WindowCenterWidthExplanation": "Algo1",
      "dBdt": 0.0},
    "slices": {
      "AcquisitionTime": ["091037.060000", "091033.220000", "091037.170000", "091033.330000", "091037.280000", "091033.440000", "091037.390000", "091033.550000", "091037.500000", "091033.660000", "091037.610000", "091033.770000", "091037.720000", "091033.880000", "091037.827500", "091033.987500", "091037.937500", "091034.097500", "091038.047500", "091034.207500", "091038.157500", "091034.317500", "091038.267500", "091034.427500", "091038.377500", "091034.537500", "091038.487500", "091034.647500", "091038.597500", "091034.757500", "091038.705000", "091034.867500", "091038.815000", "091034.975000", "091038.925000", "091035.085000", "091039.035000", "091035.195000", "091039.145000", "091035.305000", "091039.255000", "091035.415000", "091039.365000", "091035.525000", "091039.475000", "091035.635000", "091039.585000", "091035.745000", "091039.692500", "091035.852500", "091039.802500", "091035.962500", "091039.912500", "091036.072500", "091040.022500", "091036.182500", "091040.132500", "091036.292500", "091040.242500", "091036.402500", "091040.352500", "091036.512500", "091040.462500", "091036.622500", "091040.572500", "091036.732500", "091040.680000", "091036.840000", "091040.790000", "091036.950000", "091044.760000", "091040.920000", "091044.870000", "091041.030000", "091044.980000", "091041.140000", "091045.090000", "091041.250000", "091045.200000", "091041.360000", "091045.310000", "091041.470000", "091045.420000", "091041.580000", "091045.527500", "091041.687500", "091045.637500", "091041.797500", "091045.747500", "091041.907500", "091045.857500", "091042.017500", "091045.967500", "091042.127500", "091046.077500", "091042.237500", "091046.187500", "091042.347500", "091046.297500", "091042.457500", "091046.405000", "091042.567500", "091046.515000", "091042.675000", "091046.625000", "091042.785000", "091046.735000", "091042.895000", "091046.845000", "091043.005000", "091046.955000", "091043.115000", "091047.065000", "091043.225000", "091047.175000", "091043.335000", "091047.285000", "091043.445000", "091047.392500", "091043.552500", "091047.502500", "091043.662500", "091047.612500", "091043.772500", "091047.722500", "091043.882500", "091047.832500", "091043.992500", "091047.942500", "091044.102500", "091048.052500", "091044.212500", "091048.162500", "091044.322500", "091048.272500", "091044.432500", "091048.380000", "091044.540000", "091048.490000", "091044.650000", "091052.460000", "091048.620000", "091052.570000", "091048.730000", "091052.680000", "091048.840000", "091052.790000", "091048.950000", "091052.900000", "091049.060000", "091053.010000", "091049.170000", "091053.120000", "091049.280000", "091053.227500", "091049.387500", "091053.337500", "091049.497500", "091053.447500", "091049.607500", "091053.557500", "091049.717500", "091053.667500", "091049.827500", "091053.777500", "091049.937500", "091053.887500", "091050.047500", "091053.997500", "091050.157500", "091054.105000", "091050.267500", "091054.215000", "091050.375000", "091054.325000", "091050.485000", "091054.435000", "091050.595000", "091054.545000", "091050.705000", "091054.655000", "091050.815000", "091054.765000", "091050.925000", "091054.875000", "091051.035000", "091054.985000", "091051.145000", "091055.092500", "091051.252500", "091055.202500", "091051.362500", "091055.312500", "091051.472500", "091055.422500", "091051.582500", "091055.532500", "091051.692500", "091055.642500", "091051.802500", "091055.752500", "091051.912500", "091055.862500", "091052.022500", "091055.972500", "091052.132500", "091056.080000", "091052.240000", "091056.190000", "091052.350000", "091100.160000", "091056.320000", "091100.270000", "091056.430000", "091100.380000", "091056.540000", "091100.490000", "091056.650000", "091100.600000", "091056.760000", "091100.710000", "091056.870000", "091100.820000", "091056.980000", "091100.927500", "091057.087500", "091101.037500", "091057.197500", "091101.147500", "091057.307500", "091101.257500", "091057.417500", "091101.367500", "091057.527500", "091101.477500", "091057.637500", "091101.587500", "091057.747500", "091101.697500", "091057.857500", "091101.805000", "091057.967500", "091101.915000", "091058.075000", "091102.025000", "091058.185000", "091102.135000", "091058.295000", "091102.245000", "091058.405000", "091102.355000", "091058.515000", "091102.465000", "091058.625000", "091102.575000", "091058.735000", "091102.685000", "091058.845000", "091102.792500", "091058.952500", "091102.902500", "091059.062500", "091103.012500", "091059.172500", "091103.122500", "091059.282500", "091103.232500", "091059.392500", "091103.342500", "091059.502500", "091103.452500", "091059.612500", "091103.562500", "091059.722500", "091103.672500", "091059.832500", "091103.780000", "091059.940000", "091103.890000", "091100.050000", "091107.860000", "091104.020000", "091107.970000", "091104.130000", "091108.080000", "091104.240000", "091108.190000", "091104.350000", "091108.300000", "091104.460000", "091108.410000", "091104.570000", "091108.520000", "091104.680000", "091108.627500", "091104.787500", "091108.737500", "091104.897500", "091108.847500", "091105.007500", "091108.957500", "091105.117500", "091109.067500", "091105.227500", "091109.177500", "091105.337500", "091109.287500", "091105.447500", "091109.397500", "091105.557500", "091109.505000", "091105.667500", "091109.615000", "091105.775000", "091109.725000", "091105.885000", "091109.835000", "091105.995000", "091109.945000", "091106.105000", "091110.055000", "091106.215000", "091110.165000", "091106.325000", "091110.275000", "091106.435000", "091110.385000", "091106.545000", "091110.492500", "091106.652500", "091110.602500", "091106.762500", "091110.712500", "091106.872500", "091110.822500", "091106.982500", "091110.932500", "091107.092500", "091111.042500", "091107.202500", "091111.152500", "091107.312500", "091111.262500", "091107.422500", "091111.372500", "091107.532500", "091111.480000", "091107.640000", "091111.590000", "091107.750000", "091115.560000", "091111.720000", "091115.670000", "091111.830000", "091115.780000", "091111.940000", "091115.890000", "091112.050000", "091116.000000", "091112.160000", "091116.110000", "091112.270000", "091116.220000", "091112.380000", "091116.327500", "091112.487500", "091116.437500", "091112.597500", "091116.547500", "091112.707500", "091116.657500", "091112.817500", "091116.767500", "091112.927500", "091116.877500", "091113.037500", "091116.987500", "091113.147500", "091117.097500", "091113.257500", "091117.205000", "091113.367500", "091117.315000", "091113.475000", "091117.425000", "091113.585000", "091117.535000", "091113.695000", "091117.645000", "091113.805000", "091117.755000", "091113.915000", "091117.865000", "091114.025000", "091117.975000", "091114.135000", "091118.085000", "091114.245000", "091118.192500", "091114.352500", "091118.302500", "091114.462500", "091118.412500", "091114.572500", "091118.522500", "091114.682500", "091118.632500", "091114.792500", "091118.742500", "091114.902500", "091118.852500", "091115.012500", "091118.962500", "091115.122500", "091119.072500", "091115.232500", "091119.180000", "091115.340000", "091119.290000", "091115.450000", "091123.260000", "091119.420000", "091123.370000", "091119.530000", "091123.480000", "091119.640000", "091123.590000", "091119.750000", "091123.700000", "091119.860000", "091123.810000", "091119.970000", "091123.920000", "091120.080000", "091124.027500", "091120.187500", "091124.137500", "091120.297500", "091124.247500", "091120.407500", "091124.357500", "091120.517500", "091124.467500", "091120.627500", "091124.577500", "091120.737500", "091124.687500", "091120.847500", "091124.797500", "091120.957500", "091124.905000", "091121.067500", "091125.015000", "091121.175000", "091125.125000", "091121.285000", "091125.235000", "091121.395000", "091125.345000", "091121.505000", "091125.455000", "091121.615000", "091125.565000", "091121.725000", "091125.675000", "091121.835000", "091125.785000", "091121.945000", "091125.892500", "091122.052500", "091126.002500", "091122.162500", "091126.112500", "091122.272500", "091126.222500", "091122.382500", "091126.332500", "091122.492500", "091126.442500", "091122.602500", "091126.552500", "091122.712500", "091126.662500", "091122.822500", "091126.772500", "091122.932500", "091126.880000", "091123.040000", "091126.990000", "091123.150000", "091130.960000", "091127.120000", "091131.070000", "091127.230000", "091131.180000", "091127.340000", "091131.290000", "091127.450000", "091131.400000", "091127.560000", "091131.510000", "091127.670000", "091131.620000", "091127.780000", "091131.727500", "091127.887500", "091131.837500", "091127.997500", "091131.947500", "091128.107500", "091132.057500", "091128.217500", "091132.167500", "091128.327500", "091132.277500", "091128.437500", "091132.387500", "091128.547500", "091132.497500", "091128.657500", "091132.605000", "091128.767500", "091132.715000", "091128.875000", "091132.825000", "091128.985000", "091132.935000", "091129.095000", "091133.045000", "091129.205000", "091133.155000", "091129.315000", "091133.265000", "091129.425000", "091133.375000", "091129.535000", "091133.485000", "091129.645000", "091133.592500", "091129.752500", "091133.702500", "091129.862500", "091133.812500", "091129.972500", "091133.922500", "091130.082500", "091134.032500", "091130.192500", "091134.142500", "091130.302500", "091134.252500", "091130.412500", "091134.362500", "091130.522500", "091134.472500", "091130.632500", "091134.580000", "091130.740000", "091134.690000", "091130.850000", "091138.660000", "091134.820000", "091138.770000", "091134.930000", "091138.880000", "091135.040000", "091138.990000", "091135.150000", "091139.100000", "091135.260000", "091139.210000", "091135.370000", "091139.320000", "091135.480000", "091139.427500", "091135.587500", "091139.537500", "091135.697500", "091139.647500", "091135.807500", "091139.757500", "091135.917500", "091139.867500", "091136.027500", "091139.977500", "091136.137500", "091140.087500", "091136.247500", "091140.197500", "091136.357500", "091140.305000", "091136.467500", "091140.415000", "091136.575000", "091140.525000", "091136.685000", "091140.635000", "091136.795000", "091140.745000", "091136.905000", "091140.855000", "091137.015000", "091140.965000", "091137.125000", "091141.075000", "091137.235000", "091141.185000", "091137.345000", "091141.292500", "091137.452500", "091141.402500", "091137.562500", "091141.512500", "091137.672500", "091141.622500", "091137.782500", "091141.732500", "091137.892500", "091141.842500", "091138.002500", "091141.952500", "091138.112500", "091142.062500", "091138.222500", "091142.172500", "091138.332500", "091142.280000", "091138.440000", "091142.390000", "091138.550000", "091146.360000", "091142.520000", "091146.470000", "091142.630000", "091146.580000", "091142.740000", "091146.690000", "091142.850000", "091146.800000", "091142.960000", "091146.910000", "091143.070000", "091147.020000", "091143.180000", "091147.127500", "091143.287500", "091147.237500", "091143.397500", "091147.347500", "091143.507500", "091147.457500", "091143.617500", "091147.567500", "091143.727500", "091147.677500", "091143.837500", "091147.787500", "091143.947500", "091147.897500", "091144.057500", "091148.005000", "091144.167500", "091148.115000", "091144.275000", "091148.225000", "091144.385000", "091148.335000", "091144.495000", "091148.445000", "091144.605000", "091148.555000", "091144.715000", "091148.665000", "091144.825000", "091148.775000", "091144.935000", "091148.885000", "091145.045000", "091148.992500", "091145.152500", "091149.102500", "091145.262500", "091149.212500", "091145.372500", "091149.322500", "091145.482500", "091149.432500", "091145.592500", "091149.542500", "091145.702500", "091149.652500", "091145.812500", "091149.762500", "091145.922500", "091149.872500", "091146.032500", "091149.980000", "091146.140000", "091150.090000", "091146.250000", "091154.060000", "091150.220000", "091154.170000", "091150.330000", "091154.280000", "091150.440000", "091154.390000", "091150.550000", "091154.500000", "091150.660000", "091154.610000", "091150.770000", "091154.720000", "091150.880000", "091154.827500", "091150.987500", "091154.937500", "091151.097500", "091155.047500", "091151.207500", "091155.157500", "091151.317500", "091155.267500", "091151.427500", "091155.377500", "091151.537500", "091155.487500", "091151.647500", "091155.597500", "091151.757500", "091155.705000", "091151.867500", "091155.815000", "091151.975000", "091155.925000", "091152.085000", "091156.035000", "091152.195000", "091156.145000", "091152.305000", "091156.255000", "091152.415000", "091156.365000", "091152.525000", "091156.475000", "091152.635000", "091156.585000", "091152.745000", "091156.692500", "091152.852500", "091156.802500", "091152.962500", "091156.912500", "091153.072500", "091157.022500", "091153.182500", "091157.132500", "091153.292500", "091157.242500", "091153.402500", "091157.352500", "091153.512500", "091157.462500", "091153.622500", "091157.572500", "091153.732500", "091157.680000", "091153.840000", "091157.790000", "091153.950000", "091201.760000", "091157.920000", "091201.870000", "091158.030000", "091201.980000", "091158.140000", "091202.090000", "091158.250000", "091202.200000", "091158.360000", "091202.310000", "091158.470000", "091202.420000", "091158.580000", "091202.527500", "091158.687500", "091202.637500", "091158.797500", "091202.747500", "091158.907500", "091202.857500", "091159.017500", "091202.967500", "091159.127500", "091203.077500", "091159.237500", "091203.187500", "091159.347500", "091203.297500", "091159.457500", "091203.405000", "091159.567500", "091203.515000", "091159.675000", "091203.625000", "091159.785000", "091203.735000", "091159.895000", "091203.845000", "091200.005000", "091203.955000", "091200.115000", "091204.065000", "091200.225000", "091204.175000", "091200.335000", "091204.285000", "091200.445000", "091204.392500", "091200.552500", "091204.502500", "091200.662500", "091204.612500", "091200.772500", "091204.722500", "091200.882500", "091204.832500", "091200.992500", "091204.942500", "091201.102500", "091205.052500", "091201.212500", "091205.162500", "091201.322500", "091205.272500", "091201.432500", "091205.380000", "091201.540000", "091205.490000", "091201.650000", "091209.460000", "091205.620000", "091209.570000", "091205.730000", "091209.680000", "091205.840000", "091209.790000", "091205.950000", "091209.900000", "091206.060000", "091210.010000", "091206.170000", "091210.120000", "091206.280000", "091210.227500", "091206.387500", "091210.337500", "091206.497500", "091210.447500", "091206.607500", "091210.557500", "091206.717500", "091210.667500", "091206.827500", "091210.777500", "091206.937500", "091210.887500", "091207.047500", "091210.997500", "091207.157500", "091211.105000", "091207.267500", "091211.215000", "091207.375000", "091211.325000", "091207.485000", "091211.435000", "091207.595000", "091211.545000", "091207.705000", "091211.655000", "091207.815000", "091211.765000", "091207.925000", "091211.875000", "091208.035000", "091211.985000", "091208.145000", "091212.092500", "091208.252500", "091212.202500", "091208.362500", "091212.312500", "091208.472500", "091212.422500", "091208.582500", "091212.532500", "091208.692500", "091212.642500", "091208.802500", "091212.752500", "091208.912500", "091212.862500", "091209.022500", "091212.972500", "091209.132500", "091213.080000", "091209.240000", "091213.190000", "091209.350000", "091217.160000", "091213.320000", "091217.270000", "091213.430000", "091217.380000", "091213.540000", "091217.490000", "091213.650000", "091217.600000", "091213.760000", "091217.710000", "091213.870000", "091217.820000", "091213.980000", "091217.927500", "091214.087500", "091218.037500", "091214.197500", "091218.147500", "091214.307500", "091218.257500", "091214.417500", "091218.367500", "091214.527500", "091218.477500", "091214.637500", "091218.587500", "091214.747500", "091218.697500", "091214.857500", "091218.805000", "091214.967500", "091218.915000", "091215.075000", "091219.025000", "091215.185000", "091219.135000", "091215.295000", "091219.245000", "091215.405000", "091219.355000", "091215.515000", "091219.465000", "091215.625000", "091219.575000", "091215.735000", "091219.685000", "091215.845000", "091219.792500", "091215.952500", "091219.902500", "091216.062500", "091220.012500", "091216.172500", "091220.122500", "091216.282500", "091220.232500", "091216.392500", "091220.342500", "091216.502500", "091220.452500", "091216.612500", "091220.562500", "091216.722500", "091220.672500", "091216.832500", "091220.780000", "091216.940000", "091220.890000", "091217.050000", "091224.860000", "091221.020000", "091224.970000", "091221.130000", "091225.080000", "091221.240000", "091225.190000", "091221.350000", "091225.300000", "091221.460000", "091225.410000", "091221.570000", "091225.520000", "091221.680000", "091225.627500", "091221.787500", "091225.737500", "091221.897500", "091225.847500", "091222.007500", "091225.957500", "091222.117500", "091226.067500", "091222.227500", "091226.177500", "091222.337500", "091226.287500", "091222.447500", "091226.397500", "091222.557500", "091226.505000", "091222.667500", "091226.615000", "091222.775000", "091226.725000", "091222.885000", "091226.835000", "091222.995000", "091226.945000", "091223.105000", "091227.055000", "091223.215000", "091227.165000", "091223.325000", "091227.275000", "091223.435000", "091227.385000", "091223.545000", "091227.492500", "091223.652500", "091227.602500", "091223.762500", "091227.712500", "091223.872500", "091227.822500", "091223.982500", "091227.932500", "091224.092500", "091228.042500", "091224.202500", "091228.152500", "091224.312500", "091228.262500", "091224.422500", "091228.372500", "091224.532500", "091228.480000", "091224.640000", "091228.590000", "091224.750000", "091232.560000", "091228.720000", "091232.670000", "091228.830000", "091232.780000", "091228.940000", "091232.890000", "091229.050000", "091233.000000", "091229.160000", "091233.110000", "091229.270000", "091233.220000", "091229.380000", "091233.327500", "091229.487500", "091233.437500", "091229.597500", "091233.547500", "091229.707500", "091233.657500", "091229.817500", "091233.767500", "091229.927500", "091233.877500", "091230.037500", "091233.987500", "091230.147500", "091234.097500", "091230.257500", "091234.205000", "091230.367500", "091234.315000", "091230.475000", "091234.425000", "091230.585000", "091234.535000", "091230.695000", "091234.645000", "091230.805000", "091234.755000", "091230.915000", "091234.865000", "091231.025000", "091234.975000", "091231.135000", "091235.085000", "091231.245000", "091235.192500", "091231.352500", "091235.302500", "091231.462500", "091235.412500", "091231.572500", "091235.522500", "091231.682500", "091235.632500", "091231.792500", "091235.742500", "091231.902500", "091235.852500", "091232.012500", "091235.962500", "091232.122500", "091236.072500", "091232.232500", "091236.180000", "091232.340000", "091236.290000", "091232.450000", "091240.260000", "091236.420000", "091240.370000", "091236.530000", "091240.480000", "091236.640000", "091240.590000", "091236.750000", "091240.700000", "091236.860000", "091240.810000", "091236.970000", "091240.920000", "091237.080000", "091241.027500", "091237.187500", "091241.137500", "091237.297500", "091241.247500", "091237.407500", "091241.357500", "091237.517500", "091241.467500", "091237.627500", "091241.577500", "091237.737500", "091241.687500", "091237.847500", "091241.797500", "091237.957500", "091241.905000", "091238.067500", "091242.015000", "091238.175000", "091242.125000", "091238.285000", "091242.235000", "091238.395000", "091242.345000", "091238.505000", "091242.455000", "091238.615000", "091242.565000", "091238.725000", "091242.675000", "091238.835000", "091242.785000", "091238.945000", "091242.892500", "091239.052500", "091243.002500", "091239.162500", "091243.112500", "091239.272500", "091243.222500", "091239.382500", "091243.332500", "091239.492500", "091243.442500", "091239.602500", "091243.552500", "091239.712500", "091243.662500", "091239.822500", "091243.772500", "091239.932500", "091243.880000", "091240.040000", "091243.990000", "091240.150000", "091247.960000", "091244.120000", "091248.070000", "091244.230000", "091248.180000", "091244.340000", "091248.290000", "091244.450000", "091248.400000", "091244.560000", "091248.510000", "091244.670000", "091248.620000", "091244.780000", "091248.727500", "091244.887500", "091248.837500", "091244.997500", "091248.947500", "091245.107500", "091249.057500", "091245.217500", "091249.167500", "091245.327500", "091249.277500", "091245.437500", "091249.387500", "091245.547500", "091249.497500", "091245.657500", "091249.605000", "091245.767500", "091249.715000", "091245.875000", "091249.825000", "091245.985000", "091249.935000", "091246.095000", "091250.045000", "091246.205000", "091250.155000", "091246.315000", "091250.265000", "091246.425000", "091250.375000", "091246.535000", "091250.485000", "091246.645000", "091250.592500", "091246.752500", "091250.702500", "091246.862500", "091250.812500", "091246.972500", "091250.922500", "091247.082500", "091251.032500", "091247.192500", "091251.142500", "091247.302500", "091251.252500", "091247.412500", "091251.362500", "091247.522500", "091251.472500", "091247.632500", "091251.580000", "091247.740000", "091251.690000", "091247.850000", "091255.660000", "091251.820000", "091255.770000", "091251.930000", "091255.880000", "091252.040000", "091255.990000", "091252.150000", "091256.100000", "091252.260000", "091256.210000", "091252.370000", "091256.320000", "091252.480000", "091256.427500", "091252.587500", "091256.537500", "091252.697500", "091256.647500", "091252.807500", "091256.757500", "091252.917500", "091256.867500", "091253.027500", "091256.977500", "091253.137500", "091257.087500", "091253.247500", "091257.197500", "091253.357500", "091257.305000", "091253.467500", "091257.415000", "091253.575000", "091257.525000", "091253.685000", "091257.635000", "091253.795000", "091257.745000", "091253.905000", "091257.855000", "091254.015000", "091257.965000", "091254.125000", "091258.075000", "091254.235000", "091258.185000", "091254.345000", "091258.292500", "091254.452500", "091258.402500", "091254.562500", "091258.512500", "091254.672500", "091258.622500", "091254.782500", "091258.732500", "091254.892500", "091258.842500", "091255.002500", "091258.952500", "091255.112500", "091259.062500", "091255.222500", "091259.172500", "091255.332500", "091259.280000", "091255.440000", "091259.390000", "091255.550000", "091303.360000", "091259.520000", "091303.470000", "091259.630000", "091303.580000", "091259.740000", "091303.690000", "091259.850000", "091303.800000", "091259.960000", "091303.910000", "091300.070000", "091304.020000", "091300.180000", "091304.127500", "091300.287500", "091304.237500", "091300.397500", "091304.347500", "091300.507500", "091304.457500", "091300.617500", "091304.567500", "091300.727500", "091304.677500", "091300.837500", "091304.787500", "091300.947500", "091304.897500", "091301.057500", "091305.005000", "091301.167500", "091305.115000", "091301.275000", "091305.225000", "091301.385000", "091305.335000", "091301.495000", "091305.445000", "091301.605000", "091305.555000", "091301.715000", "091305.665000", "091301.825000", "091305.775000", "091301.935000", "091305.885000", "091302.045000", "091305.992500", "091302.152500", "091306.102500", "091302.262500", "091306.212500", "091302.372500", "091306.322500", "091302.482500", "091306.432500", "091302.592500", "091306.542500", "091302.702500", "091306.652500", "091302.812500", "091306.762500", "091302.922500", "091306.872500", "091303.032500", "091306.980000", "091303.140000", "091307.090000", "091303.250000", "091311.060000", "091307.220000", "091311.170000", "091307.330000", "091311.280000", "091307.440000", "091311.390000", "091307.550000", "091311.500000", "091307.660000", "091311.610000", "091307.770000", "091311.720000", "091307.880000", "091311.827500", "091307.987500", "091311.937500", "091308.097500", "091312.047500", "091308.207500", "091312.157500", "091308.317500", "091312.267500", "091308.427500", "091312.377500", "091308.537500", "091312.487500", "091308.647500", "091312.597500", "091308.757500", "091312.705000", "091308.867500", "091312.815000", "091308.975000", "091312.92500