{
  "AcquisitionMatrixPE": 122,
  "AcquisitionNumber": 1,
  "AcquisitionTime": "09:14:58.465000",
  "BandwidthPerPixelPhaseEncode": 27.785,
  "BaseResolution": 122,
  "BodyPartExamined": "BRAIN",
  "CoilCombinationMethod": "Adaptive Combine",
  "ConsistencyInfo": "N4_VE11C_LATEST_20160120",
  "ConversionSoftware": "dcm2niix",
  "ConversionSoftwareVersion": "v1.0.20220720",
  "DerivedVendorReportedEchoSpacing": 0.000590011,
  "DeviceSerialNumber": "66112",
  "DiffusionScheme": "Monopolar",
  "DwellTime": 2e-06,
  "EchoTime": 0.068,
  "EchoTrainLength": 61,
  "EffectiveEchoSpacing": 0.000295005,
  "FlipAngle": 90,
  "HeudiconvVersion": "0.13.1",
  "ImageOrientationPatientDICOM": [0.988368, 0.151674, 0.0111088, -0.147889, 0.941533, 0.302727],
  "ImageOrientationText": "Tra>Cor(17.5)>Sag(-2.0)",
  "ImageType": [
    "ORIGINAL",
    "PRIMARY",
    "DIFFUSION",
    "NONE",
    "ND",
    "NORM"
],
  "ImagingFrequency": 123.252,
  "InPlanePhaseEncodingDirectionDICOM": "COL",
  "InstitutionAddress": "Maynard 3,Hanover,NH,US,03755",
  "InstitutionName": "Dartmouth College - PBS",
  "InstitutionalDepartmentName": "Department",
  "MRAcquisitionType": "2D",
  "MagneticFieldStrength": 3,
  "Manufacturer": "Siemens",
  "ManufacturersModelName": "Prisma",
  "Modality": "MR",
  "MultibandAccelerationFactor": 4,
  "NonlinearGradientCorrection": false,
  "ParallelReductionFactorInPlane": 2,
  "PartialFourier": 1,
  "PatientPosition": "HFS",
  "PercentPhaseFOV": 100,
  "PercentSampling": 100,
  "PhaseEncodingDirection": "j-",
  "PhaseEncodingSteps": 122,
  "PhaseResolution": 1,
  "PixelBandwidth": 2050,
  "ProcedureStepDescription": "dbic^QA",
  "ProtocolName": "dwi_acq-DTI-30-p2-s4",
  "PulseSequenceDetails": "%SiemensSeq%\\ep2d_diff",
  "ReceiveCoilActiveElements": "HEA;HEP",
  "ReceiveCoilName": "Head_32",
  "ReconMatrixPE": 122,
  "RefLinesPE": 38,
  "RepetitionTime": 3.6,
  "SAR": 0.161026,
  "ScanOptions": "FS",
  "ScanningSequence": "EP",
  "SequenceName": "*ep_b0",
  "SequenceVariant": "SK\\SP",
  "SeriesDescription": "dwi_acq-DTI-30-p2-s4",
  "SeriesNumber": 9,
  "ShimSetting": [4145, -7694, -7506, 340, -34, -173, -47, 48],
  "SliceThickness": 2,
  "SliceTiming": [2.58594, 0, 1.78906, 0.19531, 1.98438, 0.39844, 2.1875, 0.59375, 2.38281, 0.99219, 2.78125, 1.19531, 2.98438, 1.39062, 3.17969, 1.58594, 3.38281, 0.78906, 2.58594, 0, 1.78906, 0.19531, 1.98438, 0.39844, 2.1875, 0.59375, 2.38281, 0.99219, 2.78125, 1.19531, 2.98438, 1.39062, 3.17969, 1.58594, 3.38281, 0.78906, 2.58594, 0, 1.78906, 0.19531, 1.98438, 0.39844, 2.1875, 0.59375, 2.38281, 0.99219, 2.78125, 1.19531, 2.98438, 1.39062, 3.17969, 1.58594, 3.38281, 0.78906, 2.58594, 0, 1.78906, 0.19531, 1.98438, 0.39844, 2.1875, 0.59375, 2.38281, 0.99219, 2.78125, 1.19531, 2.98438, 1.39062, 3.17969, 1.58594, 3.38281, 0.78906],
  "SoftwareVersions": "syngo MR E11",
  "SpacingBetweenSlices": 2,
  "SpoilingState": true,
  "StationName": "AWP66112",
  "TotalReadoutTime": 0.0356956,
  "TxRefAmp": 237.643,
  "dcmmeta_affine": [
    [-1.9443309307098389, -0.2909291982650757, -0.07091283798217773, 141.9303741455078],
    [-0.2983744740486145, 1.8521969318389893, 0.6016979217529297, -116.03961944580078],
    [0.021853381767868996, -0.5955286026000977, 1.9060211181640625, -33.45570755004883],
    [0.0, 0.0, 0.0, 1.0]
],
  "dcmmeta_reorient_transform": [
    [0.0, -1.0, 0.0, 121.0],
    [1.0, 0.0, 0.0, 0.0],
    [0.0, 0.0, -1.0, 71.0],
    [0.0, 0.0, 0.0, 1.0]
],
  "dcmmeta_shape": [122, 122, 72, 31],
  "dcmmeta_slice_dim": 2,
  "dcmmeta_version": 0.6,
  "global": {
    "const": {
      "AccessionNumber": "qa",
      "AcquisitionMatrix": [122, 0, 0, 122],
      "AngioFlag": "N",
      "BitsAllocated": 16,
      "BitsStored": 12,
      "BodyPartExamined": "BRAIN",
      "Columns": 122,
      "EchoNumbers": 1,
      "EchoTime": 68.0,
      "EchoTrainLength": 61,
      "FlipAngle": 90.0,
      "HighBit": 11,
      "ImageOrientationPatient": [0.98836819309418, 0.15167369382246, 0.01110880200596, -0.1478890027272, 0.94153341970162, 0.30272704282458],
      "ImageType": [
        "ORIGINAL",
        "PRIMARY",
        "DIFFUSION",
        "NONE",
        "ND",
        "NORM"
],
      "ImagedNucleus": "1H",
      "ImagingFrequency": 123.252481,
      "InPlanePhaseEncodingDirection": "COL",
      "MRAcquisitionType": "2D",
      "MagneticFieldStrength": 3.0,
      "Manufacturer": "SIEMENS",
      "ManufacturerModelName": "Prisma",
      "Modality": "MR",
      "NumberOfAverages": 1.0,
      "NumberOfPhaseEncodingSteps": 122,
      "PercentPhaseFieldOfView": 100.0,
      "PercentSampling": 100.0,
      "PerformedProcedureStepStartTime": "085230.912000",
      "PhotometricInterpretation": "MONOCHROME2",
      "PixelBandwidth": 2050.0,
      "PixelRepresentation": 0,
      "PixelSpacing": [1.9672131538391, 1.9672131538391],
      "ProtocolName": "dwi_acq-DTI-30-p2-s4",
      "RepetitionTime": 3600.0,
      "Rows": 122,
      "SAR": 0.16102610946439,
      "SamplesPerPixel": 1,
      "ScanOptions": "FS",
      "ScanningSequence": "EP",
      "SequenceVariant": [
        "SK",
        "SP"
],
      "SeriesDescription": "dwi_acq-DTI-30-p2-s4",
      "SeriesNumber": 9,
      "SeriesTime": "091507.464000",
      "SliceThickness": 2.0,
      "SmallestImagePixelValue": 0,
      "SoftwareVersions": "syngo MR E11",
      "SpacingBetweenSlices": 2.0,
      "SpecificCharacterSet": "ISO_IR 100",
      "StudyID": "45",
      "StudyTime": "085230.832000",
      "TransmitCoilName": "Body",
      "VariableFlipAngleFlag": "N",
      "WindowCenterWidthExplanation": "Algo1",
      "dBdt": 0.0},
    "slices": {
      "AcquisitionTime": ["091458.465000", "091455.880000", "091457.670000", "091456.080000", "091457.870000", "091456.277500", "091458.067500", "091456.477500", "091458.267500", "091456.875000", "091458.665000", "091457.075000", "091458.865000", "091457.272500", "091459.062500", "091457.472500", "091459.262500", "091456.675000", "091458.465000", "091455.880000", "091457.670000", "091456.080000", "091457.870000", "091456.277500", "091458.067500", "091456.477500", "091458.267500", "091456.875000", "091458.665000", "091457.075000", "091458.865000", "091457.272500", "091459.062500", "091457.472500", "091459.262500", "091456.675000", "091458.465000", "091455.880000", "091457.670000", "091456.080000", "091457.870000", "091456.277500", "091458.067500", "091456.477500", "091458.267500", "091456.875000", "091458.665000", "091457.075000", "091458.865000", "091457.272500", "091459.062500", "091457.472500", "091459.262500", "091456.675000", "091458.465000", "091455.880000", "091457.670000", "091456.080000", "091457.870000", "091456.277500", "091458.067500", "091456.477500", "091458.267500", "091456.875000", "091458.665000", "091457.075000", "091458.865000", "091457.272500", "091459.062500", "091457.472500", "091459.262500", "091456.675000", "091502.065000", "091459.480000", "091501.270000", "091459.680000", "091501.470000", "091459.877500", "091501.667500", "091500.077500", "091501.867500", "091500.475000", "091502.265000", "091500.675000", "091502.465000", "091500.872500", "091502.662500", "091501.072500", "091502.862500", "091500.275000", "091502.065000", "091459.480000", "091501.270000", "091459.680000", "091501.470000", "091459.877500", "091501.667500", "091500.077500", "091501.867500", "091500.475000", "091502.265000", "091500.675000", "091502.465000", "091500.872500", "091502.662500", "091501.072500", "091502.862500", "091500.275000", "091502.065000", "091459.480000", "091501.270000", "091459.680000", "091501.470000", "091459.877500", "091501.667500", "091500.077500", "091501.867500", "091500.475000", "091502.265000", "091500.675000", "091502.465000", "091500.872500", "091502.662500", "091501.072500", "091502.862500", "091500.275000", "091502.065000", "091459.480000", "091501.270000", "091459.680000", "091501.470000", "091459.877500", "091501.667500", "091500.077500", "091501.867500", "091500.475000", "091502.265000", "091500.675000", "091502.465000", "091500.872500", "091502.662500", "091501.072500", "091502.862500", "091500.275000", "091505.665000", "091503.080000", "091504.870000", "091503.280000", "091505.070000", "091503.477500", "091505.267500", "091503.677500", "091505.467500", "091504.075000", "091505.865000", "091504.275000", "091506.065000", "091504.472500", "091506.262500", "091504.672500", "091506.462500", "091503.875000", "091505.665000", "091503.080000", "091504.870000", "091503.280000", "091505.070000", "091503.477500", "091505.267500", "091503.677500", "091505.467500", "091504.075000", "091505.865000", "091504.275000", "091506.065000", "091504.472500", "091506.262500", "091504.672500", "091506.462500", "091503.875000", "091505.665000", "091503.080000", "091504.870000", "091503.280000", "091505.070000", "091503.477500", "091505.267500", "091503.677500", "091505.467500", "091504.075000", "091505.865000", "091504.275000", "091506.065000", "091504.472500", "091506.262500", "091504.672500", "091506.462500", "091503.875000", "091505.665000", "091503.080000", "091504.870000", "091503.280000", "091505.070000", "091503.477500", "091505.267500", "091503.677500", "091505.467500", "091504.075000", "091505.865000", "091504.275000", "091506.065000", "091504.472500", "091506.262500", "091504.672500", "091506.462500", "091503.875000", "091509.265000", "091506.680000", "091508.470000", "091506.880000", "091508.670000", "091507.077500", "091508.867500", "091507.277500", "091509.067500", "091507.675000", "091509.465000", "091507.875000", "091509.665000", "091508.072500", "091509.862500", "091508.272500", "091510.062500", "091507.475000", "091509.265000", "091506.680000", "091508.470000", "091506.880000", "091508.670000", "091507.077500", "091508.867500", "091507.277500", "091509.067500", "091507.675000", "091509.465000", "091507.875000", "091509.665000", "091508.072500", "091509.862500", "091508.272500", "091510.062500", "091507.475000", "091509.265000", "091506.680000", "091508.470000", "091506.880000", "091508.670000", "091507.077500", "091508.867500", "091507.277500", "091509.067500", "091507.675000", "091509.465000", "091507.875000", "091509.665000", "091508.072500", "091509.862500", "091508.272500", "091510.062500", "091507.475000", "091509.265000", "091506.680000", "091508.470000", "091506.880000", "091508.670000", "091507.077500", "091508.867500", "091507.277500", "091509.067500", "091507.675000", "091509.465000", "091507.875000", "091509.665000", "091508.072500", "091509.862500", "091508.272500", "091510.062500", "091507.475000", "091512.865000", "091510.280000", "091512.070000", "091510.480000", "091512.270000", "091510.677500", "091512.467500", "091510.877500", "091512.667500", "091511.275000", "091513.065000", "091511.475000", "091513.265000", "091511.672500", "091513.462500", "091511.872500", "091513.662500", "091511.075000", "091512.865000", "091510.280000", "091512.070000", "091510.480000", "091512.270000", "091510.677500", "091512.467500", "091510.877500", "091512.667500", "091511.275000", "091513.065000", "091511.475000", "091513.265000", "091511.672500", "091513.462500", "091511.872500", "091513.662500", "091511.075000", "091512.865000", "091510.280000", "091512.070000", "091510.480000", "091512.270000", "091510.677500", "091512.467500", "091510.877500", "091512.667500", "091511.275000", "091513.065000", "091511.475000", "091513.265000", "091511.672500", "091513.462500", "091511.872500", "091513.662500", "091511.075000", "091512.865000", "091510.280000", "091512.070000", "091510.480000", "091512.270000", "091510.677500", "091512.467500", "091510.877500", "091512.667500", "091511.275000", "091513.065000", "091511.475000", "091513.265000", "091511.672500", "091513.462500", "091511.872500", "091513.662500", "091511.075000", "091516.465000", "091513.880000", "091515.670000", "091514.080000", "091515.870000", "091514.277500", "091516.067500", "091514.477500", "091516.267500", "091514.875000", "091516.665000", "091515.075000", "091516.865000", "091515.272500", "091517.062500", "091515.472500", "091517.262500", "091514.675000", "091516.465000", "091513.880000", "091515.670000", "091514.080000", "091515.870000", "091514.277500", "091516.067500", "091514.477500", "091516.267500", "091514.875000", "091516.665000", "091515.075000", "091516.865000", "091515.272500", "091517.062500", "091515.472500", "091517.262500", "091514.675000", "091516.465000", "091513.880000", "091515.670000", "091514.080000", "091515.870000", "091514.277500", "091516.067500", "091514.477500", "091516.267500", "091514.875000", "091516.665000", "091515.075000", "091516.865000", "091515.272500", "091517.062500", "091515.472500", "091517.262500", "091514.675000", "091516.465000", "091513.880000", "091515.670000", "091514.080000", "091515.870000", "091514.277500", "091516.067500", "091514.477500", "091516.267500", "091514.875000", "091516.665000", "091515.075000", "091516.865000", "091515.272500", "091517.062500", "091515.472500", "091517.262500", "091514.675000", "091520.065000", "091517.480000", "091519.270000", "091517.680000", "091519.470000", "091517.877500", "091519.667500", "091518.077500", "091519.867500", "091518.475000", "091520.265000", "091518.675000", "091520.465000", "091518.872500", "091520.662500", "091519.072500", "091520.862500", "091518.275000", "091520.065000", "091517.480000", "091519.270000", "091517.680000", "091519.470000", "091517.877500", "091519.667500", "091518.077500", "091519.867500", "091518.475000", "091520.265000", "091518.675000", "091520.465000", "091518.872500", "091520.662500", "091519.072500", "091520.862500", "091518.275000", "091520.065000", "091517.480000", "091519.270000", "091517.680000", "091519.470000", "091517.877500", "091519.667500", "091518.077500", "091519.867500", "091518.475000", "091520.265000", "091518.675000", "091520.465000", "091518.872500", "091520.662500", "091519.072500", "091520.862500", "091518.275000", "091520.065000", "091517.480000", "091519.270000", "091517.680000", "091519.470000", "091517.877500", "091519.667500", "091518.077500", "091519.867500", "091518.475000", "091520.265000", "091518.675000", "091520.465000", "091518.872500", "091520.662500", "091519.072500", "091520.862500", "091518.275000", "091523.665000", "091521.080000", "091522.870000", "091521.280000", "091523.070000", "091521.477500", "091523.267500", "091521.677500", "091523.467500", "091522.075000", "091523.865000", "091522.275000", "091524.065000", "091522.472500", "091524.262500", "091522.672500", "091524.462500", "091521.875000", "091523.665000", "091521.080000", "091522.870000", "091521.280000", "091523.070000", "091521.477500", "091523.267500", "091521.677500", "091523.467500", "091522.075000", "091523.865000", "091522.275000", "091524.065000", "091522.472500", "091524.262500", "091522.672500", "091524.462500", "091521.875000", "091523.665000", "091521.080000", "091522.870000", "091521.280000", "091523.070000", "091521.477500", "091523.267500", "091521.677500", "091523.467500", "091522.075000", "091523.865000", "091522.275000", "091524.065000", "091522.472500", "091524.262500", "091522.672500", "091524.462500", "091521.875000", "091523.665000", "091521.080000", "091522.870000", "091521.280000", "091523.070000", "091521.477500", "091523.267500", "091521.677500", "091523.467500", "091522.075000", "091523.865000", "091522.275000", "091524.065000", "091522.472500", "091524.262500", "091522.672500", "091524.462500", "091521.875000", "091527.265000", "091524.680000", "091526.470000", "091524.880000", "091526.670000", "091525.077500", "091526.867500", "091525.277500", "091527.067500", "091525.675000", "091527.465000", "091525.875000", "091527.665000", "091526.072500", "091527.862500", "091526.272500", "091528.062500", "091525.475000", "091527.265000", "091524.680000", "091526.470000", "091524.880000", "091526.670000", "091525.077500", "091526.867500", "091525.277500", "091527.067500", "091525.675000", "091527.465000", "091525.875000", "091527.665000", "091526.072500", "091527.862500", "091526.272500", "091528.062500", "091525.475000", "091527.265000", "091524.680000", "091526.470000", "091524.880000", "091526.670000", "091525.077500", "091526.867500", "091525.277500", "091527.067500", "091525.675000", "091527.465000", "091525.875000", "091527.665000", "091526.072500", "091527.862500", "091526.272500", "091528.062500", "091525.475000", "091527.265000", "091524.680000", "091526.470000", "091524.880000", "091526.670000", "091525.077500", "091526.867500", "091525.277500", "091527.067500", "091525.675000", "091527.465000", "091525.875000", "091527.665000", "091526.072500", "091527.862500", "091526.272500", "091528.062500", "091525.475000", "091530.865000", "091528.280000", "091530.070000", "091528.480000", "091530.270000", "091528.677500", "091530.467500", "091528.877500", "091530.667500", "091529.275000", "091531.065000", "091529.475000", "091531.265000", "091529.672500", "091531.462500", "091529.872500", "091531.662500", "091529.075000", "091530.865000", "091528.280000", "091530.070000", "091528.480000", "091530.270000", "091528.677500", "091530.467500", "091528.877500", "091530.667500", "091529.275000", "091531.065000", "091529.475000", "091531.265000", "091529.672500", "091531.462500", "091529.872500", "091531.662500", "091529.075000", "091530.865000", "091528.280000", "091530.070000", "091528.480000", "091530.270000", "091528.677500", "091530.467500", "091528.877500", "091530.667500", "091529.275000", "091531.065000", "091529.475000", "091531.265000", "091529.672500", "091531.462500", "091529.872500", "091531.662500", "091529.075000", "091530.865000", "091528.280000", "091530.070000", "091528.480000", "091530.270000", "091528.677500", "091530.467500", "091528.877500", "091530.667500", "091529.275000", "091531.065000", "091529.475000", "091531.265000", "091529.672500", "091531.462500", "091529.872500", "091531.662500", "091529.075000", "091534.465000", "091531.880000", "091533.670000", "091532.080000", "091533.870000", "091532.277500", "091534.067500", "091532.477500", "091534.267500", "091532.875000", "091534.665000", "091533.075000", "091534.865000", "091533.272500", "091535.062500", "091533.472500", "091535.262500", "091532.675000", "091534.465000", "091531.880000", "091533.670000", "091532.080000", "091533.870000", "091532.277500", "091534.067500", "091532.477500", "091534.267500", "091532.875000", "091534.665000", "091533.075000", "091534.865000", "091533.272500", "091535.062500", "091533.472500", "091535.262500", "091532.675000", "091534.465000", "091531.880000", "091533.670000", "091532.080000", "091533.870000", "091532.277500", "091534.067500", "091532.477500", "091534.267500", "091532.875000", "091534.665000", "091533.075000", "091534.865000", "091533.272500", "091535.062500", "091533.472500", "091535.262500", "091532.675000", "091534.465000", "091531.880000", "091533.670000", "091532.080000", "091533.870000", "091532.277500", "091534.067500", "091532.477500", "091534.267500", "091532.875000", "091534.665000", "091533.075000", "091534.865000", "091533.272500", "091535.062500", "091533.472500", "091535.262500", "091532.675000", "091538.065000", "091535.480000", "091537.270000", "091535.680000", "091537.470000", "091535.877500", "091537.667500", "091536.077500", "091537.867500", "091536.475000", "091538.265000", "091536.675000", "091538.465000", "091536.872500", "091538.662500", "091537.072500", "091538.862500", "091536.275000", "091538.065000", "091535.480000", "091537.270000", "091535.680000", "091537.470000", "091535.877500", "091537.667500", "091536.077500", "091537.867500", "091536.475000", "091538.265000", "091536.675000", "091538.465000", "091536.872500", "091538.662500", "091537.072500", "091538.862500", "091536.275000", "091538.065000", "091535.480000", "091537.270000", "091535.680000", "091537.470000", "091535.877500", "091537.667500", "091536.077500", "091537.867500", "091536.475000", "091538.265000", "091536.675000", "091538.465000", "091536.872500", "091538.662500", "091537.072500", "091538.862500", "091536.275000", "091538.065000", "091535.480000", "091537.270000", "091535.680000", "091537.470000", "091535.877500", "091537.667500", "091536.077500", "091537.867500", "091536.475000", "091538.265000", "091536.675000", "091538.465000", "091536.872500", "091538.662500", "091537.072500", "091538.862500", "091536.275000", "091541.665000", "091539.080000", "091540.870000", "091539.280000", "091541.070000", "091539.477500", "091541.267500", "091539.677500", "091541.467500", "091540.075000", "091541.865000", "091540.275000", "091542.065000", "091540.472500", "091542.262500", "091540.672500", "091542.462500", "091539.875000", "091541.665000", "091539.080000", "091540.870000", "091539.280000", "091541.070000", "091539.477500", "091541.267500", "091539.677500", "091541.467500", "091540.075000", "091541.865000", "091540.275000", "091542.065000", "091540.472500", "091542.262500", "091540.672500", "091542.462500", "091539.875000", "091541.665000", "091539.080000", "091540.870000", "091539.280000", "091541.070000", "091539.477500", "091541.267500", "091539.677500", "091541.467500", "091540.075000", "091541.865000", "091540.275000", "091542.065000", "091540.472500", "091542.262500", "091540.672500", "091542.462500", "091539.875000", "091541.665000", "091539.080000", "091540.870000", "091539.280000", "091541.070000", "091539.477500", "091541.267500", "091539.677500", "091541.467500", "091540.075000", "091541.865000", "091540.275000", "091542.065000", "091540.472500", "091542.262500", "091540.672500", "091542.462500", "091539.875000", "091545.265000", "091542.680000", "091544.470000", "091542.880000", "091544.670000", "091543.077500", "091544.867500", "091543.277500", "091545.067500", "091543.675000", "091545.465000", "091543.875000", "091545.665000", "091544.072500", "091545.862500", "091544.272500", "091546.062500", "091543.475000", "091545.265000", "091542.680000", "091544.470000", "091542.880000", "091544.670000", "091543.077500", "091544.867500", "091543.277500", "091545.067500", "091543.675000", "091545.465000", "091543.875000", "091545.665000", "091544.072500", "091545.862500", "091544.272500", "091546.062500", "091543.475000", "091545.265000", "091542.680000", "091544.470000", "091542.880000", "091544.670000", "091543.077500", "091544.867500", "091543.277500", "091545.067500", "091543.675000", "091545.465000", "091543.875000", "091545.665000", "091544.072500", "091545.862500", "091544.272500", "091546.062500", "091543.475000", "091545.265000", "091542.680000", "091544.470000", "091542.880000", "091544.670000", "091543.077500", "091544.867500", "091543.277500", "091545.067500", "091543.675000", "091545.465000", "091543.875000", "091545.665000", "091544.072500", "091545.862500", "091544.272500", "091546.062500", "091543.475000", "091548.865000", "091546.280000", "091548.070000", "091546.480000", "091548.270000", "091546.677500", "091548.467500", "091546.877500", "091548.667500", "091547.275000", "091549.065000", "091547.475000", "091549.265000", "091547.672500", "091549.462500", "091547.872500", "091549.662500", "091547.075000", "091548.865000", "091546.280000", "091548.070000", "091546.480000", "091548.270000", "091546.677500", "091548.467500", "091546.877500", "091548.667500", "091547.275000", "091549.065000", "091547.475000", "091549.265000", "091547.672500", "091549.462500", "091547.872500", "091549.662500", "091547.075000", "091548.865000", "091546.280000", "091548.070000", "091546.480000", "091548.270000", "091546.677500", "091548.467500", "091546.877500", "091548.667500", "091547.275000", "091549.065000", "091547.475000", "091549.265000", "091547.672500", "091549.462500", "091547.872500", "091549.662500", "091547.075000", "091548.865000", "091546.280000", "091548.070000", "091546.480000", "091548.270000", "091546.677500", "091548.467500", "091546.877500", "091548.667500", "091547.275000", "091549.065000", "091547.475000", "091549.265000", "091547.672500", "091549.462500", "091547.872500", "091549.662500", "091547.075000", "091552.465000", "091549.880000", "091551.670000", "091550.080000", "091551.870000", "091550.277500", "091552.067500", "091550.477500", "091552.267500", "091550.875000", "091552.665000", "091551.075000", "091552.865000", "091551.272500", "091553.062500", "091551.472500", "091553.262500", "091550.675000", "091552.465000", "091549.880000", "091551.670000", "091550.080000", "091551.870000", "091550.277500", "091552.067500", "091550.477500", "091552.267500", "091550.875000", "091552.665000", "091551.075000", "091552.865000", "091551.272500", "091553.062500", "091551.472500", "091553.262500", "091550.675000", "091552.465000", "091549.880000", "091551.670000", "091550.080000", "091551.870000", "091550.277500", "091552.067500", "091550.477500", "091552.267500", "091550.875000", "091552.665000", "091551.075000", "091552.865000", "091551.272500", "091553.062500", "091551.472500", "091553.262500", "091550.675000", "091552.465000", "091549.880000", "091551.670000", "091550.080000", "091551.870000", "091550.277500", "091552.067500", "091550.477500", "091552.267500", "091550.875000", "091552.665000", "091551.075000", "091552.865000", "091551.272500", "091553.062500", "091551.472500", "091553.262500", "091550.675000", "091556.065000", "091553.480000", "091555.270000", "091553.680000", "091555.470000", "091553.877500", "091555.667500", "091554.077500", "091555.867500", "091554.475000", "091556.265000", "091554.675000", "091556.465000", "091554.872500", "091556.662500", "091555.072500", "091556.862500", "091554.275000", "091556.065000", "091553.480000", "091555.270000", "091553.680000", "091555.470000", "091553.877500", "091555.667500", "091554.077500", "091555.867500", "091554.475000", "091556.265000", "091554.675000", "091556.465000", "091554.872500", "091556.662500", "091555.072500", "091556.862500", "091554.275000", "091556.065000", "091553.480000", "091555.270000", "091553.680000", "091555.470000", "091553.877500", "091555.667500", "091554.077500", "091555.867500", "091554.475000", "091556.265000", "091554.675000", "091556.465000", "091554.872500", "091556.662500", "091555.072500", "091556.862500", "091554.275000", "091556.065000", "091553.480000", "091555.270000", "091553.680000", "091555.470000", "091553.877500", "091555.667500", "091554.077500", "091555.867500", "091554.475000", "091556.265000", "091554.675000", "091556.465000", "091554.872500", "091556.662500", "091555.072500", "091556.862500", "091554.275000", "091559.665000", "091557.080000", "091558.870000", "091557.280000", "091559.070000", "091557.477500", "091559.267500", "091557.677500", "091559.467500", "091558.075000", "091559.865000", "091558.275000", "091600.065000", "091558.472500", "091600.262500", "091558.672500", "091600.462500", "091557.875000", "091559.665000", "091557.080000", "091558.870000", "091557.280000", "091559.070000", "091557.477500", "091559.267500", "091557.677500", "091559.467500", "091558.075000", "091559.865000", "091558.275000", "091600.065000", "091558.472500", "091600.262500", "091558.672500", "091600.462500", "091557.875000", "091559.665000", "091557.080000", "091558.870000", "091557.280000", "091559.070000", "091557.477500", "091559.267500", "091557.677500", "091559.467500", "091558.075000", "091559.865000", "091558.275000", "091600.065000", "091558.472500", "091600.262500", "091558.672500", "091600.462500", "091557.875000", "091559.665000", "091557.080000", "091558.870000", "091557.280000", "091559.070000", "091557.477500", "091559.267500", "091557.677500", "091559.467500", "091558.075000", "091559.865000", "091558.275000", "091600.065000", "091558.472500", "091600.262500", "091558.672500", "091600.462500", "091557.875000", "091603.265000", "091600.680000", "091602.470000", "091600.880000", "091602.670000", "091601.077500", "091602.867500", "091601.277500", "091603.067500", "091601.675000", "091603.465000", "091601.875000", "091603.665000", "091602.072500", "091603.862500", "091602.272500", "091604.062500", "091601.475000", "091603.265000", "091600.680000", "091602.470000", "091600.880000", "091602.670000", "091601.077500", "091602.867500", "091601.277500", "091603.067500", "091601.675000", "091603.465000", "091601.875000", "091603.665000", "091602.072500", "091603.862500", "091602.272500", "091604.062500", "091601.475000", "091603.265000", "091600.680000", "091602.470000", "091600.880000", "091602.670000", "091601.077500", "091602.867500", "091601.277500", "091603.067500", "091601.675000", "091603.465000", "091601.875000", "091603.665000", "091602.072500", "091603.862500", "091602.272500", "091604.062500", "091601.475000", "091603.265000", "091600.680000", "091602.470000", "091600.880000", "091602.670000", "091601.077500", "091602.867500", "091601.277500", "091603.067500", "091601.675000", "091603.465000", "091601.875000", "091603.665000", "091602.072500", "091603.862500", "091602.272500", "091604.062500", "091601.475000", "091606.865000", "091604.280000", "091606.070000", "091604.480000", "091606.270000", "091604.677500", "091606.467500", "091604.877500", "091606.667500", "091605.275000", "091607.065000", "091605.475000", "091607.265000", "091605.672500", "091607.462500", "091605.872500", "091607.662500", "091605.075000", "091606.865000", "091604.280000", "091606.070000", "091604.480000", "091606.270000", "091604.677500", "091606.467500", "091604.877500", "091606.667500", "091605.275000", "091607.065000", "091605.475000", "091607.265000", "091605.672500", "091607.462500", "091605.872500", "091607.662500", "091605.075000", "091606.865000", "091604.280000", "091606.070000", "091604.480000", "091606.270000", "091604.677500", "091606.467500", "091604.877500", "091606.667500", "091605.275000", "091607.065000", "091605.475000", "091607.265000", "091605.672500", "091607.462500", "091605.872500", "091607.662500", "091605.075000", "091606.865000", "091604.280000", "091606.070000", "091604.480000", "091606.270000", "091604.677500", "091606.467500", "091604.877500", "091606.667500", "091605.275000", "091607.065000", "0