{
  "AcquisitionMatrixPE": 80,
  "AcquisitionNumber": 1,
  "AcquisitionTime": "09:42:44.202500",
  "BandwidthPerPixelPhaseEncode": 48.077,
  "BaseResolution": 80,
  "BodyPartExamined": "BRAIN",
  "CoilCombinationMethod": "Sum of Squares",
  "ConsistencyInfo": "N4_VE11C_LATEST_20160120",
  "ConversionSoftware": "dcm2niix",
  "ConversionSoftwareVersion": "v1.0.20220720",
  "DerivedVendorReportedEchoSpacing": 0.000519999,
  "DeviceSerialNumber": "66112",
  "DwellTime": 2.7e-06,
  "EchoTime": 0.035,
  "EchoTrainLength": 39,
  "EffectiveEchoSpacing": 0.00026,
  "FlipAngle": 90,
  "HeudiconvVersion": "0.13.1",
  "ImageOrientationPatientDICOM": [0.988236, 0.152728, 0.00801998, -0.147693, 0.939412, 0.30934],
  "ImageOrientationText": "Tra>Cor(17.9)>Sag(-2.3)",
  "ImageType": [
    "ORIGINAL",
    "PRIMARY",
    "M",
    "ND",
    "NORM",
    "MOSAIC"
],
  "ImagingFrequency": 123.252,
  "InPlanePhaseEncodingDirectionDICOM": "COL",
  "InstitutionAddress": "Maynard 3,Hanover,NH,US,03755",
  "InstitutionName": "Dartmouth College - PBS",
  "InstitutionalDepartmentName": "Department",
  "MRAcquisitionType": "2D",
  "MagneticFieldStrength": 3,
  "Manufacturer": "Siemens",
  "ManufacturersModelName": "Prisma",
  "MatrixCoilMode": "GRAPPA",
  "Modality": "MR",
  "NonlinearGradientCorrection": false,
  "ParallelReductionFactorInPlane": 2,
  "PartialFourier": 1,
  "PatientPosition": "HFS",
  "PercentPhaseFOV": 100,
  "PercentSampling": 100,
  "PhaseEncodingDirection": "j-",
  "PhaseEncodingSteps": 79,
  "PhaseResolution": 1,
  "PixelBandwidth": 2315,
  "ProcedureStepDescription": "dbic^QA",
  "ProtocolName": "func-bold_task-rest_acq-p2",
  "PulseSequenceDetails": "%SiemensSeq%\\ep2d_bold",
  "ReceiveCoilActiveElements": "HEA;HEP",
  "ReceiveCoilName": "Head_32",
  "ReconMatrixPE": 80,
  "RefLinesPE": 24,
  "RepetitionTime": 2,
  "SAR": 0.05582,
  "ScanOptions": "FS",
  "ScanningSequence": "EP",
  "SequenceName": "*epfid2d1_80",
  "SequenceVariant": "SK",
  "SeriesDescription": "func-bold_task-rest_acq-p2",
  "SeriesNumber": 5,
  "ShimSetting": [4147, -7687, -7515, 273, -38, -164, -24, 88],
  "SliceThickness": 3.5,
  "SliceTiming": [0.99, 0, 1.055, 0.065, 1.12, 0.13, 1.1875, 0.1975, 1.2525, 0.2625, 1.32, 0.33, 1.385, 0.395, 1.45, 0.46, 1.5175, 0.5275, 1.5825, 0.5925, 1.65, 0.66, 1.715, 0.725, 1.78, 0.79, 1.8475, 0.8575, 1.9125, 0.9225],
  "SoftwareVersions": "syngo MR E11",
  "SpacingBetweenSlices": 3.99,
  "StationName": "AWP66112",
  "TaskName": "rest",
  "TotalReadoutTime": 0.02054,
  "TxRefAmp": 226.98,
  "dcmmeta_affine": [
    [-2.964707136154175, -0.44307851791381836, -0.15844577550888062, 143.75343322753906],
    [-0.45818355679512024, 2.8182373046875, 1.2244713306427002, -101.45523834228516],
    [0.024059941992163658, -0.928019106388092, 3.7941620349884033, -26.91863441467285],
    [0.0, 0.0, 0.0, 1.0]
],
  "dcmmeta_reorient_transform": [
    [0.0, -1.0, 0.0, 79.0],
    [1.0, 0.0, 0.0, 0.0],
    [0.0, 0.0, 1.0, 0.0],
    [0.0, 0.0, 0.0, 1.0]
],
  "dcmmeta_shape": [80, 80, 30, 200],
  "dcmmeta_slice_dim": 2,
  "dcmmeta_version": 0.6,
  "global": {
    "const": {
      "AccessionNumber": "qa",
      "AcquisitionMatrix": [80, 0, 0, 80],
      "AngioFlag": "N",
      "BitsAllocated": 16,
      "BitsStored": 12,
      "BodyPartExamined": "BRAIN",
      "Columns": 480,
      "EchoNumbers": 1,
      "EchoTime": 35.0,
      "EchoTrainLength": 39,
      "FlipAngle": 90.0,
      "HighBit": 11,
      "ImageOrientationPatient": [0.98823574277738, 0.15272785143242, 0.008019980927, -0.1476928416055, 0.93941245882739, 0.30933971089786],
      "ImagePositionPatient": [-613.07597394964, -776.46969980155, -290.64796111561],
      "ImageType": [
        "ORIGINAL",
        "PRIMARY",
        "M",
        "ND",
        "NORM",
        "MOSAIC"
],
      "ImagedNucleus": "1H",
      "ImagingFrequency": 123.252415,
      "InPlanePhaseEncodingDirection": "COL",
      "MRAcquisitionType": "2D",
      "MagneticFieldStrength": 3.0,
      "Manufacturer": "SIEMENS",
      "ManufacturerModelName": "Prisma",
      "Modality": "MR",
      "NumberOfAverages": 1.0,
      "NumberOfPhaseEncodingSteps": 79,
      "PercentPhaseFieldOfView": 100.0,
      "PercentSampling": 100.0,
      "PerformedProcedureStepStartTime": "094115.130000",
      "PhotometricInterpretation": "MONOCHROME2",
      "PixelBandwidth": 2315.0,
      "PixelRepresentation": 0,
      "PixelSpacing": [3.0, 3.0],
      "ProtocolName": "func-bold_task-rest_acq-p2",
      "RepetitionTime": 2000.0,
      "Rows": 480,
      "SAR": 0.05582000206332,
      "SamplesPerPixel": 1,
      "ScanOptions": "FS",
      "ScanningSequence": "EP",
      "SequenceName": "*epfid2d1_80",
      "SequenceVariant": "SK",
      "SeriesDescription": "func-bold_task-rest_acq-p2",
      "SeriesNumber": 5,
      "SeriesTime": "094324.148000",
      "SliceLocation": -62.441056968886,
      "SliceThickness": 3.5,
      "SmallestImagePixelValue": 0,
      "SoftwareVersions": "syngo MR E11",
      "SpacingBetweenSlices": 3.9900000182276,
      "SpecificCharacterSet": "ISO_IR 100",
      "StudyID": "96",
      "StudyTime": "094115.036000",
      "TransmitCoilName": "Body",
      "VariableFlipAngleFlag": "N",
      "WindowCenterWidthExplanation": "Algo1",
      "dBdt": 0.0},
    "slices": {}
  },
  "time": {
    "samples": {
      "AcquisitionNumber": [1, 2, 3, 4, 5, 6, 7, 8, 9, 10, 11, 12, 13, 14, 15, 16, 17, 18, 19, 20, 21, 22, 23, 24, 25, 26, 27, 28, 29, 30, 31, 32, 33, 34, 35, 36, 37, 38, 39, 40, 41, 42, 43, 44, 45, 46, 47, 48, 49, 50, 51, 52, 53, 54, 55, 56, 57, 58, 59, 60, 61, 62, 63, 64, 65, 66, 67, 68, 69, 70, 71, 72, 73, 74, 75, 76, 77, 78, 79, 80, 81, 82, 83, 84, 85, 86, 87, 88, 89, 90, 91, 92, 93, 94, 95, 96, 97, 98, 99, 100, 101, 102, 103, 104, 105, 106, 107, 108, 109, 110, 111, 112, 113, 114, 115, 116, 117, 118, 119, 120, 121, 122, 123, 124, 125, 126, 127, 128, 129, 130, 131, 132, 133, 134, 135, 136, 137, 138, 139, 140, 141, 142, 143, 144, 145, 146, 147, 148, 149, 150, 151, 152, 153, 154, 155, 156, 157, 158, 159, 160, 161, 162, 163, 164, 165, 166, 167, 168, 169, 170, 171, 172, 173, 174, 175, 176, 177, 178, 179, 180, 181, 182, 183, 184, 185, 186, 187, 188, 189, 190, 191, 192, 193, 194, 195, 196, 197, 198, 199, 200],
      "AcquisitionTime": ["094244.202500", "094246.202500", "094248.202500", "094250.202500", "094252.202500", "094254.202500", "094256.202500", "094258.202500", "094300.202500", "094302.202500", "094304.202500", "094306.202500", "094308.202500", "094310.202500", "094312.202500", "094314.202500", "094316.202500", "094318.202500", "094320.202500", "094322.202500", "094324.202500", "094326.202500", "094328.202500", "094330.202500", "094332.202500", "094334.202500", "094336.202500", "094338.202500", "094340.202500", "094342.202500", "094344.202500", "094346.202500", "094348.202500", "094350.202500", "094352.202500", "094354.202500", "094356.202500", "094358.202500", "094400.202500", "094402.202500", "094404.202500", "094406.202500", "094408.202500", "094410.202500", "094412.202500", "094414.202500", "094416.202500", "094418.202500", "094420.202500", "094422.202500", "094424.202500", "094426.202500", "094428.202500", "094430.202500", "094432.202500", "094434.202500", "094436.202500", "094438.202500", "094440.202500", "094442.202500", "094444.202500", "094446.202500", "094448.202500", "094450.202500", "094452.202500", "094454.202500", "094456.202500", "094458.202500", "094500.202500", "094502.202500", "094504.202500", "094506.202500", "094508.202500", "094510.202500", "094512.202500", "094514.202500", "094516.202500", "094518.202500", "094520.202500", "094522.202500", "094524.202500", "094526.202500", "094528.202500", "094530.202500", "094532.202500", "094534.202500", "094536.202500", "094538.202500", "094540.202500", "094542.202500", "094544.202500", "094546.202500", "094548.202500", "094550.202500", "094552.202500", "094554.202500", "094556.202500", "094558.202500", "094600.202500", "094602.202500", "094604.202500", "094606.202500", "094608.202500", "094610.202500", "094612.202500", "094614.202500", "094616.202500", "094618.202500", "094620.202500", "094622.202500", "094624.202500", "094626.202500", "094628.202500", "094630.202500", "094632.202500", "094634.202500", "094636.202500", "094638.202500", "094640.202500", "094642.202500", "094644.202500", "094646.202500", "094648.202500", "094650.202500", "094652.202500", "094654.202500", "094656.202500", "094658.202500", "094700.202500", "094702.202500", "094704.202500", "094706.202500", "094708.202500", "094710.202500", "094712.202500", "094714.202500", "094716.202500", "094718.202500", "094720.202500", "094722.202500", "094724.202500", "094726.202500", "094728.202500", "094730.202500", "094732.202500", "094734.202500", "094736.202500", "094738.202500", "094740.202500", "094742.202500", "094744.202500", "094746.202500", "094748.202500", "094750.202500", "094752.202500", "094754.202500", "094756.202500", "094758.202500", "094800.202500", "094802.202500", "094804.202500", "094806.202500", "094808.202500", "094810.202500", "094812.202500", "094814.202500", "094816.202500", "094818.202500", "094820.202500", "094822.202500", "094824.202500", "094826.202500", "094828.202500", "094830.202500", "094832.202500", "094834.202500", "094836.202500", "094838.202500", "094840.202500", "094842.202500", "094844.202500", "094846.202500", "094848.202500", "094850.202500", "094852.202500", "094854.202500", "094856.202500", "094858.202500", "094900.202500", "094902.202500", "094904.202500", "094906.202500", "094908.202500", "094910.202500", "094912.202500", "094914.202500", "094916.202500", "094918.202500", "094920.202500", "094922.202500"],
      "ContentTime": ["094324.152000", "094324.155000", "094324.158000", "094324.161000", "094324.163000", "094324.166000", "094324.168000", "094324.171000", "094324.182000", "094324.184000", "094324.187000", "094324.189000", "094324.192000", "094324.195000", "094324.198000", "094324.200000", "094324.203000", "094324.205000", "094324.208000", "094324.211000", "094404.145000", "094404.148000", "094404.151000", "094404.153000", "094404.156000", "094404.159000", "094404.161000", "094404.164000", "094404.167000", "094404.182000", "094404.184000", "094404.187000", "094404.190000", "094404.192000", "094404.195000", "094404.198000", "094404.200000", "094404.203000", "094404.205000", "094404.212000", "094444.145000", "094444.148000", "094444.151000", "094444.153000", "094444.167000", "094444.169000", "094444.172000", "094444.175000", "094444.186000", "094444.189000", "094444.192000", "094444.194000", "094444.197000", "094444.199000", "094444.202000", "094444.204000", "094444.207000", "094444.210000", "094444.212000", "094444.215000", "094524.146000", "094524.148000", "094524.151000", "094524.154000", "094524.156000", "094524.159000", "094524.162000", "094524.164000", "094524.167000", "094524.170000", "094524.172000", "094524.175000", "094524.177000", "094524.180000", "094524.183000", "094524.185000", "094524.188000", "094524.190000", "094524.193000", "094524.196000", "094604.145000", "094604.148000", "094604.151000", "094604.153000", "094604.156000", "094604.159000", "094604.161000", "094604.164000", "094604.166000", "094604.169000", "094604.172000", "094604.174000", "094604.177000", "094604.179000", "094604.182000", "094604.184000", "094604.187000", "094604.190000", "094604.192000", "094604.195000", "094624.146000", "094624.148000", "094624.151000", "094624.154000", "094624.156000", "094624.159000", "094624.162000", "094624.164000", "094624.167000", "094624.169000", "094704.146000", "094704.148000", "094704.151000", "094704.154000", "094704.156000", "094704.201000", "094704.203000", "094704.206000", "094704.208000", "094704.211000", "094704.213000", "094704.216000", "094704.219000", "094704.221000", "094704.224000", "094704.226000", "094704.229000", "094704.232000", "094704.234000", "094704.237000", "094744.146000", "094744.148000", "094744.151000", "094744.154000", "094744.156000", "094744.159000", "094744.162000", "094744.164000", "094744.167000", "094744.169000", "094744.172000", "094744.174000", "094744.177000", "094744.180000", "094744.182000", "094744.185000", "094744.187000", "094744.190000", "094744.193000", "094744.195000", "094824.145000", "094824.148000", "094824.151000", "094824.153000", "094824.156000", "094824.159000", "094824.161000", "094824.164000", "094824.167000", "094824.169000", "094824.172000", "094824.174000", "094824.177000", "094824.179000", "094824.182000", "094824.185000", "094824.187000", "094824.190000", "094824.192000", "094824.195000", "094904.146000", "094904.148000", "094904.151000", "094904.154000", "094904.156000", "094904.159000", "094904.162000", "094904.165000", "094904.167000", "094904.170000", "094904.173000", "094904.175000", "094904.178000", "094904.180000", "094904.183000", "094904.185000", "094904.188000", "094904.191000", "094904.193000", "094904.196000", "094923.762000", "094923.765000", "094923.784000", "094923.787000", "094923.790000", "094923.792000", "094923.795000", "094923.798000", "094923.800000", "094923.803000"],
      "InstanceCreationTime": ["094324.152000", "094324.155000", "094324.158000", "094324.161000", "094324.163000", "094324.166000", "094324.168000", "094324.171000", "094324.182000", "094324.184000", "094324.187000", "094324.189000", "094324.192000", "094324.195000", "094324.198000", "094324.200000", "094324.203000", "094324.205000", "094324.208000", "094324.211000", "094404.145000", "094404.148000", "094404.151000", "094404.153000", "094404.156000", "094404.159000", "094404.161000", "094404.164000", "094404.167000", "094404.182000", "094404.184000", "094404.187000", "094404.190000", "094404.192000", "094404.195000", "094404.198000", "094404.200000", "094404.203000", "094404.205000", "094404.212000", "094444.145000", "094444.148000", "094444.151000", "094444.153000", "094444.167000", "094444.169000", "094444.172000", "094444.175000", "094444.186000", "094444.189000", "094444.192000", "094444.194000", "094444.197000", "094444.199000", "094444.202000", "094444.204000", "094444.207000", "094444.210000", "094444.212000", "094444.215000", "094524.146000", "094524.148000", "094524.151000", "094524.154000", "094524.156000", "094524.159000", "094524.162000", "094524.164000", "094524.167000", "094524.170000", "094524.172000", "094524.175000", "094524.177000", "094524.180000", "094524.183000", "094524.185000", "094524.188000", "094524.190000", "094524.193000", "094524.196000", "094604.145000", "094604.148000", "094604.151000", "094604.153000", "094604.156000", "094604.159000", "094604.161000", "094604.164000", "094604.166000", "094604.169000", "094604.172000", "094604.174000", "094604.177000", "094604.179000", "094604.182000", "094604.184000", "094604.187000", "094604.190000", "094604.192000", "094604.195000", "094624.146000", "094624.148000", "094624.151000", "094624.154000", "094624.156000", "094624.159000", "094624.162000", "094624.164000", "094624.167000", "094624.169000", "094704.146000", "094704.148000", "094704.151000", "094704.154000", "094704.156000", "094704.201000", "094704.203000", "094704.206000", "094704.208000", "094704.211000", "094704.213000", "094704.216000", "094704.219000", "094704.221000", "094704.224000", "094704.226000", "094704.229000", "094704.232000", "094704.234000", "094704.237000", "094744.146000", "094744.148000", "094744.151000", "094744.154000", "094744.156000", "094744.159000", "094744.162000", "094744.164000", "094744.167000", "094744.169000", "094744.172000", "094744.174000", "094744.177000", "094744.180000", "094744.182000", "094744.185000", "094744.187000", "094744.190000", "094744.193000", "094744.195000", "094824.145000", "094824.148000", "094824.151000", "094824.153000", "094824.156000", "094824.159000", "094824.161000", "094824.164000", "094824.167000", "094824.169000", "094824.172000", "094824.174000", "094824.177000", "094824.179000", "094824.182000", "094824.185000", "094824.187000", "094824.190000", "094824.192000", "094824.195000", "094904.146000", "094904.148000", "094904.151000", "094904.154000", "094904.156000", "094904.159000", "094904.162000", "094904.165000", "094904.167000", "094904.170000", "094904.173000", "094904.175000", "094904.178000", "094904.180000", "094904.183000", "094904.185000", "094904.188000", "094904.191000", "094904.193000", "094904.196000", "094923.762000", "094923.765000", "094923.784000", "094923.787000", "094923.790000", "094923.792000", "094923.795000", "094923.798000", "094923.800000", "094923.803000"],
      "InstanceNumber": [1, 2, 3, 4, 5, 6, 7, 8, 9, 10, 11, 12, 13, 14, 15, 16, 17, 18, 19, 20, 21, 22, 23, 24, 25, 26, 27, 28, 29, 30, 31, 32, 33, 34, 35, 36, 37, 38, 39, 40, 41, 42, 43, 44, 45, 46, 47, 48, 49, 50, 51, 52, 53, 54, 55, 56, 57, 58, 59, 60, 61, 62, 63, 64, 65, 66, 67, 68, 69, 70, 71, 72, 73, 74, 75, 76, 77, 78, 79, 80, 81, 82, 83, 84, 85, 86, 87, 88, 89, 90, 91, 92, 93, 94, 95, 96, 97, 98, 99, 100, 101, 102, 103, 104, 105, 106, 107, 108, 109, 110, 111, 112, 113, 114, 115, 116, 117, 118, 119, 120, 121, 122, 123, 124, 125, 126, 127, 128, 129, 130, 131, 132, 133, 134, 135, 136, 137, 138, 139, 140, 141, 142, 143, 144, 145, 146, 147, 148, 149, 150, 151, 152, 153, 154, 155, 156, 157, 158, 159, 160, 161, 162, 163, 164, 165, 166, 167, 168, 169, 170, 171, 172, 173, 174, 175, 176, 177, 178, 179, 180, 181, 182, 183, 184, 185, 186, 187, 188, 189, 190, 191, 192, 193, 194, 195, 196, 197, 198, 199, 200],
      "LargestImagePixelValue": [2047, 2044, 2055, 2045, 2057, 2045, 2046, 2048, 2048, 2053, 2046, 2053, 2043, 2042, 2052, 2054, 2049, 2044, 2044, 2046, 2047, 2042, 2044, 2047, 2043, 2042, 2045, 2044, 2042, 2047, 2047, 2048, 2052, 2043, 2043, 2050, 2050, 2051, 2043, 2044, 2045, 2048, 2056, 2050, 2052, 2049, 2047, 2048, 2053, 2043, 2045, 2050, 2049, 2054, 2045, 2050, 2049, 2055, 2044, 2049, 2045, 2047, 2043, 2047, 2045, 2050, 2044, 2047, 2051, 2047, 2048, 2047, 2043, 2052, 2044, 2044, 2047, 2052, 2048, 2051, 2045, 2044, 2043, 2046, 2044, 2045, 2048, 2050, 2045, 2044, 2052, 2039, 2045, 2042, 2053, 2049, 2044, 2044, 2046, 2043, 2050, 2047, 2047, 2042, 2048, 2045, 2047, 2043, 2042, 2045, 2048, 2041, 2046, 2044, 2047, 2056, 2043, 2048, 2054, 2044, 2042, 2050, 2054, 2047, 2049, 2046, 2046, 2048, 2052, 2045, 2049, 2051, 2044, 2044, 2048, 2052, 2045, 2044, 2046, 2051, 2052, 2039, 2051, 2045, 2045, 2044, 2047, 2057, 2042, 2039, 2056, 2053, 2051, 2047, 2044, 2044, 2052, 2048, 2050, 2044, 2046, 2042, 2046, 2049, 2041, 2045, 2048, 2045, 2050, 2048, 2044, 2045, 2050, 2045, 2050, 2046, 2042, 2050, 2052, 2046, 2053, 2044, 2054, 2045, 2043, 2046, 2047, 2046, 2047, 2044, 2046, 2047, 2042, 2048, 2049, 2048, 2046, 2053, 2044, 2041],
      "WindowCenter": [997.0, 996.0, 998.0, 997.0, 997.0, 997.0, 996.0, 997.0, 996.0, 996.0, 997.0, 997.0, 997.0, 996.0, 997.0, 996.0, 997.0, 997.0, 997.0, 996.0, 996.0, 996.0, 997.0, 996.0, 997.0, 996.0, 997.0, 996.0, 997.0, 996.0, 998.0, 996.0, 996.0, 997.0, 996.0, 997.0, 996.0, 996.0, 997.0, 997.0, 996.0, 997.0, 997.0, 997.0, 996.0, 996.0, 996.0, 997.0, 996.0, 997.0, 997.0, 997.0, 997.0, 997.0, 996.0, 997.0, 998.0, 997.0, 997.0, 997.0, 996.0, 996.0, 997.0, 996.0, 997.0, 996.0, 996.0, 996.0, 996.0, 996.0, 996.0, 996.0, 996.0, 996.0, 996.0, 996.0, 996.0, 996.0, 996.0, 997.0, 995.0, 996.0, 995.0, 996.0, 995.0, 996.0, 995.0, 996.0, 995.0, 996.0, 996.0, 996.0, 996.0, 995.0, 996.0, 996.0, 996.0, 996.0, 995.0, 995.0, 996.0, 996.0, 996.0, 996.0, 996.0, 995.0, 998.0, 996.0, 995.0, 996.0, 996.0, 996.0, 996.0, 996.0, 996.0, 996.0, 995.0, 995.0, 997.0, 995.0, 996.0, 995.0, 996.0, 996.0, 996.0, 996.0, 995.0, 995.0, 995.0, 995.0, 996.0, 995.0, 996.0, 995.0, 996.0, 996.0, 995.0, 997.0, 996.0, 996.0, 995.0, 997.0, 996.0, 995.0, 996.0, 996.0, 995.0, 996.0, 996.0, 996.0, 996.0, 996.0, 995.0, 997.0, 997.0, 995.0, 996.0, 995.0, 996.0, 996.0, 995.0, 995.0, 995.0, 995.0, 995.0, 995.0, 996.0, 995.0, 995.0, 995.0, 996.0, 996.0, 996.0, 995.0, 995.0, 996.0, 996.0, 996.0, 996.0, 996.0, 995.0, 996.0, 996.0, 995.0, 996.0, 996.0, 996.0, 996.0, 996.0, 996.0, 996.0, 995.0, 996.0, 995.0, 995.0, 995.0, 995.0, 995.0, 995.0, 996.0],
      "WindowWidth": [2192.0, 2191.0, 2193.0, 2192.0, 2191.0, 2191.0, 2191.0, 2192.0, 2191.0, 2191.0, 2191.0, 2191.0, 2191.0, 2191.0, 2191.0, 2191.0, 2191.0, 2191.0, 2191.0, 2190.0, 2190.0, 2190.0, 2191.0, 2190.0, 2190.0, 2190.0, 2190.0, 2190.0, 2190.0, 2190.0, 2191.0, 2190.0, 2190.0, 2190.0, 2190.0, 2191.0, 2189.0, 2190.0, 2190.0, 2190.0, 2189.0, 2190.0, 2190.0, 2190.0, 2190.0, 2190.0, 2189.0, 2190.0, 2190.0, 2190.0, 2190.0, 2190.0, 2190.0, 2190.0, 2189.0, 2190.0, 2191.0, 2190.0, 2190.0, 2191.0, 2189.0, 2189.0, 2190.0, 2190.0, 2189.0, 2189.0, 2189.0, 2189.0, 2189.0, 2189.0, 2189.0, 2189.0, 2190.0, 2189.0, 2189.0, 2189.0, 2189.0, 2190.0, 2189.0, 2190.0, 2189.0, 2189.0, 2188.0, 2189.0, 2188.0, 2189.0, 2188.0, 2189.0, 2189.0, 2189.0, 2189.0, 2189.0, 2189.0, 2188.0, 2189.0, 2189.0, 2189.0, 2189.0, 2189.0, 2188.0, 2189.0, 2189.0, 2189.0, 2189.0, 2189.0, 2188.0, 2190.0, 2190.0, 2188.0, 2189.0, 2189.0, 2190.0, 2189.0, 2189.0, 2189.0, 2189.0, 2188.0, 2188.0, 2190.0, 2188.0, 2189.0, 2188.0, 2188.0, 2189.0, 2189.0, 2189.0, 2188.0, 2188.0, 2188.0, 2188.0, 2189.0, 2188.0, 2189.0, 2188.0, 2188.0, 2189.0, 2188.0, 2189.0, 2188.0, 2188.0, 2188.0, 2189.0, 2189.0, 2188.0, 2188.0, 2189.0, 2188.0, 2188.0, 2188.0, 2189.0, 2188.0, 2189.0, 2188.0, 2190.0, 2190.0, 2188.0, 2188.0, 2188.0, 2188.0, 2188.0, 2188.0, 2188.0, 2187.0, 2187.0, 2187.0, 2188.0, 2188.0, 2188.0, 2187.0, 2187.0, 2189.0, 2188.0, 2188.0, 2187.0, 2187.0, 2189.0, 2188.0, 2188.0, 2189.0, 2188.0, 2188.0, 2188.0, 2189.0, 2188.0, 2188.0, 2188.0, 2188.0, 2188.0, 2188.0, 2188.0, 2188.0, 2187.0, 2188.0, 2187.0, 2187.0, 2187.0, 2187.0, 2187.0, 2187.0, 2188.0]
    },
    "slices": {}
  }
}