{
  "AcquisitionMatrixPE": 122,
  "AcquisitionNumber": 1,
  "AcquisitionTime": "09:28:6.465000",
  "BandwidthPerPixelPhaseEncode": 27.785,
  "BaseResolution": 122,
  "BodyPartExamined": "BRAIN",
  "CoilCombinationMethod": "Adaptive Combine",
  "ConsistencyInfo": "N4_VE11C_LATEST_20160120",
  "ConversionSoftware": "dcm2niix",
  "ConversionSoftwareVersion": "v1.0.20220720",
  "DerivedVendorReportedEchoSpacing": 0.000590011,
  "DeviceSerialNumber": "66112",
  "DiffusionScheme": "Monopolar",
  "DwellTime": 2e-06,
  "EchoTime": 0.068,
  "EchoTrainLength": 61,
  "EffectiveEchoSpacing": 0.000295005,
  "FlipAngle": 90,
  "HeudiconvVersion": "0.13.1",
  "ImageOrientationPatientDICOM": [0.984942, 0.17233, 0.0138435, -0.168359, 0.937876, 0.303387],
  "ImageOrientationText": "Tra>Cor(17.5)>Sag(-2.3)",
  "ImageType": [
    "ORIGINAL",
    "PRIMARY",
    "DIFFUSION",
    "NONE",
    "ND",
    "NORM"
],
  "ImagingFrequency": 123.252,
  "InPlanePhaseEncodingDirectionDICOM": "COL",
  "InstitutionAddress": "Maynard 3,Hanover,NH,US,03755",
  "InstitutionName": "Dartmouth College - PBS",
  "InstitutionalDepartmentName": "Department",
  "MRAcquisitionType": "2D",
  "MagneticFieldStrength": 3,
  "Manufacturer": "Siemens",
  "ManufacturersModelName": "Prisma",
  "Modality": "MR",
  "MultibandAccelerationFactor": 4,
  "NonlinearGradientCorrection": false,
  "ParallelReductionFactorInPlane": 2,
  "PartialFourier": 1,
  "PatientPosition": "HFS",
  "PercentPhaseFOV": 100,
  "PercentSampling": 100,
  "PhaseEncodingDirection": "j-",
  "PhaseEncodingSteps": 122,
  "PhaseResolution": 1,
  "PixelBandwidth": 2050,
  "ProcedureStepDescription": "dbic^QA",
  "ProtocolName": "dwi_acq-DTI-30-p2-s4",
  "PulseSequenceDetails": "%SiemensSeq%\\ep2d_diff",
  "ReceiveCoilActiveElements": "HEA;HEP",
  "ReceiveCoilName": "Head_32",
  "ReconMatrixPE": 122,
  "RefLinesPE": 38,
  "RepetitionTime": 3.6,
  "SAR": 0.160209,
  "ScanOptions": "FS",
  "ScanningSequence": "EP",
  "SequenceName": "*ep_b0",
  "SequenceVariant": "SK\\SP",
  "SeriesDescription": "dwi_acq-DTI-30-p2-s4",
  "SeriesNumber": 9,
  "ShimSetting": [4148, -7695, -7518, 254, -46, -111, -32, 58],
  "SliceThickness": 2,
  "SliceTiming": [2.59375, 0, 1.78906, 0.20312, 1.99219, 0.39844, 2.1875, 0.60156, 2.39062, 1, 2.78906, 1.19531, 2.98438, 1.39844, 3.1875, 1.59375, 3.38281, 0.79688, 2.59375, 0, 1.78906, 0.20312, 1.99219, 0.39844, 2.1875, 0.60156, 2.39062, 1, 2.78906, 1.19531, 2.98438, 1.39844, 3.1875, 1.59375, 3.38281, 0.79688, 2.59375, 0, 1.78906, 0.20312, 1.99219, 0.39844, 2.1875, 0.60156, 2.39062, 1, 2.78906, 1.19531, 2.98438, 1.39844, 3.1875, 1.59375, 3.38281, 0.79688, 2.59375, 0, 1.78906, 0.20312, 1.99219, 0.39844, 2.1875, 0.60156, 2.39062, 1, 2.78906, 1.19531, 2.98438, 1.39844, 3.1875, 1.59375, 3.38281, 0.79688],
  "SoftwareVersions": "syngo MR E11",
  "SpacingBetweenSlices": 2,
  "SpoilingState": true,
  "StationName": "AWP66112",
  "TotalReadoutTime": 0.0356956,
  "TxRefAmp": 231.766,
  "dcmmeta_affine": [
    [-1.9375908374786377, -0.33119839429855347, -0.0785982608795166, 146.50148010253906],
    [-0.3390096127986908, 1.8450024127960205, 0.6022968292236328, -105.33465576171875],
    [0.02723321132361889, -0.5968260169029236, 1.9055328369140625, -24.893383026123047],
    [0.0, 0.0, 0.0, 1.0]
],
  "dcmmeta_reorient_transform": [
    [0.0, -1.0, 0.0, 121.0],
    [1.0, 0.0, 0.0, 0.0],
    [0.0, 0.0, -1.0, 71.0],
    [0.0, 0.0, 0.0, 1.0]
],
  "dcmmeta_shape": [122, 122, 72, 31],
  "dcmmeta_slice_dim": 2,
  "dcmmeta_version": 0.6,
  "global": {
    "const": {
      "AccessionNumber": "qa",
      "AcquisitionMatrix": [122, 0, 0, 122],
      "AngioFlag": "N",
      "BitsAllocated": 16,
      "BitsStored": 12,
      "BodyPartExamined": "BRAIN",
      "Columns": 122,
      "EchoNumbers": 1,
      "EchoTime": 68.0,
      "EchoTrainLength": 61,
      "FlipAngle": 90.0,
      "HighBit": 11,
      "ImageOrientationPatient": [0.98494201358382, 0.17232987565583, 0.01384354845766, -0.1683591878065, 0.93787621301121, 0.3033865404874],
      "ImageType": [
        "ORIGINAL",
        "PRIMARY",
        "DIFFUSION",
        "NONE",
        "ND",
        "NORM"
],
      "ImagedNucleus": "1H",
      "ImagingFrequency": 123.252422,
      "InPlanePhaseEncodingDirection": "COL",
      "MRAcquisitionType": "2D",
      "MagneticFieldStrength": 3.0,
      "Manufacturer": "SIEMENS",
      "ManufacturerModelName": "Prisma",
      "Modality": "MR",
      "NumberOfAverages": 1.0,
      "NumberOfPhaseEncodingSteps": 122,
      "PercentPhaseFieldOfView": 100.0,
      "PercentSampling": 100.0,
      "PerformedProcedureStepStartTime": "085922.681000",
      "PhotometricInterpretation": "MONOCHROME2",
      "PixelBandwidth": 2050.0,
      "PixelRepresentation": 0,
      "PixelSpacing": [1.9672131538391, 1.9672131538391],
      "ProtocolName": "dwi_acq-DTI-30-p2-s4",
      "RepetitionTime": 3600.0,
      "Rows": 122,
      "SAR": 0.16020934110182,
      "SamplesPerPixel": 1,
      "ScanOptions": "FS",
      "ScanningSequence": "EP",
      "SequenceVariant": [
        "SK",
        "SP"
],
      "SeriesDescription": "dwi_acq-DTI-30-p2-s4",
      "SeriesNumber": 9,
      "SeriesTime": "092815.930000",
      "SliceThickness": 2.0,
      "SmallestImagePixelValue": 0,
      "SoftwareVersions": "syngo MR E11",
      "SpacingBetweenSlices": 2.0,
      "SpecificCharacterSet": "ISO_IR 100",
      "StudyID": "89",
      "StudyTime": "085922.606000",
      "TransmitCoilName": "Body",
      "VariableFlipAngleFlag": "N",
      "WindowCenterWidthExplanation": "Algo1",
      "dBdt": 0.0},
    "slices": {
      "AcquisitionTime": ["092806.465000", "092803.877500", "092805.667500", "092804.077500", "092805.867500", "092804.275000", "092806.065000", "092804.475000", "092806.265000", "092804.872500", "092806.662500", "092805.072500", "092806.862500", "092805.270000", "092807.060000", "092805.470000", "092807.260000", "092804.675000", "092806.465000", "092803.877500", "092805.667500", "092804.077500", "092805.867500", "092804.275000", "092806.065000", "092804.475000", "092806.265000", "092804.872500", "092806.662500", "092805.072500", "092806.862500", "092805.270000", "092807.060000", "092805.470000", "092807.260000", "092804.675000", "092806.465000", "092803.877500", "092805.667500", "092804.077500", "092805.867500", "092804.275000", "092806.065000", "092804.475000", "092806.265000", "092804.872500", "092806.662500", "092805.072500", "092806.862500", "092805.270000", "092807.060000", "092805.470000", "092807.260000", "092804.675000", "092806.465000", "092803.877500", "092805.667500", "092804.077500", "092805.867500", "092804.275000", "092806.065000", "092804.475000", "092806.265000", "092804.872500", "092806.662500", "092805.072500", "092806.862500", "092805.270000", "092807.060000", "092805.470000", "092807.260000", "092804.675000", "092810.065000", "092807.477500", "092809.267500", "092807.677500", "092809.467500", "092807.875000", "092809.665000", "092808.075000", "092809.865000", "092808.472500", "092810.262500", "092808.672500", "092810.462500", "092808.870000", "092810.660000", "092809.070000", "092810.860000", "092808.275000", "092810.065000", "092807.477500", "092809.267500", "092807.677500", "092809.467500", "092807.875000", "092809.665000", "092808.075000", "092809.865000", "092808.472500", "092810.262500", "092808.672500", "092810.462500", "092808.870000", "092810.660000", "092809.070000", "092810.860000", "092808.275000", "092810.065000", "092807.477500", "092809.267500", "092807.677500", "092809.467500", "092807.875000", "092809.665000", "092808.075000", "092809.865000", "092808.472500", "092810.262500", "092808.672500", "092810.462500", "092808.870000", "092810.660000", "092809.070000", "092810.860000", "092808.275000", "092810.065000", "092807.477500", "092809.267500", "092807.677500", "092809.467500", "092807.875000", "092809.665000", "092808.075000", "092809.865000", "092808.472500", "092810.262500", "092808.672500", "092810.462500", "092808.870000", "092810.660000", "092809.070000", "092810.860000", "092808.275000", "092813.665000", "092811.077500", "092812.867500", "092811.277500", "092813.067500", "092811.475000", "092813.265000", "092811.675000", "092813.465000", "092812.072500", "092813.862500", "092812.272500", "092814.062500", "092812.470000", "092814.260000", "092812.670000", "092814.460000", "092811.875000", "092813.665000", "092811.077500", "092812.867500", "092811.277500", "092813.067500", "092811.475000", "092813.265000", "092811.675000", "092813.465000", "092812.072500", "092813.862500", "092812.272500", "092814.062500", "092812.470000", "092814.260000", "092812.670000", "092814.460000", "092811.875000", "092813.665000", "092811.077500", "092812.867500", "092811.277500", "092813.067500", "092811.475000", "092813.265000", "092811.675000", "092813.465000", "092812.072500", "092813.862500", "092812.272500", "092814.062500", "092812.470000", "092814.260000", "092812.670000", "092814.460000", "092811.875000", "092813.665000", "092811.077500", "092812.867500", "092811.277500", "092813.067500", "092811.475000", "092813.265000", "092811.675000", "092813.465000", "092812.072500", "092813.862500", "092812.272500", "092814.062500", "092812.470000", "092814.260000", "092812.670000", "092814.460000", "092811.875000", "092817.265000", "092814.677500", "092816.467500", "092814.877500", "092816.667500", "092815.075000", "092816.865000", "092815.275000", "092817.065000", "092815.672500", "092817.462500", "092815.872500", "092817.662500", "092816.070000", "092817.860000", "092816.270000", "092818.060000", "092815.475000", "092817.265000", "092814.677500", "092816.467500", "092814.877500", "092816.667500", "092815.075000", "092816.865000", "092815.275000", "092817.065000", "092815.672500", "092817.462500", "092815.872500", "092817.662500", "092816.070000", "092817.860000", "092816.270000", "092818.060000", "092815.475000", "092817.265000", "092814.677500", "092816.467500", "092814.877500", "092816.667500", "092815.075000", "092816.865000", "092815.275000", "092817.065000", "092815.672500", "092817.462500", "092815.872500", "092817.662500", "092816.070000", "092817.860000", "092816.270000", "092818.060000", "092815.475000", "092817.265000", "092814.677500", "092816.467500", "092814.877500", "092816.667500", "092815.075000", "092816.865000", "092815.275000", "092817.065000", "092815.672500", "092817.462500", "092815.872500", "092817.662500", "092816.070000", "092817.860000", "092816.270000", "092818.060000", "092815.475000", "092820.865000", "092818.277500", "092820.067500", "092818.477500", "092820.267500", "092818.675000", "092820.465000", "092818.875000", "092820.665000", "092819.272500", "092821.062500", "092819.472500", "092821.262500", "092819.670000", "092821.460000", "092819.870000", "092821.660000", "092819.075000", "092820.865000", "092818.277500", "092820.067500", "092818.477500", "092820.267500", "092818.675000", "092820.465000", "092818.875000", "092820.665000", "092819.272500", "092821.062500", "092819.472500", "092821.262500", "092819.670000", "092821.460000", "092819.870000", "092821.660000", "092819.075000", "092820.865000", "092818.277500", "092820.067500", "092818.477500", "092820.267500", "092818.675000", "092820.465000", "092818.875000", "092820.665000", "092819.272500", "092821.062500", "092819.472500", "092821.262500", "092819.670000", "092821.460000", "092819.870000", "092821.660000", "092819.075000", "092820.865000", "092818.277500", "092820.067500", "092818.477500", "092820.267500", "092818.675000", "092820.465000", "092818.875000", "092820.665000", "092819.272500", "092821.062500", "092819.472500", "092821.262500", "092819.670000", "092821.460000", "092819.870000", "092821.660000", "092819.075000", "092824.465000", "092821.877500", "092823.667500", "092822.077500", "092823.867500", "092822.275000", "092824.065000", "092822.475000", "092824.265000", "092822.872500", "092824.662500", "092823.072500", "092824.862500", "092823.270000", "092825.060000", "092823.470000", "092825.260000", "092822.675000", "092824.465000", "092821.877500", "092823.667500", "092822.077500", "092823.867500", "092822.275000", "092824.065000", "092822.475000", "092824.265000", "092822.872500", "092824.662500", "092823.072500", "092824.862500", "092823.270000", "092825.060000", "092823.470000", "092825.260000", "092822.675000", "092824.465000", "092821.877500", "092823.667500", "092822.077500", "092823.867500", "092822.275000", "092824.065000", "092822.475000", "092824.265000", "092822.872500", "092824.662500", "092823.072500", "092824.862500", "092823.270000", "092825.060000", "092823.470000", "092825.260000", "092822.675000", "092824.465000", "092821.877500", "092823.667500", "092822.077500", "092823.867500", "092822.275000", "092824.065000", "092822.475000", "092824.265000", "092822.872500", "092824.662500", "092823.072500", "092824.862500", "092823.270000", "092825.060000", "092823.470000", "092825.260000", "092822.675000", "092828.065000", "092825.477500", "092827.267500", "092825.677500", "092827.467500", "092825.875000", "092827.665000", "092826.075000", "092827.865000", "092826.472500", "092828.262500", "092826.672500", "092828.462500", "092826.870000", "092828.660000", "092827.070000", "092828.860000", "092826.275000", "092828.065000", "092825.477500", "092827.267500", "092825.677500", "092827.467500", "092825.875000", "092827.665000", "092826.075000", "092827.865000", "092826.472500", "092828.262500", "092826.672500", "092828.462500", "092826.870000", "092828.660000", "092827.070000", "092828.860000", "092826.275000", "092828.065000", "092825.477500", "092827.267500", "092825.677500", "092827.467500", "092825.875000", "092827.665000", "092826.075000", "092827.865000", "092826.472500", "092828.262500", "092826.672500", "092828.462500", "092826.870000", "092828.660000", "092827.070000", "092828.860000", "092826.275000", "092828.065000", "092825.477500", "092827.267500", "092825.677500", "092827.467500", "092825.875000", "092827.665000", "092826.075000", "092827.865000", "092826.472500", "092828.262500", "092826.672500", "092828.462500", "092826.870000", "092828.660000", "092827.070000", "092828.860000", "092826.275000", "092831.665000", "092829.077500", "092830.867500", "092829.277500", "092831.067500", "092829.475000", "092831.265000", "092829.675000", "092831.465000", "092830.072500", "092831.862500", "092830.272500", "092832.062500", "092830.470000", "092832.260000", "092830.670000", "092832.460000", "092829.875000", "092831.665000", "092829.077500", "092830.867500", "092829.277500", "092831.067500", "092829.475000", "092831.265000", "092829.675000", "092831.465000", "092830.072500", "092831.862500", "092830.272500", "092832.062500", "092830.470000", "092832.260000", "092830.670000", "092832.460000", "092829.875000", "092831.665000", "092829.077500", "092830.867500", "092829.277500", "092831.067500", "092829.475000", "092831.265000", "092829.675000", "092831.465000", "092830.072500", "092831.862500", "092830.272500", "092832.062500", "092830.470000", "092832.260000", "092830.670000", "092832.460000", "092829.875000", "092831.665000", "092829.077500", "092830.867500", "092829.277500", "092831.067500", "092829.475000", "092831.265000", "092829.675000", "092831.465000", "092830.072500", "092831.862500", "092830.272500", "092832.062500", "092830.470000", "092832.260000", "092830.670000", "092832.460000", "092829.875000", "092835.265000", "092832.677500", "092834.467500", "092832.877500", "092834.667500", "092833.075000", "092834.865000", "092833.275000", "092835.065000", "092833.672500", "092835.462500", "092833.872500", "092835.662500", "092834.070000", "092835.860000", "092834.270000", "092836.060000", "092833.475000", "092835.265000", "092832.677500", "092834.467500", "092832.877500", "092834.667500", "092833.075000", "092834.865000", "092833.275000", "092835.065000", "092833.672500", "092835.462500", "092833.872500", "092835.662500", "092834.070000", "092835.860000", "092834.270000", "092836.060000", "092833.475000", "092835.265000", "092832.677500", "092834.467500", "092832.877500", "092834.667500", "092833.075000", "092834.865000", "092833.275000", "092835.065000", "092833.672500", "092835.462500", "092833.872500", "092835.662500", "092834.070000", "092835.860000", "092834.270000", "092836.060000", "092833.475000", "092835.265000", "092832.677500", "092834.467500", "092832.877500", "092834.667500", "092833.075000", "092834.865000", "092833.275000", "092835.065000", "092833.672500", "092835.462500", "092833.872500", "092835.662500", "092834.070000", "092835.860000", "092834.270000", "092836.060000", "092833.475000", "092838.865000", "092836.277500", "092838.067500", "092836.477500", "092838.267500", "092836.675000", "092838.465000", "092836.875000", "092838.665000", "092837.272500", "092839.062500", "092837.472500", "092839.262500", "092837.670000", "092839.460000", "092837.870000", "092839.660000", "092837.075000", "092838.865000", "092836.277500", "092838.067500", "092836.477500", "092838.267500", "092836.675000", "092838.465000", "092836.875000", "092838.665000", "092837.272500", "092839.062500", "092837.472500", "092839.262500", "092837.670000", "092839.460000", "092837.870000", "092839.660000", "092837.075000", "092838.865000", "092836.277500", "092838.067500", "092836.477500", "092838.267500", "092836.675000", "092838.465000", "092836.875000", "092838.665000", "092837.272500", "092839.062500", "092837.472500", "092839.262500", "092837.670000", "092839.460000", "092837.870000", "092839.660000", "092837.075000", "092838.865000", "092836.277500", "092838.067500", "092836.477500", "092838.267500", "092836.675000", "092838.465000", "092836.875000", "092838.665000", "092837.272500", "092839.062500", "092837.472500", "092839.262500", "092837.670000", "092839.460000", "092837.870000", "092839.660000", "092837.075000", "092842.465000", "092839.877500", "092841.667500", "092840.077500", "092841.867500", "092840.275000", "092842.065000", "092840.475000", "092842.265000", "092840.872500", "092842.662500", "092841.072500", "092842.862500", "092841.270000", "092843.060000", "092841.470000", "092843.260000", "092840.675000", "092842.465000", "092839.877500", "092841.667500", "092840.077500", "092841.867500", "092840.275000", "092842.065000", "092840.475000", "092842.265000", "092840.872500", "092842.662500", "092841.072500", "092842.862500", "092841.270000", "092843.060000", "092841.470000", "092843.260000", "092840.675000", "092842.465000", "092839.877500", "092841.667500", "092840.077500", "092841.867500", "092840.275000", "092842.065000", "092840.475000", "092842.265000", "092840.872500", "092842.662500", "092841.072500", "092842.862500", "092841.270000", "092843.060000", "092841.470000", "092843.260000", "092840.675000", "092842.465000", "092839.877500", "092841.667500", "092840.077500", "092841.867500", "092840.275000", "092842.065000", "092840.475000", "092842.265000", "092840.872500", "092842.662500", "092841.072500", "092842.862500", "092841.270000", "092843.060000", "092841.470000", "092843.260000", "092840.675000", "092846.065000", "092843.477500", "092845.267500", "092843.677500", "092845.467500", "092843.875000", "092845.665000", "092844.075000", "092845.865000", "092844.472500", "092846.262500", "092844.672500", "092846.462500", "092844.870000", "092846.660000", "092845.070000", "092846.860000", "092844.275000", "092846.065000", "092843.477500", "092845.267500", "092843.677500", "092845.467500", "092843.875000", "092845.665000", "092844.075000", "092845.865000", "092844.472500", "092846.262500", "092844.672500", "092846.462500", "092844.870000", "092846.660000", "092845.070000", "092846.860000", "092844.275000", "092846.065000", "092843.477500", "092845.267500", "092843.677500", "092845.467500", "092843.875000", "092845.665000", "092844.075000", "092845.865000", "092844.472500", "092846.262500", "092844.672500", "092846.462500", "092844.870000", "092846.660000", "092845.070000", "092846.860000", "092844.275000", "092846.065000", "092843.477500", "092845.267500", "092843.677500", "092845.467500", "092843.875000", "092845.665000", "092844.075000", "092845.865000", "092844.472500", "092846.262500", "092844.672500", "092846.462500", "092844.870000", "092846.660000", "092845.070000", "092846.860000", "092844.275000", "092849.665000", "092847.077500", "092848.867500", "092847.277500", "092849.067500", "092847.475000", "092849.265000", "092847.675000", "092849.465000", "092848.072500", "092849.862500", "092848.272500", "092850.062500", "092848.470000", "092850.260000", "092848.670000", "092850.460000", "092847.875000", "092849.665000", "092847.077500", "092848.867500", "092847.277500", "092849.067500", "092847.475000", "092849.265000", "092847.675000", "092849.465000", "092848.072500", "092849.862500", "092848.272500", "092850.062500", "092848.470000", "092850.260000", "092848.670000", "092850.460000", "092847.875000", "092849.665000", "092847.077500", "092848.867500", "092847.277500", "092849.067500", "092847.475000", "092849.265000", "092847.675000", "092849.465000", "092848.072500", "092849.862500", "092848.272500", "092850.062500", "092848.470000", "092850.260000", "092848.670000", "092850.460000", "092847.875000", "092849.665000", "092847.077500", "092848.867500", "092847.277500", "092849.067500", "092847.475000", "092849.265000", "092847.675000", "092849.465000", "092848.072500", "092849.862500", "092848.272500", "092850.062500", "092848.470000", "092850.260000", "092848.670000", "092850.460000", "092847.875000", "092853.265000", "092850.677500", "092852.467500", "092850.877500", "092852.667500", "092851.075000", "092852.865000", "092851.275000", "092853.065000", "092851.672500", "092853.462500", "092851.872500", "092853.662500", "092852.070000", "092853.860000", "092852.270000", "092854.060000", "092851.475000", "092853.265000", "092850.677500", "092852.467500", "092850.877500", "092852.667500", "092851.075000", "092852.865000", "092851.275000", "092853.065000", "092851.672500", "092853.462500", "092851.872500", "092853.662500", "092852.070000", "092853.860000", "092852.270000", "092854.060000", "092851.475000", "092853.265000", "092850.677500", "092852.467500", "092850.877500", "092852.667500", "092851.075000", "092852.865000", "092851.275000", "092853.065000", "092851.672500", "092853.462500", "092851.872500", "092853.662500", "092852.070000", "092853.860000", "092852.270000", "092854.060000", "092851.475000", "092853.265000", "092850.677500", "092852.467500", "092850.877500", "092852.667500", "092851.075000", "092852.865000", "092851.275000", "092853.065000", "092851.672500", "092853.462500", "092851.872500", "092853.662500", "092852.070000", "092853.860000", "092852.270000", "092854.060000", "092851.475000", "092856.865000", "092854.277500", "092856.067500", "092854.477500", "092856.267500", "092854.675000", "092856.465000", "092854.875000", "092856.665000", "092855.272500", "092857.062500", "092855.472500", "092857.262500", "092855.670000", "092857.460000", "092855.870000", "092857.660000", "092855.075000", "092856.865000", "092854.277500", "092856.067500", "092854.477500", "092856.267500", "092854.675000", "092856.465000", "092854.875000", "092856.665000", "092855.272500", "092857.062500", "092855.472500", "092857.262500", "092855.670000", "092857.460000", "092855.870000", "092857.660000", "092855.075000", "092856.865000", "092854.277500", "092856.067500", "092854.477500", "092856.267500", "092854.675000", "092856.465000", "092854.875000", "092856.665000", "092855.272500", "092857.062500", "092855.472500", "092857.262500", "092855.670000", "092857.460000", "092855.870000", "092857.660000", "092855.075000", "092856.865000", "092854.277500", "092856.067500", "092854.477500", "092856.267500", "092854.675000", "092856.465000", "092854.875000", "092856.665000", "092855.272500", "092857.062500", "092855.472500", "092857.262500", "092855.670000", "092857.460000", "092855.870000", "092857.660000", "092855.075000", "092900.465000", "092857.877500", "092859.667500", "092858.077500", "092859.867500", "092858.275000", "092900.065000", "092858.475000", "092900.265000", "092858.872500", "092900.662500", "092859.072500", "092900.862500", "092859.270000", "092901.060000", "092859.470000", "092901.260000", "092858.675000", "092900.465000", "092857.877500", "092859.667500", "092858.077500", "092859.867500", "092858.275000", "092900.065000", "092858.475000", "092900.265000", "092858.872500", "092900.662500", "092859.072500", "092900.862500", "092859.270000", "092901.060000", "092859.470000", "092901.260000", "092858.675000", "092900.465000", "092857.877500", "092859.667500", "092858.077500", "092859.867500", "092858.275000", "092900.065000", "092858.475000", "092900.265000", "092858.872500", "092900.662500", "092859.072500", "092900.862500", "092859.270000", "092901.060000", "092859.470000", "092901.260000", "092858.675000", "092900.465000", "092857.877500", "092859.667500", "092858.077500", "092859.867500", "092858.275000", "092900.065000", "092858.475000", "092900.265000", "092858.872500", "092900.662500", "092859.072500", "092900.862500", "092859.270000", "092901.060000", "092859.470000", "092901.260000", "092858.675000", "092904.065000", "092901.477500", "092903.267500", "092901.677500", "092903.467500", "092901.875000", "092903.665000", "092902.075000", "092903.865000", "092902.472500", "092904.262500", "092902.672500", "092904.462500", "092902.870000", "092904.660000", "092903.070000", "092904.860000", "092902.275000", "092904.065000", "092901.477500", "092903.267500", "092901.677500", "092903.467500", "092901.875000", "092903.665000", "092902.075000", "092903.865000", "092902.472500", "092904.262500", "092902.672500", "092904.462500", "092902.870000", "092904.660000", "092903.070000", "092904.860000", "092902.275000", "092904.065000", "092901.477500", "092903.267500", "092901.677500", "092903.467500", "092901.875000", "092903.665000", "092902.075000", "092903.865000", "092902.472500", "092904.262500", "092902.672500", "092904.462500", "092902.870000", "092904.660000", "092903.070000", "092904.860000", "092902.275000", "092904.065000", "092901.477500", "092903.267500", "092901.677500", "092903.467500", "092901.875000", "092903.665000", "092902.075000", "092903.865000", "092902.472500", "092904.262500", "092902.672500", "092904.462500", "092902.870000", "092904.660000", "092903.070000", "092904.860000", "092902.275000", "092907.665000", "092905.077500", "092906.867500", "092905.277500", "092907.067500", "092905.475000", "092907.265000", "092905.675000", "092907.465000", "092906.072500", "092907.862500", "092906.272500", "092908.062500", "092906.470000", "092908.260000", "092906.670000", "092908.460000", "092905.875000", "092907.665000", "092905.077500", "092906.867500", "092905.277500", "092907.067500", "092905.475000", "092907.265000", "092905.675000", "092907.465000", "092906.072500", "092907.862500", "092906.272500", "092908.062500", "092906.470000", "092908.260000", "092906.670000", "092908.460000", "092905.875000", "092907.665000", "092905.077500", "092906.867500", "092905.277500", "092907.067500", "092905.475000", "092907.265000", "092905.675000", "092907.465000", "092906.072500", "092907.862500", "092906.272500", "092908.062500", "092906.470000", "092908.260000", "092906.670000", "092908.460000", "092905.875000", "092907.665000", "092905.077500", "092906.867500", "092905.277500", "092907.067500", "092905.475000", "092907.265000", "092905.675000", "092907.465000", "092906.072500", "092907.862500", "092906.272500", "092908.062500", "092906.470000", "092908.260000", "092906.670000", "092908.460000", "092905.875000", "092911.265000", "092908.677500", "092910.467500", "092908.877500", "092910.667500", "092909.075000", "092910.865000", "092909.275000", "092911.065000", "092909.672500", "092911.462500", "092909.872500", "092911.662500", "092910.070000", "092911.860000", "092910.270000", "092912.060000", "092909.475000", "092911.265000", "092908.677500", "092910.467500", "092908.877500", "092910.667500", "092909.075000", "092910.865000", "092909.275000", "092911.065000", "092909.672500", "092911.462500", "092909.872500", "092911.662500", "092910.070000", "092911.860000", "092910.270000", "092912.060000", "092909.475000", "092911.265000", "092908.677500", "092910.467500", "092908.877500", "092910.667500", "092909.075000", "092910.865000", "092909.275000", "092911.065000", "092909.672500", "092911.462500", "092909.872500", "092911.662500", "092910.070000", "092911.860000", "092910.270000", "092912.060000", "092909.475000", "092911.265000", "092908.677500", "092910.467500", "092908.877500", "092910.667500", "092909.075000", "092910.865000", "092909.275000", "092911.065000", "092909.672500", "092911.462500", "092909.872500", "092911.662500", "092910.070000", "092911.860000", "092910.270000", "092912.060000", "092909.475000", "092914.865000", "092912.277500", "092914.067500", "092912.477500", "092914.267500", "092912.675000", "092914.465000", "092912.875000", "092914.665000", "092913.272500", "092915.062500", "092913.472500", "092915.262500", "092913.670000", "092915.460000", "092913.870000", "092915.660000", "092913.075000", "092914.865000", "092912.277500", "092914.067500", "092912.477500", "092914.267500", "092912.675000", "092914.465000", "092912.875000", "092914.665000", "092913.272500", "092915.062500", "092913.472500", "092915.262500", "092913.670000", "092915.460000", "092913.870000", "092915.660000", "092913.075000", "092914.865000", "092912.277500", "092914.067500", "092912.477500", "092914.267500", "092912.675000", "092914.465000", "092912.875000", "092914.665000", "092913.272500", "092915.062500", "092913.472500", "092915.262500", "092913.670000", "092915.460000", "092913.870000", "092915.660000", "092913.075000", "092914.865000", "092912.277500", "092914.067500", "092912.477500", "092914.267500", "092912.675000", "092914.465000", "092912.875000", "092914.665000", "092913.272500", "092915.062500", "092913.472500", "092915.262500"