{
  "AcquisitionMatrixPE": 122,
  "AcquisitionNumber": 1,
  "AcquisitionTime": "09:23:45.067500",
  "BandwidthPerPixelPhaseEncode": 28.76,
  "BaseResolution": 122,
  "BodyPartExamined": "BRAIN",
  "CoilCombinationMethod": "Adaptive Combine",
  "ConsistencyInfo": "N4_VE11C_LATEST_20160120",
  "ConversionSoftware": "dcm2niix",
  "ConversionSoftwareVersion": "v1.0.20220720",
  "DerivedVendorReportedEchoSpacing": 0.000570008,
  "DeviceSerialNumber": "66112",
  "DiffusionScheme": "Monopolar",
  "DwellTime": 2e-06,
  "EchoTime": 0.075,
  "EchoTrainLength": 61,
  "EffectiveEchoSpacing": 0.000285004,
  "FlipAngle": 90,
  "HeudiconvVersion": "0.13.1",
  "ImageOrientationPatientDICOM": [0.984942, 0.17233, 0.0138435, -0.168359, 0.937876, 0.303387],
  "ImageOrientationText": "Tra>Cor(17.5)>Sag(-2.3)",
  "ImageType": [
    "ORIGINAL",
    "PRIMARY",
    "DIFFUSION",
    "NONE",
    "ND",
    "NORM"
],
  "ImagingFrequency": 123.252,
  "InPlanePhaseEncodingDirectionDICOM": "COL",
  "InstitutionAddress": "Maynard 3,Hanover,NH,US,03755",
  "InstitutionName": "Dartmouth College - PBS",
  "InstitutionalDepartmentName": "Department",
  "MRAcquisitionType": "2D",
  "MagneticFieldStrength": 3,
  "Manufacturer": "Siemens",
  "ManufacturersModelName": "Prisma",
  "MatrixCoilMode": "GRAPPA",
  "Modality": "MR",
  "NonlinearGradientCorrection": false,
  "ParallelReductionFactorInPlane": 2,
  "PartialFourier": 1,
  "PatientPosition": "HFS",
  "PercentPhaseFOV": 100,
  "PercentSampling": 100,
  "PhaseEncodingDirection": "j-",
  "PhaseEncodingSteps": 122,
  "PhaseResolution": 1,
  "PixelBandwidth": 2050,
  "ProcedureStepDescription": "dbic^QA",
  "ProtocolName": "dwi_acq-DTI-30-p2",
  "PulseSequenceDetails": "%SiemensSeq%\\ep2d_diff",
  "ReceiveCoilActiveElements": "HEA;HEP",
  "ReceiveCoilName": "Head_32",
  "ReconMatrixPE": 122,
  "RefLinesPE": 38,
  "RepetitionTime": 7.7,
  "SAR": 0.101638,
  "ScanOptions": "FS",
  "ScanningSequence": "EP",
  "SequenceName": "*ep_b0",
  "SequenceVariant": "SK\\SP",
  "SeriesDescription": "dwi_acq-DTI-30-p2",
  "SeriesNumber": 8,
  "ShimSetting": [4148, -7695, -7518, 254, -46, -110, -32, 58],
  "SliceThickness": 2,
  "SliceTiming": [3.84375, 0, 3.95312, 0.10938, 4.05469, 0.21875, 4.17188, 0.32812, 4.28125, 0.4375, 4.39062, 0.54688, 4.5, 0.65625, 4.60938, 0.76562, 4.71875, 0.875, 4.82812, 0.99219, 4.9375, 1.10156, 5.04688, 1.21094, 5.15625, 1.3125, 5.26562, 1.42969, 5.375, 1.53906, 5.48438, 1.64844, 5.59375, 1.75781, 5.70312, 1.86719, 5.8125, 1.97656, 5.92969, 2.08594, 6.03125, 2.19531, 6.14062, 2.30469, 6.25, 2.41406, 6.36719, 2.52344, 6.47656, 2.63281, 6.58594, 2.74219, 6.69531, 2.85156, 6.80469, 2.96094, 6.91406, 3.07031, 7.02344, 3.17969, 7.13281, 3.28906, 7.24219, 3.39844, 7.35156, 3.50781, 7.46094, 3.61719, 7.57031, 3.73438],
  "SoftwareVersions": "syngo MR E11",
  "SpacingBetweenSlices": 2,
  "SpoilingState": true,
  "StationName": "AWP66112",
  "TotalReadoutTime": 0.0344855,
  "TxRefAmp": 231.766,
  "dcmmeta_affine": [
    [-1.9375908374786377, -0.33119839429855347, -0.0785980224609375, 146.42286682128906],
    [-0.3390096127986908, 1.8450024127960205, 0.6022987365722656, -104.73249053955078],
    [0.02723321132361889, -0.5968260169029236, 1.9055328369140625, -22.987850189208984],
    [0.0, 0.0, 0.0, 1.0]
],
  "dcmmeta_reorient_transform": [
    [0.0, -1.0, 0.0, 121.0],
    [1.0, 0.0, 0.0, 0.0],
    [0.0, 0.0, -1.0, 69.0],
    [0.0, 0.0, 0.0, 1.0]
],
  "dcmmeta_shape": [122, 122, 70, 31],
  "dcmmeta_slice_dim": 2,
  "dcmmeta_version": 0.6,
  "global": {
    "const": {
      "AccessionNumber": "qa",
      "AcquisitionMatrix": [122, 0, 0, 122],
      "AngioFlag": "N",
      "BitsAllocated": 16,
      "BitsStored": 12,
      "BodyPartExamined": "BRAIN",
      "Columns": 122,
      "EchoNumbers": 1,
      "EchoTime": 75.0,
      "EchoTrainLength": 61,
      "FlipAngle": 90.0,
      "HighBit": 11,
      "ImageOrientationPatient": [0.98494201358382, 0.17232987565583, 0.01384354845766, -0.1683591878065, 0.93787621301121, 0.3033865404874],
      "ImageType": [
        "ORIGINAL",
        "PRIMARY",
        "DIFFUSION",
        "NONE",
        "ND",
        "NORM"
],
      "ImagedNucleus": "1H",
      "ImagingFrequency": 123.252422,
      "InPlanePhaseEncodingDirection": "COL",
      "MRAcquisitionType": "2D",
      "MagneticFieldStrength": 3.0,
      "Manufacturer": "SIEMENS",
      "ManufacturerModelName": "Prisma",
      "Modality": "MR",
      "NumberOfAverages": 1.0,
      "NumberOfPhaseEncodingSteps": 122,
      "PercentPhaseFieldOfView": 100.0,
      "PercentSampling": 100.0,
      "PerformedProcedureStepStartTime": "085922.681000",
      "PhotometricInterpretation": "MONOCHROME2",
      "PixelBandwidth": 2050.0,
      "PixelRepresentation": 0,
      "PixelSpacing": [1.9672131538391, 1.9672131538391],
      "ProtocolName": "dwi_acq-DTI-30-p2",
      "RepetitionTime": 7700.0,
      "Rows": 122,
      "SAR": 0.1016383733773,
      "SamplesPerPixel": 1,
      "ScanOptions": "FS",
      "ScanningSequence": "EP",
      "SequenceVariant": [
        "SK",
        "SP"
],
      "SeriesDescription": "dwi_acq-DTI-30-p2",
      "SeriesNumber": 8,
      "SeriesTime": "092349.961000",
      "SliceThickness": 2.0,
      "SmallestImagePixelValue": 0,
      "SoftwareVersions": "syngo MR E11",
      "SpacingBetweenSlices": 2.0,
      "SpecificCharacterSet": "ISO_IR 100",
      "StudyID": "89",
      "StudyTime": "085922.606000",
      "TransmitCoilName": "Body",
      "VariableFlipAngleFlag": "N",
      "WindowCenterWidthExplanation": "Algo1",
      "dBdt": 0.0},
    "slices": {
      "AcquisitionTime": ["092345.067500", "092341.227500", "092345.177500", "092341.337500", "092345.285000", "092341.447500", "092345.395000", "092341.555000", "092345.505000", "092341.665000", "092345.615000", "092341.775000", "092345.725000", "092341.885000", "092345.835000", "092341.995000", "092345.945000", "092342.105000", "092346.055000", "092342.215000", "092346.165000", "092342.325000", "092346.272500", "092342.435000", "092346.382500", "092342.542500", "092346.492500", "092342.652500", "092346.602500", "092342.762500", "092346.712500", "092342.872500", "092346.822500", "092342.982500", "092346.932500", "092343.092500", "092347.042500", "092343.202500", "092347.152500", "092343.312500", "092347.260000", "092343.420000", "092347.370000", "092343.530000", "092347.480000", "092343.640000", "092347.590000", "092343.750000", "092347.700000", "092343.860000", "092347.810000", "092343.970000", "092347.920000", "092344.080000", "092348.030000", "092344.190000", "092348.137500", "092344.300000", "092348.247500", "092344.407500", "092348.357500", "092344.517500", "092348.467500", "092344.627500", "092348.577500", "092344.737500", "092348.687500", "092344.847500", "092348.797500", "092344.957500", "092352.767500", "092348.927500", "092352.877500", "092349.037500", "092352.985000", "092349.147500", "092353.095000", "092349.255000", "092353.205000", "092349.365000", "092353.315000", "092349.475000", "092353.425000", "092349.585000", "092353.535000", "092349.695000", "092353.645000", "092349.805000", "092353.755000", "092349.915000", "092353.865000", "092350.025000", "092353.972500", "092350.135000", "092354.082500", "092350.242500", "092354.192500", "092350.352500", "092354.302500", "092350.462500", "092354.412500", "092350.572500", "092354.522500", "092350.682500", "092354.632500", "092350.792500", "092354.742500", "092350.902500", "092354.852500", "092351.012500", "092354.960000", "092351.120000", "092355.070000", "092351.230000", "092355.180000", "092351.340000", "092355.290000", "092351.450000", "092355.400000", "092351.560000", "092355.510000", "092351.670000", "092355.620000", "092351.780000", "092355.730000", "092351.890000", "092355.837500", "092352.000000", "092355.947500", "092352.107500", "092356.057500", "092352.217500", "092356.167500", "092352.327500", "092356.277500", "092352.437500", "092356.387500", "092352.547500", "092356.497500", "092352.657500", "092400.467500", "092356.627500", "092400.577500", "092356.737500", "092400.685000", "092356.847500", "092400.795000", "092356.955000", "092400.905000", "092357.065000", "092401.015000", "092357.175000", "092401.125000", "092357.285000", "092401.235000", "092357.395000", "092401.345000", "092357.505000", "092401.455000", "092357.615000", "092401.565000", "092357.725000", "092401.672500", "092357.835000", "092401.782500", "092357.942500", "092401.892500", "092358.052500", "092402.002500", "092358.162500", "092402.112500", "092358.272500", "092402.222500", "092358.382500", "092402.332500", "092358.492500", "092402.442500", "092358.602500", "092402.552500", "092358.712500", "092402.660000", "092358.820000", "092402.770000", "092358.930000", "092402.880000", "092359.040000", "092402.990000", "092359.150000", "092403.100000", "092359.260000", "092403.210000", "092359.370000", "092403.320000", "092359.480000", "092403.430000", "092359.590000", "092403.537500", "092359.700000", "092403.647500", "092359.807500", "092403.757500", "092359.917500", "092403.867500", "092400.027500", "092403.977500", "092400.137500", "092404.087500", "092400.247500", "092404.197500", "092400.357500", "092408.167500", "092404.327500", "092408.277500", "092404.437500", "092408.385000", "092404.547500", "092408.495000", "092404.655000", "092408.605000", "092404.765000", "092408.715000", "092404.875000", "092408.825000", "092404.985000", "092408.935000", "092405.095000", "092409.045000", "092405.205000", "092409.155000", "092405.315000", "092409.265000", "092405.425000", "092409.372500", "092405.535000", "092409.482500", "092405.642500", "092409.592500", "092405.752500", "092409.702500", "092405.862500", "092409.812500", "092405.972500", "092409.922500", "092406.082500", "092410.032500", "092406.192500", "092410.142500", "092406.302500", "092410.252500", "092406.412500", "092410.360000", "092406.520000", "092410.470000", "092406.630000", "092410.580000", "092406.740000", "092410.690000", "092406.850000", "092410.800000", "092406.960000", "092410.910000", "092407.070000", "092411.020000", "092407.180000", "092411.130000", "092407.290000", "092411.237500", "092407.400000", "092411.347500", "092407.507500", "092411.457500", "092407.617500", "092411.567500", "092407.727500", "092411.677500", "092407.837500", "092411.787500", "092407.947500", "092411.897500", "092408.057500", "092415.867500", "092412.027500", "092415.977500", "092412.137500", "092416.085000", "092412.247500", "092416.195000", "092412.355000", "092416.305000", "092412.465000", "092416.415000", "092412.575000", "092416.525000", "092412.685000", "092416.635000", "092412.795000", "092416.745000", "092412.905000", "092416.855000", "092413.015000", "092416.965000", "092413.125000", "092417.072500", "092413.235000", "092417.182500", "092413.342500", "092417.292500", "092413.452500", "092417.402500", "092413.562500", "092417.512500", "092413.672500", "092417.622500", "092413.782500", "092417.732500", "092413.892500", "092417.842500", "092414.002500", "092417.952500", "092414.112500", "092418.060000", "092414.220000", "092418.170000", "092414.330000", "092418.280000", "092414.440000", "092418.390000", "092414.550000", "092418.500000", "092414.660000", "092418.610000", "092414.770000", "092418.720000", "092414.880000", "092418.830000", "092414.990000", "092418.937500", "092415.100000", "092419.047500", "092415.207500", "092419.157500", "092415.317500", "092419.267500", "092415.427500", "092419.377500", "092415.537500", "092419.487500", "092415.647500", "092419.597500", "092415.757500", "092423.567500", "092419.727500", "092423.677500", "092419.837500", "092423.785000", "092419.947500", "092423.895000", "092420.055000", "092424.005000", "092420.165000", "092424.115000", "092420.275000", "092424.225000", "092420.385000", "092424.335000", "092420.495000", "092424.445000", "092420.605000", "092424.555000", "092420.715000", "092424.665000", "092420.825000", "092424.772500", "092420.935000", "092424.882500", "092421.042500", "092424.992500", "092421.152500", "092425.102500", "092421.262500", "092425.212500", "092421.372500", "092425.322500", "092421.482500", "092425.432500", "092421.592500", "092425.542500", "092421.702500", "092425.652500", "092421.812500", "092425.760000", "092421.920000", "092425.870000", "092422.030000", "092425.980000", "092422.140000", "092426.090000", "092422.250000", "092426.200000", "092422.360000", "092426.310000", "092422.470000", "092426.420000", "092422.580000", "092426.530000", "092422.690000", "092426.637500", "092422.800000", "092426.747500", "092422.907500", "092426.857500", "092423.017500", "092426.967500", "092423.127500", "092427.077500", "092423.237500", "092427.187500", "092423.347500", "092427.297500", "092423.457500", "092431.267500", "092427.427500", "092431.377500", "092427.537500", "092431.485000", "092427.647500", "092431.595000", "092427.755000", "092431.705000", "092427.865000", "092431.815000", "092427.975000", "092431.925000", "092428.085000", "092432.035000", "092428.195000", "092432.145000", "092428.305000", "092432.255000", "092428.415000", "092432.365000", "092428.525000", "092432.472500", "092428.635000", "092432.582500", "092428.742500", "092432.692500", "092428.852500", "092432.802500", "092428.962500", "092432.912500", "092429.072500", "092433.022500", "092429.182500", "092433.132500", "092429.292500", "092433.242500", "092429.402500", "092433.352500", "092429.512500", "092433.460000", "092429.620000", "092433.570000", "092429.730000", "092433.680000", "092429.840000", "092433.790000", "092429.950000", "092433.900000", "092430.060000", "092434.010000", "092430.170000", "092434.120000", "092430.280000", "092434.230000", "092430.390000", "092434.337500", "092430.500000", "092434.447500", "092430.607500", "092434.557500", "092430.717500", "092434.667500", "092430.827500", "092434.777500", "092430.937500", "092434.887500", "092431.047500", "092434.997500", "092431.157500", "092438.967500", "092435.127500", "092439.077500", "092435.237500", "092439.185000", "092435.347500", "092439.295000", "092435.455000", "092439.405000", "092435.565000", "092439.515000", "092435.675000", "092439.625000", "092435.785000", "092439.735000", "092435.895000", "092439.845000", "092436.005000", "092439.955000", "092436.115000", "092440.065000", "092436.225000", "092440.172500", "092436.335000", "092440.282500", "092436.442500", "092440.392500", "092436.552500", "092440.502500", "092436.662500", "092440.612500", "092436.772500", "092440.722500", "092436.882500", "092440.832500", "092436.992500", "092440.942500", "092437.102500", "092441.052500", "092437.212500", "092441.160000", "092437.320000", "092441.270000", "092437.430000", "092441.380000", "092437.540000", "092441.490000", "092437.650000", "092441.600000", "092437.760000", "092441.710000", "092437.870000", "092441.820000", "092437.980000", "092441.930000", "092438.090000", "092442.037500", "092438.200000", "092442.147500", "092438.307500", "092442.257500", "092438.417500", "092442.367500", "092438.527500", "092442.477500", "092438.637500", "092442.587500", "092438.747500", "092442.697500", "092438.857500", "092446.667500", "092442.827500", "092446.777500", "092442.937500", "092446.885000", "092443.047500", "092446.995000", "092443.155000", "092447.105000", "092443.265000", "092447.215000", "092443.375000", "092447.325000", "092443.485000", "092447.435000", "092443.595000", "092447.545000", "092443.705000", "092447.655000", "092443.815000", "092447.765000", "092443.925000", "092447.872500", "092444.035000", "092447.982500", "092444.142500", "092448.092500", "092444.252500", "092448.202500", "092444.362500", "092448.312500", "092444.472500", "092448.422500", "092444.582500", "092448.532500", "092444.692500", "092448.642500", "092444.802500", "092448.752500", "092444.912500", "092448.860000", "092445.020000", "092448.970000", "092445.130000", "092449.080000", "092445.240000", "092449.190000", "092445.350000", "092449.300000", "092445.460000", "092449.410000", "092445.570000", "092449.520000", "092445.680000", "092449.630000", "092445.790000", "092449.737500", "092445.900000", "092449.847500", "092446.007500", "092449.957500", "092446.117500", "092450.067500", "092446.227500", "092450.177500", "092446.337500", "092450.287500", "092446.447500", "092450.397500", "092446.557500", "092454.367500", "092450.527500", "092454.477500", "092450.637500", "092454.585000", "092450.747500", "092454.695000", "092450.855000", "092454.805000", "092450.965000", "092454.915000", "092451.075000", "092455.025000", "092451.185000", "092455.135000", "092451.295000", "092455.245000", "092451.405000", "092455.355000", "092451.515000", "092455.465000", "092451.625000", "092455.572500", "092451.735000", "092455.682500", "092451.842500", "092455.792500", "092451.952500", "092455.902500", "092452.062500", "092456.012500", "092452.172500", "092456.122500", "092452.282500", "092456.232500", "092452.392500", "092456.342500", "092452.502500", "092456.452500", "092452.612500", "092456.560000", "092452.720000", "092456.670000", "092452.830000", "092456.780000", "092452.940000", "092456.890000", "092453.050000", "092457.000000", "092453.160000", "092457.110000", "092453.270000", "092457.220000", "092453.380000", "092457.330000", "092453.490000", "092457.437500", "092453.600000", "092457.547500", "092453.707500", "092457.657500", "092453.817500", "092457.767500", "092453.927500", "092457.877500", "092454.037500", "092457.987500", "092454.147500", "092458.097500", "092454.257500", "092502.067500", "092458.227500", "092502.177500", "092458.337500", "092502.285000", "092458.447500", "092502.395000", "092458.555000", "092502.505000", "092458.665000", "092502.615000", "092458.775000", "092502.725000", "092458.885000", "092502.835000", "092458.995000", "092502.945000", "092459.105000", "092503.055000", "092459.215000", "092503.165000", "092459.325000", "092503.272500", "092459.435000", "092503.382500", "092459.542500", "092503.492500", "092459.652500", "092503.602500", "092459.762500", "092503.712500", "092459.872500", "092503.822500", "092459.982500", "092503.932500", "092500.092500", "092504.042500", "092500.202500", "092504.152500", "092500.312500", "092504.260000", "092500.420000", "092504.370000", "092500.530000", "092504.480000", "092500.640000", "092504.590000", "092500.750000", "092504.700000", "092500.860000", "092504.810000", "092500.970000", "092504.920000", "092501.080000", "092505.030000", "092501.190000", "092505.137500", "092501.300000", "092505.247500", "092501.407500", "092505.357500", "092501.517500", "092505.467500", "092501.627500", "092505.577500", "092501.737500", "092505.687500", "092501.847500", "092505.797500", "092501.957500", "092509.767500", "092505.927500", "092509.877500", "092506.037500", "092509.985000", "092506.147500", "092510.095000", "092506.255000", "092510.205000", "092506.365000", "092510.315000", "092506.475000", "092510.425000", "092506.585000", "092510.535000", "092506.695000", "092510.645000", "092506.805000", "092510.755000", "092506.915000", "092510.865000", "092507.025000", "092510.972500", "092507.135000", "092511.082500", "092507.242500", "092511.192500", "092507.352500", "092511.302500", "092507.462500", "092511.412500", "092507.572500", "092511.522500", "092507.682500", "092511.632500", "092507.792500", "092511.742500", "092507.902500", "092511.852500", "092508.012500", "092511.960000", "092508.120000", "092512.070000", "092508.230000", "092512.180000", "092508.340000", "092512.290000", "092508.450000", "092512.400000", "092508.560000", "092512.510000", "092508.670000", "092512.620000", "092508.780000", "092512.730000", "092508.890000", "092512.837500", "092509.000000", "092512.947500", "092509.107500", "092513.057500", "092509.217500", "092513.167500", "092509.327500", "092513.277500", "092509.437500", "092513.387500", "092509.547500", "092513.497500", "092509.657500", "092517.467500", "092513.627500", "092517.577500", "092513.737500", "092517.685000", "092513.847500", "092517.795000", "092513.955000", "092517.905000", "092514.065000", "092518.015000", "092514.175000", "092518.125000", "092514.285000", "092518.235000", "092514.395000", "092518.345000", "092514.505000", "092518.455000", "092514.615000", "092518.565000", "092514.725000", "092518.672500", "092514.835000", "092518.782500", "092514.942500", "092518.892500", "092515.052500", "092519.002500", "092515.162500", "092519.112500", "092515.272500", "092519.222500", "092515.382500", "092519.332500", "092515.492500", "092519.442500", "092515.602500", "092519.552500", "092515.712500", "092519.660000", "092515.820000", "092519.770000", "092515.930000", "092519.880000", "092516.040000", "092519.990000", "092516.150000", "092520.100000", "092516.260000", "092520.210000", "092516.370000", "092520.320000", "092516.480000", "092520.430000", "092516.590000", "092520.537500", "092516.700000", "092520.647500", "092516.807500", "092520.757500", "092516.917500", "092520.867500", "092517.027500", "092520.977500", "092517.137500", "092521.087500", "092517.247500", "092521.197500", "092517.357500", "092525.167500", "092521.327500", "092525.277500", "092521.437500", "092525.385000", "092521.547500", "092525.495000", "092521.655000", "092525.605000", "092521.765000", "092525.715000", "092521.875000", "092525.825000", "092521.985000", "092525.935000", "092522.095000", "092526.045000", "092522.205000", "092526.155000", "092522.315000", "092526.265000", "092522.425000", "092526.372500", "092522.535000", "092526.482500", "092522.642500", "092526.592500", "092522.752500", "092526.702500", "092522.862500", "092526.812500", "092522.972500", "092526.922500", "092523.082500", "092527.032500", "092523.192500", "092527.142500", "092523.302500", "092527.252500", "092523.412500", "092527.360000", "092523.520000", "092527.470000", "092523.630000", "092527.580000", "092523.740000", "092527.690000", "092523.850000", "092527.800000", "092523.960000", "092527.910000", "092524.070000", "092528.020000", "092524.180000", "092528.130000", "092524.290000", "092528.237500", "092524.400000", "092528.347500", "092524.507500", "092528.457500", "092524.617500", "092528.567500", "092524.727500", "092528.677500", "092524.837500", "092528.787500", "092524.947500", "092528.897500", "092525.057500", "092532.867500", "092529.027500", "092532.977500", "092529.137500", "092533.085000", "092529.247500", "092533.195000", "092529.355000", "092533.305000", "092529.465000", "092533.415000", "092529.575000", "092533.525000", "092529.685000", "092533.635000", "092529.795000", "092533.745000", "092529.905000", "092533.855000", "092530.015000", "092533.965000", "092530.125000", "092534.072500", "092530.235000", "092534.182500", "092530.342500", "092534.292500", "092530.452500", "092534.402500", "092530.562500", "092534.512500", "092530.672500", "092534.622500", "092530.782500", "092534.732500", "092530.892500", "092534.842500", "092531.002500", "092534.952500", "092531.112500", "092535.060000", "092531.220000", "092535.170000", "092531.330000", "092535.280000", "092531.440000", "092535.390000", "092531.550000", "092535.500000", "092531.660000", "092535.610000", "092531.770000", "092535.720000", "092531.880000", "092535.830000", "092531.990000", "092535.937500", "092532.100000", "092536.047500", "092532.207500", "092536.157500", "092532.317500", "092536.267500", "092532.427500", "092536.377500", "092532.537500", "092536.487500", "092532.647500", "092536.597500", "092532.757500", "092540.567500", "092536.727500", "092540.677500", "092536.837500", "092540.785000", "092536.947500", "092540.895000", "092537.055000", "092541.005000", "092537.165000", "092541.115000", "092537.275000", "092541.225000", "092537.385000", "092541.335000", "092537.495000", "092541.445000", "092537.605000", "092541.555000", "092537.715000", "092541.665000", "092537.825000", "092541.772500", "092537.935000", "092541.882500", "092538.042500", "092541.992500", "092538.152500", "092542.102500", "092538.262500", "092542.212500", "092538.372500", "092542.322500", "092538.482500", "092542.432500", "092538.592500", "092542.542500", "092538.702500", "092542.652500", "092538.812500", "092542.760000", "092538.920000", "092542.870000", "092539.030000", "092542.980000", "092539.140000", "092543.090000", "092539.250000", "092543.200000", "092539.360000", "092543.310000", "092539.470000", "092543.420000", "092539.580000", "092543.530000", "092539.690000", "092543.637500", "092539.800000", "092543.747500", "092539.907500", "092543.857500", "092540.017500", "092543.967500", "092540.127500", "092544.077500", "092540.237500", "092544.187500", "092540.347500", "092544.297500", "092540.457500", "092548.267500", "092544.427500", "092548.377500", "092544.537500", "092548.485000", "092544.647500", "092548.595000", "092544.755000", "092548.705000", "092544.865000", "092548.815000", "092544.975000", "092548.925000", "092545.085000", "092549.035000", "092545.195000", "092549.145000", "092545.305000", "092549.255000", "092545.415000", "092549.365000", "092545.525000", "092549.472500", "092545.635000", "092549.582500", "092545.742500", "092549.692500", "092545.852500", "092549.802500", "092545.962500", "092549.912500", "092546.072500", "092550.022500", "092546.182500", "092550.132500", "092546.292500", "092550.242500", "092546.402500", "092550.352500", "092546.512500", "092550.460000", "092546.620000", "092550.570000", "092546.730000", "092550.680000", "092546.840000", "092550.790000", "092546.950000", "092550.900000", "092547.060000", "092551.010000", "092547.170000", "092551.120000", "092547.280000", "092551.230000", "092547.390000", "092551.337500", "092547.500000", "092551.447500", "092547.607500", "092551.557500", "092547.717500", "092551.667500", "092547.827500", "092551.777500", "092547.937500", "092551.887500", "092548.047500", "092551.997500", "092548.157500", "092555.967500", "092552.127500", "092556.077500", "092552.237500", "092556.185000", "092552.347500", "092556.295000", "092552.455000", "092556.405000", "092552.565000", "092556.515000", "092552.675000", "092556.625000", "092552.785000", "092556.735000", "092552.895000", "092556.845000", "092553.005000", "092556.955000", "092553.115000", "092557.065000", "092553.225000", "092557.172500", "092553.335000", "092557.282500", "092553.442500", "092557.392500", "092553.552500", "092557.502500", "092553.662500", "092557.612500", "092553.772500", "092557.722500", "092553.882500", "092557.832500", "092553.992500", "092557.942500", "092554.102500", "092558.052500", "092554.212500", "092558.160000", "092554.320000", "092558.270000", "092554.430000", "092558.380000", "092554.540000", "092558.490000", "092554.650000", "092558.600000", "092554.760000", "092558.710000", "092554.870000", "092558.820000", "092554.980000", "092558.930000", "092555.090000", "092559.037500", "092555.200000", "092559.147500", "092555.307500", "092559.257500", "092555.417500", "092559.367500", "092555.527500", "092559.477500", "092555.637500", "092559.587500", "092555.747500", "092559.697500", "092555.857500", "092603.667500", "092559.827500", "092603.777500", "092559.937500", "092603.885000", "092600.047500", "092603.995000", "092600.155000", "092604.105000", "092600.265000", "092604.215000", "092600.375000", "092604.325000", "092600.485000", "092604.435000", "092600.595000", "092604.545000", "092600.705000", "092604.655000", "092600.815000", "092604.765000", "092600.925000", "092604.872500", "092601.035000", "092604.982500", "092601.142500", "092605.092500", "092601.252500", "092605.202500", "092601.362500", "092605.312500", "092601.472500", "092605.422500", "092601.582500", "092605.532500", "092601.692500", "092605.642500", "092601.802500", "092605.752500", "092601.912500", "092605.860000", "092602.020000", "092605.970000", "092602.130000", "092606.080000", "092602.240000", "092606.190000", "092602.350000", "092606.300000", "092602.460000", "092606.410000", "092602.570000", "092606.520000", "092602.680000", "092606.630000", "092602.790000", "092606.737500", "092602.900000", "092606.847500", "092603.007500", "092606.957500", "092603.117500", "092607.067500", "092603.227500", "092607.177500", "092603.337500", "092607.287500", "092603.447500", "092607.397500", "092603.557500", "092611.367500", "092607.527500", "092611.477500", "092607.637500", "092611.585000", "092607.747500", "092611.695000", "092607.855000", "092611.805000", "092607.965000", "092611.915000", "092608.075000", "092612.025000", "092608.185000", "092612.135000", "092608.295000", "092612.245000", "092608.405000", "092612.355000", "092608.515000", "092612.465000", "092608.625000", "092612.572500", "092608.735000", "092612.682500", "092608.842500", "092612.792500", "092608.952500", "092612.902500", "092609.062500", "092613.012500", "092609.172500", "092613.122500", "092609.282500", "092613.232500", "092609.392500", "092613.342500", "092609.502500", "092613.452500", "092609.612500", "092613.560000", "092609.720000", "092613.670000", "092609.830000", "092613.780000", "092609.940000", "092613.890000", "092610.050000", "092614.000000", "092610.160000", "092614.110000", "092610.270000", "092614.220000", "092610.380000", "092614.330000", "092610.490000", "092614.437500", "092610.600000", "092614.547500", "092610.707500", "092614.657500", "092610.817500", "092614.767500", "092610.927500", "092614.877500", "092611.037500", "092614.987500", "092611.147500", "092615.097500", "092611.257500", "092619.067500", "092615.227500", "092619.177500", "092615.337500", "092619.285000", "092615.447500", "092619.395000", "092615.555000", "092619.505000", "092615.665000", "092619.615000", "092615.775000", "092619.725000", "092615.885000", "092619.835000", "092615.995000", "092619.945000", "092616.105000", "092620.055000", "092616.215000", "092620.165000", "092616.325000", "092620.272500", "092616.435000", "092620.382500", "092616.542500", "092620.492500", "092616.652500", "092620.602500", "092616.762500", "092620.712500", "092616.872500", "092620.822500", "092616.982500", "092620.932500", 