{
  "AcquisitionMatrixPE": 80,
  "AcquisitionNumber": 1,
  "AcquisitionTime": "12:23:58.225000",
  "BandwidthPerPixelPhaseEncode": 44.643,
  "BaseResolution": 80,
  "BodyPartExamined": "BRAIN",
  "CoilCombinationMethod": "Sum of Squares",
  "ConsistencyInfo": "N4_VE11C_LATEST_20160120",
  "ConversionSoftware": "dcm2niix",
  "ConversionSoftwareVersion": "v1.0.20220720",
  "DerivedVendorReportedEchoSpacing": 0.000559998,
  "DeviceSerialNumber": "66112",
  "DwellTime": 2.7e-06,
  "EchoTime": 0.035,
  "EchoTrainLength": 39,
  "EffectiveEchoSpacing": 0.000279999,
  "FlipAngle": 90,
  "HeudiconvVersion": "0.13.1",
  "ImageOrientationPatientDICOM": [0.999971, 0.00668461, 0.00377668, -0.00750485, 0.954818, 0.297095],
  "ImageOrientationText": "Tra>Cor(17.3)>Sag(0.1)",
  "ImageType": [
    "ORIGINAL",
    "PRIMARY",
    "M",
    "ND",
    "NORM",
    "MOSAIC"
],
  "ImagingFrequency": 123.252,
  "InPlanePhaseEncodingDirectionDICOM": "COL",
  "InstitutionAddress": "Maynard 3,Hanover,NH,US,03755",
  "InstitutionName": "Dartmouth College - PBS",
  "InstitutionalDepartmentName": "Department",
  "MRAcquisitionType": "2D",
  "MagneticFieldStrength": 3,
  "Manufacturer": "Siemens",
  "ManufacturersModelName": "Prisma",
  "Modality": "MR",
  "MultibandAccelerationFactor": 4,
  "NonlinearGradientCorrection": false,
  "ParallelReductionFactorInPlane": 2,
  "PartialFourier": 1,
  "PatientPosition": "HFS",
  "PercentPhaseFOV": 100,
  "PercentSampling": 100,
  "PhaseEncodingDirection": "j-",
  "PhaseEncodingSteps": 79,
  "PhaseResolution": 1,
  "PixelBandwidth": 2315,
  "ProcedureStepDescription": "dbic^QA",
  "ProtocolName": "func-bold_task-rest_acq-p2-s4-3.5mm",
  "PulseSequenceDetails": "%SiemensSeq%\\ep2d_bold",
  "ReceiveCoilActiveElements": "HEA;HEP",
  "ReceiveCoilName": "Head_32",
  "ReconMatrixPE": 80,
  "RefLinesPE": 24,
  "RepetitionTime": 2,
  "SAR": 0.0208221,
  "ScanOptions": "FS",
  "ScanningSequence": "EP",
  "SequenceName": "*epfid2d1_80",
  "SequenceVariant": "SK",
  "SeriesDescription": "func-bold_task-rest_acq-p2-s4-3.5mm",
  "SeriesNumber": 7,
  "ShimSetting": [4147, -7701, -7518, 256, -91, -98, -14, 67],
  "SliceThickness": 3.5,
  "SliceTiming": [1.485, 0, 0.99, 0.2475, 1.2375, 0.7425, 1.7325, 0.495, 1.485, 0, 0.99, 0.2475, 1.2375, 0.7425, 1.7325, 0.495, 1.485, 0, 0.99, 0.2475, 1.2375, 0.7425, 1.7325, 0.495, 1.485, 0, 0.99, 0.2475, 1.2375, 0.7425, 1.7325, 0.495],
  "SoftwareVersions": "syngo MR E11",
  "SpacingBetweenSlices": 3.99,
  "StationName": "AWP66112",
  "TaskName": "rest",
  "TotalReadoutTime": 0.0221199,
  "TxRefAmp": 221.08,
  "dcmmeta_affine": [
    [-2.9999115467071533, -0.022514542564749718, 0.006464108359068632, 120.60955047607422],
    [-0.020053843036293983, 2.864454984664917, 1.1854884624481201, -115.56787872314453],
    [0.011330044828355312, -0.8912859559059143, 3.8098130226135254, -26.606693267822266],
    [0.0, 0.0, 0.0, 1.0]
],
  "dcmmeta_reorient_transform": [
    [0.0, -1.0, 0.0, 79.0],
    [1.0, 0.0, 0.0, 0.0],
    [0.0, 0.0, 1.0, 0.0],
    [0.0, 0.0, 0.0, 1.0]
],
  "dcmmeta_shape": [80, 80, 32, 200],
  "dcmmeta_slice_dim": 2,
  "dcmmeta_version": 0.6,
  "global": {
    "const": {
      "AccessionNumber": "qa",
      "AcquisitionMatrix": [80, 0, 0, 80],
      "AngioFlag": "N",
      "BitsAllocated": 16,
      "BitsStored": 12,
      "BodyPartExamined": "BRAIN",
      "Columns": 480,
      "EchoNumbers": 1,
      "EchoTime": 35.0,
      "EchoTrainLength": 39,
      "FlipAngle": 90.0,
      "HighBit": 11,
      "ImageOrientationPatient": [0.99997052587109, 0.00668461406197, 0.00377668160436, -0.0075048476672, 0.95481833500233, 0.29709531198737],
      "ImagePositionPatient": [-714.31030998743, -687.62583756351, -277.54147826934],
      "ImageType": [
        "ORIGINAL",
        "PRIMARY",
        "M",
        "ND",
        "NORM",
        "MOSAIC"
],
      "ImagedNucleus": "1H",
      "ImagingFrequency": 123.252336,
      "InPlanePhaseEncodingDirection": "COL",
      "MRAcquisitionType": "2D",
      "MagneticFieldStrength": 3.0,
      "Manufacturer": "SIEMENS",
      "ManufacturerModelName": "Prisma",
      "Modality": "MR",
      "NumberOfAverages": 1.0,
      "NumberOfPhaseEncodingSteps": 79,
      "PercentPhaseFieldOfView": 100.0,
      "PercentSampling": 100.0,
      "PerformedProcedureStepStartTime": "120615.775000",
      "PhotometricInterpretation": "MONOCHROME2",
      "PixelBandwidth": 2315.0,
      "PixelRepresentation": 0,
      "PixelSpacing": [3.0, 3.0],
      "ProtocolName": "func-bold_task-rest_acq-p2-s4-3.5mm",
      "RepetitionTime": 2000.0,
      "Rows": 480,
      "SAR": 0.02082205617552,
      "SamplesPerPixel": 1,
      "ScanOptions": "FS",
      "ScanningSequence": "EP",
      "SequenceName": "*epfid2d1_80",
      "SequenceVariant": "SK",
      "SeriesDescription": "func-bold_task-rest_acq-p2-s4-3.5mm",
      "SeriesNumber": 7,
      "SeriesTime": "122447.218000",
      "SliceLocation": -59.546685832128,
      "SliceThickness": 3.5,
      "SmallestImagePixelValue": 0,
      "SoftwareVersions": "syngo MR E11",
      "SpacingBetweenSlices": 3.9899999514937,
      "SpecificCharacterSet": "ISO_IR 100",
      "StudyID": "49",
      "StudyTime": "120615.717000",
      "TransmitCoilName": "Body",
      "VariableFlipAngleFlag": "N",
      "WindowCenterWidthExplanation": "Algo1",
      "dBdt": 0.0},
    "slices": {}
  },
  "time": {
    "samples": {
      "AcquisitionNumber": [1, 2, 3, 4, 5, 6, 7, 8, 9, 10, 11, 12, 13, 14, 15, 16, 17, 18, 19, 20, 21, 22, 23, 24, 25, 26, 27, 28, 29, 30, 31, 32, 33, 34, 35, 36, 37, 38, 39, 40, 41, 42, 43, 44, 45, 46, 47, 48, 49, 50, 51, 52, 53, 54, 55, 56, 57, 58, 59, 60, 61, 62, 63, 64, 65, 66, 67, 68, 69, 70, 71, 72, 73, 74, 75, 76, 77, 78, 79, 80, 81, 82, 83, 84, 85, 86, 87, 88, 89, 90, 91, 92, 93, 94, 95, 96, 97, 98, 99, 100, 101, 102, 103, 104, 105, 106, 107, 108, 109, 110, 111, 112, 113, 114, 115, 116, 117, 118, 119, 120, 121, 122, 123, 124, 125, 126, 127, 128, 129, 130, 131, 132, 133, 134, 135, 136, 137, 138, 139, 140, 141, 142, 143, 144, 145, 146, 147, 148, 149, 150, 151, 152, 153, 154, 155, 156, 157, 158, 159, 160, 161, 162, 163, 164, 165, 166, 167, 168, 169, 170, 171, 172, 173, 174, 175, 176, 177, 178, 179, 180, 181, 182, 183, 184, 185, 186, 187, 188, 189, 190, 191, 192, 193, 194, 195, 196, 197, 198, 199, 200],
      "AcquisitionTime": ["122358.225000", "122400.225000", "122402.225000", "122404.225000", "122406.225000", "122408.225000", "122410.225000", "122412.225000", "122414.225000", "122416.225000", "122418.225000", "122420.225000", "122422.225000", "122424.225000", "122426.225000", "122428.225000", "122430.225000", "122432.225000", "122434.225000", "122436.225000", "122438.225000", "122440.225000", "122442.225000", "122444.225000", "122446.225000", "122448.225000", "122450.225000", "122452.225000", "122454.225000", "122456.225000", "122458.225000", "122500.225000", "122502.225000", "122504.225000", "122506.225000", "122508.225000", "122510.225000", "122512.225000", "122514.225000", "122516.225000", "122518.225000", "122520.225000", "122522.225000", "122524.225000", "122526.225000", "122528.225000", "122530.225000", "122532.225000", "122534.225000", "122536.225000", "122538.225000", "122540.225000", "122542.225000", "122544.225000", "122546.225000", "122548.225000", "122550.225000", "122552.225000", "122554.225000", "122556.225000", "122558.225000", "122600.225000", "122602.225000", "122604.225000", "122606.225000", "122608.225000", "122610.225000", "122612.225000", "122614.225000", "122616.225000", "122618.225000", "122620.225000", "122622.225000", "122624.225000", "122626.225000", "122628.225000", "122630.225000", "122632.225000", "122634.225000", "122636.225000", "122638.225000", "122640.225000", "122642.225000", "122644.225000", "122646.225000", "122648.225000", "122650.225000", "122652.225000", "122654.225000", "122656.225000", "122658.225000", "122700.225000", "122702.225000", "122704.225000", "122706.225000", "122708.225000", "122710.225000", "122712.225000", "122714.225000", "122716.225000", "122718.225000", "122720.225000", "122722.225000", "122724.225000", "122726.225000", "122728.225000", "122730.225000", "122732.225000", "122734.225000", "122736.225000", "122738.225000", "122740.225000", "122742.225000", "122744.225000", "122746.225000", "122748.225000", "122750.225000", "122752.225000", "122754.225000", "122756.225000", "122758.225000", "122800.225000", "122802.225000", "122804.225000", "122806.225000", "122808.225000", "122810.225000", "122812.225000", "122814.225000", "122816.225000", "122818.225000", "122820.225000", "122822.225000", "122824.225000", "122826.225000", "122828.225000", "122830.225000", "122832.225000", "122834.225000", "122836.225000", "122838.225000", "122840.225000", "122842.225000", "122844.225000", "122846.225000", "122848.225000", "122850.225000", "122852.225000", "122854.225000", "122856.225000", "122858.225000", "122900.225000", "122902.225000", "122904.225000", "122906.225000", "122908.225000", "122910.225000", "122912.225000", "122914.225000", "122916.225000", "122918.225000", "122920.225000", "122922.225000", "122924.225000", "122926.225000", "122928.225000", "122930.225000", "122932.225000", "122934.225000", "122936.225000", "122938.225000", "122940.225000", "122942.225000", "122944.225000", "122946.225000", "122948.225000", "122950.225000", "122952.225000", "122954.225000", "122956.225000", "122958.225000", "123000.225000", "123002.225000", "123004.225000", "123006.225000", "123008.225000", "123010.225000", "123012.225000", "123014.225000", "123016.225000", "123018.225000", "123020.225000", "123022.225000", "123024.225000", "123026.225000", "123028.225000", "123030.225000", "123032.225000", "123034.225000", "123036.225000"],
      "ContentTime": ["122447.221000", "122447.233000", "122447.236000", "122447.238000", "122447.241000", "122447.244000", "122447.246000", "122447.253000", "122447.255000", "122447.258000", "122447.261000", "122447.263000", "122447.266000", "122447.268000", "122447.272000", "122447.282000", "122447.284000", "122447.287000", "122447.290000", "122447.292000", "122447.295000", "122447.298000", "122447.300000", "122447.303000", "122447.305000", "122527.217000", "122527.220000", "122527.223000", "122527.225000", "122527.228000", "122527.231000", "122527.233000", "122527.236000", "122527.239000", "122527.241000", "122527.244000", "122527.247000", "122527.252000", "122527.255000", "122527.257000", "122527.260000", "122527.263000", "122527.279000", "122527.282000", "122527.290000", "122607.217000", "122607.220000", "122607.222000", "122607.225000", "122607.228000", "122607.230000", "122607.233000", "122607.236000", "122607.238000", "122607.241000", "122607.244000", "122607.246000", "122607.249000", "122607.252000", "122607.254000", "122607.257000", "122607.260000", "122607.262000", "122607.265000", "122607.268000", "122647.217000", "122647.219000", "122647.222000", "122647.225000", "122647.227000", "122647.230000", "122647.233000", "122647.235000", "122647.238000", "122647.241000", "122647.243000", "122647.246000", "122647.248000", "122647.251000", "122647.254000", "122647.256000", "122647.259000", "122647.262000", "122647.264000", "122647.267000", "122727.216000", "122727.219000", "122727.222000", "122727.225000", "122727.227000", "122727.230000", "122727.233000", "122727.235000", "122727.238000", "122727.241000", "122727.243000", "122727.246000", "122727.249000", "122727.251000", "122727.254000", "122727.257000", "122727.259000", "122727.262000", "122727.264000", "122727.271000", "122807.216000", "122807.219000", "122807.222000", "122807.225000", "122807.227000", "122807.230000", "122807.233000", "122807.236000", "122807.238000", "122807.241000", "122807.243000", "122807.246000", "122807.249000", "122807.251000", "122807.254000", "122807.257000", "122807.259000", "122807.262000", "122807.265000", "122807.267000", "122847.217000", "122847.219000", "122847.222000", "122847.225000", "122847.228000", "122847.230000", "122847.233000", "122847.236000", "122847.238000", "122847.241000", "122847.243000", "122847.246000", "122847.249000", "122847.251000", "122847.254000", "122847.259000", "122847.262000", "122847.264000", "122847.267000", "122847.270000", "122927.216000", "122927.219000", "122927.222000", "122927.225000", "122927.228000", "122927.230000", "122927.233000", "122927.236000", "122927.238000", "122927.241000", "122927.244000", "122927.246000", "122927.249000", "122927.251000", "122927.254000", "122927.257000", "122927.259000", "122927.262000", "122927.265000", "122927.267000", "123007.217000", "123007.219000", "123007.222000", "123007.225000", "123007.228000", "123007.230000", "123007.233000", "123007.236000", "123007.238000", "123007.247000", "123007.250000", "123007.253000", "123007.255000", "123007.258000", "123007.260000", "123007.263000", "123007.275000", "123007.278000", "123007.280000", "123007.283000", "123027.217000", "123027.220000", "123027.222000", "123027.225000", "123027.228000", "123027.230000", "123027.233000", "123027.236000", "123027.238000", "123027.241000", "123037.094000", "123037.097000", "123037.099000", "123037.102000", "123037.105000"],
      "InstanceCreationTime": ["122447.221000", "122447.233000", "122447.236000", "122447.238000", "122447.241000", "122447.244000", "122447.246000", "122447.253000", "122447.255000", "122447.258000", "122447.261000", "122447.263000", "122447.266000", "122447.268000", "122447.272000", "122447.282000", "122447.284000", "122447.287000", "122447.290000", "122447.292000", "122447.295000", "122447.298000", "122447.300000", "122447.303000", "122447.305000", "122527.217000", "122527.220000", "122527.223000", "122527.225000", "122527.228000", "122527.231000", "122527.233000", "122527.236000", "122527.239000", "122527.241000", "122527.244000", "122527.247000", "122527.252000", "122527.255000", "122527.257000", "122527.260000", "122527.263000", "122527.279000", "122527.282000", "122527.290000", "122607.217000", "122607.220000", "122607.222000", "122607.225000", "122607.228000", "122607.230000", "122607.233000", "122607.236000", "122607.238000", "122607.241000", "122607.244000", "122607.246000", "122607.249000", "122607.252000", "122607.254000", "122607.257000", "122607.260000", "122607.262000", "122607.265000", "122607.268000", "122647.217000", "122647.219000", "122647.222000", "122647.225000", "122647.227000", "122647.230000", "122647.233000", "122647.235000", "122647.238000", "122647.241000", "122647.243000", "122647.246000", "122647.248000", "122647.251000", "122647.254000", "122647.256000", "122647.259000", "122647.262000", "122647.264000", "122647.267000", "122727.216000", "122727.219000", "122727.222000", "122727.225000", "122727.227000", "122727.230000", "122727.233000", "122727.235000", "122727.238000", "122727.241000", "122727.243000", "122727.246000", "122727.249000", "122727.251000", "122727.254000", "122727.257000", "122727.259000", "122727.262000", "122727.264000", "122727.271000", "122807.216000", "122807.219000", "122807.222000", "122807.225000", "122807.227000", "122807.230000", "122807.233000", "122807.236000", "122807.238000", "122807.241000", "122807.243000", "122807.246000", "122807.249000", "122807.251000", "122807.254000", "122807.257000", "122807.259000", "122807.262000", "122807.265000", "122807.267000", "122847.217000", "122847.219000", "122847.222000", "122847.225000", "122847.228000", "122847.230000", "122847.233000", "122847.236000", "122847.238000", "122847.241000", "122847.243000", "122847.246000", "122847.249000", "122847.251000", "122847.254000", "122847.259000", "122847.262000", "122847.264000", "122847.267000", "122847.270000", "122927.216000", "122927.219000", "122927.222000", "122927.225000", "122927.228000", "122927.230000", "122927.233000", "122927.236000", "122927.238000", "122927.241000", "122927.244000", "122927.246000", "122927.249000", "122927.251000", "122927.254000", "122927.257000", "122927.259000", "122927.262000", "122927.265000", "122927.267000", "123007.217000", "123007.219000", "123007.222000", "123007.225000", "123007.228000", "123007.230000", "123007.233000", "123007.236000", "123007.238000", "123007.247000", "123007.250000", "123007.253000", "123007.255000", "123007.258000", "123007.260000", "123007.263000", "123007.275000", "123007.278000", "123007.280000", "123007.283000", "123027.217000", "123027.220000", "123027.222000", "123027.225000", "123027.228000", "123027.230000", "123027.233000", "123027.236000", "123027.238000", "123027.241000", "123037.094000", "123037.097000", "123037.099000", "123037.102000", "123037.105000"],
      "InstanceNumber": [1, 2, 3, 4, 5, 6, 7, 8, 9, 10, 11, 12, 13, 14, 15, 16, 17, 18, 19, 20, 21, 22, 23, 24, 25, 26, 27, 28, 29, 30, 31, 32, 33, 34, 35, 36, 37, 38, 39, 40, 41, 42, 43, 44, 45, 46, 47, 48, 49, 50, 51, 52, 53, 54, 55, 56, 57, 58, 59, 60, 61, 62, 63, 64, 65, 66, 67, 68, 69, 70, 71, 72, 73, 74, 75, 76, 77, 78, 79, 80, 81, 82, 83, 84, 85, 86, 87, 88, 89, 90, 91, 92, 93, 94, 95, 96, 97, 98, 99, 100, 101, 102, 103, 104, 105, 106, 107, 108, 109, 110, 111, 112, 113, 114, 115, 116, 117, 118, 119, 120, 121, 122, 123, 124, 125, 126, 127, 128, 129, 130, 131, 132, 133, 134, 135, 136, 137, 138, 139, 140, 141, 142, 143, 144, 145, 146, 147, 148, 149, 150, 151, 152, 153, 154, 155, 156, 157, 158, 159, 160, 161, 162, 163, 164, 165, 166, 167, 168, 169, 170, 171, 172, 173, 174, 175, 176, 177, 178, 179, 180, 181, 182, 183, 184, 185, 186, 187, 188, 189, 190, 191, 192, 193, 194, 195, 196, 197, 198, 199, 200],
      "LargestImagePixelValue": [1994, 2000, 1996, 1997, 1998, 2002, 2005, 2004, 2004, 2004, 1999, 2002, 1998, 1999, 1993, 1996, 1997, 1994, 2000, 2002, 2001, 1996, 2001, 1992, 1996, 1999, 1998, 2001, 2001, 2000, 2005, 2005, 2000, 2000, 1998, 2005, 1993, 1999, 2000, 1998, 2000, 2000, 1997, 1999, 1995, 1998, 1995, 1997, 2002, 1995, 2005, 2003, 2005, 1998, 1998, 1994, 1996, 1997, 1997, 1994, 1995, 1995, 2004, 1997, 2005, 1999, 2004, 2004, 1995, 2003, 2001, 1994, 2006, 1996, 1997, 2001, 1994, 2002, 2000, 2004, 2008, 2002, 2002, 2002, 2006, 1997, 1995, 2001, 1997, 2001, 1998, 1998, 2000, 1998, 1995, 2001, 1995, 1995, 2001, 1995, 1999, 2000, 1994, 1996, 1995, 1993, 1990, 2001, 1999, 1999, 1998, 1997, 1993, 1996, 1996, 1988, 1994, 1998, 1997, 2002, 1999, 1993, 1998, 1995, 2000, 1997, 2004, 1995, 1997, 1999, 1997, 2004, 1998, 1999, 1998, 1987, 1993, 1998, 1993, 1995, 2001, 1990, 2002, 1997, 1996, 1997, 2003, 2001, 2001, 1992, 1997, 1996, 1995, 1999, 1995, 1995, 1991, 1993, 1994, 1997, 1993, 1992, 2000, 2001, 1997, 1998, 1995, 1997, 1997, 1994, 1997, 1994, 1999, 1997, 2000, 2000, 1997, 2003, 1994, 1999, 2003, 1997, 1999, 1997, 1995, 1997, 2001, 2002, 1995, 2003, 2000, 2001, 2000, 1999, 2003, 2005, 2001, 2003, 1998, 1993],
      "WindowCenter": [924.0, 924.0, 924.0, 924.0, 924.0, 924.0, 924.0, 924.0, 924.0, 924.0, 924.0, 924.0, 924.0, 924.0, 924.0, 924.0, 924.0, 924.0, 924.0, 924.0, 924.0, 924.0, 924.0, 924.0, 924.0, 924.0, 924.0, 924.0, 924.0, 924.0, 924.0, 924.0, 924.0, 924.0, 924.0, 924.0, 924.0, 924.0, 924.0, 924.0, 924.0, 924.0, 924.0, 924.0, 924.0, 924.0, 924.0, 924.0, 924.0, 924.0, 924.0, 924.0, 924.0, 924.0, 924.0, 924.0, 924.0, 924.0, 924.0, 924.0, 924.0, 924.0, 925.0, 924.0, 924.0, 924.0, 924.0, 924.0, 924.0, 924.0, 924.0, 924.0, 924.0, 924.0, 924.0, 924.0, 925.0, 924.0, 924.0, 924.0, 924.0, 925.0, 924.0, 924.0, 924.0, 924.0, 924.0, 924.0, 924.0, 924.0, 924.0, 924.0, 924.0, 925.0, 924.0, 924.0, 925.0, 925.0, 924.0, 924.0, 924.0, 924.0, 924.0, 924.0, 924.0, 924.0, 924.0, 924.0, 924.0, 924.0, 924.0, 924.0, 925.0, 924.0, 924.0, 924.0, 924.0, 924.0, 924.0, 924.0, 924.0, 924.0, 925.0, 924.0, 925.0, 924.0, 925.0, 924.0, 924.0, 924.0, 924.0, 924.0, 924.0, 924.0, 924.0, 925.0, 924.0, 924.0, 924.0, 924.0, 925.0, 924.0, 924.0, 924.0, 925.0, 925.0, 924.0, 924.0, 924.0, 925.0, 924.0, 925.0, 925.0, 924.0, 925.0, 924.0, 925.0, 924.0, 924.0, 924.0, 924.0, 924.0, 924.0, 924.0, 924.0, 924.0, 924.0, 924.0, 924.0, 925.0, 924.0, 924.0, 924.0, 924.0, 924.0, 924.0, 924.0, 924.0, 924.0, 925.0, 924.0, 924.0, 924.0, 924.0, 924.0, 924.0, 924.0, 924.0, 924.0, 924.0, 924.0, 924.0, 924.0, 924.0, 925.0, 924.0, 924.0, 924.0, 924.0, 924.0],
      "WindowWidth": [2113.0, 2113.0, 2114.0, 2114.0, 2113.0, 2113.0, 2113.0, 2113.0, 2113.0, 2113.0, 2113.0, 2113.0, 2113.0, 2113.0, 2113.0, 2113.0, 2113.0, 2114.0, 2114.0, 2114.0, 2113.0, 2114.0, 2113.0, 2114.0, 2114.0, 2114.0, 2114.0, 2114.0, 2114.0, 2113.0, 2114.0, 2114.0, 2114.0, 2114.0, 2114.0, 2114.0, 2113.0, 2113.0, 2114.0, 2114.0, 2114.0, 2114.0, 2114.0, 2114.0, 2114.0, 2114.0, 2114.0, 2114.0, 2114.0, 2114.0, 2114.0, 2114.0, 2114.0, 2114.0, 2114.0, 2114.0, 2114.0, 2114.0, 2114.0, 2113.0, 2114.0, 2114.0, 2113.0, 2113.0, 2113.0, 2114.0, 2114.0, 2114.0, 2114.0, 2114.0, 2114.0, 2114.0, 2114.0, 2114.0, 2114.0, 2113.0, 2114.0, 2114.0, 2114.0, 2114.0, 2114.0, 2114.0, 2114.0, 2114.0, 2114.0, 2114.0, 2114.0, 2114.0, 2114.0, 2114.0, 2114.0, 2114.0, 2114.0, 2114.0, 2114.0, 2114.0, 2114.0, 2114.0, 2114.0, 2113.0, 2114.0, 2114.0, 2113.0, 2114.0, 2114.0, 2114.0, 2113.0, 2113.0, 2114.0, 2114.0, 2114.0, 2114.0, 2113.0, 2113.0, 2114.0, 2114.0, 2114.0, 2113.0, 2113.0, 2114.0, 2114.0, 2114.0, 2114.0, 2114.0, 2114.0, 2114.0, 2114.0, 2114.0, 2114.0, 2114.0, 2114.0, 2113.0, 2114.0, 2114.0, 2113.0, 2113.0, 2114.0, 2114.0, 2114.0, 2114.0, 2114.0, 2114.0, 2114.0, 2114.0, 2114.0, 2114.0, 2114.0, 2114.0, 2114.0, 2114.0, 2114.0, 2114.0, 2114.0, 2114.0, 2114.0, 2114.0, 2114.0, 2114.0, 2114.0, 2114.0, 2114.0, 2114.0, 2114.0, 2114.0, 2114.0, 2114.0, 2114.0, 2114.0, 2114.0, 2114.0, 2114.0, 2114.0, 2114.0, 2114.0, 2114.0, 2114.0, 2114.0, 2114.0, 2114.0, 2114.0, 2114.0, 2114.0, 2113.0, 2114.0, 2113.0, 2114.0, 2113.0, 2114.0, 2114.0, 2113.0, 2113.0, 2113.0, 2113.0, 2114.0, 2114.0, 2113.0, 2113.0, 2114.0, 2113.0, 2113.0]
    },
    "slices": {}
  }
}