{
  "AcquisitionMatrixPE": 80,
  "AcquisitionNumber": 1,
  "AcquisitionTime": "12:30:47.502500",
  "BandwidthPerPixelPhaseEncode": 25,
  "BaseResolution": 80,
  "BodyPartExamined": "BRAIN",
  "CoilCombinationMethod": "Sum of Squares",
  "ConsistencyInfo": "N4_VE11C_LATEST_20160120",
  "ConversionSoftware": "dcm2niix",
  "ConversionSoftwareVersion": "v1.0.20220720",
  "DerivedVendorReportedEchoSpacing": 0.0005,
  "DeviceSerialNumber": "66112",
  "DwellTime": 2.7e-06,
  "EchoTime": 0.03,
  "EchoTrainLength": 80,
  "EffectiveEchoSpacing": 0.0005,
  "FlipAngle": 77,
  "HeudiconvVersion": "0.13.1",
  "ImageOrientationPatientDICOM": [0.999971, 0.00668461, 0.00377668, -0.00750485, 0.954818, 0.297095],
  "ImageOrientationText": "Tra>Cor(17.3)>Sag(0.1)",
  "ImageType": [
    "ORIGINAL",
    "PRIMARY",
    "M",
    "ND",
    "NORM",
    "MOSAIC"
],
  "ImagingFrequency": 123.252,
  "InPlanePhaseEncodingDirectionDICOM": "COL",
  "InstitutionAddress": "Maynard 3,Hanover,NH,US,03755",
  "InstitutionName": "Dartmouth College - PBS",
  "InstitutionalDepartmentName": "Department",
  "MRAcquisitionType": "2D",
  "MagneticFieldStrength": 3,
  "Manufacturer": "Siemens",
  "ManufacturersModelName": "Prisma",
  "MatrixCoilMode": "SENSE",
  "Modality": "MR",
  "NonlinearGradientCorrection": false,
  "PartialFourier": 1,
  "PatientPosition": "HFS",
  "PercentPhaseFOV": 100,
  "PercentSampling": 100,
  "PhaseEncodingDirection": "j-",
  "PhaseEncodingSteps": 80,
  "PhaseResolution": 1,
  "PixelBandwidth": 2315,
  "ProcedureStepDescription": "dbic^QA",
  "ProtocolName": "func-bold_fa-77",
  "PulseSequenceDetails": "%SiemensSeq%\\ep2d_bold",
  "ReceiveCoilActiveElements": "HEA;HEP",
  "ReceiveCoilName": "Head_32",
  "ReconMatrixPE": 80,
  "RepetitionTime": 2,
  "SAR": 0.0435153,
  "ScanOptions": "FS",
  "ScanningSequence": "EP",
  "SequenceName": "*epfid2d1_80",
  "SequenceVariant": "SK",
  "SeriesDescription": "func-bold_fa-77",
  "SeriesNumber": 8,
  "ShimSetting": [4146, -7701, -7518, 254, -92, -94, -14, 66],
  "SliceThickness": 3.5,
  "SliceTiming": [0.99, 0, 1.0575, 0.0675, 1.1225, 0.1325, 1.1875, 0.1975, 1.255, 0.265, 1.32, 0.33, 1.3875, 0.3975, 1.4525, 0.4625, 1.5175, 0.5275, 1.585, 0.595, 1.65, 0.66, 1.7175, 0.7275, 1.7825, 0.7925, 1.8475, 0.8575, 1.915, 0.925],
  "SoftwareVersions": "syngo MR E11",
  "SpacingBetweenSlices": 3.99,
  "StationName": "AWP66112",
  "TotalReadoutTime": 0.0395,
  "TxRefAmp": 221.08,
  "dcmmeta_affine": [
    [-2.9999115467071533, -0.022514542564749718, 0.006464108359068632, 120.64572143554688],
    [-0.020053843036293983, 2.864454984664917, 1.1854884624481201, -117.85928344726562],
    [0.011330044828355312, -0.8912859559059143, 3.8098130226135254, -21.040283203125],
    [0.0, 0.0, 0.0, 1.0]
],
  "dcmmeta_reorient_transform": [
    [0.0, -1.0, 0.0, 79.0],
    [1.0, 0.0, 0.0, 0.0],
    [0.0, 0.0, 1.0, 0.0],
    [0.0, 0.0, 0.0, 1.0]
],
  "dcmmeta_shape": [80, 80, 30, 200],
  "dcmmeta_slice_dim": 2,
  "dcmmeta_version": 0.6,
  "global": {
    "const": {
      "AccessionNumber": "qa",
      "AcquisitionMatrix": [80, 0, 0, 80],
      "AngioFlag": "N",
      "BitsAllocated": 16,
      "BitsStored": 12,
      "BodyPartExamined": "BRAIN",
      "Columns": 480,
      "EchoNumbers": 1,
      "EchoTime": 30.0,
      "EchoTrainLength": 80,
      "FlipAngle": 77.0,
      "HighBit": 11,
      "ImageOrientationPatient": [0.99997052587109, 0.00668461406197, 0.00377668160436, -0.0075048476672, 0.95481833500233, 0.29709531198737],
      "ImagePositionPatient": [-714.34648245192, -685.33443093204, -271.97506820465],
      "ImageType": [
        "ORIGINAL",
        "PRIMARY",
        "M",
        "ND",
        "NORM",
        "MOSAIC"
],
      "ImagedNucleus": "1H",
      "ImagingFrequency": 123.252336,
      "InPlanePhaseEncodingDirection": "COL",
      "MRAcquisitionType": "2D",
      "MagneticFieldStrength": 3.0,
      "Manufacturer": "SIEMENS",
      "ManufacturerModelName": "Prisma",
      "Modality": "MR",
      "NumberOfAverages": 1.0,
      "NumberOfPhaseEncodingSteps": 80,
      "PercentPhaseFieldOfView": 100.0,
      "PercentSampling": 100.0,
      "PerformedProcedureStepStartTime": "120615.775000",
      "PhotometricInterpretation": "MONOCHROME2",
      "PixelBandwidth": 2315.0,
      "PixelRepresentation": 0,
      "PixelSpacing": [3.0, 3.0],
      "ProtocolName": "func-bold_fa-77",
      "RepetitionTime": 2000.0,
      "Rows": 480,
      "SAR": 0.04351527194207,
      "SamplesPerPixel": 1,
      "ScanOptions": "FS",
      "ScanningSequence": "EP",
      "SequenceName": "*epfid2d1_80",
      "SequenceVariant": "SK",
      "SeriesDescription": "func-bold_fa-77",
      "SeriesNumber": 8,
      "SeriesTime": "123147.288000",
      "SliceLocation": -54.912405291604,
      "SliceThickness": 3.5,
      "SmallestImagePixelValue": 0,
      "SoftwareVersions": "syngo MR E11",
      "SpacingBetweenSlices": 3.9899999751273,
      "SpecificCharacterSet": "ISO_IR 100",
      "StudyID": "49",
      "StudyTime": "120615.717000",
      "TransmitCoilName": "Body",
      "VariableFlipAngleFlag": "N",
      "WindowCenterWidthExplanation": "Algo1",
      "dBdt": 0.0},
    "slices": {}
  },
  "time": {
    "samples": {
      "AcquisitionNumber": [1, 2, 3, 4, 5, 6, 7, 8, 9, 10, 11, 12, 13, 14, 15, 16, 17, 18, 19, 20, 21, 22, 23, 24, 25, 26, 27, 28, 29, 30, 31, 32, 33, 34, 35, 36, 37, 38, 39, 40, 41, 42, 43, 44, 45, 46, 47, 48, 49, 50, 51, 52, 53, 54, 55, 56, 57, 58, 59, 60, 61, 62, 63, 64, 65, 66, 67, 68, 69, 70, 71, 72, 73, 74, 75, 76, 77, 78, 79, 80, 81, 82, 83, 84, 85, 86, 87, 88, 89, 90, 91, 92, 93, 94, 95, 96, 97, 98, 99, 100, 101, 102, 103, 104, 105, 106, 107, 108, 109, 110, 111, 112, 113, 114, 115, 116, 117, 118, 119, 120, 121, 122, 123, 124, 125, 126, 127, 128, 129, 130, 131, 132, 133, 134, 135, 136, 137, 138, 139, 140, 141, 142, 143, 144, 145, 146, 147, 148, 149, 150, 151, 152, 153, 154, 155, 156, 157, 158, 159, 160, 161, 162, 163, 164, 165, 166, 167, 168, 169, 170, 171, 172, 173, 174, 175, 176, 177, 178, 179, 180, 181, 182, 183, 184, 185, 186, 187, 188, 189, 190, 191, 192, 193, 194, 195, 196, 197, 198, 199, 200],
      "AcquisitionTime": ["123047.502500", "123049.502500", "123051.502500", "123053.502500", "123055.502500", "123057.502500", "123059.502500", "123101.502500", "123103.502500", "123105.502500", "123107.502500", "123109.502500", "123111.502500", "123113.502500", "123115.502500", "123117.502500", "123119.502500", "123121.502500", "123123.502500", "123125.502500", "123127.502500", "123129.502500", "123131.502500", "123133.502500", "123135.502500", "123137.502500", "123139.502500", "123141.502500", "123143.502500", "123145.502500", "123147.502500", "123149.502500", "123151.502500", "123153.502500", "123155.502500", "123157.502500", "123159.502500", "123201.502500", "123203.502500", "123205.502500", "123207.502500", "123209.502500", "123211.502500", "123213.502500", "123215.502500", "123217.502500", "123219.502500", "123221.502500", "123223.502500", "123225.502500", "123227.502500", "123229.502500", "123231.502500", "123233.502500", "123235.502500", "123237.502500", "123239.502500", "123241.502500", "123243.502500", "123245.502500", "123247.502500", "123249.502500", "123251.502500", "123253.502500", "123255.502500", "123257.502500", "123259.502500", "123301.502500", "123303.502500", "123305.502500", "123307.502500", "123309.502500", "123311.502500", "123313.502500", "123315.502500", "123317.502500", "123319.502500", "123321.502500", "123323.502500", "123325.502500", "123327.502500", "123329.502500", "123331.502500", "123333.502500", "123335.502500", "123337.502500", "123339.502500", "123341.502500", "123343.502500", "123345.502500", "123347.502500", "123349.502500", "123351.502500", "123353.502500", "123355.502500", "123357.502500", "123359.502500", "123401.502500", "123403.502500", "123405.502500", "123407.502500", "123409.502500", "123411.502500", "123413.502500", "123415.502500", "123417.502500", "123419.502500", "123421.502500", "123423.502500", "123425.502500", "123427.502500", "123429.502500", "123431.502500", "123433.502500", "123435.502500", "123437.502500", "123439.502500", "123441.502500", "123443.502500", "123445.502500", "123447.502500", "123449.502500", "123451.502500", "123453.502500", "123455.502500", "123457.502500", "123459.502500", "123501.502500", "123503.502500", "123505.502500", "123507.502500", "123509.502500", "123511.502500", "123513.502500", "123515.502500", "123517.502500", "123519.502500", "123521.502500", "123523.502500", "123525.502500", "123527.502500", "123529.502500", "123531.502500", "123533.502500", "123535.502500", "123537.502500", "123539.502500", "123541.502500", "123543.502500", "123545.502500", "123547.502500", "123549.502500", "123551.502500", "123553.502500", "123555.502500", "123557.502500", "123559.502500", "123601.502500", "123603.502500", "123605.502500", "123607.502500", "123609.502500", "123611.502500", "123613.502500", "123615.502500", "123617.502500", "123619.502500", "123621.502500", "123623.502500", "123625.502500", "123627.502500", "123629.502500", "123631.502500", "123633.502500", "123635.502500", "123637.502500", "123639.502500", "123641.502500", "123643.502500", "123645.502500", "123647.502500", "123649.502500", "123651.502500", "123653.502500", "123655.502500", "123657.502500", "123659.502500", "123701.502500", "123703.502500", "123705.502500", "123707.502500", "123709.502500", "123711.502500", "123713.502500", "123715.502500", "123717.502500", "123719.502500", "123721.502500", "123723.502500", "123725.502500"],
      "ContentTime": ["123147.293000", "123147.297000", "123147.299000", "123147.302000", "123147.305000", "123147.307000", "123147.310000", "123147.312000", "123147.315000", "123147.318000", "123147.320000", "123147.323000", "123147.325000", "123147.328000", "123147.331000", "123147.333000", "123147.336000", "123147.346000", "123147.349000", "123147.351000", "123147.354000", "123147.357000", "123147.369000", "123147.372000", "123147.374000", "123147.377000", "123147.380000", "123147.382000", "123147.385000", "123227.286000", "123227.290000", "123227.292000", "123227.295000", "123227.297000", "123227.313000", "123227.325000", "123227.328000", "123227.330000", "123227.333000", "123227.336000", "123227.338000", "123227.341000", "123227.343000", "123227.346000", "123227.349000", "123227.351000", "123227.354000", "123227.356000", "123227.359000", "123307.287000", "123307.290000", "123307.292000", "123307.295000", "123307.297000", "123307.300000", "123307.303000", "123307.305000", "123307.308000", "123307.311000", "123307.313000", "123307.316000", "123307.318000", "123307.321000", "123307.324000", "123307.326000", "123307.329000", "123307.331000", "123307.334000", "123307.336000", "123347.286000", "123347.289000", "123347.292000", "123347.295000", "123347.297000", "123347.300000", "123347.302000", "123347.312000", "123347.314000", "123347.317000", "123347.320000", "123347.322000", "123347.325000", "123347.328000", "123347.333000", "123347.336000", "123347.339000", "123347.341000", "123347.344000", "123347.346000", "123427.286000", "123427.290000", "123427.292000", "123427.295000", "123427.297000", "123427.300000", "123427.303000", "123427.305000", "123427.308000", "123427.311000", "123427.313000", "123427.316000", "123427.318000", "123427.321000", "123427.324000", "123427.326000", "123427.329000", "123427.331000", "123427.334000", "123427.337000", "123507.287000", "123507.290000", "123507.292000", "123507.295000", "123507.298000", "123507.300000", "123507.303000", "123507.305000", "123507.308000", "123507.311000", "123507.314000", "123507.317000", "123507.319000", "123507.322000", "123507.325000", "123507.327000", "123507.330000", "123507.333000", "123507.335000", "123507.338000", "123547.287000", "123547.290000", "123547.292000", "123547.295000", "123547.297000", "123547.300000", "123547.303000", "123547.305000", "123547.308000", "123547.311000", "123547.313000", "123547.316000", "123547.318000", "123547.321000", "123547.330000", "123547.333000", "123547.335000", "123547.338000", "123547.341000", "123547.343000", "123627.287000", "123627.290000", "123627.292000", "123627.295000", "123627.298000", "123627.300000", "123627.303000", "123627.305000", "123627.308000", "123627.311000", "123627.313000", "123627.316000", "123627.318000", "123627.321000", "123627.324000", "123627.326000", "123627.329000", "123627.332000", "123627.334000", "123627.343000", "123707.287000", "123707.290000", "123707.292000", "123707.295000", "123707.297000", "123707.300000", "123707.303000", "123707.305000", "123707.308000", "123707.311000", "123707.313000", "123707.316000", "123707.318000", "123707.321000", "123707.324000", "123707.326000", "123707.329000", "123707.331000", "123707.334000", "123707.337000", "123727.508000", "123727.511000", "123727.513000", "123727.516000", "123727.519000", "123727.521000", "123727.524000", "123727.527000", "123727.529000", "123727.532000", "123727.535000"],
      "InstanceCreationTime": ["123147.293000", "123147.297000", "123147.299000", "123147.302000", "123147.305000", "123147.307000", "123147.310000", "123147.312000", "123147.315000", "123147.318000", "123147.320000", "123147.323000", "123147.325000", "123147.328000", "123147.331000", "123147.333000", "123147.336000", "123147.346000", "123147.349000", "123147.351000", "123147.354000", "123147.357000", "123147.369000", "123147.372000", "123147.374000", "123147.377000", "123147.380000", "123147.382000", "123147.385000", "123227.286000", "123227.290000", "123227.292000", "123227.295000", "123227.297000", "123227.313000", "123227.325000", "123227.328000", "123227.330000", "123227.333000", "123227.336000", "123227.338000", "123227.341000", "123227.343000", "123227.346000", "123227.349000", "123227.351000", "123227.354000", "123227.356000", "123227.359000", "123307.287000", "123307.290000", "123307.292000", "123307.295000", "123307.297000", "123307.300000", "123307.303000", "123307.305000", "123307.308000", "123307.311000", "123307.313000", "123307.316000", "123307.318000", "123307.321000", "123307.324000", "123307.326000", "123307.329000", "123307.331000", "123307.334000", "123307.336000", "123347.286000", "123347.289000", "123347.292000", "123347.295000", "123347.297000", "123347.300000", "123347.302000", "123347.312000", "123347.314000", "123347.317000", "123347.320000", "123347.322000", "123347.325000", "123347.328000", "123347.333000", "123347.336000", "123347.339000", "123347.341000", "123347.344000", "123347.346000", "123427.286000", "123427.290000", "123427.292000", "123427.295000", "123427.297000", "123427.300000", "123427.303000", "123427.305000", "123427.308000", "123427.311000", "123427.313000", "123427.316000", "123427.318000", "123427.321000", "123427.324000", "123427.326000", "123427.329000", "123427.331000", "123427.334000", "123427.337000", "123507.287000", "123507.290000", "123507.292000", "123507.295000", "123507.298000", "123507.300000", "123507.303000", "123507.305000", "123507.308000", "123507.311000", "123507.314000", "123507.317000", "123507.319000", "123507.322000", "123507.325000", "123507.327000", "123507.330000", "123507.333000", "123507.335000", "123507.338000", "123547.287000", "123547.290000", "123547.292000", "123547.295000", "123547.297000", "123547.300000", "123547.303000", "123547.305000", "123547.308000", "123547.311000", "123547.313000", "123547.316000", "123547.318000", "123547.321000", "123547.330000", "123547.333000", "123547.335000", "123547.338000", "123547.341000", "123547.343000", "123627.287000", "123627.290000", "123627.292000", "123627.295000", "123627.298000", "123627.300000", "123627.303000", "123627.305000", "123627.308000", "123627.311000", "123627.313000", "123627.316000", "123627.318000", "123627.321000", "123627.324000", "123627.326000", "123627.329000", "123627.332000", "123627.334000", "123627.343000", "123707.287000", "123707.290000", "123707.292000", "123707.295000", "123707.297000", "123707.300000", "123707.303000", "123707.305000", "123707.308000", "123707.311000", "123707.313000", "123707.316000", "123707.318000", "123707.321000", "123707.324000", "123707.326000", "123707.329000", "123707.331000", "123707.334000", "123707.337000", "123727.508000", "123727.511000", "123727.513000", "123727.516000", "123727.519000", "123727.521000", "123727.524000", "123727.527000", "123727.529000", "123727.532000", "123727.535000"],
      "InstanceNumber": [1, 2, 3, 4, 5, 6, 7, 8, 9, 10, 11, 12, 13, 14, 15, 16, 17, 18, 19, 20, 21, 22, 23, 24, 25, 26, 27, 28, 29, 30, 31, 32, 33, 34, 35, 36, 37, 38, 39, 40, 41, 42, 43, 44, 45, 46, 47, 48, 49, 50, 51, 52, 53, 54, 55, 56, 57, 58, 59, 60, 61, 62, 63, 64, 65, 66, 67, 68, 69, 70, 71, 72, 73, 74, 75, 76, 77, 78, 79, 80, 81, 82, 83, 84, 85, 86, 87, 88, 89, 90, 91, 92, 93, 94, 95, 96, 97, 98, 99, 100, 101, 102, 103, 104, 105, 106, 107, 108, 109, 110, 111, 112, 113, 114, 115, 116, 117, 118, 119, 120, 121, 122, 123, 124, 125, 126, 127, 128, 129, 130, 131, 132, 133, 134, 135, 136, 137, 138, 139, 140, 141, 142, 143, 144, 145, 146, 147, 148, 149, 150, 151, 152, 153, 154, 155, 156, 157, 158, 159, 160, 161, 162, 163, 164, 165, 166, 167, 168, 169, 170, 171, 172, 173, 174, 175, 176, 177, 178, 179, 180, 181, 182, 183, 184, 185, 186, 187, 188, 189, 190, 191, 192, 193, 194, 195, 196, 197, 198, 199, 200],
      "LargestImagePixelValue": [1960, 1959, 1955, 1960, 1959, 1963, 1962, 1959, 1959, 1964, 1964, 1960, 1958, 1963, 1962, 1961, 1958, 1961, 1960, 1963, 1962, 1963, 1956, 1957, 1968, 1963, 1960, 1963, 1960, 1962, 1960, 1959, 1959, 1962, 1959, 1961, 1961, 1958, 1959, 1962, 1959, 1954, 1963, 1966, 1963, 1958, 1966, 1961, 1959, 1964, 1957, 1960, 1961, 1961, 1960, 1961, 1965, 1960, 1958, 1963, 1958, 1961, 1959, 1959, 1964, 1962, 1961, 1959, 1956, 1957, 1957, 1959, 1960, 1964, 1964, 1961, 1960, 1960, 1957, 1960, 1960, 1960, 1959, 1956, 1958, 1959, 1957, 1958, 1959, 1955, 1956, 1962, 1963, 1954, 1957, 1959, 1960, 1960, 1960, 1958, 1959, 1960, 1958, 1957, 1957, 1960, 1964, 1957, 1957, 1956, 1961, 1959, 1958, 1962, 1962, 1960, 1957, 1959, 1958, 1956, 1955, 1959, 1961, 1963, 1961, 1960, 1957, 1957, 1958, 1962, 1961, 1957, 1956, 1959, 1962, 1963, 1960, 1959, 1957, 1956, 1957, 1959, 1963, 1962, 1962, 1960, 1960, 1963, 1963, 1962, 1962, 1964, 1965, 1965, 1964, 1957, 1962, 1960, 1962, 1964, 1965, 1967, 1960, 1958, 1960, 1961, 1964, 1963, 1959, 1960, 1963, 1963, 1964, 1961, 1961, 1961, 1961, 1959, 1962, 1961, 1966, 1969, 1964, 1959, 1959, 1965, 1966, 1964, 1965, 1970, 1964, 1960, 1963, 1965, 1964, 1964, 1965, 1969, 1966, 1960],
      "WindowCenter": [980.0, 980.0, 980.0, 980.0, 980.0, 980.0, 980.0, 980.0, 980.0, 980.0, 981.0, 981.0, 980.0, 981.0, 980.0, 980.0, 980.0, 980.0, 980.0, 980.0, 980.0, 980.0, 980.0, 980.0, 981.0, 980.0, 980.0, 980.0, 980.0, 978.0, 980.0, 980.0, 980.0, 980.0, 980.0, 981.0, 981.0, 980.0, 979.0, 981.0, 981.0, 980.0, 980.0, 980.0, 980.0, 980.0, 981.0, 981.0, 981.0, 981.0, 980.0, 980.0, 980.0, 980.0, 980.0, 981.0, 980.0, 980.0, 980.0, 981.0, 980.0, 980.0, 980.0, 980.0, 980.0, 980.0, 980.0, 980.0, 980.0, 979.0, 980.0, 981.0, 980.0, 980.0, 980.0, 980.0, 980.0, 980.0, 981.0, 980.0, 980.0, 980.0, 980.0, 980.0, 981.0, 980.0, 980.0, 980.0, 981.0, 980.0, 980.0, 980.0, 980.0, 980.0, 980.0, 980.0, 980.0, 980.0, 980.0, 980.0, 980.0, 980.0, 980.0, 979.0, 979.0, 980.0, 979.0, 980.0, 979.0, 979.0, 980.0, 980.0, 979.0, 979.0, 979.0, 979.0, 980.0, 979.0, 980.0, 980.0, 980.0, 979.0, 980.0, 979.0, 979.0, 979.0, 979.0, 980.0, 978.0, 979.0, 979.0, 979.0, 980.0, 979.0, 979.0, 979.0, 980.0, 979.0, 979.0, 979.0, 980.0, 979.0, 979.0, 979.0, 979.0, 980.0, 979.0, 979.0, 979.0, 979.0, 979.0, 979.0, 980.0, 979.0, 980.0, 979.0, 979.0, 980.0, 979.0, 979.0, 979.0, 980.0, 980.0, 979.0, 979.0, 979.0, 979.0, 979.0, 979.0, 979.0, 980.0, 979.0, 979.0, 979.0, 979.0, 980.0, 979.0, 979.0, 979.0, 979.0, 980.0, 980.0, 979.0, 979.0, 979.0, 979.0, 980.0, 979.0, 979.0, 980.0, 979.0, 979.0, 979.0, 979.0, 980.0, 980.0, 979.0, 980.0, 980.0, 980.0],
      "WindowWidth": [2153.0, 2153.0, 2153.0, 2153.0, 2152.0, 2153.0, 2153.0, 2153.0, 2153.0, 2153.0, 2153.0, 2153.0, 2153.0, 2153.0, 2152.0, 2153.0, 2152.0, 2152.0, 2152.0, 2152.0, 2152.0, 2152.0, 2153.0, 2153.0, 2153.0, 2152.0, 2152.0, 2152.0, 2152.0, 2151.0, 2152.0, 2152.0, 2152.0, 2152.0, 2152.0, 2153.0, 2153.0, 2152.0, 2151.0, 2153.0, 2152.0, 2152.0, 2152.0, 2152.0, 2152.0, 2152.0, 2152.0, 2152.0, 2152.0, 2152.0, 2152.0, 2152.0, 2152.0, 2152.0, 2152.0, 2152.0, 2152.0, 2152.0, 2152.0, 2152.0, 2152.0, 2151.0, 2152.0, 2152.0, 2152.0, 2152.0, 2152.0, 2152.0, 2151.0, 2151.0, 2152.0, 2152.0, 2152.0, 2152.0, 2152.0, 2152.0, 2152.0, 2152.0, 2152.0, 2152.0, 2152.0, 2151.0, 2152.0, 2151.0, 2152.0, 2151.0, 2151.0, 2151.0, 2152.0, 2151.0, 2152.0, 2151.0, 2151.0, 2152.0, 2152.0, 2152.0, 2152.0, 2151.0, 2152.0, 2151.0, 2151.0, 2152.0, 2151.0, 2151.0, 2151.0, 2152.0, 2151.0, 2151.0, 2151.0, 2151.0, 2152.0, 2152.0, 2151.0, 2151.0, 2151.0, 2151.0, 2152.0, 2150.0, 2152.0, 2151.0, 2151.0, 2150.0, 2152.0, 2150.0, 2151.0, 2151.0, 2151.0, 2151.0, 2150.0, 2151.0, 2151.0, 2150.0, 2151.0, 2150.0, 2150.0, 2150.0, 2151.0, 2150.0, 2150.0, 2150.0, 2151.0, 2151.0, 2150.0, 2151.0, 2150.0, 2151.0, 2150.0, 2150.0, 2150.0, 2151.0, 2150.0, 2150.0, 2151.0, 2151.0, 2152.0, 2151.0, 2150.0, 2151.0, 2151.0, 2150.0, 2151.0, 2151.0, 2151.0, 2150.0, 2150.0, 2150.0, 2150.0, 2151.0, 2151.0, 2150.0, 2151.0, 2151.0, 2151.0, 2150.0, 2151.0, 2152.0, 2150.0, 2151.0, 2150.0, 2150.0, 2151.0, 2152.0, 2150.0, 2151.0, 2151.0, 2150.0, 2151.0, 2151.0, 2150.0, 2151.0, 2150.0, 2150.0, 2151.0, 2151.0, 2151.0, 2151.0, 2150.0, 2151.0, 2151.0, 2151.0]
    },
    "slices": {}
  }
}