{
  "AcquisitionMatrixPE": 80,
  "AcquisitionNumber": 1,
  "AcquisitionTime": "12:37:34.497500",
  "BandwidthPerPixelPhaseEncode": 25,
  "BaseResolution": 80,
  "BodyPartExamined": "BRAIN",
  "CoilCombinationMethod": "Sum of Squares",
  "ConsistencyInfo": "N4_VE11C_LATEST_20160120",
  "ConversionSoftware": "dcm2niix",
  "ConversionSoftwareVersion": "v1.0.20220720",
  "DerivedVendorReportedEchoSpacing": 0.0005,
  "DeviceSerialNumber": "66112",
  "DwellTime": 2.7e-06,
  "EchoTime": 0.03,
  "EchoTrainLength": 80,
  "EffectiveEchoSpacing": 0.0005,
  "FlipAngle": 10,
  "HeudiconvVersion": "0.13.1",
  "ImageOrientationPatientDICOM": [0.999971, 0.00668461, 0.00377668, -0.00750485, 0.954818, 0.297095],
  "ImageOrientationText": "Tra>Cor(17.3)>Sag(0.1)",
  "ImageType": [
    "ORIGINAL",
    "PRIMARY",
    "M",
    "ND",
    "NORM",
    "MOSAIC"
],
  "ImagingFrequency": 123.252,
  "InPlanePhaseEncodingDirectionDICOM": "COL",
  "InstitutionAddress": "Maynard 3,Hanover,NH,US,03755",
  "InstitutionName": "Dartmouth College - PBS",
  "InstitutionalDepartmentName": "Department",
  "MRAcquisitionType": "2D",
  "MagneticFieldStrength": 3,
  "Manufacturer": "Siemens",
  "ManufacturersModelName": "Prisma",
  "MatrixCoilMode": "SENSE",
  "Modality": "MR",
  "NonlinearGradientCorrection": false,
  "PartialFourier": 1,
  "PatientPosition": "HFS",
  "PercentPhaseFOV": 100,
  "PercentSampling": 100,
  "PhaseEncodingDirection": "j-",
  "PhaseEncodingSteps": 80,
  "PhaseResolution": 1,
  "PixelBandwidth": 2315,
  "ProcedureStepDescription": "dbic^QA",
  "ProtocolName": "func-bold_fa-10",
  "PulseSequenceDetails": "%SiemensSeq%\\ep2d_bold",
  "ReceiveCoilActiveElements": "HEA;HEP",
  "ReceiveCoilName": "Head_32",
  "ReconMatrixPE": 80,
  "RepetitionTime": 2,
  "SAR": 0.0116729,
  "ScanOptions": "FS",
  "ScanningSequence": "EP",
  "SequenceName": "*epfid2d1_80",
  "SequenceVariant": "SK",
  "SeriesDescription": "func-bold_fa-10",
  "SeriesNumber": 10,
  "ShimSetting": [4146, -7701, -7518, 254, -92, -94, -14, 66],
  "SliceThickness": 3.5,
  "SliceTiming": [0.99, 0, 1.055, 0.065, 1.12, 0.13, 1.1875, 0.1975, 1.2525, 0.2625, 1.3175, 0.33, 1.385, 0.395, 1.45, 0.46, 1.5175, 0.5275, 1.5825, 0.5925, 1.6475, 0.66, 1.715, 0.725, 1.78, 0.79, 1.8475, 0.8575, 1.9125, 0.9225],
  "SoftwareVersions": "syngo MR E11",
  "SpacingBetweenSlices": 3.99,
  "StationName": "AWP66112",
  "TotalReadoutTime": 0.0395,
  "TxRefAmp": 221.08,
  "dcmmeta_affine": [
    [-2.9999115467071533, -0.022514542564749718, 0.006464108359068632, 120.64572143554688],
    [-0.020053843036293983, 2.864454984664917, 1.1854884624481201, -117.85928344726562],
    [0.011330044828355312, -0.8912859559059143, 3.8098130226135254, -21.040283203125],
    [0.0, 0.0, 0.0, 1.0]
],
  "dcmmeta_reorient_transform": [
    [0.0, -1.0, 0.0, 79.0],
    [1.0, 0.0, 0.0, 0.0],
    [0.0, 0.0, 1.0, 0.0],
    [0.0, 0.0, 0.0, 1.0]
],
  "dcmmeta_shape": [80, 80, 30, 200],
  "dcmmeta_slice_dim": 2,
  "dcmmeta_version": 0.6,
  "global": {
    "const": {
      "AccessionNumber": "qa",
      "AcquisitionMatrix": [80, 0, 0, 80],
      "AngioFlag": "N",
      "BitsAllocated": 16,
      "BitsStored": 12,
      "BodyPartExamined": "BRAIN",
      "Columns": 480,
      "EchoNumbers": 1,
      "EchoTime": 30.0,
      "EchoTrainLength": 80,
      "FlipAngle": 10.0,
      "HighBit": 11,
      "ImageOrientationPatient": [0.99997052587109, 0.00668461406197, 0.00377668160436, -0.0075048476672, 0.95481833500233, 0.29709531198737],
      "ImagePositionPatient": [-714.34648245192, -685.33443093204, -271.97506820465],
      "ImageType": [
        "ORIGINAL",
        "PRIMARY",
        "M",
        "ND",
        "NORM",
        "MOSAIC"
],
      "ImagedNucleus": "1H",
      "ImagingFrequency": 123.252342,
      "InPlanePhaseEncodingDirection": "COL",
      "MRAcquisitionType": "2D",
      "MagneticFieldStrength": 3.0,
      "Manufacturer": "SIEMENS",
      "ManufacturerModelName": "Prisma",
      "Modality": "MR",
      "NumberOfAverages": 1.0,
      "NumberOfPhaseEncodingSteps": 80,
      "PercentPhaseFieldOfView": 100.0,
      "PercentSampling": 100.0,
      "PerformedProcedureStepStartTime": "120615.775000",
      "PhotometricInterpretation": "MONOCHROME2",
      "PixelBandwidth": 2315.0,
      "PixelRepresentation": 0,
      "PixelSpacing": [3.0, 3.0],
      "ProtocolName": "func-bold_fa-10",
      "RepetitionTime": 2000.0,
      "Rows": 480,
      "SAR": 0.01167293341373,
      "SamplesPerPixel": 1,
      "ScanOptions": "FS",
      "ScanningSequence": "EP",
      "SequenceName": "*epfid2d1_80",
      "SequenceVariant": "SK",
      "SeriesDescription": "func-bold_fa-10",
      "SeriesNumber": 10,
      "SeriesTime": "123827.148000",
      "SliceLocation": -54.912405291604,
      "SliceThickness": 3.5,
      "SmallestImagePixelValue": 0,
      "SoftwareVersions": "syngo MR E11",
      "SpacingBetweenSlices": 3.9899999751273,
      "SpecificCharacterSet": "ISO_IR 100",
      "StudyID": "49",
      "StudyTime": "120615.717000",
      "TransmitCoilName": "Body",
      "VariableFlipAngleFlag": "N",
      "WindowCenterWidthExplanation": "Algo1",
      "dBdt": 0.0},
    "slices": {}
  },
  "time": {
    "samples": {
      "AcquisitionNumber": [1, 2, 3, 4, 5, 6, 7, 8, 9, 10, 11, 12, 13, 14, 15, 16, 17, 18, 19, 20, 21, 22, 23, 24, 25, 26, 27, 28, 29, 30, 31, 32, 33, 34, 35, 36, 37, 38, 39, 40, 41, 42, 43, 44, 45, 46, 47, 48, 49, 50, 51, 52, 53, 54, 55, 56, 57, 58, 59, 60, 61, 62, 63, 64, 65, 66, 67, 68, 69, 70, 71, 72, 73, 74, 75, 76, 77, 78, 79, 80, 81, 82, 83, 84, 85, 86, 87, 88, 89, 90, 91, 92, 93, 94, 95, 96, 97, 98, 99, 100, 101, 102, 103, 104, 105, 106, 107, 108, 109, 110, 111, 112, 113, 114, 115, 116, 117, 118, 119, 120, 121, 122, 123, 124, 125, 126, 127, 128, 129, 130, 131, 132, 133, 134, 135, 136, 137, 138, 139, 140, 141, 142, 143, 144, 145, 146, 147, 148, 149, 150, 151, 152, 153, 154, 155, 156, 157, 158, 159, 160, 161, 162, 163, 164, 165, 166, 167, 168, 169, 170, 171, 172, 173, 174, 175, 176, 177, 178, 179, 180, 181, 182, 183, 184, 185, 186, 187, 188, 189, 190, 191, 192, 193, 194, 195, 196, 197, 198, 199, 200],
      "AcquisitionTime": ["123734.497500", "123736.497500", "123738.497500", "123740.497500", "123742.497500", "123744.497500", "123746.497500", "123748.497500", "123750.497500", "123752.497500", "123754.497500", "123756.497500", "123758.497500", "123800.497500", "123802.497500", "123804.497500", "123806.497500", "123808.497500", "123810.497500", "123812.497500", "123814.497500", "123816.497500", "123818.497500", "123820.497500", "123822.497500", "123824.497500", "123826.497500", "123828.497500", "123830.497500", "123832.497500", "123834.497500", "123836.497500", "123838.497500", "123840.497500", "123842.497500", "123844.497500", "123846.497500", "123848.497500", "123850.497500", "123852.497500", "123854.497500", "123856.497500", "123858.497500", "123900.497500", "123902.497500", "123904.497500", "123906.497500", "123908.497500", "123910.497500", "123912.497500", "123914.497500", "123916.497500", "123918.497500", "123920.497500", "123922.497500", "123924.497500", "123926.497500", "123928.497500", "123930.497500", "123932.497500", "123934.497500", "123936.497500", "123938.497500", "123940.497500", "123942.497500", "123944.497500", "123946.497500", "123948.497500", "123950.497500", "123952.497500", "123954.497500", "123956.497500", "123958.497500", "124000.497500", "124002.497500", "124004.497500", "124006.497500", "124008.497500", "124010.497500", "124012.497500", "124014.497500", "124016.497500", "124018.497500", "124020.497500", "124022.497500", "124024.497500", "124026.497500", "124028.497500", "124030.497500", "124032.497500", "124034.497500", "124036.497500", "124038.497500", "124040.497500", "124042.497500", "124044.497500", "124046.497500", "124048.497500", "124050.497500", "124052.497500", "124054.497500", "124056.497500", "124058.497500", "124100.497500", "124102.497500", "124104.497500", "124106.497500", "124108.497500", "124110.497500", "124112.497500", "124114.497500", "124116.497500", "124118.497500", "124120.497500", "124122.497500", "124124.497500", "124126.497500", "124128.497500", "124130.497500", "124132.497500", "124134.497500", "124136.497500", "124138.497500", "124140.497500", "124142.497500", "124144.497500", "124146.497500", "124148.497500", "124150.497500", "124152.497500", "124154.497500", "124156.497500", "124158.497500", "124200.497500", "124202.497500", "124204.497500", "124206.497500", "124208.497500", "124210.497500", "124212.497500", "124214.497500", "124216.497500", "124218.497500", "124220.497500", "124222.497500", "124224.497500", "124226.497500", "124228.497500", "124230.497500", "124232.497500", "124234.497500", "124236.497500", "124238.497500", "124240.497500", "124242.497500", "124244.497500", "124246.497500", "124248.497500", "124250.497500", "124252.497500", "124254.497500", "124256.497500", "124258.497500", "124300.497500", "124302.497500", "124304.497500", "124306.497500", "124308.497500", "124310.497500", "124312.497500", "124314.497500", "124316.497500", "124318.497500", "124320.497500", "124322.497500", "124324.497500", "124326.497500", "124328.497500", "124330.497500", "124332.497500", "124334.497500", "124336.497500", "124338.497500", "124340.497500", "124342.497500", "124344.497500", "124346.497500", "124348.497500", "124350.497500", "124352.497500", "124354.497500", "124356.497500", "124358.497500", "124400.497500", "124402.497500", "124404.497500", "124406.497500", "124408.497500", "124410.497500", "124412.497500"],
      "ContentTime": ["123827.151000", "123827.161000", "123827.163000", "123827.166000", "123827.169000", "123827.171000", "123827.174000", "123827.176000", "123827.184000", "123827.187000", "123827.190000", "123827.192000", "123827.195000", "123827.197000", "123827.200000", "123827.203000", "123827.205000", "123827.208000", "123827.210000", "123827.213000", "123827.216000", "123827.218000", "123827.221000", "123827.223000", "123827.226000", "123827.228000", "123907.146000", "123907.149000", "123907.152000", "123907.154000", "123907.157000", "123907.160000", "123907.162000", "123907.165000", "123907.168000", "123907.170000", "123907.173000", "123907.175000", "123907.178000", "123907.180000", "123907.183000", "123907.186000", "123907.199000", "123907.201000", "123907.204000", "123907.206000", "123947.146000", "123947.149000", "123947.152000", "123947.154000", "123947.165000", "123947.168000", "123947.170000", "123947.173000", "123947.175000", "123947.178000", "123947.180000", "123947.183000", "123947.186000", "123947.188000", "123947.191000", "123947.193000", "123947.196000", "123947.198000", "123947.201000", "123947.204000", "124027.147000", "124027.149000", "124027.152000", "124027.154000", "124027.157000", "124027.160000", "124027.162000", "124027.165000", "124027.168000", "124027.170000", "124027.173000", "124027.175000", "124027.178000", "124027.180000", "124027.183000", "124027.185000", "124027.188000", "124027.191000", "124027.193000", "124027.196000", "124107.147000", "124107.149000", "124107.152000", "124107.155000", "124107.157000", "124107.160000", "124107.163000", "124107.165000", "124107.168000", "124107.170000", "124107.173000", "124107.176000", "124107.179000", "124107.193000", "124107.196000", "124107.198000", "124107.201000", "124107.204000", "124107.206000", "124107.209000", "124147.146000", "124147.149000", "124147.152000", "124147.154000", "124147.157000", "124147.160000", "124147.162000", "124147.165000", "124147.167000", "124147.170000", "124147.175000", "124147.177000", "124147.180000", "124147.183000", "124147.185000", "124147.188000", "124147.190000", "124147.193000", "124147.196000", "124147.198000", "124227.146000", "124227.149000", "124227.152000", "124227.154000", "124227.157000", "124227.160000", "124227.162000", "124227.165000", "124227.167000", "124227.170000", "124227.173000", "124227.175000", "124227.178000", "124227.180000", "124227.183000", "124227.186000", "124227.188000", "124227.191000", "124227.193000", "124227.196000", "124307.147000", "124307.149000", "124307.152000", "124307.155000", "124307.158000", "124307.160000", "124307.163000", "124307.165000", "124307.168000", "124307.175000", "124307.178000", "124307.180000", "124307.183000", "124307.186000", "124307.188000", "124307.191000", "124307.194000", "124307.196000", "124307.199000", "124307.201000", "124347.147000", "124347.149000", "124347.152000", "124347.155000", "124347.157000", "124347.160000", "124347.162000", "124347.165000", "124347.168000", "124347.170000", "124347.173000", "124347.175000", "124347.178000", "124347.181000", "124347.183000", "124347.186000", "124347.188000", "124347.191000", "124347.193000", "124347.196000", "124413.890000", "124413.893000", "124413.896000", "124413.898000", "124413.901000", "124413.904000", "124413.906000", "124413.909000", "124413.912000", "124413.914000", "124413.917000", "124413.920000", "124413.922000", "124413.926000"],
      "InstanceCreationTime": ["123827.151000", "123827.161000", "123827.163000", "123827.166000", "123827.169000", "123827.171000", "123827.174000", "123827.176000", "123827.184000", "123827.187000", "123827.190000", "123827.192000", "123827.195000", "123827.197000", "123827.200000", "123827.203000", "123827.205000", "123827.208000", "123827.210000", "123827.213000", "123827.216000", "123827.218000", "123827.221000", "123827.223000", "123827.226000", "123827.228000", "123907.146000", "123907.149000", "123907.152000", "123907.154000", "123907.157000", "123907.160000", "123907.162000", "123907.165000", "123907.168000", "123907.170000", "123907.173000", "123907.175000", "123907.178000", "123907.180000", "123907.183000", "123907.186000", "123907.199000", "123907.201000", "123907.204000", "123907.206000", "123947.146000", "123947.149000", "123947.152000", "123947.154000", "123947.165000", "123947.168000", "123947.170000", "123947.173000", "123947.175000", "123947.178000", "123947.180000", "123947.183000", "123947.186000", "123947.188000", "123947.191000", "123947.193000", "123947.196000", "123947.198000", "123947.201000", "123947.204000", "124027.147000", "124027.149000", "124027.152000", "124027.154000", "124027.157000", "124027.160000", "124027.162000", "124027.165000", "124027.168000", "124027.170000", "124027.173000", "124027.175000", "124027.178000", "124027.180000", "124027.183000", "124027.185000", "124027.188000", "124027.191000", "124027.193000", "124027.196000", "124107.147000", "124107.149000", "124107.152000", "124107.155000", "124107.157000", "124107.160000", "124107.163000", "124107.165000", "124107.168000", "124107.170000", "124107.173000", "124107.176000", "124107.179000", "124107.193000", "124107.196000", "124107.198000", "124107.201000", "124107.204000", "124107.206000", "124107.209000", "124147.146000", "124147.149000", "124147.152000", "124147.154000", "124147.157000", "124147.160000", "124147.162000", "124147.165000", "124147.167000", "124147.170000", "124147.175000", "124147.177000", "124147.180000", "124147.183000", "124147.185000", "124147.188000", "124147.190000", "124147.193000", "124147.196000", "124147.198000", "124227.146000", "124227.149000", "124227.152000", "124227.154000", "124227.157000", "124227.160000", "124227.162000", "124227.165000", "124227.167000", "124227.170000", "124227.173000", "124227.175000", "124227.178000", "124227.180000", "124227.183000", "124227.186000", "124227.188000", "124227.191000", "124227.193000", "124227.196000", "124307.147000", "124307.149000", "124307.152000", "124307.155000", "124307.158000", "124307.160000", "124307.163000", "124307.165000", "124307.168000", "124307.175000", "124307.178000", "124307.180000", "124307.183000", "124307.186000", "124307.188000", "124307.191000", "124307.194000", "124307.196000", "124307.199000", "124307.201000", "124347.147000", "124347.149000", "124347.152000", "124347.155000", "124347.157000", "124347.160000", "124347.162000", "124347.165000", "124347.168000", "124347.170000", "124347.173000", "124347.175000", "124347.178000", "124347.181000", "124347.183000", "124347.186000", "124347.188000", "124347.191000", "124347.193000", "124347.196000", "124413.890000", "124413.893000", "124413.896000", "124413.898000", "124413.901000", "124413.904000", "124413.906000", "124413.909000", "124413.912000", "124413.914000", "124413.917000", "124413.920000", "124413.922000", "124413.926000"],
      "InstanceNumber": [1, 2, 3, 4, 5, 6, 7, 8, 9, 10, 11, 12, 13, 14, 15, 16, 17, 18, 19, 20, 21, 22, 23, 24, 25, 26, 27, 28, 29, 30, 31, 32, 33, 34, 35, 36, 37, 38, 39, 40, 41, 42, 43, 44, 45, 46, 47, 48, 49, 50, 51, 52, 53, 54, 55, 56, 57, 58, 59, 60, 61, 62, 63, 64, 65, 66, 67, 68, 69, 70, 71, 72, 73, 74, 75, 76, 77, 78, 79, 80, 81, 82, 83, 84, 85, 86, 87, 88, 89, 90, 91, 92, 93, 94, 95, 96, 97, 98, 99, 100, 101, 102, 103, 104, 105, 106, 107, 108, 109, 110, 111, 112, 113, 114, 115, 116, 117, 118, 119, 120, 121, 122, 123, 124, 125, 126, 127, 128, 129, 130, 131, 132, 133, 134, 135, 136, 137, 138, 139, 140, 141, 142, 143, 144, 145, 146, 147, 148, 149, 150, 151, 152, 153, 154, 155, 156, 157, 158, 159, 160, 161, 162, 163, 164, 165, 166, 167, 168, 169, 170, 171, 172, 173, 174, 175, 176, 177, 178, 179, 180, 181, 182, 183, 184, 185, 186, 187, 188, 189, 190, 191, 192, 193, 194, 195, 196, 197, 198, 199, 200],
      "LargestImagePixelValue": [339, 336, 339, 341, 338, 339, 342, 337, 337, 337, 338, 343, 338, 338, 341, 338, 338, 339, 338, 336, 339, 342, 338, 340, 340, 343, 337, 337, 341, 340, 341, 341, 338, 340, 337, 337, 340, 339, 339, 339, 337, 339, 340, 336, 338, 338, 339, 338, 342, 337, 341, 338, 337, 337, 340, 338, 338, 338, 340, 338, 339, 340, 338, 337, 339, 337, 339, 339, 339, 338, 338, 339, 339, 341, 341, 342, 338, 338, 336, 336, 339, 336, 336, 339, 338, 338, 340, 338, 339, 337, 338, 340, 343, 337, 336, 337, 339, 339, 336, 338, 338, 336, 336, 336, 339, 337, 337, 339, 338, 336, 336, 338, 341, 335, 339, 336, 340, 341, 339, 336, 336, 338, 338, 337, 339, 336, 338, 336, 338, 338, 337, 337, 337, 337, 339, 337, 340, 339, 339, 339, 339, 339, 339, 344, 340, 337, 336, 338, 336, 337, 337, 338, 340, 338, 338, 337, 340, 339, 337, 335, 338, 336, 337, 338, 335, 337, 337, 336, 337, 342, 342, 340, 337, 338, 338, 335, 338, 341, 336, 336, 337, 337, 339, 338, 340, 336, 339, 335, 338, 337, 337, 338, 337, 339, 336, 335, 338, 337, 338, 339],
      "WindowCenter": [281.0, 281.0, 281.0, 281.0, 281.0, 281.0, 281.0, 281.0, 281.0, 281.0, 281.0, 281.0, 281.0, 281.0, 281.0, 281.0, 281.0, 281.0, 281.0, 281.0, 281.0, 281.0, 281.0, 281.0, 281.0, 281.0, 281.0, 281.0, 281.0, 281.0, 281.0, 281.0, 281.0, 281.0, 281.0, 281.0, 281.0, 281.0, 281.0, 281.0, 281.0, 281.0, 281.0, 281.0, 281.0, 281.0, 281.0, 281.0, 281.0, 281.0, 281.0, 281.0, 281.0, 281.0, 281.0, 281.0, 281.0, 281.0, 281.0, 281.0, 281.0, 281.0, 281.0, 281.0, 281.0, 281.0, 281.0, 281.0, 281.0, 281.0, 281.0, 281.0, 281.0, 281.0, 281.0, 281.0, 281.0, 281.0, 281.0, 281.0, 281.0, 281.0, 281.0, 281.0, 281.0, 281.0, 281.0, 281.0, 280.0, 281.0, 281.0, 281.0, 281.0, 281.0, 281.0, 281.0, 281.0, 281.0, 281.0, 281.0, 281.0, 281.0, 281.0, 281.0, 281.0, 281.0, 281.0, 281.0, 281.0, 281.0, 281.0, 281.0, 281.0, 281.0, 281.0, 281.0, 281.0, 281.0, 281.0, 280.0, 281.0, 281.0, 281.0, 281.0, 281.0, 281.0, 281.0, 281.0, 280.0, 280.0, 281.0, 281.0, 281.0, 281.0, 280.0, 281.0, 280.0, 281.0, 281.0, 281.0, 281.0, 281.0, 281.0, 281.0, 280.0, 280.0, 281.0, 281.0, 281.0, 280.0, 281.0, 280.0, 281.0, 281.0, 281.0, 280.0, 281.0, 280.0, 280.0, 280.0, 280.0, 281.0, 281.0, 280.0, 281.0, 281.0, 280.0, 281.0, 280.0, 280.0, 280.0, 281.0, 281.0, 281.0, 280.0, 280.0, 281.0, 280.0, 280.0, 280.0, 281.0, 281.0, 280.0, 280.0, 280.0, 280.0, 280.0, 280.0, 280.0, 280.0, 280.0, 281.0, 280.0, 280.0, 280.0, 280.0, 280.0, 280.0, 280.0, 280.0],
      "WindowWidth": [615.0, 614.0, 614.0, 614.0, 614.0, 614.0, 614.0, 614.0, 614.0, 614.0, 614.0, 614.0, 615.0, 614.0, 614.0, 614.0, 615.0, 614.0, 615.0, 615.0, 614.0, 614.0, 615.0, 614.0, 614.0, 614.0, 614.0, 614.0, 614.0, 614.0, 614.0, 614.0, 614.0, 614.0, 614.0, 614.0, 614.0, 614.0, 614.0, 614.0, 614.0, 614.0, 614.0, 614.0, 614.0, 614.0, 614.0, 614.0, 614.0, 614.0, 614.0, 614.0, 614.0, 614.0, 614.0, 614.0, 614.0, 614.0, 614.0, 614.0, 614.0, 614.0, 614.0, 614.0, 614.0, 614.0, 614.0, 614.0, 614.0, 614.0, 614.0, 614.0, 614.0, 614.0, 614.0, 614.0, 614.0, 614.0, 614.0, 614.0, 614.0, 614.0, 614.0, 614.0, 614.0, 614.0, 614.0, 614.0, 613.0, 614.0, 614.0, 614.0, 614.0, 614.0, 614.0, 614.0, 614.0, 614.0, 614.0, 614.0, 614.0, 614.0, 614.0, 614.0, 614.0, 614.0, 614.0, 614.0, 614.0, 614.0, 614.0, 614.0, 614.0, 614.0, 614.0, 614.0, 614.0, 614.0, 614.0, 613.0, 614.0, 614.0, 614.0, 614.0, 614.0, 614.0, 614.0, 614.0, 613.0, 613.0, 614.0, 614.0, 614.0, 614.0, 613.0, 614.0, 613.0, 614.0, 614.0, 614.0, 614.0, 614.0, 614.0, 614.0, 613.0, 613.0, 614.0, 614.0, 614.0, 613.0, 614.0, 613.0, 614.0, 614.0, 614.0, 613.0, 614.0, 613.0, 613.0, 613.0, 613.0, 614.0, 614.0, 613.0, 614.0, 614.0, 613.0, 614.0, 613.0, 613.0, 613.0, 614.0, 614.0, 614.0, 613.0, 613.0, 614.0, 613.0, 613.0, 613.0, 614.0, 614.0, 613.0, 613.0, 613.0, 613.0, 613.0, 613.0, 613.0, 613.0, 613.0, 614.0, 613.0, 613.0, 613.0, 613.0, 613.0, 613.0, 613.0, 613.0]
    },
    "slices": {}
  }
}