{
  "AcquisitionMatrixPE": 80,
  "AcquisitionNumber": 1,
  "AcquisitionTime": "10:10:10.500000",
  "BandwidthPerPixelPhaseEncode": 25,
  "BaseResolution": 80,
  "BodyPartExamined": "BRAIN",
  "CoilCombinationMethod": "Sum of Squares",
  "ConsistencyInfo": "N4_VE11E_LATEST_20181129",
  "ConversionSoftware": "dcm2niix",
  "ConversionSoftwareVersion": "v1.0.20220720",
  "DerivedVendorReportedEchoSpacing": 0.0005,
  "DeviceSerialNumber": "66112",
  "DwellTime": 2.7e-06,
  "EchoTime": 0.03,
  "EchoTrainLength": 80,
  "EffectiveEchoSpacing": 0.0005,
  "FlipAngle": 10,
  "HeudiconvVersion": "0.13.1",
  "ImageOrientationPatientDICOM": [0.988162, -0.153412, 0.00110885, 0.14539, 0.938753, 0.312416],
  "ImageOrientationText": "Tra>Cor(18.0)>Sag(2.8)",
  "ImageType": [
    "ORIGINAL",
    "PRIMARY",
    "M",
    "ND",
    "NORM",
    "MOSAIC"
],
  "ImagingFrequency": 123.259,
  "InPlanePhaseEncodingDirectionDICOM": "COL",
  "InstitutionAddress": "Maynard 3,Hanover,NH,US,03755",
  "InstitutionName": "Dartmouth College - PBS",
  "InstitutionalDepartmentName": "Department",
  "MRAcquisitionType": "2D",
  "MagneticFieldStrength": 3,
  "Manufacturer": "Siemens",
  "ManufacturersModelName": "Prisma",
  "MatrixCoilMode": "SENSE",
  "Modality": "MR",
  "NonlinearGradientCorrection": false,
  "PartialFourier": 1,
  "PatientPosition": "HFS",
  "PercentPhaseFOV": 100,
  "PercentSampling": 100,
  "PhaseEncodingDirection": "j-",
  "PhaseEncodingSteps": 80,
  "PhaseResolution": 1,
  "PixelBandwidth": 2315,
  "ProcedureStepDescription": "dbic^QA",
  "ProtocolName": "func-bold_fa-10",
  "PulseSequenceDetails": "%SiemensSeq%\\ep2d_bold",
  "ReceiveCoilActiveElements": "HC1-7;NC1,2",
  "ReceiveCoilName": "HeadNeck_64",
  "ReconMatrixPE": 80,
  "RepetitionTime": 2,
  "SAR": 0.00866681,
  "ScanOptions": "FS",
  "ScanningSequence": "EP",
  "SequenceName": "*epfid2d1_80",
  "SequenceVariant": "SK",
  "SeriesDescription": "func-bold_fa-10",
  "SeriesNumber": 9,
  "ShimSetting": [4215, -7744, -7479, -115, -143, -304, -18, 94],
  "SliceThickness": 3.5,
  "SliceTiming": [0.99, 0, 1.0575, 0.0675, 1.1225, 0.1325, 1.19, 0.2, 1.255, 0.265, 1.32, 0.33, 1.3875, 0.3975, 1.4525, 0.4625, 1.52, 0.53, 1.585, 0.595, 1.65, 0.66, 1.7175, 0.7275, 1.7825, 0.7925, 1.8475, 0.86, 1.915, 0.925],
  "SoftwareVersions": "syngo MR E11",
  "SpacingBetweenSlices": 3.99,
  "StationName": "AWP66112",
  "TotalReadoutTime": 0.0395,
  "TxRefAmp": 217.225,
  "dcmmeta_affine": [
    [-2.9644851684570312, 0.4361713230609894, 0.1953873187303543, 99.83692169189453],
    [0.46023496985435486, 2.8162596225738525, 1.2311413288116455, -139.28578186035156],
    [0.0033265494275838137, -0.9372491836547852, 3.790278911590576, -20.87605857849121],
    [0.0, 0.0, 0.0, 1.0]
],
  "dcmmeta_reorient_transform": [
    [0.0, -1.0, 0.0, 79.0],
    [1.0, 0.0, 0.0, 0.0],
    [0.0, 0.0, 1.0, 0.0],
    [0.0, 0.0, 0.0, 1.0]
],
  "dcmmeta_shape": [80, 80, 30, 200],
  "dcmmeta_slice_dim": 2,
  "dcmmeta_version": 0.6,
  "global": {
    "const": {
      "AccessionNumber": "qa64",
      "AcquisitionMatrix": [80, 0, 0, 80],
      "AngioFlag": "N",
      "BitsAllocated": 16,
      "BitsStored": 12,
      "BodyPartExamined": "BRAIN",
      "Columns": 480,
      "EchoNumbers": 1,
      "EchoTime": 30.0,
      "EchoTrainLength": 80,
      "FlipAngle": 10.0,
      "HighBit": 11,
      "ImageOrientationPatient": [0.98816174444275, -0.1534116595047, 0.00110884979939, 0.14539043639904, 0.93875322500712, 0.31241639448407],
      "ImagePositionPatient": [-814.42576547758, -554.40367557484, -283.03389121612],
      "ImageType": [
        "ORIGINAL",
        "PRIMARY",
        "M",
        "ND",
        "NORM",
        "MOSAIC"
],
      "ImagedNucleus": "1H",
      "ImagingFrequency": 123.259282,
      "InPlanePhaseEncodingDirection": "COL",
      "MRAcquisitionType": "2D",
      "MagneticFieldStrength": 3.0,
      "Manufacturer": "SIEMENS",
      "ManufacturerModelName": "Prisma",
      "Modality": "MR",
      "NumberOfAverages": 1.0,
      "NumberOfPhaseEncodingSteps": 80,
      "PercentPhaseFieldOfView": 100.0,
      "PercentSampling": 100.0,
      "PerformedProcedureStepStartTime": "095207.253000",
      "PhotometricInterpretation": "MONOCHROME2",
      "PixelBandwidth": 2315.0,
      "PixelRepresentation": 0,
      "PixelSpacing": [3.0, 3.0],
      "ProtocolName": "func-bold_fa-10",
      "RepetitionTime": 2000.0,
      "Rows": 480,
      "SAR": 0.00866680932335,
      "SamplesPerPixel": 1,
      "ScanOptions": "FS",
      "ScanningSequence": "EP",
      "SequenceName": "*epfid2d1_80",
      "SequenceVariant": "SK",
      "SeriesDescription": "func-bold_fa-10",
      "SeriesNumber": 9,
      "SeriesTime": "101101.120000",
      "SliceLocation": -57.919722143247,
      "SliceThickness": 3.5,
      "SmallestImagePixelValue": 0,
      "SoftwareVersions": "syngo MR E11",
      "SpacingBetweenSlices": 3.9899999788796,
      "SpecificCharacterSet": "ISO_IR 100",
      "StudyID": "25",
      "StudyTime": "095207.194000",
      "TransmitCoilName": "Body",
      "VariableFlipAngleFlag": "N",
      "WindowCenterWidthExplanation": "Algo1"
    },
    "slices": {}
  },
  "time": {
    "samples": {
      "AcquisitionNumber": [1, 2, 3, 4, 5, 6, 7, 8, 9, 10, 11, 12, 13, 14, 15, 16, 17, 18, 19, 20, 21, 22, 23, 24, 25, 26, 27, 28, 29, 30, 31, 32, 33, 34, 35, 36, 37, 38, 39, 40, 41, 42, 43, 44, 45, 46, 47, 48, 49, 50, 51, 52, 53, 54, 55, 56, 57, 58, 59, 60, 61, 62, 63, 64, 65, 66, 67, 68, 69, 70, 71, 72, 73, 74, 75, 76, 77, 78, 79, 80, 81, 82, 83, 84, 85, 86, 87, 88, 89, 90, 91, 92, 93, 94, 95, 96, 97, 98, 99, 100, 101, 102, 103, 104, 105, 106, 107, 108, 109, 110, 111, 112, 113, 114, 115, 116, 117, 118, 119, 120, 121, 122, 123, 124, 125, 126, 127, 128, 129, 130, 131, 132, 133, 134, 135, 136, 137, 138, 139, 140, 141, 142, 143, 144, 145, 146, 147, 148, 149, 150, 151, 152, 153, 154, 155, 156, 157, 158, 159, 160, 161, 162, 163, 164, 165, 166, 167, 168, 169, 170, 171, 172, 173, 174, 175, 176, 177, 178, 179, 180, 181, 182, 183, 184, 185, 186, 187, 188, 189, 190, 191, 192, 193, 194, 195, 196, 197, 198, 199, 200],
      "AcquisitionTime": ["101010.500000", "101012.500000", "101014.500000", "101016.500000", "101018.500000", "101020.500000", "101022.500000", "101024.500000", "101026.500000", "101028.500000", "101030.500000", "101032.500000", "101034.500000", "101036.500000", "101038.500000", "101040.500000", "101042.500000", "101044.500000", "101046.500000", "101048.500000", "101050.500000", "101052.500000", "101054.500000", "101056.500000", "101058.500000", "101100.500000", "101102.500000", "101104.500000", "101106.500000", "101108.500000", "101110.500000", "101112.500000", "101114.500000", "101116.500000", "101118.500000", "101120.500000", "101122.500000", "101124.500000", "101126.500000", "101128.500000", "101130.500000", "101132.500000", "101134.500000", "101136.500000", "101138.500000", "101140.500000", "101142.500000", "101144.500000", "101146.500000", "101148.500000", "101150.500000", "101152.500000", "101154.500000", "101156.500000", "101158.500000", "101200.500000", "101202.500000", "101204.500000", "101206.500000", "101208.500000", "101210.500000", "101212.500000", "101214.500000", "101216.500000", "101218.500000", "101220.500000", "101222.500000", "101224.500000", "101226.500000", "101228.500000", "101230.500000", "101232.500000", "101234.500000", "101236.500000", "101238.500000", "101240.500000", "101242.500000", "101244.500000", "101246.500000", "101248.500000", "101250.500000", "101252.500000", "101254.500000", "101256.500000", "101258.500000", "101300.500000", "101302.500000", "101304.500000", "101306.500000", "101308.500000", "101310.500000", "101312.500000", "101314.500000", "101316.500000", "101318.500000", "101320.500000", "101322.500000", "101324.500000", "101326.500000", "101328.500000", "101330.500000", "101332.500000", "101334.500000", "101336.500000", "101338.500000", "101340.500000", "101342.500000", "101344.500000", "101346.500000", "101348.500000", "101350.500000", "101352.500000", "101354.500000", "101356.500000", "101358.500000", "101400.500000", "101402.500000", "101404.500000", "101406.500000", "101408.500000", "101410.500000", "101412.500000", "101414.500000", "101416.500000", "101418.500000", "101420.500000", "101422.500000", "101424.500000", "101426.500000", "101428.500000", "101430.500000", "101432.500000", "101434.500000", "101436.500000", "101438.500000", "101440.500000", "101442.500000", "101444.500000", "101446.500000", "101448.500000", "101450.500000", "101452.500000", "101454.500000", "101456.500000", "101458.500000", "101500.500000", "101502.500000", "101504.500000", "101506.500000", "101508.500000", "101510.500000", "101512.500000", "101514.500000", "101516.500000", "101518.500000", "101520.500000", "101522.500000", "101524.500000", "101526.500000", "101528.500000", "101530.500000", "101532.500000", "101534.500000", "101536.500000", "101538.500000", "101540.500000", "101542.500000", "101544.500000", "101546.500000", "101548.500000", "101550.500000", "101552.500000", "101554.500000", "101556.500000", "101558.500000", "101600.500000", "101602.500000", "101604.500000", "101606.500000", "101608.500000", "101610.500000", "101612.500000", "101614.500000", "101616.500000", "101618.500000", "101620.500000", "101622.500000", "101624.500000", "101626.500000", "101628.500000", "101630.500000", "101632.500000", "101634.500000", "101636.500000", "101638.500000", "101640.500000", "101642.500000", "101644.500000", "101646.500000", "101648.500000"],
      "ContentTime": ["101101.123000", "101101.126000", "101101.128000", "101101.131000", "101101.133000", "101101.135000", "101101.138000", "101101.140000", "101101.142000", "101101.145000", "101101.147000", "101101.149000", "101101.151000", "101101.154000", "101101.156000", "101101.158000", "101101.161000", "101101.163000", "101101.165000", "101101.168000", "101101.170000", "101101.172000", "101101.175000", "101101.177000", "101101.179000", "101141.118000", "101141.121000", "101141.123000", "101141.125000", "101141.128000", "101141.130000", "101141.133000", "101141.135000", "101141.137000", "101141.139000", "101141.142000", "101141.144000", "101141.146000", "101141.149000", "101141.151000", "101141.153000", "101141.155000", "101141.158000", "101141.160000", "101141.162000", "101221.118000", "101221.121000", "101221.123000", "101221.125000", "101221.128000", "101221.130000", "101221.132000", "101221.135000", "101221.137000", "101221.139000", "101221.142000", "101221.144000", "101221.146000", "101221.148000", "101221.151000", "101221.153000", "101221.155000", "101221.158000", "101221.160000", "101221.162000", "101301.118000", "101301.121000", "101301.123000", "101301.125000", "101301.128000", "101301.130000", "101301.132000", "101301.135000", "101301.137000", "101301.139000", "101301.142000", "101301.144000", "101301.146000", "101301.149000", "101301.151000", "101301.153000", "101301.156000", "101301.158000", "101301.160000", "101301.163000", "101341.118000", "101341.121000", "101341.123000", "101341.125000", "101341.128000", "101341.130000", "101341.132000", "101341.135000", "101341.137000", "101341.139000", "101341.141000", "101341.144000", "101341.146000", "101341.148000", "101341.151000", "101341.153000", "101341.155000", "101341.158000", "101341.160000", "101341.162000", "101421.118000", "101421.121000", "101421.123000", "101421.126000", "101421.128000", "101421.130000", "101421.133000", "101421.135000", "101421.137000", "101421.139000", "101421.142000", "101421.144000", "101421.146000", "101421.149000", "101421.151000", "101421.153000", "101421.156000", "101421.158000", "101421.160000", "101421.163000", "101501.117000", "101501.120000", "101501.122000", "101501.124000", "101501.127000", "101501.129000", "101501.131000", "101501.134000", "101501.136000", "101501.138000", "101501.141000", "101501.143000", "101501.146000", "101501.148000", "101501.150000", "101501.153000", "101501.155000", "101501.157000", "101501.160000", "101501.162000", "101541.118000", "101541.121000", "101541.123000", "101541.126000", "101541.128000", "101541.130000", "101541.133000", "101541.135000", "101541.137000", "101541.139000", "101541.142000", "101541.144000", "101541.146000", "101541.149000", "101541.151000", "101541.153000", "101541.156000", "101541.158000", "101541.160000", "101541.163000", "101621.118000", "101621.121000", "101621.123000", "101621.125000", "101621.128000", "101621.130000", "101621.132000", "101621.135000", "101621.137000", "101621.139000", "101621.141000", "101621.144000", "101621.146000", "101621.148000", "101621.151000", "101621.153000", "101621.155000", "101621.158000", "101621.160000", "101621.162000", "101650.514000", "101650.517000", "101650.519000", "101650.521000", "101650.524000", "101650.526000", "101650.529000", "101650.531000", "101650.533000", "101650.536000", "101650.538000", "101650.541000", "101650.543000", "101650.547000", "101650.552000"],
      "InstanceCreationTime": ["101101.123000", "101101.126000", "101101.128000", "101101.131000", "101101.133000", "101101.135000", "101101.138000", "101101.140000", "101101.142000", "101101.145000", "101101.147000", "101101.149000", "101101.151000", "101101.154000", "101101.156000", "101101.158000", "101101.161000", "101101.163000", "101101.165000", "101101.168000", "101101.170000", "101101.172000", "101101.175000", "101101.177000", "101101.179000", "101141.118000", "101141.121000", "101141.123000", "101141.125000", "101141.128000", "101141.130000", "101141.133000", "101141.135000", "101141.137000", "101141.139000", "101141.142000", "101141.144000", "101141.146000", "101141.149000", "101141.151000", "101141.153000", "101141.155000", "101141.158000", "101141.160000", "101141.162000", "101221.118000", "101221.121000", "101221.123000", "101221.125000", "101221.128000", "101221.130000", "101221.132000", "101221.135000", "101221.137000", "101221.139000", "101221.142000", "101221.144000", "101221.146000", "101221.148000", "101221.151000", "101221.153000", "101221.155000", "101221.158000", "101221.160000", "101221.162000", "101301.118000", "101301.121000", "101301.123000", "101301.125000", "101301.128000", "101301.130000", "101301.132000", "101301.135000", "101301.137000", "101301.139000", "101301.142000", "101301.144000", "101301.146000", "101301.149000", "101301.151000", "101301.153000", "101301.156000", "101301.158000", "101301.160000", "101301.163000", "101341.118000", "101341.121000", "101341.123000", "101341.125000", "101341.128000", "101341.130000", "101341.132000", "101341.135000", "101341.137000", "101341.139000", "101341.141000", "101341.144000", "101341.146000", "101341.148000", "101341.151000", "101341.153000", "101341.155000", "101341.158000", "101341.160000", "101341.162000", "101421.118000", "101421.121000", "101421.123000", "101421.126000", "101421.128000", "101421.130000", "101421.133000", "101421.135000", "101421.137000", "101421.139000", "101421.142000", "101421.144000", "101421.146000", "101421.149000", "101421.151000", "101421.153000", "101421.156000", "101421.158000", "101421.160000", "101421.163000", "101501.117000", "101501.120000", "101501.122000", "101501.124000", "101501.127000", "101501.129000", "101501.131000", "101501.134000", "101501.136000", "101501.138000", "101501.141000", "101501.143000", "101501.146000", "101501.148000", "101501.150000", "101501.153000", "101501.155000", "101501.157000", "101501.160000", "101501.162000", "101541.118000", "101541.121000", "101541.123000", "101541.126000", "101541.128000", "101541.130000", "101541.133000", "101541.135000", "101541.137000", "101541.139000", "101541.142000", "101541.144000", "101541.146000", "101541.149000", "101541.151000", "101541.153000", "101541.156000", "101541.158000", "101541.160000", "101541.163000", "101621.118000", "101621.121000", "101621.123000", "101621.125000", "101621.128000", "101621.130000", "101621.132000", "101621.135000", "101621.137000", "101621.139000", "101621.141000", "101621.144000", "101621.146000", "101621.148000", "101621.151000", "101621.153000", "101621.155000", "101621.158000", "101621.160000", "101621.162000", "101650.514000", "101650.517000", "101650.519000", "101650.521000", "101650.524000", "101650.526000", "101650.529000", "101650.531000", "101650.533000", "101650.536000", "101650.538000", "101650.541000", "101650.543000", "101650.547000", "101650.552000"],
      "InstanceNumber": [1, 2, 3, 4, 5, 6, 7, 8, 9, 10, 11, 12, 13, 14, 15, 16, 17, 18, 19, 20, 21, 22, 23, 24, 25, 26, 27, 28, 29, 30, 31, 32, 33, 34, 35, 36, 37, 38, 39, 40, 41, 42, 43, 44, 45, 46, 47, 48, 49, 50, 51, 52, 53, 54, 55, 56, 57, 58, 59, 60, 61, 62, 63, 64, 65, 66, 67, 68, 69, 70, 71, 72, 73, 74, 75, 76, 77, 78, 79, 80, 81, 82, 83, 84, 85, 86, 87, 88, 89, 90, 91, 92, 93, 94, 95, 96, 97, 98, 99, 100, 101, 102, 103, 104, 105, 106, 107, 108, 109, 110, 111, 112, 113, 114, 115, 116, 117, 118, 119, 120, 121, 122, 123, 124, 125, 126, 127, 128, 129, 130, 131, 132, 133, 134, 135, 136, 137, 138, 139, 140, 141, 142, 143, 144, 145, 146, 147, 148, 149, 150, 151, 152, 153, 154, 155, 156, 157, 158, 159, 160, 161, 162, 163, 164, 165, 166, 167, 168, 169, 170, 171, 172, 173, 174, 175, 176, 177, 178, 179, 180, 181, 182, 183, 184, 185, 186, 187, 188, 189, 190, 191, 192, 193, 194, 195, 196, 197, 198, 199, 200],
      "LargestImagePixelValue": [669, 674, 675, 680, 679, 678, 675, 677, 674, 674, 679, 682, 677, 684, 680, 677, 676, 676, 677, 676, 678, 681, 677, 680, 680, 677, 675, 679, 680, 676, 680, 683, 679, 680, 677, 677, 681, 677, 680, 679, 679, 682, 675, 681, 678, 676, 673, 677, 683, 680, 681, 676, 682, 678, 678, 684, 681, 683, 680, 681, 680, 683, 681, 678, 678, 679, 679, 681, 679, 679, 680, 677, 681, 680, 684, 683, 681, 681, 680, 679, 675, 677, 682, 679, 681, 679, 685, 681, 681, 678, 681, 685, 681, 680, 679, 681, 683, 678, 675, 679, 679, 682, 680, 682, 681, 681, 676, 683, 677, 683, 685, 681, 683, 679, 681, 680, 678, 683, 676, 683, 683, 679, 682, 679, 677, 679, 676, 680, 679, 682, 682, 682, 681, 678, 677, 674, 679, 682, 680, 678, 678, 676, 678, 676, 682, 677, 679, 681, 679, 682, 679, 682, 680, 677, 683, 681, 682, 684, 679, 676, 679, 674, 680, 678, 681, 680, 686, 680, 679, 680, 678, 680, 680, 682, 686, 681, 680, 680, 678, 676, 679, 679, 683, 683, 683, 680, 683, 678, 681, 680, 679, 682, 682, 682, 683, 677, 682, 676, 681, 678],
      "WindowCenter": [452.0, 453.0, 453.0, 453.0, 453.0, 453.0, 453.0, 453.0, 453.0, 453.0, 453.0, 453.0, 453.0, 453.0, 453.0, 453.0, 453.0, 453.0, 453.0, 453.0, 453.0, 453.0, 453.0, 453.0, 453.0, 453.0, 453.0, 453.0, 453.0, 453.0, 453.0, 453.0, 453.0, 453.0, 453.0, 453.0, 453.0, 453.0, 453.0, 453.0, 453.0, 453.0, 453.0, 453.0, 453.0, 453.0, 453.0, 453.0, 453.0, 453.0, 453.0, 453.0, 453.0, 453.0, 453.0, 453.0, 453.0, 453.0, 453.0, 453.0, 453.0, 453.0, 453.0, 453.0, 453.0, 453.0, 453.0, 453.0, 453.0, 453.0, 453.0, 453.0, 453.0, 453.0, 453.0, 453.0, 453.0, 453.0, 453.0, 453.0, 453.0, 453.0, 453.0, 452.0, 453.0, 453.0, 453.0, 453.0, 453.0, 453.0, 453.0, 453.0, 452.0, 452.0, 453.0, 453.0, 453.0, 453.0, 452.0, 453.0, 452.0, 452.0, 453.0, 453.0, 453.0, 453.0, 453.0, 453.0, 452.0, 452.0, 452.0, 452.0, 452.0, 453.0, 453.0, 453.0, 453.0, 452.0, 452.0, 452.0, 452.0, 453.0, 453.0, 453.0, 453.0, 452.0, 452.0, 452.0, 452.0, 452.0, 452.0, 453.0, 452.0, 453.0, 452.0, 452.0, 452.0, 452.0, 452.0, 452.0, 452.0, 452.0, 452.0, 452.0, 452.0, 452.0, 452.0, 452.0, 452.0, 452.0, 452.0, 452.0, 452.0, 452.0, 452.0, 452.0, 452.0, 452.0, 452.0, 452.0, 452.0, 452.0, 452.0, 452.0, 452.0, 452.0, 452.0, 452.0, 452.0, 452.0, 452.0, 452.0, 452.0, 452.0, 452.0, 452.0, 452.0, 452.0, 452.0, 452.0, 452.0, 452.0, 452.0, 452.0, 452.0, 452.0, 452.0, 452.0, 452.0, 452.0, 452.0, 452.0, 452.0, 452.0, 452.0, 452.0, 452.0, 452.0, 452.0, 452.0],
      "WindowWidth": [940.0, 940.0, 940.0, 940.0, 941.0, 941.0, 941.0, 941.0, 941.0, 940.0, 940.0, 940.0, 940.0, 941.0, 941.0, 941.0, 941.0, 940.0, 940.0, 940.0, 940.0, 940.0, 940.0, 941.0, 941.0, 940.0, 940.0, 940.0, 940.0, 940.0, 940.0, 940.0, 940.0, 940.0, 940.0, 940.0, 940.0, 940.0, 940.0, 940.0, 940.0, 940.0, 940.0, 940.0, 940.0, 940.0, 940.0, 940.0, 940.0, 940.0, 940.0, 940.0, 940.0, 940.0, 940.0, 940.0, 940.0, 940.0, 940.0, 940.0, 940.0, 940.0, 940.0, 940.0, 940.0, 940.0, 940.0, 940.0, 940.0, 940.0, 940.0, 940.0, 940.0, 940.0, 940.0, 940.0, 940.0, 940.0, 940.0, 940.0, 940.0, 940.0, 940.0, 939.0, 940.0, 940.0, 940.0, 940.0, 940.0, 940.0, 940.0, 940.0, 939.0, 939.0, 940.0, 940.0, 940.0, 940.0, 939.0, 940.0, 939.0, 939.0, 940.0, 940.0, 940.0, 940.0, 940.0, 940.0, 939.0, 939.0, 939.0, 939.0, 939.0, 940.0, 940.0, 940.0, 940.0, 939.0, 939.0, 939.0, 939.0, 940.0, 940.0, 940.0, 940.0, 939.0, 939.0, 939.0, 939.0, 939.0, 939.0, 940.0, 939.0, 940.0, 939.0, 939.0, 939.0, 939.0, 939.0, 939.0, 939.0, 939.0, 939.0, 939.0, 939.0, 939.0, 939.0, 939.0, 939.0, 939.0, 939.0, 939.0, 939.0, 939.0, 939.0, 939.0, 939.0, 939.0, 939.0, 939.0, 939.0, 939.0, 939.0, 939.0, 939.0, 939.0, 939.0, 939.0, 939.0, 939.0, 939.0, 939.0, 939.0, 939.0, 939.0, 939.0, 939.0, 939.0, 939.0, 939.0, 939.0, 938.0, 939.0, 939.0, 939.0, 939.0, 939.0, 939.0, 939.0, 938.0, 938.0, 938.0, 939.0, 939.0, 939.0, 939.0, 939.0, 939.0, 938.0, 938.0]
    },
    "slices": {}
  }
}