{
  "AcquisitionMatrixPE": 80,
  "AcquisitionNumber": 1,
  "AcquisitionTime": "08:47:19.862500",
  "BandwidthPerPixelPhaseEncode": 48.077,
  "BaseResolution": 80,
  "BodyPartExamined": "BRAIN",
  "CoilCombinationMethod": "Sum of Squares",
  "ConsistencyInfo": "N4_VE11C_LATEST_20160120",
  "ConversionSoftware": "dcm2niix",
  "ConversionSoftwareVersion": "v1.0.20220720",
  "DerivedVendorReportedEchoSpacing": 0.000519999,
  "DeviceSerialNumber": "66112",
  "DwellTime": 2.7e-06,
  "EchoTime": 0.035,
  "EchoTrainLength": 39,
  "EffectiveEchoSpacing": 0.00026,
  "FlipAngle": 90,
  "HeudiconvVersion": "0.13.1",
  "ImageOrientationPatientDICOM": [0.996228, 0.0867308, 0.00282518, -0.0831303, 0.94452, 0.317761],
  "ImageOrientationText": "Tra>Cor(18.5)>Sag(-1.4)",
  "ImageType": [
    "ORIGINAL",
    "PRIMARY",
    "M",
    "ND",
    "NORM",
    "MOSAIC"
],
  "ImagingFrequency": 123.252,
  "InPlanePhaseEncodingDirectionDICOM": "COL",
  "InstitutionAddress": "Maynard 3,Hanover,NH,US,03755",
  "InstitutionName": "Dartmouth College - PBS",
  "InstitutionalDepartmentName": "Department",
  "MRAcquisitionType": "2D",
  "MagneticFieldStrength": 3,
  "Manufacturer": "Siemens",
  "ManufacturersModelName": "Prisma",
  "MatrixCoilMode": "GRAPPA",
  "Modality": "MR",
  "NonlinearGradientCorrection": false,
  "ParallelReductionFactorInPlane": 2,
  "PartialFourier": 1,
  "PatientPosition": "HFS",
  "PercentPhaseFOV": 100,
  "PercentSampling": 100,
  "PhaseEncodingDirection": "j-",
  "PhaseEncodingSteps": 79,
  "PhaseResolution": 1,
  "PixelBandwidth": 2315,
  "ProcedureStepDescription": "dbic^QA",
  "ProtocolName": "func-bold_task-rest_acq-p2",
  "PulseSequenceDetails": "%SiemensSeq%\\ep2d_bold",
  "ReceiveCoilActiveElements": "HC1-7;NC1,2",
  "ReceiveCoilName": "HeadNeck_64",
  "ReconMatrixPE": 80,
  "RefLinesPE": 24,
  "RepetitionTime": 2,
  "SAR": 0.0409547,
  "ScanOptions": "FS",
  "ScanningSequence": "EP",
  "SequenceName": "*epfid2d1_80",
  "SequenceVariant": "SK",
  "SeriesDescription": "func-bold_task-rest_acq-p2",
  "SeriesNumber": 5,
  "ShimSetting": [4138, -7719, -7521, 143, -69, -181, -71, 93],
  "SliceThickness": 3.5,
  "SliceTiming": [0.99, 0, 1.055, 0.065, 1.12, 0.13, 1.1875, 0.1975, 1.2525, 0.2625, 1.3175, 0.33, 1.385, 0.395, 1.45, 0.46, 1.5175, 0.5275, 1.5825, 0.5925, 1.6475, 0.66, 1.715, 0.725, 1.78, 0.79, 1.8475, 0.8575, 1.9125, 0.9225],
  "SoftwareVersions": "syngo MR E11",
  "SpacingBetweenSlices": 3.99,
  "StationName": "AWP66112",
  "TaskName": "rest",
  "TotalReadoutTime": 0.02054,
  "TxRefAmp": 218.977,
  "dcmmeta_affine": [
    [-2.9886832237243652, -0.24939079582691193, -0.09931600838899612, 132.2484588623047],
    [-0.2601924240589142, 2.8335587978363037, 1.2640208005905151, -105.69818878173828],
    [0.008475542068481445, -0.9532830119132996, 3.783184766769409, -0.19577060639858246],
    [0.0, 0.0, 0.0, 1.0]
],
  "dcmmeta_reorient_transform": [
    [0.0, -1.0, 0.0, 79.0],
    [1.0, 0.0, 0.0, 0.0],
    [0.0, 0.0, 1.0, 0.0],
    [0.0, 0.0, 0.0, 1.0]
],
  "dcmmeta_shape": [80, 80, 30, 200],
  "dcmmeta_slice_dim": 2,
  "dcmmeta_version": 0.6,
  "global": {
    "const": {
      "AccessionNumber": "qa64",
      "AcquisitionMatrix": [80, 0, 0, 80],
      "AngioFlag": "N",
      "BitsAllocated": 16,
      "BitsStored": 12,
      "BodyPartExamined": "BRAIN",
      "Columns": 480,
      "EchoNumbers": 1,
      "EchoTime": 35.0,
      "EchoTrainLength": 39,
      "FlipAngle": 90.0,
      "HighBit": 11,
      "ImageOrientationPatient": [0.996227777909, 0.08673080696197, 0.00282518074315, -0.0831302665351, 0.94451961547777, 0.31776100258453],
      "ImagePositionPatient": [-660.40509746764, -736.90321677334, -267.85683822029],
      "ImageType": [
        "ORIGINAL",
        "PRIMARY",
        "M",
        "ND",
        "NORM",
        "MOSAIC"
],
      "ImagedNucleus": "1H",
      "ImagingFrequency": 123.252356,
      "InPlanePhaseEncodingDirection": "COL",
      "MRAcquisitionType": "2D",
      "MagneticFieldStrength": 3.0,
      "Manufacturer": "SIEMENS",
      "ManufacturerModelName": "Prisma",
      "Modality": "MR",
      "NumberOfAverages": 1.0,
      "NumberOfPhaseEncodingSteps": 79,
      "PercentPhaseFieldOfView": 100.0,
      "PercentSampling": 100.0,
      "PerformedProcedureStepStartTime": "084545.275000",
      "PhotometricInterpretation": "MONOCHROME2",
      "PixelBandwidth": 2315.0,
      "PixelRepresentation": 0,
      "PixelSpacing": [3.0, 3.0],
      "ProtocolName": "func-bold_task-rest_acq-p2",
      "RepetitionTime": 2000.0,
      "Rows": 480,
      "SAR": 0.04095468001803,
      "SamplesPerPixel": 1,
      "ScanOptions": "FS",
      "ScanningSequence": "EP",
      "SequenceName": "*epfid2d1_80",
      "SequenceVariant": "SK",
      "SeriesDescription": "func-bold_task-rest_acq-p2",
      "SeriesNumber": 5,
      "SeriesTime": "084809.034000",
      "SliceLocation": -36.962338789617,
      "SliceThickness": 3.5,
      "SmallestImagePixelValue": 0,
      "SoftwareVersions": "syngo MR E11",
      "SpacingBetweenSlices": 3.9899999656236,
      "SpecificCharacterSet": "ISO_IR 100",
      "StudyID": "7",
      "StudyTime": "084545.211000",
      "TransmitCoilName": "Body",
      "VariableFlipAngleFlag": "N",
      "WindowCenterWidthExplanation": "Algo1",
      "dBdt": 0.0},
    "slices": {}
  },
  "time": {
    "samples": {
      "AcquisitionNumber": [1, 2, 3, 4, 5, 6, 7, 8, 9, 10, 11, 12, 13, 14, 15, 16, 17, 18, 19, 20, 21, 22, 23, 24, 25, 26, 27, 28, 29, 30, 31, 32, 33, 34, 35, 36, 37, 38, 39, 40, 41, 42, 43, 44, 45, 46, 47, 48, 49, 50, 51, 52, 53, 54, 55, 56, 57, 58, 59, 60, 61, 62, 63, 64, 65, 66, 67, 68, 69, 70, 71, 72, 73, 74, 75, 76, 77, 78, 79, 80, 81, 82, 83, 84, 85, 86, 87, 88, 89, 90, 91, 92, 93, 94, 95, 96, 97, 98, 99, 100, 101, 102, 103, 104, 105, 106, 107, 108, 109, 110, 111, 112, 113, 114, 115, 116, 117, 118, 119, 120, 121, 122, 123, 124, 125, 126, 127, 128, 129, 130, 131, 132, 133, 134, 135, 136, 137, 138, 139, 140, 141, 142, 143, 144, 145, 146, 147, 148, 149, 150, 151, 152, 153, 154, 155, 156, 157, 158, 159, 160, 161, 162, 163, 164, 165, 166, 167, 168, 169, 170, 171, 172, 173, 174, 175, 176, 177, 178, 179, 180, 181, 182, 183, 184, 185, 186, 187, 188, 189, 190, 191, 192, 193, 194, 195, 196, 197, 198, 199, 200],
      "AcquisitionTime": ["084719.862500", "084721.862500", "084723.862500", "084725.862500", "084727.862500", "084729.862500", "084731.862500", "084733.862500", "084735.862500", "084737.862500", "084739.862500", "084741.862500", "084743.862500", "084745.862500", "084747.862500", "084749.862500", "084751.862500", "084753.862500", "084755.862500", "084757.862500", "084759.862500", "084801.862500", "084803.862500", "084805.862500", "084807.862500", "084809.862500", "084811.862500", "084813.862500", "084815.862500", "084817.862500", "084819.862500", "084821.862500", "084823.862500", "084825.862500", "084827.862500", "084829.862500", "084831.862500", "084833.862500", "084835.862500", "084837.862500", "084839.862500", "084841.862500", "084843.862500", "084845.862500", "084847.862500", "084849.862500", "084851.862500", "084853.862500", "084855.862500", "084857.862500", "084859.862500", "084901.862500", "084903.862500", "084905.862500", "084907.862500", "084909.862500", "084911.862500", "084913.862500", "084915.862500", "084917.862500", "084919.862500", "084921.862500", "084923.862500", "084925.862500", "084927.862500", "084929.862500", "084931.862500", "084933.862500", "084935.862500", "084937.862500", "084939.862500", "084941.862500", "084943.862500", "084945.862500", "084947.862500", "084949.862500", "084951.862500", "084953.862500", "084955.862500", "084957.862500", "084959.862500", "085001.862500", "085003.862500", "085005.862500", "085007.862500", "085009.862500", "085011.862500", "085013.862500", "085015.862500", "085017.862500", "085019.862500", "085021.862500", "085023.862500", "085025.862500", "085027.862500", "085029.862500", "085031.862500", "085033.862500", "085035.862500", "085037.862500", "085039.862500", "085041.862500", "085043.862500", "085045.862500", "085047.862500", "085049.862500", "085051.862500", "085053.862500", "085055.862500", "085057.862500", "085059.862500", "085101.862500", "085103.862500", "085105.862500", "085107.862500", "085109.862500", "085111.862500", "085113.862500", "085115.862500", "085117.862500", "085119.862500", "085121.862500", "085123.862500", "085125.862500", "085127.862500", "085129.862500", "085131.862500", "085133.862500", "085135.862500", "085137.862500", "085139.862500", "085141.862500", "085143.862500", "085145.862500", "085147.862500", "085149.862500", "085151.862500", "085153.862500", "085155.862500", "085157.862500", "085159.862500", "085201.862500", "085203.862500", "085205.862500", "085207.862500", "085209.862500", "085211.862500", "085213.862500", "085215.862500", "085217.862500", "085219.862500", "085221.862500", "085223.862500", "085225.862500", "085227.862500", "085229.862500", "085231.862500", "085233.862500", "085235.862500", "085237.862500", "085239.862500", "085241.862500", "085243.862500", "085245.862500", "085247.862500", "085249.862500", "085251.862500", "085253.862500", "085255.862500", "085257.862500", "085259.862500", "085301.862500", "085303.862500", "085305.862500", "085307.862500", "085309.862500", "085311.862500", "085313.862500", "085315.862500", "085317.862500", "085319.862500", "085321.862500", "085323.862500", "085325.862500", "085327.862500", "085329.862500", "085331.862500", "085333.862500", "085335.862500", "085337.862500", "085339.862500", "085341.862500", "085343.862500", "085345.862500", "085347.862500", "085349.862500", "085351.862500", "085353.862500", "085355.862500", "085357.862500"],
      "ContentTime": ["084809.038000", "084809.041000", "084809.044000", "084809.046000", "084809.049000", "084809.051000", "084809.054000", "084809.063000", "084809.066000", "084809.068000", "084809.071000", "084809.073000", "084809.076000", "084809.078000", "084809.081000", "084809.083000", "084809.086000", "084809.088000", "084809.091000", "084809.093000", "084809.096000", "084809.098000", "084809.101000", "084809.103000", "084849.033000", "084849.036000", "084849.038000", "084849.041000", "084849.043000", "084849.046000", "084849.049000", "084849.051000", "084849.054000", "084849.056000", "084849.059000", "084849.062000", "084849.064000", "084849.067000", "084849.070000", "084849.072000", "084849.075000", "084849.077000", "084849.080000", "084849.083000", "084929.033000", "084929.036000", "084929.038000", "084929.041000", "084929.043000", "084929.046000", "084929.049000", "084929.051000", "084929.054000", "084929.056000", "084929.059000", "084929.061000", "084929.064000", "084929.067000", "084929.069000", "084929.072000", "084929.074000", "084929.077000", "084929.079000", "084929.089000", "085009.226000", "085009.229000", "085009.231000", "085009.234000", "085009.236000", "085009.239000", "085009.241000", "085009.244000", "085009.246000", "085009.249000", "085009.251000", "085009.254000", "085009.257000", "085009.259000", "085009.262000", "085009.264000", "085009.267000", "085009.269000", "085009.272000", "085009.274000", "085029.033000", "085029.036000", "085029.038000", "085029.041000", "085029.043000", "085029.046000", "085029.049000", "085029.051000", "085029.054000", "085029.056000", "085109.033000", "085109.035000", "085109.038000", "085109.040000", "085109.043000", "085109.046000", "085109.048000", "085109.051000", "085109.053000", "085109.056000", "085109.058000", "085109.061000", "085109.064000", "085109.066000", "085109.069000", "085109.071000", "085109.074000", "085109.077000", "085109.079000", "085109.082000", "085149.032000", "085149.035000", "085149.038000", "085149.040000", "085149.043000", "085149.059000", "085149.061000", "085149.064000", "085149.066000", "085149.069000", "085149.072000", "085149.074000", "085149.077000", "085149.079000", "085149.082000", "085149.084000", "085149.087000", "085149.089000", "085149.092000", "085149.095000", "085229.033000", "085229.035000", "085229.038000", "085229.040000", "085229.043000", "085229.045000", "085229.048000", "085229.051000", "085229.053000", "085229.056000", "085229.058000", "085229.061000", "085229.063000", "085229.066000", "085229.068000", "085229.071000", "085229.074000", "085229.076000", "085229.079000", "085229.081000", "085309.032000", "085309.035000", "085309.038000", "085309.041000", "085309.043000", "085309.046000", "085309.048000", "085309.051000", "085309.053000", "085309.056000", "085309.059000", "085309.061000", "085309.064000", "085309.066000", "085309.069000", "085309.071000", "085309.074000", "085309.076000", "085309.079000", "085309.081000", "085349.032000", "085349.035000", "085349.038000", "085349.040000", "085349.043000", "085349.045000", "085349.048000", "085349.050000", "085349.053000", "085349.056000", "085349.058000", "085349.061000", "085349.063000", "085349.066000", "085349.068000", "085349.071000", "085349.073000", "085349.076000", "085349.079000", "085349.081000", "085359.751000", "085359.753000", "085359.756000", "085359.758000", "085359.761000", "085359.764000"],
      "InstanceCreationTime": ["084809.038000", "084809.041000", "084809.044000", "084809.046000", "084809.049000", "084809.051000", "084809.054000", "084809.063000", "084809.066000", "084809.068000", "084809.071000", "084809.073000", "084809.076000", "084809.078000", "084809.081000", "084809.083000", "084809.086000", "084809.088000", "084809.091000", "084809.093000", "084809.096000", "084809.098000", "084809.101000", "084809.103000", "084849.033000", "084849.036000", "084849.038000", "084849.041000", "084849.043000", "084849.046000", "084849.049000", "084849.051000", "084849.054000", "084849.056000", "084849.059000", "084849.062000", "084849.064000", "084849.067000", "084849.070000", "084849.072000", "084849.075000", "084849.077000", "084849.080000", "084849.083000", "084929.033000", "084929.036000", "084929.038000", "084929.041000", "084929.043000", "084929.046000", "084929.049000", "084929.051000", "084929.054000", "084929.056000", "084929.059000", "084929.061000", "084929.064000", "084929.067000", "084929.069000", "084929.072000", "084929.074000", "084929.077000", "084929.079000", "084929.089000", "085009.226000", "085009.229000", "085009.231000", "085009.234000", "085009.236000", "085009.239000", "085009.241000", "085009.244000", "085009.246000", "085009.249000", "085009.251000", "085009.254000", "085009.257000", "085009.259000", "085009.262000", "085009.264000", "085009.267000", "085009.269000", "085009.272000", "085009.274000", "085029.033000", "085029.036000", "085029.038000", "085029.041000", "085029.043000", "085029.046000", "085029.049000", "085029.051000", "085029.054000", "085029.056000", "085109.033000", "085109.035000", "085109.038000", "085109.040000", "085109.043000", "085109.046000", "085109.048000", "085109.051000", "085109.053000", "085109.056000", "085109.058000", "085109.061000", "085109.064000", "085109.066000", "085109.069000", "085109.071000", "085109.074000", "085109.077000", "085109.079000", "085109.082000", "085149.032000", "085149.035000", "085149.038000", "085149.040000", "085149.043000", "085149.059000", "085149.061000", "085149.064000", "085149.066000", "085149.069000", "085149.072000", "085149.074000", "085149.077000", "085149.079000", "085149.082000", "085149.084000", "085149.087000", "085149.089000", "085149.092000", "085149.095000", "085229.033000", "085229.035000", "085229.038000", "085229.040000", "085229.043000", "085229.045000", "085229.048000", "085229.051000", "085229.053000", "085229.056000", "085229.058000", "085229.061000", "085229.063000", "085229.066000", "085229.068000", "085229.071000", "085229.074000", "085229.076000", "085229.079000", "085229.081000", "085309.032000", "085309.035000", "085309.038000", "085309.041000", "085309.043000", "085309.046000", "085309.048000", "085309.051000", "085309.053000", "085309.056000", "085309.059000", "085309.061000", "085309.064000", "085309.066000", "085309.069000", "085309.071000", "085309.074000", "085309.076000", "085309.079000", "085309.081000", "085349.032000", "085349.035000", "085349.038000", "085349.040000", "085349.043000", "085349.045000", "085349.048000", "085349.050000", "085349.053000", "085349.056000", "085349.058000", "085349.061000", "085349.063000", "085349.066000", "085349.068000", "085349.071000", "085349.073000", "085349.076000", "085349.079000", "085349.081000", "085359.751000", "085359.753000", "085359.756000", "085359.758000", "085359.761000", "085359.764000"],
      "InstanceNumber": [1, 2, 3, 4, 5, 6, 7, 8, 9, 10, 11, 12, 13, 14, 15, 16, 17, 18, 19, 20, 21, 22, 23, 24, 25, 26, 27, 28, 29, 30, 31, 32, 33, 34, 35, 36, 37, 38, 39, 40, 41, 42, 43, 44, 45, 46, 47, 48, 49, 50, 51, 52, 53, 54, 55, 56, 57, 58, 59, 60, 61, 62, 63, 64, 65, 66, 67, 68, 69, 70, 71, 72, 73, 74, 75, 76, 77, 78, 79, 80, 81, 82, 83, 84, 85, 86, 87, 88, 89, 90, 91, 92, 93, 94, 95, 96, 97, 98, 99, 100, 101, 102, 103, 104, 105, 106, 107, 108, 109, 110, 111, 112, 113, 114, 115, 116, 117, 118, 119, 120, 121, 122, 123, 124, 125, 126, 127, 128, 129, 130, 131, 132, 133, 134, 135, 136, 137, 138, 139, 140, 141, 142, 143, 144, 145, 146, 147, 148, 149, 150, 151, 152, 153, 154, 155, 156, 157, 158, 159, 160, 161, 162, 163, 164, 165, 166, 167, 168, 169, 170, 171, 172, 173, 174, 175, 176, 177, 178, 179, 180, 181, 182, 183, 184, 185, 186, 187, 188, 189, 190, 191, 192, 193, 194, 195, 196, 197, 198, 199, 200],
      "LargestImagePixelValue": [3823, 3813, 3828, 3821, 3829, 3818, 3823, 3823, 3822, 3818, 3811, 3817, 3816, 3835, 3823, 3819, 3815, 3809, 3811, 3812, 3818, 3818, 3808, 3812, 3813, 3811, 3825, 3816, 3822, 3823, 3828, 3830, 3824, 3817, 3816, 3811, 3827, 3815, 3807, 3820, 3824, 3810, 3820, 3812, 3815, 3813, 3822, 3817, 3821, 3801, 3818, 3823, 3811, 3828, 3830, 3814, 3812, 3818, 3825, 3820, 3823, 3817, 3815, 3817, 3811, 3819, 3809, 3807, 3822, 3811, 3809, 3825, 3810, 3820, 3812, 3806, 3819, 3823, 3816, 3815, 3817, 3811, 3812, 3824, 3821, 3816, 3809, 3819, 3821, 3828, 3810, 3831, 3816, 3813, 3821, 3805, 3816, 3823, 3818, 3811, 3815, 3825, 3804, 3814, 3809, 3823, 3807, 3817, 3822, 3812, 3817, 3811, 3820, 3818, 3821, 3806, 3818, 3806, 3819, 3810, 3821, 3804, 3808, 3822, 3813, 3816, 3814, 3811, 3815, 3827, 3813, 3812, 3821, 3813, 3820, 3816, 3816, 3819, 3810, 3814, 3814, 3815, 3820, 3811, 3804, 3813, 3807, 3808, 3808, 3810, 3818, 3811, 3808, 3808, 3810, 3819, 3803, 3804, 3819, 3817, 3814, 3817, 3827, 3810, 3805, 3809, 3810, 3813, 3810, 3813, 3806, 3805, 3809, 3807, 3808, 3808, 3817, 3803, 3822, 3809, 3806, 3817, 3821, 3808, 3813, 3809, 3802, 3808, 3809, 3800, 3814, 3807, 3807, 3817, 3816, 3805, 3813, 3807, 3809, 3820],
      "WindowCenter": [1408.0, 1407.0, 1407.0, 1407.0, 1406.0, 1407.0, 1406.0, 1406.0, 1406.0, 1405.0, 1405.0, 1406.0, 1406.0, 1406.0, 1406.0, 1406.0, 1405.0, 1406.0, 1406.0, 1405.0, 1405.0, 1406.0, 1406.0, 1405.0, 1406.0, 1406.0, 1406.0, 1406.0, 1405.0, 1406.0, 1405.0, 1406.0, 1406.0, 1406.0, 1405.0, 1404.0, 1405.0, 1405.0, 1405.0, 1405.0, 1404.0, 1405.0, 1405.0, 1405.0, 1405.0, 1406.0, 1405.0, 1405.0, 1405.0, 1405.0, 1405.0, 1404.0, 1404.0, 1404.0, 1405.0, 1405.0, 1405.0, 1405.0, 1405.0, 1404.0, 1404.0, 1405.0, 1404.0, 1405.0, 1404.0, 1404.0, 1404.0, 1404.0, 1405.0, 1404.0, 1404.0, 1404.0, 1404.0, 1403.0, 1405.0, 1404.0, 1404.0, 1404.0, 1404.0, 1404.0, 1404.0, 1404.0, 1404.0, 1404.0, 1404.0, 1403.0, 1403.0, 1404.0, 1404.0, 1404.0, 1403.0, 1403.0, 1404.0, 1403.0, 1403.0, 1404.0, 1404.0, 1403.0, 1403.0, 1403.0, 1403.0, 1403.0, 1404.0, 1404.0, 1404.0, 1403.0, 1403.0, 1403.0, 1403.0, 1403.0, 1403.0, 1403.0, 1403.0, 1403.0, 1403.0, 1403.0, 1403.0, 1403.0, 1403.0, 1402.0, 1403.0, 1403.0, 1403.0, 1403.0, 1403.0, 1403.0, 1403.0, 1402.0, 1403.0, 1403.0, 1403.0, 1402.0, 1404.0, 1403.0, 1403.0, 1403.0, 1402.0, 1403.0, 1403.0, 1402.0, 1402.0, 1402.0, 1403.0, 1402.0, 1402.0, 1403.0, 1403.0, 1403.0, 1403.0, 1403.0, 1403.0, 1403.0, 1403.0, 1402.0, 1402.0, 1403.0, 1403.0, 1402.0, 1402.0, 1403.0, 1402.0, 1402.0, 1402.0, 1402.0, 1402.0, 1402.0, 1403.0, 1403.0, 1402.0, 1402.0, 1402.0, 1402.0, 1402.0, 1402.0, 1402.0, 1402.0, 1402.0, 1402.0, 1402.0, 1402.0, 1402.0, 1402.0, 1402.0, 1402.0, 1402.0, 1401.0, 1402.0, 1402.0, 1402.0, 1402.0, 1402.0, 1402.0, 1402.0, 1402.0, 1402.0, 1401.0, 1402.0, 1402.0, 1402.0, 1402.0],
      "WindowWidth": [3239.0, 3238.0, 3238.0, 3238.0, 3238.0, 3237.0, 3237.0, 3237.0, 3237.0, 3238.0, 3238.0, 3237.0, 3237.0, 3238.0, 3237.0, 3237.0, 3238.0, 3237.0, 3237.0, 3237.0, 3238.0, 3237.0, 3237.0, 3237.0, 3237.0, 3237.0, 3237.0, 3237.0, 3237.0, 3237.0, 3237.0, 3237.0, 3237.0, 3237.0, 3237.0, 3237.0, 3237.0, 3237.0, 3237.0, 3237.0, 3237.0, 3237.0, 3237.0, 3237.0, 3237.0, 3237.0, 3237.0, 3237.0, 3237.0, 3237.0, 3237.0, 3237.0, 3237.0, 3237.0, 3237.0, 3237.0, 3237.0, 3237.0, 3237.0, 3237.0, 3237.0, 3237.0, 3237.0, 3237.0, 3237.0, 3237.0, 3237.0, 3236.0, 3236.0, 3237.0, 3237.0, 3237.0, 3237.0, 3237.0, 3236.0, 3237.0, 3237.0, 3236.0, 3236.0, 3236.0, 3236.0, 3236.0, 3235.0, 3236.0, 3236.0, 3236.0, 3236.0, 3235.0, 3235.0, 3235.0, 3236.0, 3236.0, 3235.0, 3236.0, 3236.0, 3235.0, 3235.0, 3235.0, 3235.0, 3236.0, 3235.0, 3235.0, 3235.0, 3235.0, 3235.0, 3235.0, 3235.0, 3235.0, 3235.0, 3235.0, 3235.0, 3235.0, 3235.0, 3235.0, 3235.0, 3235.0, 3235.0, 3235.0, 3235.0, 3235.0, 3235.0, 3235.0, 3235.0, 3235.0, 3235.0, 3235.0, 3235.0, 3235.0, 3234.0, 3234.0, 3234.0, 3235.0, 3235.0, 3235.0, 3234.0, 3234.0, 3235.0, 3234.0, 3234.0, 3235.0, 3235.0, 3235.0, 3234.0, 3235.0, 3235.0, 3234.0, 3234.0, 3234.0, 3234.0, 3234.0, 3234.0, 3234.0, 3234.0, 3235.0, 3234.0, 3234.0, 3234.0, 3235.0, 3234.0, 3234.0, 3234.0, 3234.0, 3234.0, 3234.0, 3234.0, 3234.0, 3234.0, 3234.0, 3234.0, 3233.0, 3234.0, 3234.0, 3234.0, 3234.0, 3234.0, 3233.0, 3234.0, 3234.0, 3234.0, 3234.0, 3234.0, 3233.0, 3233.0, 3233.0, 3233.0, 3234.0, 3234.0, 3233.0, 3233.0, 3233.0, 3233.0, 3233.0, 3233.0, 3233.0, 3233.0, 3234.0, 3233.0, 3233.0, 3233.0, 3233.0]
    },
    "slices": {}
  }
}