{
  "AcquisitionMatrixPE": 80,
  "AcquisitionNumber": 1,
  "AcquisitionTime": "09:41:25.432500",
  "BandwidthPerPixelPhaseEncode": 25,
  "BaseResolution": 80,
  "BodyPartExamined": "BRAIN",
  "CoilCombinationMethod": "Sum of Squares",
  "ConsistencyInfo": "N4_VE11E_LATEST_20181129",
  "ConversionSoftware": "dcm2niix",
  "ConversionSoftwareVersion": "v1.0.20220720",
  "DerivedVendorReportedEchoSpacing": 0.0005,
  "DeviceSerialNumber": "66112",
  "DwellTime": 2.7e-06,
  "EchoTime": 0.03,
  "EchoTrainLength": 80,
  "EffectiveEchoSpacing": 0.0005,
  "FlipAngle": 77,
  "HeudiconvVersion": "0.13.1",
  "ImageOrientationPatientDICOM": [0.988703, 0.149772, 0.00595323, -0.14406, 0.938524, 0.313719],
  "ImageOrientationText": "Tra>Cor(18.1)>Sag(-2.4)",
  "ImageType": [
    "ORIGINAL",
    "PRIMARY",
    "M",
    "ND",
    "NORM",
    "MOSAIC"
],
  "ImagingFrequency": 123.261,
  "InPlanePhaseEncodingDirectionDICOM": "COL",
  "InstitutionAddress": "Maynard 3,Hanover,NH,US,03755",
  "InstitutionName": "Dartmouth College - PBS",
  "InstitutionalDepartmentName": "Department",
  "MRAcquisitionType": "2D",
  "MagneticFieldStrength": 3,
  "Manufacturer": "Siemens",
  "ManufacturersModelName": "Prisma",
  "MatrixCoilMode": "SENSE",
  "Modality": "MR",
  "NonlinearGradientCorrection": false,
  "PartialFourier": 1,
  "PatientPosition": "HFS",
  "PercentPhaseFOV": 100,
  "PercentSampling": 100,
  "PhaseEncodingDirection": "j-",
  "PhaseEncodingSteps": 80,
  "PhaseResolution": 1,
  "PixelBandwidth": 2315,
  "ProcedureStepDescription": "dbic^QA",
  "ProtocolName": "func-bold_fa-77",
  "PulseSequenceDetails": "%SiemensSeq%\\ep2d_bold",
  "ReceiveCoilActiveElements": "HC1-7;NC1,2",
  "ReceiveCoilName": "HeadNeck_64",
  "ReconMatrixPE": 80,
  "RepetitionTime": 2,
  "SAR": 0.0281877,
  "ScanOptions": "FS",
  "ScanningSequence": "EP",
  "SequenceName": "*epfid2d1_80",
  "SequenceVariant": "SK",
  "SeriesDescription": "func-bold_fa-77",
  "SeriesNumber": 6,
  "ShimSetting": [4243, -7737, -7482, -114, -222, -269, -57, 100],
  "SliceThickness": 3.5,
  "SliceTiming": [0.99, 0, 1.055, 0.065, 1.12, 0.1325, 1.1875, 0.1975, 1.2525, 0.2625, 1.32, 0.33, 1.385, 0.395, 1.45, 0.4625, 1.5175, 0.5275, 1.5825, 0.5925, 1.65, 0.66, 1.715, 0.725, 1.78, 0.79, 1.8475, 0.8575, 1.9125, 0.9225],
  "SoftwareVersions": "syngo MR E11",
  "SpacingBetweenSlices": 3.99,
  "StationName": "AWP66112",
  "TotalReadoutTime": 0.0395,
  "TxRefAmp": 210.968,
  "dcmmeta_affine": [
    [-2.9661078453063965, -0.432179719209671, -0.16518227756023407, 137.3954315185547],
    [-0.44931647181510925, 2.8155720233917236, 1.2410179376602173, -106.65265655517578],
    [0.017859693616628647, -0.9411559700965881, 3.788494348526001, -19.801027297973633],
    [0.0, 0.0, 0.0, 1.0]
],
  "dcmmeta_reorient_transform": [
    [0.0, -1.0, 0.0, 79.0],
    [1.0, 0.0, 0.0, 0.0],
    [0.0, 0.0, 1.0, 0.0],
    [0.0, 0.0, 0.0, 1.0]
],
  "dcmmeta_shape": [80, 80, 30, 200],
  "dcmmeta_slice_dim": 2,
  "dcmmeta_version": 0.6,
  "global": {
    "const": {
      "AccessionNumber": "qa64",
      "AcquisitionMatrix": [80, 0, 0, 80],
      "AngioFlag": "N",
      "BitsAllocated": 16,
      "BitsStored": 12,
      "BodyPartExamined": "BRAIN",
      "Columns": 480,
      "EchoNumbers": 1,
      "EchoTime": 30.0,
      "EchoTrainLength": 80,
      "FlipAngle": 77.0,
      "HighBit": 11,
      "ImageOrientationPatient": [0.98870261497119, 0.14977215425442, 0.00595323098164, -0.1440599052521, 0.93852402757535, 0.31371865319505],
      "ImagePositionPatient": [-610.03885616802, -768.75524726295, -285.95547795121],
      "ImageType": [
        "ORIGINAL",
        "PRIMARY",
        "M",
        "ND",
        "NORM",
        "MOSAIC"
],
      "ImagedNucleus": "1H",
      "ImagingFrequency": 123.261274,
      "InPlanePhaseEncodingDirection": "COL",
      "MRAcquisitionType": "2D",
      "MagneticFieldStrength": 3.0,
      "Manufacturer": "SIEMENS",
      "ManufacturerModelName": "Prisma",
      "Modality": "MR",
      "NumberOfAverages": 1.0,
      "NumberOfPhaseEncodingSteps": 80,
      "PercentPhaseFieldOfView": 100.0,
      "PercentSampling": 100.0,
      "PerformedProcedureStepStartTime": "093030.257000",
      "PhotometricInterpretation": "MONOCHROME2",
      "PixelBandwidth": 2315.0,
      "PixelRepresentation": 0,
      "PixelSpacing": [3.0, 3.0],
      "ProtocolName": "func-bold_fa-77",
      "RepetitionTime": 2000.0,
      "Rows": 480,
      "SAR": 0.02818773725248,
      "SamplesPerPixel": 1,
      "ScanOptions": "FS",
      "ScanningSequence": "EP",
      "SequenceName": "*epfid2d1_80",
      "SequenceVariant": "SK",
      "SeriesDescription": "func-bold_fa-77",
      "SeriesNumber": 6,
      "SeriesTime": "094215.672000",
      "SliceLocation": -57.661461447333,
      "SliceThickness": 3.5,
      "SmallestImagePixelValue": 0,
      "SoftwareVersions": "syngo MR E11",
      "SpacingBetweenSlices": 3.9900000593936,
      "SpecificCharacterSet": "ISO_IR 100",
      "StudyID": "15",
      "StudyTime": "093030.210000",
      "TransmitCoilName": "Body",
      "VariableFlipAngleFlag": "N",
      "WindowCenterWidthExplanation": "Algo1"
    },
    "slices": {}
  },
  "time": {
    "samples": {
      "AcquisitionNumber": [1, 2, 3, 4, 5, 6, 7, 8, 9, 10, 11, 12, 13, 14, 15, 16, 17, 18, 19, 20, 21, 22, 23, 24, 25, 26, 27, 28, 29, 30, 31, 32, 33, 34, 35, 36, 37, 38, 39, 40, 41, 42, 43, 44, 45, 46, 47, 48, 49, 50, 51, 52, 53, 54, 55, 56, 57, 58, 59, 60, 61, 62, 63, 64, 65, 66, 67, 68, 69, 70, 71, 72, 73, 74, 75, 76, 77, 78, 79, 80, 81, 82, 83, 84, 85, 86, 87, 88, 89, 90, 91, 92, 93, 94, 95, 96, 97, 98, 99, 100, 101, 102, 103, 104, 105, 106, 107, 108, 109, 110, 111, 112, 113, 114, 115, 116, 117, 118, 119, 120, 121, 122, 123, 124, 125, 126, 127, 128, 129, 130, 131, 132, 133, 134, 135, 136, 137, 138, 139, 140, 141, 142, 143, 144, 145, 146, 147, 148, 149, 150, 151, 152, 153, 154, 155, 156, 157, 158, 159, 160, 161, 162, 163, 164, 165, 166, 167, 168, 169, 170, 171, 172, 173, 174, 175, 176, 177, 178, 179, 180, 181, 182, 183, 184, 185, 186, 187, 188, 189, 190, 191, 192, 193, 194, 195, 196, 197, 198, 199, 200],
      "AcquisitionTime": ["094125.432500", "094127.432500", "094129.432500", "094131.432500", "094133.432500", "094135.432500", "094137.432500", "094139.432500", "094141.432500", "094143.432500", "094145.432500", "094147.432500", "094149.432500", "094151.432500", "094153.432500", "094155.432500", "094157.432500", "094159.432500", "094201.432500", "094203.432500", "094205.432500", "094207.432500", "094209.432500", "094211.432500", "094213.432500", "094215.432500", "094217.432500", "094219.432500", "094221.432500", "094223.432500", "094225.432500", "094227.432500", "094229.432500", "094231.432500", "094233.432500", "094235.432500", "094237.432500", "094239.432500", "094241.432500", "094243.432500", "094245.432500", "094247.432500", "094249.432500", "094251.432500", "094253.432500", "094255.432500", "094257.432500", "094259.432500", "094301.432500", "094303.432500", "094305.432500", "094307.432500", "094309.432500", "094311.432500", "094313.432500", "094315.432500", "094317.432500", "094319.432500", "094321.432500", "094323.432500", "094325.432500", "094327.432500", "094329.432500", "094331.432500", "094333.432500", "094335.432500", "094337.432500", "094339.432500", "094341.432500", "094343.432500", "094345.432500", "094347.432500", "094349.432500", "094351.432500", "094353.432500", "094355.432500", "094357.432500", "094359.432500", "094401.432500", "094403.432500", "094405.432500", "094407.432500", "094409.432500", "094411.432500", "094413.432500", "094415.432500", "094417.432500", "094419.432500", "094421.432500", "094423.432500", "094425.432500", "094427.432500", "094429.432500", "094431.432500", "094433.432500", "094435.432500", "094437.432500", "094439.432500", "094441.432500", "094443.432500", "094445.432500", "094447.432500", "094449.432500", "094451.432500", "094453.432500", "094455.432500", "094457.432500", "094459.432500", "094501.432500", "094503.432500", "094505.432500", "094507.432500", "094509.432500", "094511.432500", "094513.432500", "094515.432500", "094517.432500", "094519.432500", "094521.432500", "094523.432500", "094525.432500", "094527.432500", "094529.432500", "094531.432500", "094533.432500", "094535.432500", "094537.432500", "094539.432500", "094541.432500", "094543.432500", "094545.432500", "094547.432500", "094549.432500", "094551.432500", "094553.432500", "094555.432500", "094557.432500", "094559.432500", "094601.432500", "094603.432500", "094605.432500", "094607.432500", "094609.432500", "094611.432500", "094613.432500", "094615.432500", "094617.432500", "094619.432500", "094621.432500", "094623.432500", "094625.432500", "094627.432500", "094629.432500", "094631.432500", "094633.432500", "094635.432500", "094637.432500", "094639.432500", "094641.432500", "094643.432500", "094645.432500", "094647.432500", "094649.432500", "094651.432500", "094653.432500", "094655.432500", "094657.432500", "094659.432500", "094701.432500", "094703.432500", "094705.432500", "094707.432500", "094709.432500", "094711.432500", "094713.432500", "094715.432500", "094717.432500", "094719.432500", "094721.432500", "094723.432500", "094725.432500", "094727.432500", "094729.432500", "094731.432500", "094733.432500", "094735.432500", "094737.432500", "094739.432500", "094741.432500", "094743.432500", "094745.432500", "094747.432500", "094749.432500", "094751.432500", "094753.432500", "094755.432500", "094757.432500", "094759.432500", "094801.432500", "094803.432500"],
      "ContentTime": ["094215.675000", "094215.678000", "094215.680000", "094215.683000", "094215.685000", "094215.693000", "094215.695000", "094215.698000", "094215.700000", "094215.702000", "094215.705000", "094215.707000", "094215.711000", "094215.713000", "094215.715000", "094215.718000", "094215.720000", "094215.727000", "094215.729000", "094215.731000", "094215.734000", "094215.736000", "094215.738000", "094215.741000", "094215.743000", "094255.670000", "094255.673000", "094255.675000", "094255.677000", "094255.679000", "094255.682000", "094255.684000", "094255.686000", "094255.689000", "094255.691000", "094255.693000", "094255.695000", "094255.698000", "094255.700000", "094255.702000", "094255.705000", "094255.707000", "094255.709000", "094255.712000", "094255.714000", "094335.670000", "094335.673000", "094335.675000", "094335.677000", "094335.679000", "094335.682000", "094335.684000", "094335.686000", "094335.689000", "094335.691000", "094335.693000", "094335.695000", "094335.698000", "094335.700000", "094335.702000", "094335.705000", "094335.707000", "094335.709000", "094335.712000", "094335.714000", "094415.670000", "094415.673000", "094415.675000", "094415.678000", "094415.680000", "094415.682000", "094415.684000", "094415.687000", "094415.689000", "094415.691000", "094415.693000", "094415.696000", "094415.698000", "094415.700000", "094415.703000", "094415.705000", "094415.707000", "094415.709000", "094415.712000", "094415.714000", "094455.670000", "094455.673000", "094455.675000", "094455.677000", "094455.680000", "094455.682000", "094455.684000", "094455.686000", "094455.689000", "094455.691000", "094455.693000", "094455.696000", "094455.698000", "094455.700000", "094455.702000", "094455.705000", "094455.707000", "094455.709000", "094455.712000", "094455.714000", "094535.670000", "094535.681000", "094535.684000", "094535.686000", "094535.688000", "094535.690000", "094535.693000", "094535.695000", "094535.697000", "094535.699000", "094535.702000", "094535.704000", "094535.706000", "094535.709000", "094535.711000", "094535.713000", "094535.715000", "094535.718000", "094535.720000", "094535.722000", "094615.670000", "094615.673000", "094615.675000", "094615.678000", "094615.680000", "094615.683000", "094615.685000", "094615.687000", "094615.689000", "094615.692000", "094615.694000", "094615.696000", "094615.699000", "094615.701000", "094615.703000", "094615.705000", "094615.708000", "094615.710000", "094615.712000", "094615.715000", "094655.670000", "094655.673000", "094655.675000", "094655.677000", "094655.680000", "094655.682000", "094655.684000", "094655.686000", "094655.689000", "094655.691000", "094655.693000", "094655.696000", "094655.698000", "094655.700000", "094655.702000", "094655.705000", "094655.707000", "094655.709000", "094655.712000", "094655.714000", "094735.670000", "094735.673000", "094735.675000", "094735.678000", "094735.680000", "094735.682000", "094735.685000", "094735.687000", "094735.689000", "094735.691000", "094735.694000", "094735.696000", "094735.698000", "094735.701000", "094735.703000", "094735.705000", "094735.708000", "094735.710000", "094735.712000", "094735.714000", "094804.537000", "094804.540000", "094804.542000", "094804.544000", "094804.547000", "094804.549000", "094804.552000", "094804.554000", "094804.556000", "094804.558000", "094804.561000", "094804.563000", "094804.566000", "094804.569000", "094804.572000"],
      "InstanceCreationTime": ["094215.675000", "094215.678000", "094215.680000", "094215.683000", "094215.685000", "094215.693000", "094215.695000", "094215.698000", "094215.700000", "094215.702000", "094215.705000", "094215.707000", "094215.711000", "094215.713000", "094215.715000", "094215.718000", "094215.720000", "094215.727000", "094215.729000", "094215.731000", "094215.734000", "094215.736000", "094215.738000", "094215.741000", "094215.743000", "094255.670000", "094255.673000", "094255.675000", "094255.677000", "094255.679000", "094255.682000", "094255.684000", "094255.686000", "094255.689000", "094255.691000", "094255.693000", "094255.695000", "094255.698000", "094255.700000", "094255.702000", "094255.705000", "094255.707000", "094255.709000", "094255.712000", "094255.714000", "094335.670000", "094335.673000", "094335.675000", "094335.677000", "094335.679000", "094335.682000", "094335.684000", "094335.686000", "094335.689000", "094335.691000", "094335.693000", "094335.695000", "094335.698000", "094335.700000", "094335.702000", "094335.705000", "094335.707000", "094335.709000", "094335.712000", "094335.714000", "094415.670000", "094415.673000", "094415.675000", "094415.678000", "094415.680000", "094415.682000", "094415.684000", "094415.687000", "094415.689000", "094415.691000", "094415.693000", "094415.696000", "094415.698000", "094415.700000", "094415.703000", "094415.705000", "094415.707000", "094415.709000", "094415.712000", "094415.714000", "094455.670000", "094455.673000", "094455.675000", "094455.677000", "094455.680000", "094455.682000", "094455.684000", "094455.686000", "094455.689000", "094455.691000", "094455.693000", "094455.696000", "094455.698000", "094455.700000", "094455.702000", "094455.705000", "094455.707000", "094455.709000", "094455.712000", "094455.714000", "094535.670000", "094535.681000", "094535.684000", "094535.686000", "094535.688000", "094535.690000", "094535.693000", "094535.695000", "094535.697000", "094535.699000", "094535.702000", "094535.704000", "094535.706000", "094535.709000", "094535.711000", "094535.713000", "094535.715000", "094535.718000", "094535.720000", "094535.722000", "094615.670000", "094615.673000", "094615.675000", "094615.678000", "094615.680000", "094615.683000", "094615.685000", "094615.687000", "094615.689000", "094615.692000", "094615.694000", "094615.696000", "094615.699000", "094615.701000", "094615.703000", "094615.705000", "094615.708000", "094615.710000", "094615.712000", "094615.715000", "094655.670000", "094655.673000", "094655.675000", "094655.677000", "094655.680000", "094655.682000", "094655.684000", "094655.686000", "094655.689000", "094655.691000", "094655.693000", "094655.696000", "094655.698000", "094655.700000", "094655.702000", "094655.705000", "094655.707000", "094655.709000", "094655.712000", "094655.714000", "094735.670000", "094735.673000", "094735.675000", "094735.678000", "094735.680000", "094735.682000", "094735.685000", "094735.687000", "094735.689000", "094735.691000", "094735.694000", "094735.696000", "094735.698000", "094735.701000", "094735.703000", "094735.705000", "094735.708000", "094735.710000", "094735.712000", "094735.714000", "094804.537000", "094804.540000", "094804.542000", "094804.544000", "094804.547000", "094804.549000", "094804.552000", "094804.554000", "094804.556000", "094804.558000", "094804.561000", "094804.563000", "094804.566000", "094804.569000", "094804.572000"],
      "InstanceNumber": [1, 2, 3, 4, 5, 6, 7, 8, 9, 10, 11, 12, 13, 14, 15, 16, 17, 18, 19, 20, 21, 22, 23, 24, 25, 26, 27, 28, 29, 30, 31, 32, 33, 34, 35, 36, 37, 38, 39, 40, 41, 42, 43, 44, 45, 46, 47, 48, 49, 50, 51, 52, 53, 54, 55, 56, 57, 58, 59, 60, 61, 62, 63, 64, 65, 66, 67, 68, 69, 70, 71, 72, 73, 74, 75, 76, 77, 78, 79, 80, 81, 82, 83, 84, 85, 86, 87, 88, 89, 90, 91, 92, 93, 94, 95, 96, 97, 98, 99, 100, 101, 102, 103, 104, 105, 106, 107, 108, 109, 110, 111, 112, 113, 114, 115, 116, 117, 118, 119, 120, 121, 122, 123, 124, 125, 126, 127, 128, 129, 130, 131, 132, 133, 134, 135, 136, 137, 138, 139, 140, 141, 142, 143, 144, 145, 146, 147, 148, 149, 150, 151, 152, 153, 154, 155, 156, 157, 158, 159, 160, 161, 162, 163, 164, 165, 166, 167, 168, 169, 170, 171, 172, 173, 174, 175, 176, 177, 178, 179, 180, 181, 182, 183, 184, 185, 186, 187, 188, 189, 190, 191, 192, 193, 194, 195, 196, 197, 198, 199, 200],
      "LargestImagePixelValue": [3970, 3973, 3972, 3973, 3972, 3973, 3971, 3970, 3974, 3973, 3970, 3972, 3970, 3976, 3972, 3970, 3969, 3968, 3968, 3971, 3969, 3971, 3970, 3968, 3970, 3967, 3967, 3967, 3967, 3967, 3966, 3971, 3961, 3972, 3967, 3966, 3965, 3970, 3969, 3966, 3966, 3968, 3965, 3968, 3963, 3968, 3968, 3964, 3966, 3965, 3965, 3966, 3969, 3961, 3965, 3967, 3962, 3963, 3961, 3961, 3964, 3965, 3964, 3963, 3960, 3962, 3963, 3964, 3961, 3961, 3964, 3964, 3963, 3963, 3963, 3964, 3965, 3963, 3963, 3964, 3966, 3960, 3960, 3963, 3958, 3962, 3959, 3964, 3965, 3961, 3962, 3964, 3963, 3961, 3961, 3962, 3961, 3961, 3962, 3959, 3964, 3962, 3958, 3963, 3963, 3958, 3961, 3961, 3961, 3964, 3961, 3960, 3956, 3963, 3964, 3962, 3964, 3960, 3963, 3962, 3960, 3959, 3961, 3958, 3962, 3960, 3962, 3962, 3960, 3957, 3957, 3957, 3955, 3959, 3962, 3958, 3957, 3962, 3963, 3961, 3961, 3965, 3962, 3960, 3956, 3960, 3956, 3956, 3957, 3958, 3957, 3956, 3961, 3956, 3959, 3957, 3962, 3954, 3958, 3958, 3956, 3958, 3958, 3959, 3957, 3957, 3957, 3959, 3956, 3961, 3958, 3956, 3960, 3959, 3954, 3957, 3956, 3956, 3957, 3956, 3962, 3955, 3963, 3953, 3957, 3960, 3957, 3956, 3956, 3958, 3959, 3964, 3959, 3956, 3959, 3960, 3957, 3957, 3953, 3952],
      "WindowCenter": [1421.0, 1421.0, 1420.0, 1420.0, 1420.0, 1421.0, 1420.0, 1420.0, 1421.0, 1421.0, 1420.0, 1421.0, 1420.0, 1420.0, 1420.0, 1420.0, 1420.0, 1420.0, 1420.0, 1420.0, 1420.0, 1420.0, 1420.0, 1419.0, 1420.0, 1420.0, 1420.0, 1420.0, 1420.0, 1419.0, 1420.0, 1419.0, 1419.0, 1419.0, 1419.0, 1419.0, 1419.0, 1419.0, 1419.0, 1419.0, 1419.0, 1419.0, 1419.0, 1418.0, 1418.0, 1419.0, 1419.0, 1418.0, 1418.0, 1418.0, 1419.0, 1419.0, 1419.0, 1419.0, 1419.0, 1419.0, 1419.0, 1419.0, 1419.0, 1418.0, 1419.0, 1419.0, 1419.0, 1418.0, 1418.0, 1418.0, 1417.0, 1418.0, 1418.0, 1418.0, 1418.0, 1418.0, 1417.0, 1418.0, 1418.0, 1417.0, 1418.0, 1417.0, 1418.0, 1418.0, 1417.0, 1418.0, 1418.0, 1418.0, 1417.0, 1417.0, 1418.0, 1418.0, 1417.0, 1417.0, 1417.0, 1417.0, 1417.0, 1417.0, 1417.0, 1417.0, 1417.0, 1417.0, 1417.0, 1417.0, 1417.0, 1417.0, 1417.0, 1417.0, 1416.0, 1416.0, 1416.0, 1416.0, 1416.0, 1417.0, 1416.0, 1416.0, 1417.0, 1417.0, 1417.0, 1416.0, 1416.0, 1416.0, 1416.0, 1416.0, 1416.0, 1416.0, 1416.0, 1417.0, 1416.0, 1416.0, 1416.0, 1416.0, 1416.0, 1416.0, 1415.0, 1417.0, 1416.0, 1415.0, 1415.0, 1415.0, 1416.0, 1416.0, 1416.0, 1415.0, 1415.0, 1415.0, 1415.0, 1415.0, 1416.0, 1415.0, 1415.0, 1415.0, 1414.0, 1416.0, 1415.0, 1415.0, 1415.0, 1415.0, 1415.0, 1415.0, 1415.0, 1415.0, 1416.0, 1415.0, 1415.0, 1415.0, 1415.0, 1414.0, 1415.0, 1414.0, 1414.0, 1414.0, 1415.0, 1414.0, 1414.0, 1414.0, 1415.0, 1414.0, 1415.0, 1414.0, 1415.0, 1414.0, 1414.0, 1415.0, 1414.0, 1414.0, 1414.0, 1414.0, 1414.0, 1414.0, 1414.0, 1414.0, 1414.0, 1414.0, 1414.0, 1414.0, 1414.0, 1414.0, 1414.0, 1414.0, 1413.0, 1414.0, 1413.0, 1413.0],
      "WindowWidth": [3365.0, 3365.0, 3365.0, 3365.0, 3365.0, 3364.0, 3365.0, 3365.0, 3364.0, 3364.0, 3364.0, 3364.0, 3364.0, 3364.0, 3364.0, 3364.0, 3364.0, 3364.0, 3364.0, 3364.0, 3364.0, 3364.0, 3364.0, 3364.0, 3364.0, 3364.0, 3363.0, 3363.0, 3364.0, 3363.0, 3363.0, 3363.0, 3363.0, 3363.0, 3363.0, 3363.0, 3363.0, 3363.0, 3363.0, 3363.0, 3363.0, 3363.0, 3363.0, 3363.0, 3363.0, 3363.0, 3363.0, 3363.0, 3363.0, 3363.0, 3363.0, 3363.0, 3363.0, 3363.0, 3363.0, 3363.0, 3363.0, 3363.0, 3363.0, 3363.0, 3363.0, 3363.0, 3363.0, 3362.0, 3362.0, 3362.0, 3363.0, 3362.0, 3362.0, 3362.0, 3362.0, 3362.0, 3362.0, 3362.0, 3362.0, 3362.0, 3362.0, 3362.0, 3362.0, 3362.0, 3362.0, 3362.0, 3362.0, 3362.0, 3362.0, 3362.0, 3362.0, 3362.0, 3361.0, 3362.0, 3361.0, 3361.0, 3361.0, 3361.0, 3362.0, 3361.0, 3361.0, 3361.0, 3361.0, 3361.0, 3361.0, 3361.0, 3361.0, 3361.0, 3361.0, 3361.0, 3361.0, 3361.0, 3361.0, 3361.0, 3361.0, 3361.0, 3361.0, 3361.0, 3361.0, 3361.0, 3361.0, 3361.0, 3361.0, 3361.0, 3361.0, 3361.0, 3361.0, 3360.0, 3361.0, 3360.0, 3360.0, 3360.0, 3360.0, 3360.0, 3360.0, 3360.0, 3360.0, 3360.0, 3360.0, 3360.0, 3360.0, 3360.0, 3360.0, 3360.0, 3360.0, 3360.0, 3360.0, 3360.0, 3360.0, 3360.0, 3360.0, 3360.0, 3360.0, 3360.0, 3360.0, 3360.0, 3360.0, 3360.0, 3360.0, 3360.0, 3360.0, 3359.0, 3359.0, 3360.0, 3359.0, 3359.0, 3360.0, 3359.0, 3359.0, 3359.0, 3359.0, 3359.0, 3359.0, 3359.0, 3359.0, 3359.0, 3359.0, 3359.0, 3359.0, 3359.0, 3359.0, 3359.0, 3359.0, 3359.0, 3359.0, 3359.0, 3359.0, 3359.0, 3359.0, 3359.0, 3359.0, 3359.0, 3359.0, 3359.0, 3359.0, 3359.0, 3359.0, 3359.0, 3359.0, 3358.0, 3358.0, 3358.0, 3358.0, 3358.0]
    },
    "slices": {}
  }
}