{
  "AcquisitionMatrixPE": 80,
  "AcquisitionNumber": 1,
  "AcquisitionTime": "10:11:53.532500",
  "BandwidthPerPixelPhaseEncode": 25,
  "BaseResolution": 80,
  "BodyPartExamined": "BRAIN",
  "CoilCombinationMethod": "Sum of Squares",
  "ConsistencyInfo": "N4_VE11C_LATEST_20160120",
  "ConversionSoftware": "dcm2niix",
  "ConversionSoftwareVersion": "v1.0.20220720",
  "DerivedVendorReportedEchoSpacing": 0.0005,
  "DeviceSerialNumber": "66112",
  "DwellTime": 2.7e-06,
  "EchoTime": 0.03,
  "EchoTrainLength": 80,
  "EffectiveEchoSpacing": 0.0005,
  "FlipAngle": 10,
  "HeudiconvVersion": "0.13.1",
  "ImageOrientationPatientDICOM": [0.999907, 0.0129217, 0.00428559, -0.0136131, 0.952133, 0.30538],
  "ImageOrientationText": "Tra>Cor(17.8)>Sag(0.0)",
  "ImageType": [
    "ORIGINAL",
    "PRIMARY",
    "M",
    "ND",
    "NORM",
    "MOSAIC"
],
  "ImagingFrequency": 123.252,
  "InPlanePhaseEncodingDirectionDICOM": "COL",
  "InstitutionAddress": "Maynard 3,Hanover,NH,US,03755",
  "InstitutionName": "Dartmouth College - PBS",
  "InstitutionalDepartmentName": "Department",
  "MRAcquisitionType": "2D",
  "MagneticFieldStrength": 3,
  "Manufacturer": "Siemens",
  "ManufacturersModelName": "Prisma",
  "MatrixCoilMode": "SENSE",
  "Modality": "MR",
  "NonlinearGradientCorrection": false,
  "PartialFourier": 1,
  "PatientPosition": "HFS",
  "PercentPhaseFOV": 100,
  "PercentSampling": 100,
  "PhaseEncodingDirection": "j-",
  "PhaseEncodingSteps": 80,
  "PhaseResolution": 1,
  "PixelBandwidth": 2315,
  "ProcedureStepDescription": "dbic^QA",
  "ProtocolName": "func-bold_fa-10",
  "PulseSequenceDetails": "%SiemensSeq%\\ep2d_bold",
  "ReceiveCoilActiveElements": "HC1-7;NC1,2",
  "ReceiveCoilName": "HeadNeck_64",
  "ReconMatrixPE": 80,
  "RepetitionTime": 2,
  "SAR": 0.00764852,
  "ScanOptions": "FS",
  "ScanningSequence": "EP",
  "SequenceName": "*epfid2d1_80",
  "SequenceVariant": "SK",
  "SeriesDescription": "func-bold_fa-10",
  "SeriesNumber": 9,
  "ShimSetting": [4143, -7702, -7501, 156, -75, -324, -48, 66],
  "SliceThickness": 3.5,
  "SliceTiming": [0.99, 0, 1.0575, 0.0675, 1.1225, 0.1325, 1.19, 0.2, 1.255, 0.265, 1.32, 0.33, 1.3875, 0.3975, 1.4525, 0.4625, 1.52, 0.53, 1.585, 0.595, 1.65, 0.66, 1.7175, 0.7275, 1.7825, 0.7925, 1.85, 0.86, 1.915, 0.925],
  "SoftwareVersions": "syngo MR E11",
  "SpacingBetweenSlices": 3.99,
  "StationName": "AWP66112",
  "TotalReadoutTime": 0.0395,
  "TxRefAmp": 212.59,
  "dcmmeta_affine": [
    [-2.9997220039367676, -0.040839411318302155, 0.0005363905802369118, 123.7280502319336],
    [-0.03876497969031334, 2.8563995361328125, 1.2185866832733154, -110.66059875488281],
    [0.012856768444180489, -0.9161404371261597, 3.79936146736145, -26.481388092041016],
    [0.0, 0.0, 0.0, 1.0]
],
  "dcmmeta_reorient_transform": [
    [0.0, -1.0, 0.0, 79.0],
    [1.0, 0.0, 0.0, 0.0],
    [0.0, 0.0, 1.0, 0.0],
    [0.0, 0.0, 0.0, 1.0]
],
  "dcmmeta_shape": [80, 80, 30, 200],
  "dcmmeta_slice_dim": 2,
  "dcmmeta_version": 0.6,
  "global": {
    "const": {
      "AccessionNumber": "qa64",
      "AcquisitionMatrix": [80, 0, 0, 80],
      "AngioFlag": "N",
      "BitsAllocated": 16,
      "BitsStored": 12,
      "BodyPartExamined": "BRAIN",
      "Columns": 480,
      "EchoNumbers": 1,
      "EchoTime": 30.0,
      "EchoTrainLength": 80,
      "FlipAngle": 10.0,
      "HighBit": 11,
      "ImageOrientationPatient": [0.99990732792046, 0.01292165984083, 0.0042855895656, -0.0136131369838, 0.95213320846475, 0.30538014971522],
      "ImagePositionPatient": [-712.27824844363, -694.02789191832, -284.65592652047],
      "ImageType": [
        "ORIGINAL",
        "PRIMARY",
        "M",
        "ND",
        "NORM",
        "MOSAIC"
],
      "ImagedNucleus": "1H",
      "ImagingFrequency": 123.252337,
      "InPlanePhaseEncodingDirection": "COL",
      "MRAcquisitionType": "2D",
      "MagneticFieldStrength": 3.0,
      "Manufacturer": "SIEMENS",
      "ManufacturerModelName": "Prisma",
      "Modality": "MR",
      "NumberOfAverages": 1.0,
      "NumberOfPhaseEncodingSteps": 80,
      "PercentPhaseFieldOfView": 100.0,
      "PercentSampling": 100.0,
      "PerformedProcedureStepStartTime": "095546.111000",
      "PhotometricInterpretation": "MONOCHROME2",
      "PixelBandwidth": 2315.0,
      "PixelRepresentation": 0,
      "PixelSpacing": [3.0, 3.0],
      "ProtocolName": "func-bold_fa-10",
      "RepetitionTime": 2000.0,
      "Rows": 480,
      "SAR": 0.00764851815644,
      "SamplesPerPixel": 1,
      "ScanOptions": "FS",
      "ScanningSequence": "EP",
      "SequenceName": "*epfid2d1_80",
      "SequenceVariant": "SK",
      "SeriesDescription": "func-bold_fa-10",
      "SeriesNumber": 9,
      "SeriesTime": "101243.238000",
      "SliceLocation": -58.996371458004,
      "SliceThickness": 3.5,
      "SmallestImagePixelValue": 0,
      "SoftwareVersions": "syngo MR E11",
      "SpacingBetweenSlices": 3.990000103368,
      "SpecificCharacterSet": "ISO_IR 100",
      "StudyID": "52",
      "StudyTime": "095544.852000",
      "TransmitCoilName": "Body",
      "VariableFlipAngleFlag": "N",
      "WindowCenterWidthExplanation": "Algo1",
      "dBdt": 0.0},
    "slices": {}
  },
  "time": {
    "samples": {
      "AcquisitionNumber": [1, 2, 3, 4, 5, 6, 7, 8, 9, 10, 11, 12, 13, 14, 15, 16, 17, 18, 19, 20, 21, 22, 23, 24, 25, 26, 27, 28, 29, 30, 31, 32, 33, 34, 35, 36, 37, 38, 39, 40, 41, 42, 43, 44, 45, 46, 47, 48, 49, 50, 51, 52, 53, 54, 55, 56, 57, 58, 59, 60, 61, 62, 63, 64, 65, 66, 67, 68, 69, 70, 71, 72, 73, 74, 75, 76, 77, 78, 79, 80, 81, 82, 83, 84, 85, 86, 87, 88, 89, 90, 91, 92, 93, 94, 95, 96, 97, 98, 99, 100, 101, 102, 103, 104, 105, 106, 107, 108, 109, 110, 111, 112, 113, 114, 115, 116, 117, 118, 119, 120, 121, 122, 123, 124, 125, 126, 127, 128, 129, 130, 131, 132, 133, 134, 135, 136, 137, 138, 139, 140, 141, 142, 143, 144, 145, 146, 147, 148, 149, 150, 151, 152, 153, 154, 155, 156, 157, 158, 159, 160, 161, 162, 163, 164, 165, 166, 167, 168, 169, 170, 171, 172, 173, 174, 175, 176, 177, 178, 179, 180, 181, 182, 183, 184, 185, 186, 187, 188, 189, 190, 191, 192, 193, 194, 195, 196, 197, 198, 199, 200],
      "AcquisitionTime": ["101153.532500", "101155.532500", "101157.532500", "101159.532500", "101201.532500", "101203.532500", "101205.532500", "101207.532500", "101209.532500", "101211.532500", "101213.532500", "101215.532500", "101217.532500", "101219.532500", "101221.532500", "101223.532500", "101225.532500", "101227.532500", "101229.532500", "101231.532500", "101233.532500", "101235.532500", "101237.532500", "101239.532500", "101241.532500", "101243.532500", "101245.532500", "101247.532500", "101249.532500", "101251.532500", "101253.532500", "101255.532500", "101257.532500", "101259.532500", "101301.532500", "101303.532500", "101305.532500", "101307.532500", "101309.532500", "101311.532500", "101313.532500", "101315.532500", "101317.532500", "101319.532500", "101321.532500", "101323.532500", "101325.532500", "101327.532500", "101329.532500", "101331.532500", "101333.532500", "101335.532500", "101337.532500", "101339.532500", "101341.532500", "101343.532500", "101345.532500", "101347.532500", "101349.532500", "101351.532500", "101353.532500", "101355.532500", "101357.532500", "101359.532500", "101401.532500", "101403.532500", "101405.532500", "101407.532500", "101409.532500", "101411.532500", "101413.532500", "101415.532500", "101417.532500", "101419.532500", "101421.532500", "101423.532500", "101425.532500", "101427.532500", "101429.532500", "101431.532500", "101433.532500", "101435.532500", "101437.532500", "101439.532500", "101441.532500", "101443.532500", "101445.532500", "101447.532500", "101449.532500", "101451.532500", "101453.532500", "101455.532500", "101457.532500", "101459.532500", "101501.532500", "101503.532500", "101505.532500", "101507.532500", "101509.532500", "101511.532500", "101513.532500", "101515.532500", "101517.532500", "101519.532500", "101521.532500", "101523.532500", "101525.532500", "101527.532500", "101529.532500", "101531.532500", "101533.532500", "101535.532500", "101537.532500", "101539.532500", "101541.532500", "101543.532500", "101545.532500", "101547.532500", "101549.532500", "101551.532500", "101553.532500", "101555.532500", "101557.532500", "101559.532500", "101601.532500", "101603.532500", "101605.532500", "101607.532500", "101609.532500", "101611.532500", "101613.532500", "101615.532500", "101617.532500", "101619.532500", "101621.532500", "101623.532500", "101625.532500", "101627.532500", "101629.532500", "101631.532500", "101633.532500", "101635.532500", "101637.532500", "101639.532500", "101641.532500", "101643.532500", "101645.532500", "101647.532500", "101649.532500", "101651.532500", "101653.532500", "101655.532500", "101657.532500", "101659.532500", "101701.532500", "101703.532500", "101705.532500", "101707.532500", "101709.532500", "101711.532500", "101713.532500", "101715.532500", "101717.532500", "101719.532500", "101721.532500", "101723.532500", "101725.532500", "101727.532500", "101729.532500", "101731.532500", "101733.532500", "101735.532500", "101737.532500", "101739.532500", "101741.532500", "101743.532500", "101745.532500", "101747.532500", "101749.532500", "101751.532500", "101753.532500", "101755.532500", "101757.532500", "101759.532500", "101801.532500", "101803.532500", "101805.532500", "101807.532500", "101809.532500", "101811.532500", "101813.532500", "101815.532500", "101817.532500", "101819.532500", "101821.532500", "101823.532500", "101825.532500", "101827.532500", "101829.532500", "101831.532500"],
      "ContentTime": ["101243.241000", "101243.245000", "101243.247000", "101243.250000", "101243.253000", "101243.255000", "101243.258000", "101243.260000", "101243.271000", "101243.273000", "101243.276000", "101243.279000", "101243.281000", "101243.284000", "101243.286000", "101243.289000", "101243.291000", "101243.294000", "101243.297000", "101243.299000", "101243.302000", "101243.304000", "101243.307000", "101243.310000", "101243.312000", "101323.238000", "101323.240000", "101323.243000", "101323.246000", "101323.248000", "101323.251000", "101323.253000", "101323.256000", "101323.259000", "101323.261000", "101323.264000", "101323.266000", "101323.269000", "101323.271000", "101323.274000", "101323.277000", "101323.279000", "101323.282000", "101323.284000", "101323.287000", "101403.238000", "101403.240000", "101403.243000", "101403.246000", "101403.248000", "101403.251000", "101403.253000", "101403.256000", "101403.259000", "101403.261000", "101403.264000", "101403.266000", "101403.269000", "101403.271000", "101403.274000", "101403.277000", "101403.279000", "101403.282000", "101403.284000", "101403.287000", "101443.237000", "101443.239000", "101443.242000", "101443.245000", "101443.247000", "101443.250000", "101443.252000", "101443.255000", "101443.258000", "101443.260000", "101443.263000", "101443.266000", "101443.268000", "101443.271000", "101443.274000", "101443.276000", "101443.279000", "101443.281000", "101443.284000", "101443.287000", "101523.238000", "101523.241000", "101523.243000", "101523.246000", "101523.248000", "101523.251000", "101523.253000", "101523.256000", "101523.258000", "101523.261000", "101523.264000", "101523.266000", "101523.269000", "101523.271000", "101523.274000", "101523.276000", "101523.279000", "101523.281000", "101523.284000", "101523.287000", "101603.238000", "101603.241000", "101603.243000", "101603.246000", "101603.248000", "101603.251000", "101603.253000", "101603.256000", "101603.258000", "101603.261000", "101603.263000", "101603.266000", "101603.268000", "101603.271000", "101603.274000", "101603.276000", "101603.279000", "101603.281000", "101603.284000", "101603.286000", "101643.237000", "101643.240000", "101643.242000", "101643.245000", "101643.247000", "101643.250000", "101643.252000", "101643.255000", "101643.257000", "101643.260000", "101643.263000", "101643.265000", "101643.268000", "101643.270000", "101643.273000", "101643.275000", "101643.278000", "101643.280000", "101643.283000", "101643.285000", "101723.237000", "101723.240000", "101723.242000", "101723.245000", "101723.247000", "101723.250000", "101723.252000", "101723.255000", "101723.257000", "101723.260000", "101723.262000", "101723.265000", "101723.267000", "101723.270000", "101723.273000", "101723.275000", "101723.278000", "101723.280000", "101723.283000", "101723.285000", "101803.238000", "101803.240000", "101803.243000", "101803.246000", "101803.248000", "101803.251000", "101803.253000", "101803.270000", "101803.273000", "101803.275000", "101803.278000", "101803.280000", "101803.283000", "101803.286000", "101803.288000", "101803.291000", "101803.293000", "101803.296000", "101803.298000", "101803.301000", "101833.098000", "101833.101000", "101833.103000", "101833.106000", "101833.108000", "101833.111000", "101833.114000", "101833.116000", "101833.119000", "101833.122000", "101833.124000", "101833.127000", "101833.130000", "101833.133000", "101833.136000"],
      "InstanceCreationTime": ["101243.241000", "101243.245000", "101243.247000", "101243.250000", "101243.253000", "101243.255000", "101243.258000", "101243.260000", "101243.271000", "101243.273000", "101243.276000", "101243.279000", "101243.281000", "101243.284000", "101243.286000", "101243.289000", "101243.291000", "101243.294000", "101243.297000", "101243.299000", "101243.302000", "101243.304000", "101243.307000", "101243.310000", "101243.312000", "101323.238000", "101323.240000", "101323.243000", "101323.246000", "101323.248000", "101323.251000", "101323.253000", "101323.256000", "101323.259000", "101323.261000", "101323.264000", "101323.266000", "101323.269000", "101323.271000", "101323.274000", "101323.277000", "101323.279000", "101323.282000", "101323.284000", "101323.287000", "101403.238000", "101403.240000", "101403.243000", "101403.246000", "101403.248000", "101403.251000", "101403.253000", "101403.256000", "101403.259000", "101403.261000", "101403.264000", "101403.266000", "101403.269000", "101403.271000", "101403.274000", "101403.277000", "101403.279000", "101403.282000", "101403.284000", "101403.287000", "101443.237000", "101443.239000", "101443.242000", "101443.245000", "101443.247000", "101443.250000", "101443.252000", "101443.255000", "101443.258000", "101443.260000", "101443.263000", "101443.266000", "101443.268000", "101443.271000", "101443.274000", "101443.276000", "101443.279000", "101443.281000", "101443.284000", "101443.287000", "101523.238000", "101523.241000", "101523.243000", "101523.246000", "101523.248000", "101523.251000", "101523.253000", "101523.256000", "101523.258000", "101523.261000", "101523.264000", "101523.266000", "101523.269000", "101523.271000", "101523.274000", "101523.276000", "101523.279000", "101523.281000", "101523.284000", "101523.287000", "101603.238000", "101603.241000", "101603.243000", "101603.246000", "101603.248000", "101603.251000", "101603.253000", "101603.256000", "101603.258000", "101603.261000", "101603.263000", "101603.266000", "101603.268000", "101603.271000", "101603.274000", "101603.276000", "101603.279000", "101603.281000", "101603.284000", "101603.286000", "101643.237000", "101643.240000", "101643.242000", "101643.245000", "101643.247000", "101643.250000", "101643.252000", "101643.255000", "101643.257000", "101643.260000", "101643.263000", "101643.265000", "101643.268000", "101643.270000", "101643.273000", "101643.275000", "101643.278000", "101643.280000", "101643.283000", "101643.285000", "101723.237000", "101723.240000", "101723.242000", "101723.245000", "101723.247000", "101723.250000", "101723.252000", "101723.255000", "101723.257000", "101723.260000", "101723.262000", "101723.265000", "101723.267000", "101723.270000", "101723.273000", "101723.275000", "101723.278000", "101723.280000", "101723.283000", "101723.285000", "101803.238000", "101803.240000", "101803.243000", "101803.246000", "101803.248000", "101803.251000", "101803.253000", "101803.270000", "101803.273000", "101803.275000", "101803.278000", "101803.280000", "101803.283000", "101803.286000", "101803.288000", "101803.291000", "101803.293000", "101803.296000", "101803.298000", "101803.301000", "101833.098000", "101833.101000", "101833.103000", "101833.106000", "101833.108000", "101833.111000", "101833.114000", "101833.116000", "101833.119000", "101833.122000", "101833.124000", "101833.127000", "101833.130000", "101833.133000", "101833.136000"],
      "InstanceNumber": [1, 2, 3, 4, 5, 6, 7, 8, 9, 10, 11, 12, 13, 14, 15, 16, 17, 18, 19, 20, 21, 22, 23, 24, 25, 26, 27, 28, 29, 30, 31, 32, 33, 34, 35, 36, 37, 38, 39, 40, 41, 42, 43, 44, 45, 46, 47, 48, 49, 50, 51, 52, 53, 54, 55, 56, 57, 58, 59, 60, 61, 62, 63, 64, 65, 66, 67, 68, 69, 70, 71, 72, 73, 74, 75, 76, 77, 78, 79, 80, 81, 82, 83, 84, 85, 86, 87, 88, 89, 90, 91, 92, 93, 94, 95, 96, 97, 98, 99, 100, 101, 102, 103, 104, 105, 106, 107, 108, 109, 110, 111, 112, 113, 114, 115, 116, 117, 118, 119, 120, 121, 122, 123, 124, 125, 126, 127, 128, 129, 130, 131, 132, 133, 134, 135, 136, 137, 138, 139, 140, 141, 142, 143, 144, 145, 146, 147, 148, 149, 150, 151, 152, 153, 154, 155, 156, 157, 158, 159, 160, 161, 162, 163, 164, 165, 166, 167, 168, 169, 170, 171, 172, 173, 174, 175, 176, 177, 178, 179, 180, 181, 182, 183, 184, 185, 186, 187, 188, 189, 190, 191, 192, 193, 194, 195, 196, 197, 198, 199, 200],
      "LargestImagePixelValue": [587, 589, 590, 585, 589, 586, 591, 587, 587, 591, 587, 588, 587, 587, 590, 592, 587, 587, 587, 587, 592, 588, 595, 587, 587, 593, 585, 590, 589, 586, 591, 590, 591, 590, 587, 590, 589, 592, 589, 590, 590, 588, 590, 590, 589, 587, 589, 592, 588, 586, 589, 586, 589, 588, 589, 590, 588, 594, 587, 590, 587, 589, 586, 589, 590, 588, 586, 585, 584, 587, 588, 585, 588, 590, 588, 586, 585, 590, 585, 589, 589, 591, 586, 588, 587, 585, 590, 590, 586, 587, 587, 590, 587, 586, 588, 588, 586, 589, 589, 585, 587, 589, 585, 588, 584, 585, 586, 588, 586, 588, 591, 586, 588, 589, 587, 584, 588, 586, 589, 586, 585, 587, 588, 586, 586, 589, 586, 586, 587, 588, 588, 591, 585, 587, 588, 586, 587, 588, 589, 587, 586, 588, 587, 586, 592, 589, 588, 586, 585, 589, 589, 586, 585, 590, 593, 586, 585, 585, 591, 584, 586, 592, 589, 586, 591, 584, 585, 585, 588, 586, 587, 587, 587, 586, 584, 588, 585, 588, 595, 585, 586, 586, 593, 595, 584, 588, 592, 586, 593, 583, 590, 586, 584, 584, 588, 588, 587, 589, 586, 588],
      "WindowCenter": [437.0, 437.0, 438.0, 437.0, 437.0, 437.0, 437.0, 437.0, 437.0, 437.0, 436.0, 437.0, 437.0, 437.0, 438.0, 437.0, 437.0, 436.0, 437.0, 437.0, 437.0, 436.0, 437.0, 437.0, 437.0, 437.0, 437.0, 437.0, 437.0, 436.0, 437.0, 437.0, 437.0, 437.0, 436.0, 437.0, 436.0, 437.0, 436.0, 437.0, 437.0, 436.0, 437.0, 437.0, 436.0, 436.0, 437.0, 437.0, 437.0, 436.0, 436.0, 436.0, 436.0, 436.0, 436.0, 437.0, 436.0, 437.0, 436.0, 437.0, 436.0, 436.0, 436.0, 436.0, 437.0, 436.0, 436.0, 436.0, 436.0, 436.0, 436.0, 436.0, 436.0, 437.0, 436.0, 436.0, 436.0, 437.0, 436.0, 436.0, 436.0, 437.0, 436.0, 436.0, 436.0, 436.0, 437.0, 437.0, 436.0, 436.0, 436.0, 437.0, 436.0, 436.0, 436.0, 436.0, 436.0, 436.0, 436.0, 436.0, 436.0, 436.0, 436.0, 436.0, 436.0, 436.0, 436.0, 436.0, 436.0, 436.0, 437.0, 436.0, 436.0, 436.0, 436.0, 436.0, 436.0, 436.0, 436.0, 436.0, 436.0, 436.0, 436.0, 436.0, 436.0, 436.0, 436.0, 436.0, 436.0, 436.0, 436.0, 437.0, 436.0, 436.0, 436.0, 436.0, 436.0, 436.0, 436.0, 436.0, 436.0, 436.0, 436.0, 436.0, 437.0, 436.0, 436.0, 436.0, 435.0, 436.0, 435.0, 435.0, 436.0, 437.0, 437.0, 436.0, 435.0, 435.0, 437.0, 435.0, 436.0, 437.0, 435.0, 435.0, 437.0, 436.0, 435.0, 435.0, 435.0, 435.0, 436.0, 435.0, 435.0, 436.0, 435.0, 435.0, 435.0, 435.0, 437.0, 435.0, 435.0, 435.0, 436.0, 436.0, 436.0, 435.0, 436.0, 435.0, 436.0, 435.0, 436.0, 435.0, 435.0, 435.0, 435.0, 435.0, 435.0, 435.0, 435.0, 435.0],
      "WindowWidth": [911.0, 911.0, 913.0, 911.0, 911.0, 911.0, 912.0, 911.0, 911.0, 912.0, 911.0, 911.0, 911.0, 911.0, 913.0, 912.0, 911.0, 911.0, 911.0, 911.0, 912.0, 910.0, 912.0, 911.0, 911.0, 912.0, 911.0, 912.0, 911.0, 910.0, 912.0, 912.0, 912.0, 912.0, 910.0, 912.0, 910.0, 912.0, 910.0, 912.0, 912.0, 910.0, 912.0, 912.0, 910.0, 910.0, 911.0, 912.0, 911.0, 910.0, 910.0, 910.0, 910.0, 910.0, 910.0, 912.0, 910.0, 912.0, 910.0, 912.0, 910.0, 910.0, 910.0, 910.0, 912.0, 910.0, 910.0, 910.0, 910.0, 910.0, 910.0, 910.0, 910.0, 912.0, 910.0, 910.0, 910.0, 911.0, 910.0, 910.0, 910.0, 911.0, 910.0, 910.0, 910.0, 910.0, 911.0, 911.0, 910.0, 910.0, 910.0, 911.0, 910.0, 910.0, 910.0, 910.0, 910.0, 910.0, 910.0, 910.0, 910.0, 910.0, 910.0, 910.0, 910.0, 910.0, 910.0, 910.0, 910.0, 910.0, 911.0, 910.0, 910.0, 910.0, 910.0, 910.0, 910.0, 910.0, 910.0, 910.0, 910.0, 910.0, 910.0, 910.0, 910.0, 910.0, 910.0, 910.0, 910.0, 910.0, 910.0, 911.0, 910.0, 910.0, 910.0, 910.0, 910.0, 910.0, 910.0, 910.0, 910.0, 910.0, 910.0, 910.0, 910.0, 910.0, 910.0, 910.0, 909.0, 909.0, 909.0, 909.0, 910.0, 910.0, 911.0, 910.0, 909.0, 909.0, 910.0, 909.0, 910.0, 910.0, 909.0, 909.0, 910.0, 910.0, 909.0, 909.0, 909.0, 909.0, 909.0, 909.0, 909.0, 909.0, 909.0, 909.0, 909.0, 909.0, 911.0, 909.0, 909.0, 909.0, 910.0, 910.0, 909.0, 909.0, 910.0, 909.0, 910.0, 909.0, 910.0, 909.0, 909.0, 909.0, 909.0, 909.0, 909.0, 909.0, 909.0, 909.0]
    },
    "slices": {}
  }
}