{
  "AcquisitionMatrixPE": 80,
  "AcquisitionNumber": 1,
  "AcquisitionTime": "10:05:6.532500",
  "BandwidthPerPixelPhaseEncode": 25,
  "BaseResolution": 80,
  "BodyPartExamined": "BRAIN",
  "CoilCombinationMethod": "Sum of Squares",
  "ConsistencyInfo": "N4_VE11C_LATEST_20160120",
  "ConversionSoftware": "dcm2niix",
  "ConversionSoftwareVersion": "v1.0.20220720",
  "DerivedVendorReportedEchoSpacing": 0.0005,
  "DeviceSerialNumber": "66112",
  "DwellTime": 2.7e-06,
  "EchoTime": 0.03,
  "EchoTrainLength": 80,
  "EffectiveEchoSpacing": 0.0005,
  "FlipAngle": 77,
  "HeudiconvVersion": "0.13.1",
  "ImageOrientationPatientDICOM": [0.999907, 0.0129217, 0.00428559, -0.0136131, 0.952133, 0.30538],
  "ImageOrientationText": "Tra>Cor(17.8)>Sag(0.0)",
  "ImageType": [
    "ORIGINAL",
    "PRIMARY",
    "M",
    "ND",
    "NORM",
    "MOSAIC"
],
  "ImagingFrequency": 123.252,
  "InPlanePhaseEncodingDirectionDICOM": "COL",
  "InstitutionAddress": "Maynard 3,Hanover,NH,US,03755",
  "InstitutionName": "Dartmouth College - PBS",
  "InstitutionalDepartmentName": "Department",
  "MRAcquisitionType": "2D",
  "MagneticFieldStrength": 3,
  "Manufacturer": "Siemens",
  "ManufacturersModelName": "Prisma",
  "MatrixCoilMode": "SENSE",
  "Modality": "MR",
  "NonlinearGradientCorrection": false,
  "PartialFourier": 1,
  "PatientPosition": "HFS",
  "PercentPhaseFOV": 100,
  "PercentSampling": 100,
  "PhaseEncodingDirection": "j-",
  "PhaseEncodingSteps": 80,
  "PhaseResolution": 1,
  "PixelBandwidth": 2315,
  "ProcedureStepDescription": "dbic^QA",
  "ProtocolName": "func-bold_fa-77",
  "PulseSequenceDetails": "%SiemensSeq%\\ep2d_bold",
  "ReceiveCoilActiveElements": "HC1-7;NC1,2",
  "ReceiveCoilName": "HeadNeck_64",
  "ReconMatrixPE": 80,
  "RepetitionTime": 2,
  "SAR": 0.0285127,
  "ScanOptions": "FS",
  "ScanningSequence": "EP",
  "SequenceName": "*epfid2d1_80",
  "SequenceVariant": "SK",
  "SeriesDescription": "func-bold_fa-77",
  "SeriesNumber": 7,
  "ShimSetting": [4143, -7702, -7501, 156, -75, -324, -48, 66],
  "SliceThickness": 3.5,
  "SliceTiming": [0.99, 0, 1.0575, 0.0675, 1.1225, 0.1325, 1.1875, 0.1975, 1.255, 0.265, 1.32, 0.33, 1.3875, 0.3975, 1.4525, 0.4625, 1.5175, 0.5275, 1.585, 0.595, 1.65, 0.66, 1.7175, 0.7275, 1.7825, 0.7925, 1.8475, 0.8575, 1.915, 0.925],
  "SoftwareVersions": "syngo MR E11",
  "SpacingBetweenSlices": 3.99,
  "StationName": "AWP66112",
  "TotalReadoutTime": 0.0395,
  "TxRefAmp": 212.59,
  "dcmmeta_affine": [
    [-2.9997220039367676, -0.040839411318302155, 0.0005363905802369118, 123.7280502319336],
    [-0.03876497969031334, 2.8563995361328125, 1.2185866832733154, -110.66059875488281],
    [0.012856768444180489, -0.9161404371261597, 3.79936146736145, -26.481388092041016],
    [0.0, 0.0, 0.0, 1.0]
],
  "dcmmeta_reorient_transform": [
    [0.0, -1.0, 0.0, 79.0],
    [1.0, 0.0, 0.0, 0.0],
    [0.0, 0.0, 1.0, 0.0],
    [0.0, 0.0, 0.0, 1.0]
],
  "dcmmeta_shape": [80, 80, 30, 200],
  "dcmmeta_slice_dim": 2,
  "dcmmeta_version": 0.6,
  "global": {
    "const": {
      "AccessionNumber": "qa64",
      "AcquisitionMatrix": [80, 0, 0, 80],
      "AngioFlag": "N",
      "BitsAllocated": 16,
      "BitsStored": 12,
      "BodyPartExamined": "BRAIN",
      "Columns": 480,
      "EchoNumbers": 1,
      "EchoTime": 30.0,
      "EchoTrainLength": 80,
      "FlipAngle": 77.0,
      "HighBit": 11,
      "ImageOrientationPatient": [0.99990732792046, 0.01292165984083, 0.0042855895656, -0.0136131369838, 0.95213320846475, 0.30538014971522],
      "ImagePositionPatient": [-712.27824844363, -694.02789191832, -284.65592652047],
      "ImageType": [
        "ORIGINAL",
        "PRIMARY",
        "M",
        "ND",
        "NORM",
        "MOSAIC"
],
      "ImagedNucleus": "1H",
      "ImagingFrequency": 123.252331,
      "InPlanePhaseEncodingDirection": "COL",
      "MRAcquisitionType": "2D",
      "MagneticFieldStrength": 3.0,
      "Manufacturer": "SIEMENS",
      "ManufacturerModelName": "Prisma",
      "Modality": "MR",
      "NumberOfAverages": 1.0,
      "NumberOfPhaseEncodingSteps": 80,
      "PercentPhaseFieldOfView": 100.0,
      "PercentSampling": 100.0,
      "PerformedProcedureStepStartTime": "095546.111000",
      "PhotometricInterpretation": "MONOCHROME2",
      "PixelBandwidth": 2315.0,
      "PixelRepresentation": 0,
      "PixelSpacing": [3.0, 3.0],
      "ProtocolName": "func-bold_fa-77",
      "RepetitionTime": 2000.0,
      "Rows": 480,
      "SAR": 0.02851274366871,
      "SamplesPerPixel": 1,
      "ScanOptions": "FS",
      "ScanningSequence": "EP",
      "SequenceName": "*epfid2d1_80",
      "SequenceVariant": "SK",
      "SeriesDescription": "func-bold_fa-77",
      "SeriesNumber": 7,
      "SeriesTime": "100603.390000",
      "SliceLocation": -58.996371458004,
      "SliceThickness": 3.5,
      "SmallestImagePixelValue": 0,
      "SoftwareVersions": "syngo MR E11",
      "SpacingBetweenSlices": 3.990000103368,
      "SpecificCharacterSet": "ISO_IR 100",
      "StudyID": "52",
      "StudyTime": "095544.852000",
      "TransmitCoilName": "Body",
      "VariableFlipAngleFlag": "N",
      "WindowCenterWidthExplanation": "Algo1",
      "dBdt": 0.0},
    "slices": {}
  },
  "time": {
    "samples": {
      "AcquisitionNumber": [1, 2, 3, 4, 5, 6, 7, 8, 9, 10, 11, 12, 13, 14, 15, 16, 17, 18, 19, 20, 21, 22, 23, 24, 25, 26, 27, 28, 29, 30, 31, 32, 33, 34, 35, 36, 37, 38, 39, 40, 41, 42, 43, 44, 45, 46, 47, 48, 49, 50, 51, 52, 53, 54, 55, 56, 57, 58, 59, 60, 61, 62, 63, 64, 65, 66, 67, 68, 69, 70, 71, 72, 73, 74, 75, 76, 77, 78, 79, 80, 81, 82, 83, 84, 85, 86, 87, 88, 89, 90, 91, 92, 93, 94, 95, 96, 97, 98, 99, 100, 101, 102, 103, 104, 105, 106, 107, 108, 109, 110, 111, 112, 113, 114, 115, 116, 117, 118, 119, 120, 121, 122, 123, 124, 125, 126, 127, 128, 129, 130, 131, 132, 133, 134, 135, 136, 137, 138, 139, 140, 141, 142, 143, 144, 145, 146, 147, 148, 149, 150, 151, 152, 153, 154, 155, 156, 157, 158, 159, 160, 161, 162, 163, 164, 165, 166, 167, 168, 169, 170, 171, 172, 173, 174, 175, 176, 177, 178, 179, 180, 181, 182, 183, 184, 185, 186, 187, 188, 189, 190, 191, 192, 193, 194, 195, 196, 197, 198, 199, 200],
      "AcquisitionTime": ["100506.532500", "100508.532500", "100510.532500", "100512.532500", "100514.532500", "100516.532500", "100518.532500", "100520.532500", "100522.532500", "100524.532500", "100526.532500", "100528.532500", "100530.532500", "100532.532500", "100534.532500", "100536.532500", "100538.532500", "100540.532500", "100542.532500", "100544.532500", "100546.532500", "100548.532500", "100550.532500", "100552.532500", "100554.532500", "100556.532500", "100558.532500", "100600.532500", "100602.532500", "100604.532500", "100606.532500", "100608.532500", "100610.532500", "100612.532500", "100614.532500", "100616.532500", "100618.532500", "100620.532500", "100622.532500", "100624.532500", "100626.532500", "100628.532500", "100630.532500", "100632.532500", "100634.532500", "100636.532500", "100638.532500", "100640.532500", "100642.532500", "100644.532500", "100646.532500", "100648.532500", "100650.532500", "100652.532500", "100654.532500", "100656.532500", "100658.532500", "100700.532500", "100702.532500", "100704.532500", "100706.532500", "100708.532500", "100710.532500", "100712.532500", "100714.532500", "100716.532500", "100718.532500", "100720.532500", "100722.532500", "100724.532500", "100726.532500", "100728.532500", "100730.532500", "100732.532500", "100734.532500", "100736.532500", "100738.532500", "100740.532500", "100742.532500", "100744.532500", "100746.532500", "100748.532500", "100750.532500", "100752.532500", "100754.532500", "100756.532500", "100758.532500", "100800.532500", "100802.532500", "100804.532500", "100806.532500", "100808.532500", "100810.532500", "100812.532500", "100814.532500", "100816.532500", "100818.532500", "100820.532500", "100822.532500", "100824.532500", "100826.532500", "100828.532500", "100830.532500", "100832.532500", "100834.532500", "100836.532500", "100838.532500", "100840.532500", "100842.532500", "100844.532500", "100846.532500", "100848.532500", "100850.532500", "100852.532500", "100854.532500", "100856.532500", "100858.532500", "100900.532500", "100902.532500", "100904.532500", "100906.532500", "100908.532500", "100910.532500", "100912.532500", "100914.532500", "100916.532500", "100918.532500", "100920.532500", "100922.532500", "100924.532500", "100926.532500", "100928.532500", "100930.532500", "100932.532500", "100934.532500", "100936.532500", "100938.532500", "100940.532500", "100942.532500", "100944.532500", "100946.532500", "100948.532500", "100950.532500", "100952.532500", "100954.532500", "100956.532500", "100958.532500", "101000.532500", "101002.532500", "101004.532500", "101006.532500", "101008.532500", "101010.532500", "101012.532500", "101014.532500", "101016.532500", "101018.532500", "101020.532500", "101022.532500", "101024.532500", "101026.532500", "101028.532500", "101030.532500", "101032.532500", "101034.532500", "101036.532500", "101038.532500", "101040.532500", "101042.532500", "101044.532500", "101046.532500", "101048.532500", "101050.532500", "101052.532500", "101054.532500", "101056.532500", "101058.532500", "101100.532500", "101102.532500", "101104.532500", "101106.532500", "101108.532500", "101110.532500", "101112.532500", "101114.532500", "101116.532500", "101118.532500", "101120.532500", "101122.532500", "101124.532500", "101126.532500", "101128.532500", "101130.532500", "101132.532500", "101134.532500", "101136.532500", "101138.532500", "101140.532500", "101142.532500", "101144.532500"],
      "ContentTime": ["100603.394000", "100603.397000", "100603.400000", "100603.403000", "100603.405000", "100603.408000", "100603.410000", "100603.413000", "100603.416000", "100603.418000", "100603.421000", "100603.424000", "100603.426000", "100603.429000", "100603.431000", "100603.434000", "100603.437000", "100603.439000", "100603.442000", "100603.444000", "100603.447000", "100603.449000", "100603.452000", "100603.455000", "100603.457000", "100603.460000", "100603.462000", "100603.465000", "100643.378000", "100643.381000", "100643.383000", "100643.386000", "100643.388000", "100643.391000", "100643.394000", "100643.396000", "100643.399000", "100643.401000", "100643.404000", "100643.407000", "100643.409000", "100643.412000", "100643.414000", "100643.417000", "100643.420000", "100643.422000", "100643.425000", "100643.427000", "100723.376000", "100723.379000", "100723.382000", "100723.385000", "100723.387000", "100723.390000", "100723.392000", "100723.395000", "100723.398000", "100723.400000", "100723.403000", "100723.405000", "100723.408000", "100723.411000", "100723.413000", "100723.416000", "100723.418000", "100723.421000", "100723.424000", "100723.426000", "100803.377000", "100803.380000", "100803.382000", "100803.385000", "100803.387000", "100803.390000", "100803.393000", "100803.395000", "100803.398000", "100803.400000", "100803.403000", "100803.406000", "100803.408000", "100803.411000", "100803.414000", "100803.416000", "100803.419000", "100803.421000", "100803.424000", "100803.427000", "100843.377000", "100843.380000", "100843.383000", "100843.386000", "100843.388000", "100843.391000", "100843.393000", "100843.396000", "100843.399000", "100843.401000", "100843.404000", "100843.407000", "100843.409000", "100843.412000", "100843.414000", "100843.417000", "100843.420000", "100843.422000", "100843.425000", "100843.427000", "100923.377000", "100923.381000", "100923.383000", "100923.386000", "100923.388000", "100923.391000", "100923.394000", "100923.396000", "100923.399000", "100923.401000", "100923.404000", "100923.406000", "100923.409000", "100923.412000", "100923.414000", "100923.417000", "100923.419000", "100923.422000", "100923.424000", "100923.427000", "101003.377000", "101003.379000", "101003.382000", "101003.385000", "101003.387000", "101003.390000", "101003.392000", "101003.395000", "101003.398000", "101003.400000", "101003.403000", "101003.405000", "101003.408000", "101003.411000", "101003.414000", "101003.416000", "101003.419000", "101003.421000", "101003.424000", "101003.427000", "101043.378000", "101043.395000", "101043.398000", "101043.401000", "101043.404000", "101043.407000", "101043.410000", "101043.413000", "101043.416000", "101043.419000", "101043.422000", "101043.424000", "101043.427000", "101043.430000", "101043.432000", "101043.435000", "101043.438000", "101043.440000", "101043.443000", "101043.445000", "101123.377000", "101123.380000", "101123.383000", "101123.386000", "101123.388000", "101123.391000", "101123.394000", "101123.396000", "101123.399000", "101123.401000", "101123.404000", "101123.407000", "101123.409000", "101123.412000", "101123.415000", "101123.417000", "101123.420000", "101123.422000", "101123.425000", "101123.428000", "101143.377000", "101143.380000", "101143.383000", "101143.385000", "101143.388000", "101143.391000", "101143.394000", "101143.396000", "101143.399000", "101143.401000", "101146.550000", "101146.553000"],
      "InstanceCreationTime": ["100603.394000", "100603.397000", "100603.400000", "100603.403000", "100603.405000", "100603.408000", "100603.410000", "100603.413000", "100603.416000", "100603.418000", "100603.421000", "100603.424000", "100603.426000", "100603.429000", "100603.431000", "100603.434000", "100603.437000", "100603.439000", "100603.442000", "100603.444000", "100603.447000", "100603.449000", "100603.452000", "100603.455000", "100603.457000", "100603.460000", "100603.462000", "100603.465000", "100643.378000", "100643.381000", "100643.383000", "100643.386000", "100643.388000", "100643.391000", "100643.394000", "100643.396000", "100643.399000", "100643.401000", "100643.404000", "100643.407000", "100643.409000", "100643.412000", "100643.414000", "100643.417000", "100643.420000", "100643.422000", "100643.425000", "100643.427000", "100723.376000", "100723.379000", "100723.382000", "100723.385000", "100723.387000", "100723.390000", "100723.392000", "100723.395000", "100723.398000", "100723.400000", "100723.403000", "100723.405000", "100723.408000", "100723.411000", "100723.413000", "100723.416000", "100723.418000", "100723.421000", "100723.424000", "100723.426000", "100803.377000", "100803.380000", "100803.382000", "100803.385000", "100803.387000", "100803.390000", "100803.393000", "100803.395000", "100803.398000", "100803.400000", "100803.403000", "100803.406000", "100803.408000", "100803.411000", "100803.414000", "100803.416000", "100803.419000", "100803.421000", "100803.424000", "100803.427000", "100843.377000", "100843.380000", "100843.383000", "100843.386000", "100843.388000", "100843.391000", "100843.393000", "100843.396000", "100843.399000", "100843.401000", "100843.404000", "100843.407000", "100843.409000", "100843.412000", "100843.414000", "100843.417000", "100843.420000", "100843.422000", "100843.425000", "100843.427000", "100923.377000", "100923.381000", "100923.383000", "100923.386000", "100923.388000", "100923.391000", "100923.394000", "100923.396000", "100923.399000", "100923.401000", "100923.404000", "100923.406000", "100923.409000", "100923.412000", "100923.414000", "100923.417000", "100923.419000", "100923.422000", "100923.424000", "100923.427000", "101003.377000", "101003.379000", "101003.382000", "101003.385000", "101003.387000", "101003.390000", "101003.392000", "101003.395000", "101003.398000", "101003.400000", "101003.403000", "101003.405000", "101003.408000", "101003.411000", "101003.414000", "101003.416000", "101003.419000", "101003.421000", "101003.424000", "101003.427000", "101043.378000", "101043.395000", "101043.398000", "101043.401000", "101043.404000", "101043.407000", "101043.410000", "101043.413000", "101043.416000", "101043.419000", "101043.422000", "101043.424000", "101043.427000", "101043.430000", "101043.432000", "101043.435000", "101043.438000", "101043.440000", "101043.443000", "101043.445000", "101123.377000", "101123.380000", "101123.383000", "101123.386000", "101123.388000", "101123.391000", "101123.394000", "101123.396000", "101123.399000", "101123.401000", "101123.404000", "101123.407000", "101123.409000", "101123.412000", "101123.415000", "101123.417000", "101123.420000", "101123.422000", "101123.425000", "101123.428000", "101143.377000", "101143.380000", "101143.383000", "101143.385000", "101143.388000", "101143.391000", "101143.394000", "101143.396000", "101143.399000", "101143.401000", "101146.550000", "101146.553000"],
      "InstanceNumber": [1, 2, 3, 4, 5, 6, 7, 8, 9, 10, 11, 12, 13, 14, 15, 16, 17, 18, 19, 20, 21, 22, 23, 24, 25, 26, 27, 28, 29, 30, 31, 32, 33, 34, 35, 36, 37, 38, 39, 40, 41, 42, 43, 44, 45, 46, 47, 48, 49, 50, 51, 52, 53, 54, 55, 56, 57, 58, 59, 60, 61, 62, 63, 64, 65, 66, 67, 68, 69, 70, 71, 72, 73, 74, 75, 76, 77, 78, 79, 80, 81, 82, 83, 84, 85, 86, 87, 88, 89, 90, 91, 92, 93, 94, 95, 96, 97, 98, 99, 100, 101, 102, 103, 104, 105, 106, 107, 108, 109, 110, 111, 112, 113, 114, 115, 116, 117, 118, 119, 120, 121, 122, 123, 124, 125, 126, 127, 128, 129, 130, 131, 132, 133, 134, 135, 136, 137, 138, 139, 140, 141, 142, 143, 144, 145, 146, 147, 148, 149, 150, 151, 152, 153, 154, 155, 156, 157, 158, 159, 160, 161, 162, 163, 164, 165, 166, 167, 168, 169, 170, 171, 172, 173, 174, 175, 176, 177, 178, 179, 180, 181, 182, 183, 184, 185, 186, 187, 188, 189, 190, 191, 192, 193, 194, 195, 196, 197, 198, 199, 200],
      "LargestImagePixelValue": [3504, 3500, 3498, 3503, 3500, 3501, 3499, 3500, 3502, 3499, 3500, 3500, 3502, 3503, 3499, 3494, 3499, 3500, 3501, 3499, 3500, 3500, 3498, 3501, 3501, 3500, 3497, 3499, 3501, 3499, 3502, 3501, 3497, 3499, 3500, 3498, 3502, 3498, 3499, 3501, 3501, 3500, 3501, 3503, 3498, 3499, 3497, 3500, 3503, 3504, 3502, 3502, 3499, 3500, 3501, 3499, 3501, 3499, 3503, 3503, 3505, 3499, 3502, 3500, 3501, 3501, 3502, 3502, 3500, 3499, 3502, 3501, 3502, 3502, 3496, 3496, 3498, 3504, 3499, 3500, 3498, 3499, 3498, 3500, 3501, 3496, 3495, 3502, 3499, 3496, 3495, 3495, 3495, 3499, 3499, 3497, 3501, 3500, 3501, 3497, 3499, 3500, 3496, 3494, 3496, 3499, 3493, 3495, 3494, 3495, 3493, 3499, 3499, 3497, 3498, 3499, 3503, 3497, 3498, 3501, 3498, 3497, 3497, 3495, 3499, 3496, 3500, 3499, 3500, 3498, 3500, 3499, 3492, 3496, 3501, 3495, 3496, 3496, 3499, 3493, 3494, 3499, 3495, 3496, 3493, 3493, 3497, 3496, 3500, 3492, 3498, 3494, 3493, 3497, 3495, 3499, 3495, 3496, 3495, 3500, 3493, 3494, 3496, 3493, 3496, 3495, 3494, 3496, 3492, 3497, 3495, 3493, 3494, 3496, 3496, 3494, 3494, 3493, 3495, 3495, 3492, 3496, 3493, 3494, 3493, 3493, 3496, 3492, 3494, 3492, 3492, 3495, 3494, 3489, 3495, 3494, 3494, 3490, 3494, 3494],
      "WindowCenter": [1332.0, 1333.0, 1332.0, 1332.0, 1332.0, 1332.0, 1332.0, 1332.0, 1332.0, 1332.0, 1332.0, 1332.0, 1332.0, 1332.0, 1332.0, 1332.0, 1332.0, 1332.0, 1331.0, 1332.0, 1331.0, 1332.0, 1332.0, 1331.0, 1331.0, 1331.0, 1331.0, 1330.0, 1331.0, 1331.0, 1331.0, 1332.0, 1332.0, 1331.0, 1331.0, 1331.0, 1331.0, 1331.0, 1331.0, 1331.0, 1331.0, 1331.0, 1330.0, 1331.0, 1330.0, 1331.0, 1331.0, 1331.0, 1331.0, 1331.0, 1331.0, 1330.0, 1331.0, 1331.0, 1331.0, 1331.0, 1331.0, 1330.0, 1330.0, 1331.0, 1330.0, 1330.0, 1330.0, 1330.0, 1330.0, 1330.0, 1330.0, 1330.0, 1330.0, 1330.0, 1330.0, 1330.0, 1330.0, 1330.0, 1331.0, 1330.0, 1330.0, 1330.0, 1330.0, 1330.0, 1330.0, 1330.0, 1330.0, 1330.0, 1330.0, 1329.0, 1329.0, 1330.0, 1330.0, 1330.0, 1330.0, 1329.0, 1330.0, 1330.0, 1330.0, 1330.0, 1330.0, 1330.0, 1330.0, 1330.0, 1330.0, 1329.0, 1329.0, 1329.0, 1330.0, 1329.0, 1330.0, 1330.0, 1329.0, 1330.0, 1329.0, 1329.0, 1329.0, 1330.0, 1330.0, 1330.0, 1329.0, 1329.0, 1329.0, 1329.0, 1329.0, 1329.0, 1329.0, 1329.0, 1329.0, 1329.0, 1329.0, 1329.0, 1329.0, 1329.0, 1329.0, 1329.0, 1329.0, 1329.0, 1329.0, 1328.0, 1329.0, 1329.0, 1328.0, 1329.0, 1328.0, 1329.0, 1328.0, 1328.0, 1328.0, 1328.0, 1329.0, 1329.0, 1328.0, 1329.0, 1328.0, 1329.0, 1328.0, 1329.0, 1329.0, 1328.0, 1328.0, 1328.0, 1328.0, 1329.0, 1329.0, 1329.0, 1329.0, 1329.0, 1328.0, 1328.0, 1328.0, 1328.0, 1328.0, 1328.0, 1328.0, 1328.0, 1328.0, 1328.0, 1328.0, 1328.0, 1328.0, 1328.0, 1328.0, 1328.0, 1328.0, 1328.0, 1328.0, 1328.0, 1328.0, 1328.0, 1328.0, 1328.0, 1327.0, 1328.0, 1327.0, 1327.0, 1327.0, 1327.0, 1327.0, 1327.0, 1327.0, 1327.0, 1327.0, 1327.0],
      "WindowWidth": [3208.0, 3208.0, 3207.0, 3207.0, 3207.0, 3207.0, 3207.0, 3207.0, 3207.0, 3207.0, 3207.0, 3207.0, 3207.0, 3207.0, 3206.0, 3206.0, 3207.0, 3207.0, 3206.0, 3206.0, 3206.0, 3207.0, 3206.0, 3206.0, 3206.0, 3206.0, 3206.0, 3207.0, 3206.0, 3206.0, 3206.0, 3206.0, 3206.0, 3206.0, 3206.0, 3206.0, 3206.0, 3206.0, 3206.0, 3206.0, 3206.0, 3206.0, 3206.0, 3206.0, 3206.0, 3206.0, 3206.0, 3206.0, 3206.0, 3206.0, 3206.0, 3206.0, 3205.0, 3205.0, 3205.0, 3205.0, 3205.0, 3205.0, 3205.0, 3205.0, 3205.0, 3205.0, 3205.0, 3205.0, 3205.0, 3205.0, 3205.0, 3205.0, 3205.0, 3205.0, 3205.0, 3205.0, 3205.0, 3205.0, 3205.0, 3205.0, 3205.0, 3205.0, 3205.0, 3205.0, 3205.0, 3205.0, 3205.0, 3205.0, 3205.0, 3205.0, 3205.0, 3205.0, 3205.0, 3205.0, 3205.0, 3205.0, 3205.0, 3205.0, 3205.0, 3205.0, 3205.0, 3205.0, 3204.0, 3204.0, 3204.0, 3204.0, 3204.0, 3204.0, 3204.0, 3204.0, 3204.0, 3204.0, 3204.0, 3204.0, 3204.0, 3204.0, 3204.0, 3204.0, 3204.0, 3204.0, 3204.0, 3204.0, 3204.0, 3204.0, 3204.0, 3204.0, 3204.0, 3204.0, 3204.0, 3204.0, 3204.0, 3204.0, 3204.0, 3204.0, 3204.0, 3203.0, 3203.0, 3203.0, 3203.0, 3203.0, 3203.0, 3203.0, 3203.0, 3203.0, 3203.0, 3203.0, 3203.0, 3203.0, 3203.0, 3203.0, 3203.0, 3203.0, 3203.0, 3203.0, 3203.0, 3203.0, 3203.0, 3203.0, 3203.0, 3203.0, 3203.0, 3203.0, 3203.0, 3202.0, 3202.0, 3202.0, 3202.0, 3202.0, 3203.0, 3202.0, 3202.0, 3202.0, 3202.0, 3202.0, 3202.0, 3202.0, 3202.0, 3202.0, 3202.0, 3202.0, 3202.0, 3202.0, 3202.0, 3202.0, 3202.0, 3202.0, 3202.0, 3201.0, 3202.0, 3202.0, 3201.0, 3202.0, 3202.0, 3202.0, 3202.0, 3202.0, 3202.0, 3202.0, 3202.0, 3202.0, 3202.0, 3202.0, 3202.0, 3202.0]
    },
    "slices": {}
  }
}