{
  "AcquisitionMatrixPE": 80,
  "AcquisitionNumber": 1,
  "AcquisitionTime": "09:30:20.545000",
  "BandwidthPerPixelPhaseEncode": 48.077,
  "BaseResolution": 80,
  "BodyPartExamined": "BRAIN",
  "CoilCombinationMethod": "Sum of Squares",
  "ConsistencyInfo": "N4_VE11C_LATEST_20160120",
  "ConversionSoftware": "dcm2niix",
  "ConversionSoftwareVersion": "v1.0.20220720",
  "DerivedVendorReportedEchoSpacing": 0.000519999,
  "DeviceSerialNumber": "66112",
  "DwellTime": 2.7e-06,
  "EchoTime": 0.035,
  "EchoTrainLength": 39,
  "EffectiveEchoSpacing": 0.00026,
  "FlipAngle": 90,
  "HeudiconvVersion": "0.13.1",
  "ImageOrientationPatientDICOM": [0.987327, 0.157258, -0.0213346, -0.1421, 0.935893, 0.322352],
  "ImageOrientationText": "Tra>Cor(18.4)>Sag(-4.1)",
  "ImageType": [
    "ORIGINAL",
    "PRIMARY",
    "M",
    "ND",
    "NORM",
    "MOSAIC"
],
  "ImagingFrequency": 123.252,
  "InPlanePhaseEncodingDirectionDICOM": "COL",
  "InstitutionAddress": "Maynard 3,Hanover,NH,US,03755",
  "InstitutionName": "Dartmouth College - PBS",
  "InstitutionalDepartmentName": "Department",
  "MRAcquisitionType": "2D",
  "MagneticFieldStrength": 3,
  "Manufacturer": "Siemens",
  "ManufacturersModelName": "Prisma",
  "MatrixCoilMode": "GRAPPA",
  "Modality": "MR",
  "NonlinearGradientCorrection": false,
  "ParallelReductionFactorInPlane": 2,
  "PartialFourier": 1,
  "PatientPosition": "HFS",
  "PercentPhaseFOV": 100,
  "PercentSampling": 100,
  "PhaseEncodingDirection": "j-",
  "PhaseEncodingSteps": 79,
  "PhaseResolution": 1,
  "PixelBandwidth": 2315,
  "ProcedureStepDescription": "dbic^QA",
  "ProtocolName": "func-bold_task-rest_acq-p2",
  "PulseSequenceDetails": "%SiemensSeq%\\ep2d_bold",
  "ReceiveCoilActiveElements": "HEA;HEP",
  "ReceiveCoilName": "Head_32",
  "ReconMatrixPE": 80,
  "RefLinesPE": 24,
  "RepetitionTime": 2,
  "SAR": 0.0554038,
  "ScanOptions": "FS",
  "ScanningSequence": "EP",
  "SequenceName": "*epfid2d1_80",
  "SequenceVariant": "SK",
  "SeriesDescription": "func-bold_task-rest_acq-p2",
  "SeriesNumber": 5,
  "ShimSetting": [4147, -7698, -7504, 233, -40, -145, -6, 67],
  "SliceThickness": 3.5,
  "SliceTiming": [0.99, 0, 1.055, 0.065, 1.12, 0.13, 1.1875, 0.1975, 1.2525, 0.2625, 1.32, 0.33, 1.385, 0.395, 1.45, 0.46, 1.5175, 0.5275, 1.5825, 0.5925, 1.65, 0.66, 1.715, 0.725, 1.78, 0.79, 1.8475, 0.8575, 1.9125, 0.9225],
  "SoftwareVersions": "syngo MR E11",
  "SpacingBetweenSlices": 3.99,
  "StationName": "AWP66112",
  "TaskName": "rest",
  "TotalReadoutTime": 0.02054,
  "TxRefAmp": 228.438,
  "dcmmeta_affine": [
    [-2.9619812965393066, -0.4263002872467041, -0.28193098306655884, 140.07974243164062],
    [-0.4717734456062317, 2.807680130004883, 1.257790207862854, -95.90389251708984],
    [-0.06400393694639206, -0.9670572876930237, 3.7760534286499023, -7.860723495483398],
    [0.0, 0.0, 0.0, 1.0]
],
  "dcmmeta_reorient_transform": [
    [0.0, -1.0, 0.0, 79.0],
    [1.0, 0.0, 0.0, 0.0],
    [0.0, 0.0, 1.0, 0.0],
    [0.0, 0.0, 0.0, 1.0]
],
  "dcmmeta_shape": [80, 80, 30, 200],
  "dcmmeta_slice_dim": 2,
  "dcmmeta_version": 0.6,
  "global": {
    "const": {
      "AccessionNumber": "qa",
      "AcquisitionMatrix": [80, 0, 0, 80],
      "AngioFlag": "N",
      "BitsAllocated": 16,
      "BitsStored": 12,
      "BodyPartExamined": "BRAIN",
      "Columns": 480,
      "EchoNumbers": 1,
      "EchoTime": 35.0,
      "EchoTrainLength": 39,
      "FlipAngle": 90.0,
      "HighBit": 11,
      "ImageOrientationPatient": [0.98732710586656, 0.15725781045993, -0.0213346448417, -0.1421000928603, 0.93589340790754, 0.32235243545583],
      "ImagePositionPatient": [-613.53823516928, -781.79357338394, -264.86892526998],
      "ImageType": [
        "ORIGINAL",
        "PRIMARY",
        "M",
        "ND",
        "NORM",
        "MOSAIC"
],
      "ImagedNucleus": "1H",
      "ImagingFrequency": 123.252357,
      "InPlanePhaseEncodingDirection": "COL",
      "MRAcquisitionType": "2D",
      "MagneticFieldStrength": 3.0,
      "Manufacturer": "SIEMENS",
      "ManufacturerModelName": "Prisma",
      "Modality": "MR",
      "NumberOfAverages": 1.0,
      "NumberOfPhaseEncodingSteps": 79,
      "PercentPhaseFieldOfView": 100.0,
      "PercentSampling": 100.0,
      "PerformedProcedureStepStartTime": "092834.720000",
      "PhotometricInterpretation": "MONOCHROME2",
      "PixelBandwidth": 2315.0,
      "PixelRepresentation": 0,
      "PixelSpacing": [3.0, 3.0],
      "ProtocolName": "func-bold_task-rest_acq-p2",
      "RepetitionTime": 2000.0,
      "Rows": 480,
      "SAR": 0.05540379491337,
      "SamplesPerPixel": 1,
      "ScanOptions": "FS",
      "ScanningSequence": "EP",
      "SequenceName": "*epfid2d1_80",
      "SequenceVariant": "SK",
      "SeriesDescription": "func-bold_task-rest_acq-p2",
      "SeriesNumber": 5,
      "SeriesTime": "093105.572000",
      "SliceLocation": -47.569501927023,
      "SliceThickness": 3.5,
      "SmallestImagePixelValue": 0,
      "SoftwareVersions": "syngo MR E11",
      "SpacingBetweenSlices": 3.9900000182304,
      "SpecificCharacterSet": "ISO_IR 100",
      "StudyID": "58",
      "StudyTime": "092834.675000",
      "TransmitCoilName": "Body",
      "VariableFlipAngleFlag": "N",
      "WindowCenterWidthExplanation": "Algo1",
      "dBdt": 0.0},
    "slices": {}
  },
  "time": {
    "samples": {
      "AcquisitionNumber": [1, 2, 3, 4, 5, 6, 7, 8, 9, 10, 11, 12, 13, 14, 15, 16, 17, 18, 19, 20, 21, 22, 23, 24, 25, 26, 27, 28, 29, 30, 31, 32, 33, 34, 35, 36, 37, 38, 39, 40, 41, 42, 43, 44, 45, 46, 47, 48, 49, 50, 51, 52, 53, 54, 55, 56, 57, 58, 59, 60, 61, 62, 63, 64, 65, 66, 67, 68, 69, 70, 71, 72, 73, 74, 75, 76, 77, 78, 79, 80, 81, 82, 83, 84, 85, 86, 87, 88, 89, 90, 91, 92, 93, 94, 95, 96, 97, 98, 99, 100, 101, 102, 103, 104, 105, 106, 107, 108, 109, 110, 111, 112, 113, 114, 115, 116, 117, 118, 119, 120, 121, 122, 123, 124, 125, 126, 127, 128, 129, 130, 131, 132, 133, 134, 135, 136, 137, 138, 139, 140, 141, 142, 143, 144, 145, 146, 147, 148, 149, 150, 151, 152, 153, 154, 155, 156, 157, 158, 159, 160, 161, 162, 163, 164, 165, 166, 167, 168, 169, 170, 171, 172, 173, 174, 175, 176, 177, 178, 179, 180, 181, 182, 183, 184, 185, 186, 187, 188, 189, 190, 191, 192, 193, 194, 195, 196, 197, 198, 199, 200],
      "AcquisitionTime": ["093020.545000", "093022.545000", "093024.545000", "093026.545000", "093028.545000", "093030.545000", "093032.545000", "093034.545000", "093036.545000", "093038.545000", "093040.545000", "093042.545000", "093044.545000", "093046.545000", "093048.545000", "093050.545000", "093052.545000", "093054.545000", "093056.545000", "093058.545000", "093100.545000", "093102.545000", "093104.545000", "093106.545000", "093108.545000", "093110.545000", "093112.545000", "093114.545000", "093116.545000", "093118.545000", "093120.545000", "093122.545000", "093124.545000", "093126.545000", "093128.545000", "093130.545000", "093132.545000", "093134.545000", "093136.545000", "093138.545000", "093140.545000", "093142.545000", "093144.545000", "093146.545000", "093148.545000", "093150.545000", "093152.545000", "093154.545000", "093156.545000", "093158.545000", "093200.545000", "093202.545000", "093204.545000", "093206.545000", "093208.545000", "093210.545000", "093212.545000", "093214.545000", "093216.545000", "093218.545000", "093220.545000", "093222.545000", "093224.545000", "093226.545000", "093228.545000", "093230.545000", "093232.545000", "093234.545000", "093236.545000", "093238.545000", "093240.545000", "093242.545000", "093244.545000", "093246.545000", "093248.545000", "093250.545000", "093252.545000", "093254.545000", "093256.545000", "093258.545000", "093300.545000", "093302.545000", "093304.545000", "093306.545000", "093308.545000", "093310.545000", "093312.545000", "093314.545000", "093316.545000", "093318.545000", "093320.545000", "093322.545000", "093324.545000", "093326.545000", "093328.545000", "093330.545000", "093332.545000", "093334.545000", "093336.545000", "093338.545000", "093340.545000", "093342.545000", "093344.545000", "093346.545000", "093348.545000", "093350.545000", "093352.545000", "093354.545000", "093356.545000", "093358.545000", "093400.545000", "093402.545000", "093404.545000", "093406.545000", "093408.545000", "093410.545000", "093412.545000", "093414.545000", "093416.545000", "093418.545000", "093420.545000", "093422.545000", "093424.545000", "093426.545000", "093428.545000", "093430.545000", "093432.545000", "093434.545000", "093436.545000", "093438.545000", "093440.545000", "093442.545000", "093444.545000", "093446.545000", "093448.545000", "093450.545000", "093452.545000", "093454.545000", "093456.545000", "093458.545000", "093500.545000", "093502.545000", "093504.545000", "093506.545000", "093508.545000", "093510.545000", "093512.545000", "093514.545000", "093516.545000", "093518.545000", "093520.545000", "093522.545000", "093524.545000", "093526.545000", "093528.545000", "093530.545000", "093532.545000", "093534.545000", "093536.545000", "093538.545000", "093540.545000", "093542.545000", "093544.545000", "093546.545000", "093548.545000", "093550.545000", "093552.545000", "093554.545000", "093556.545000", "093558.545000", "093600.545000", "093602.545000", "093604.545000", "093606.545000", "093608.545000", "093610.545000", "093612.545000", "093614.545000", "093616.545000", "093618.545000", "093620.545000", "093622.545000", "093624.545000", "093626.545000", "093628.545000", "093630.545000", "093632.545000", "093634.545000", "093636.545000", "093638.545000", "093640.545000", "093642.545000", "093644.545000", "093646.545000", "093648.545000", "093650.545000", "093652.545000", "093654.545000", "093656.545000", "093658.545000"],
      "ContentTime": ["093105.575000", "093105.579000", "093105.581000", "093105.584000", "093105.586000", "093105.589000", "093105.591000", "093105.594000", "093105.596000", "093105.599000", "093105.601000", "093105.604000", "093105.607000", "093105.610000", "093105.620000", "093105.623000", "093105.626000", "093105.628000", "093105.631000", "093105.634000", "093105.637000", "093105.640000", "093145.571000", "093145.573000", "093145.576000", "093145.578000", "093145.581000", "093145.583000", "093145.586000", "093145.588000", "093145.591000", "093145.593000", "093145.596000", "093145.598000", "093145.601000", "093145.605000", "093145.608000", "093145.610000", "093145.613000", "093145.616000", "093145.619000", "093145.621000", "093225.570000", "093225.572000", "093225.575000", "093225.577000", "093225.580000", "093225.582000", "093225.585000", "093225.587000", "093225.590000", "093225.592000", "093225.595000", "093225.597000", "093225.600000", "093225.609000", "093225.612000", "093225.616000", "093225.618000", "093225.621000", "093225.623000", "093225.626000", "093305.570000", "093305.573000", "093305.576000", "093305.579000", "093305.581000", "093305.584000", "093305.586000", "093305.589000", "093305.591000", "093305.594000", "093305.596000", "093305.599000", "093305.602000", "093305.604000", "093305.607000", "093305.609000", "093305.613000", "093305.617000", "093305.620000", "093305.622000", "093345.570000", "093345.573000", "093345.576000", "093345.579000", "093345.581000", "093345.584000", "093345.586000", "093345.589000", "093345.592000", "093345.594000", "093345.597000", "093345.600000", "093345.602000", "093345.605000", "093345.608000", "093345.610000", "093345.614000", "093345.616000", "093345.619000", "093345.621000", "093425.569000", "093425.572000", "093425.575000", "093425.578000", "093425.580000", "093425.583000", "093425.585000", "093425.588000", "093425.600000", "093425.603000", "093425.606000", "093425.609000", "093425.613000", "093425.615000", "093425.618000", "093425.620000", "093425.623000", "093425.626000", "093425.628000", "093425.631000", "093505.569000", "093505.572000", "093505.575000", "093505.577000", "093505.580000", "093505.582000", "093505.585000", "093505.588000", "093505.590000", "093505.593000", "093505.595000", "093505.598000", "093505.600000", "093505.603000", "093505.605000", "093505.609000", "093505.612000", "093505.615000", "093505.617000", "093505.620000", "093545.571000", "093545.574000", "093545.576000", "093545.579000", "093545.581000", "093545.584000", "093545.587000", "093545.589000", "093545.592000", "093545.595000", "093545.597000", "093545.600000", "093545.603000", "093545.605000", "093545.609000", "093545.612000", "093545.614000", "093545.617000", "093545.620000", "093545.622000", "093625.570000", "093625.573000", "093625.576000", "093625.578000", "093625.581000", "093625.583000", "093625.586000", "093625.589000", "093625.591000", "093625.594000", "093625.598000", "093625.601000", "093625.603000", "093625.606000", "093625.610000", "093625.612000", "093625.615000", "093625.618000", "093625.620000", "093625.623000", "093659.649000", "093659.652000", "093659.655000", "093659.657000", "093659.661000", "093659.663000", "093659.666000", "093659.669000", "093659.671000", "093659.674000", "093659.676000", "093659.681000", "093659.685000", "093659.688000", "093659.692000", "093659.699000", "093659.705000", "093659.708000"],
      "InstanceCreationTime": ["093105.575000", "093105.579000", "093105.581000", "093105.584000", "093105.586000", "093105.589000", "093105.591000", "093105.594000", "093105.596000", "093105.599000", "093105.601000", "093105.604000", "093105.607000", "093105.610000", "093105.620000", "093105.623000", "093105.626000", "093105.628000", "093105.631000", "093105.634000", "093105.637000", "093105.640000", "093145.571000", "093145.573000", "093145.576000", "093145.578000", "093145.581000", "093145.583000", "093145.586000", "093145.588000", "093145.591000", "093145.593000", "093145.596000", "093145.598000", "093145.601000", "093145.605000", "093145.608000", "093145.610000", "093145.613000", "093145.616000", "093145.619000", "093145.621000", "093225.570000", "093225.572000", "093225.575000", "093225.577000", "093225.580000", "093225.582000", "093225.585000", "093225.587000", "093225.590000", "093225.592000", "093225.595000", "093225.597000", "093225.600000", "093225.609000", "093225.612000", "093225.616000", "093225.618000", "093225.621000", "093225.623000", "093225.626000", "093305.570000", "093305.573000", "093305.576000", "093305.579000", "093305.581000", "093305.584000", "093305.586000", "093305.589000", "093305.591000", "093305.594000", "093305.596000", "093305.599000", "093305.602000", "093305.604000", "093305.607000", "093305.609000", "093305.613000", "093305.617000", "093305.620000", "093305.622000", "093345.570000", "093345.573000", "093345.576000", "093345.579000", "093345.581000", "093345.584000", "093345.586000", "093345.589000", "093345.592000", "093345.594000", "093345.597000", "093345.600000", "093345.602000", "093345.605000", "093345.608000", "093345.610000", "093345.614000", "093345.616000", "093345.619000", "093345.621000", "093425.569000", "093425.572000", "093425.575000", "093425.578000", "093425.580000", "093425.583000", "093425.585000", "093425.588000", "093425.600000", "093425.603000", "093425.606000", "093425.609000", "093425.613000", "093425.615000", "093425.618000", "093425.620000", "093425.623000", "093425.626000", "093425.628000", "093425.631000", "093505.569000", "093505.572000", "093505.575000", "093505.577000", "093505.580000", "093505.582000", "093505.585000", "093505.588000", "093505.590000", "093505.593000", "093505.595000", "093505.598000", "093505.600000", "093505.603000", "093505.605000", "093505.609000", "093505.612000", "093505.615000", "093505.617000", "093505.620000", "093545.571000", "093545.574000", "093545.576000", "093545.579000", "093545.581000", "093545.584000", "093545.587000", "093545.589000", "093545.592000", "093545.595000", "093545.597000", "093545.600000", "093545.603000", "093545.605000", "093545.609000", "093545.612000", "093545.614000", "093545.617000", "093545.620000", "093545.622000", "093625.570000", "093625.573000", "093625.576000", "093625.578000", "093625.581000", "093625.583000", "093625.586000", "093625.589000", "093625.591000", "093625.594000", "093625.598000", "093625.601000", "093625.603000", "093625.606000", "093625.610000", "093625.612000", "093625.615000", "093625.618000", "093625.620000", "093625.623000", "093659.649000", "093659.652000", "093659.655000", "093659.657000", "093659.661000", "093659.663000", "093659.666000", "093659.669000", "093659.671000", "093659.674000", "093659.676000", "093659.681000", "093659.685000", "093659.688000", "093659.692000", "093659.699000", "093659.705000", "093659.708000"],
      "InstanceNumber": [1, 2, 3, 4, 5, 6, 7, 8, 9, 10, 11, 12, 13, 14, 15, 16, 17, 18, 19, 20, 21, 22, 23, 24, 25, 26, 27, 28, 29, 30, 31, 32, 33, 34, 35, 36, 37, 38, 39, 40, 41, 42, 43, 44, 45, 46, 47, 48, 49, 50, 51, 52, 53, 54, 55, 56, 57, 58, 59, 60, 61, 62, 63, 64, 65, 66, 67, 68, 69, 70, 71, 72, 73, 74, 75, 76, 77, 78, 79, 80, 81, 82, 83, 84, 85, 86, 87, 88, 89, 90, 91, 92, 93, 94, 95, 96, 97, 98, 99, 100, 101, 102, 103, 104, 105, 106, 107, 108, 109, 110, 111, 112, 113, 114, 115, 116, 117, 118, 119, 120, 121, 122, 123, 124, 125, 126, 127, 128, 129, 130, 131, 132, 133, 134, 135, 136, 137, 138, 139, 140, 141, 142, 143, 144, 145, 146, 147, 148, 149, 150, 151, 152, 153, 154, 155, 156, 157, 158, 159, 160, 161, 162, 163, 164, 165, 166, 167, 168, 169, 170, 171, 172, 173, 174, 175, 176, 177, 178, 179, 180, 181, 182, 183, 184, 185, 186, 187, 188, 189, 190, 191, 192, 193, 194, 195, 196, 197, 198, 199, 200],
      "LargestImagePixelValue": [1972, 1974, 1972, 1976, 1973, 1981, 1977, 1976, 1972, 1980, 1983, 1978, 1983, 1975, 1974, 1975, 1979, 1979, 1981, 1971, 1974, 1975, 1977, 1973, 1976, 1973, 1971, 1972, 1973, 1972, 1976, 1971, 1975, 1973, 1975, 1973, 1971, 1978, 1973, 1972, 1977, 1972, 1977, 1977, 1969, 1976, 1972, 1970, 1973, 1975, 1966, 1973, 1973, 1973, 1974, 1969, 1974, 1969, 1978, 1979, 1974, 1974, 1975, 1976, 1969, 1974, 1974, 1976, 1975, 1975, 1968, 1973, 1978, 1977, 1977, 1975, 1968, 1979, 1971, 1972, 1975, 1976, 1974, 1973, 1978, 1974, 1977, 1975, 1974, 1977, 1978, 1966, 1970, 1974, 1971, 1976, 1970, 1965, 1967, 1970, 1976, 1979, 1976, 1978, 1969, 1972, 1969, 1971, 1975, 1971, 1974, 1968, 1969, 1972, 1971, 1966, 1967, 1973, 1965, 1969, 1970, 1974, 1978, 1978, 1976, 1972, 1969, 1969, 1975, 1971, 1971, 1970, 1976, 1971, 1972, 1967, 1968, 1972, 1977, 1967, 1969, 1969, 1974, 1973, 1967, 1973, 1975, 1969, 1972, 1973, 1970, 1971, 1969, 1974, 1973, 1968, 1968, 1974, 1973, 1970, 1973, 1972, 1971, 1971, 1962, 1969, 1972, 1970, 1974, 1970, 1965, 1978, 1969, 1967, 1968, 1967, 1968, 1975, 1973, 1972, 1973, 1978, 1973, 1971, 1971, 1969, 1962, 1965, 1968, 1967, 1971, 1973, 1966, 1972, 1972, 1969, 1969, 1977, 1975, 1973],
      "WindowCenter": [969.0, 969.0, 969.0, 969.0, 969.0, 969.0, 969.0, 969.0, 969.0, 969.0, 969.0, 970.0, 969.0, 968.0, 969.0, 968.0, 969.0, 968.0, 968.0, 969.0, 970.0, 969.0, 968.0, 968.0, 969.0, 969.0, 969.0, 968.0, 969.0, 969.0, 968.0, 969.0, 969.0, 969.0, 969.0, 969.0, 969.0, 969.0, 969.0, 969.0, 969.0, 968.0, 968.0, 969.0, 969.0, 968.0, 969.0, 969.0, 968.0, 968.0, 968.0, 968.0, 968.0, 968.0, 968.0, 968.0, 968.0, 967.0, 968.0, 968.0, 968.0, 968.0, 967.0, 968.0, 968.0, 968.0, 967.0, 968.0, 969.0, 968.0, 968.0, 968.0, 968.0, 969.0, 968.0, 968.0, 968.0, 968.0, 968.0, 969.0, 969.0, 968.0, 969.0, 968.0, 969.0, 969.0, 969.0, 969.0, 968.0, 968.0, 969.0, 968.0, 969.0, 968.0, 968.0, 968.0, 968.0, 968.0, 967.0, 968.0, 968.0, 967.0, 967.0, 967.0, 968.0, 967.0, 967.0, 968.0, 968.0, 968.0, 968.0, 968.0, 967.0, 968.0, 968.0, 968.0, 967.0, 968.0, 968.0, 968.0, 968.0, 968.0, 969.0, 969.0, 968.0, 969.0, 967.0, 968.0, 969.0, 968.0, 968.0, 968.0, 968.0, 967.0, 968.0, 968.0, 968.0, 967.0, 968.0, 969.0, 968.0, 967.0, 967.0, 969.0, 968.0, 968.0, 967.0, 968.0, 968.0, 967.0, 968.0, 967.0, 968.0, 968.0, 968.0, 969.0, 968.0, 969.0, 967.0, 967.0, 968.0, 968.0, 968.0, 968.0, 968.0, 968.0, 967.0, 967.0, 969.0, 968.0, 969.0, 967.0, 967.0, 968.0, 967.0, 969.0, 969.0, 967.0, 969.0, 968.0, 968.0, 968.0, 968.0, 969.0, 968.0, 968.0, 969.0, 968.0, 968.0, 968.0, 967.0, 967.0, 968.0, 967.0, 968.0, 967.0, 968.0, 968.0, 968.0, 968.0],
      "WindowWidth": [2110.0, 2110.0, 2111.0, 2111.0, 2111.0, 2110.0, 2110.0, 2111.0, 2110.0, 2110.0, 2111.0, 2111.0, 2111.0, 2110.0, 2111.0, 2110.0, 2110.0, 2109.0, 2109.0, 2110.0, 2110.0, 2109.0, 2109.0, 2108.0, 2109.0, 2108.0, 2108.0, 2108.0, 2108.0, 2108.0, 2108.0, 2109.0, 2108.0, 2108.0, 2108.0, 2108.0, 2108.0, 2108.0, 2108.0, 2108.0, 2108.0, 2108.0, 2107.0, 2108.0, 2108.0, 2108.0, 2108.0, 2108.0, 2107.0, 2108.0, 2106.0, 2107.0, 2107.0, 2107.0, 2107.0, 2107.0, 2107.0, 2106.0, 2107.0, 2107.0, 2107.0, 2107.0, 2106.0, 2107.0, 2107.0, 2107.0, 2107.0, 2107.0, 2107.0, 2107.0, 2107.0, 2107.0, 2108.0, 2108.0, 2107.0, 2107.0, 2108.0, 2108.0, 2107.0, 2108.0, 2108.0, 2108.0, 2108.0, 2108.0, 2108.0, 2108.0, 2108.0, 2108.0, 2107.0, 2107.0, 2108.0, 2108.0, 2108.0, 2108.0, 2107.0, 2107.0, 2107.0, 2107.0, 2106.0, 2107.0, 2107.0, 2106.0, 2106.0, 2107.0, 2107.0, 2106.0, 2106.0, 2107.0, 2107.0, 2107.0, 2107.0, 2107.0, 2106.0, 2106.0, 2107.0, 2107.0, 2106.0, 2107.0, 2107.0, 2106.0, 2106.0, 2106.0, 2107.0, 2107.0, 2106.0, 2107.0, 2106.0, 2106.0, 2107.0, 2106.0, 2106.0, 2106.0, 2106.0, 2105.0, 2106.0, 2106.0, 2106.0, 2105.0, 2106.0, 2107.0, 2106.0, 2105.0, 2105.0, 2107.0, 2106.0, 2106.0, 2105.0, 2106.0, 2106.0, 2105.0, 2106.0, 2105.0, 2106.0, 2106.0, 2106.0, 2106.0, 2106.0, 2106.0, 2105.0, 2105.0, 2106.0, 2106.0, 2106.0, 2106.0, 2106.0, 2106.0, 2105.0, 2105.0, 2106.0, 2106.0, 2106.0, 2105.0, 2105.0, 2106.0, 2105.0, 2106.0, 2106.0, 2105.0, 2106.0, 2105.0, 2105.0, 2106.0, 2106.0, 2106.0, 2105.0, 2105.0, 2107.0, 2106.0, 2105.0, 2105.0, 2104.0, 2105.0, 2105.0, 2105.0, 2106.0, 2105.0, 2105.0, 2105.0, 2105.0, 2105.0]
    },
    "slices": {}
  }
}