{
  "AcquisitionMatrixPE": 80,
  "AcquisitionNumber": 1,
  "AcquisitionTime": "09:44:4.562500",
  "BandwidthPerPixelPhaseEncode": 25,
  "BaseResolution": 80,
  "BodyPartExamined": "BRAIN",
  "CoilCombinationMethod": "Sum of Squares",
  "ConsistencyInfo": "N4_VE11C_LATEST_20160120",
  "ConversionSoftware": "dcm2niix",
  "ConversionSoftwareVersion": "v1.0.20220720",
  "DerivedVendorReportedEchoSpacing": 0.0005,
  "DeviceSerialNumber": "66112",
  "DwellTime": 2.7e-06,
  "EchoTime": 0.03,
  "EchoTrainLength": 80,
  "EffectiveEchoSpacing": 0.0005,
  "FlipAngle": 77,
  "HeudiconvVersion": "0.13.1",
  "ImageOrientationPatientDICOM": [0.987327, 0.157258, -0.0213346, -0.1421, 0.935893, 0.322352],
  "ImageOrientationText": "Tra>Cor(18.4)>Sag(-4.1)",
  "ImageType": [
    "ORIGINAL",
    "PRIMARY",
    "M",
    "ND",
    "NORM",
    "MOSAIC"
],
  "ImagingFrequency": 123.252,
  "InPlanePhaseEncodingDirectionDICOM": "COL",
  "InstitutionAddress": "Maynard 3,Hanover,NH,US,03755",
  "InstitutionName": "Dartmouth College - PBS",
  "InstitutionalDepartmentName": "Department",
  "MRAcquisitionType": "2D",
  "MagneticFieldStrength": 3,
  "Manufacturer": "Siemens",
  "ManufacturersModelName": "Prisma",
  "MatrixCoilMode": "SENSE",
  "Modality": "MR",
  "NonlinearGradientCorrection": false,
  "PartialFourier": 1,
  "PatientPosition": "HFS",
  "PercentPhaseFOV": 100,
  "PercentSampling": 100,
  "PhaseEncodingDirection": "j-",
  "PhaseEncodingSteps": 80,
  "PhaseResolution": 1,
  "PixelBandwidth": 2315,
  "ProcedureStepDescription": "dbic^QA",
  "ProtocolName": "func-bold_fa-77",
  "PulseSequenceDetails": "%SiemensSeq%\\ep2d_bold",
  "ReceiveCoilActiveElements": "HEA;HEP",
  "ReceiveCoilName": "Head_32",
  "ReconMatrixPE": 80,
  "RepetitionTime": 2,
  "SAR": 0.0435391,
  "ScanOptions": "FS",
  "ScanningSequence": "EP",
  "SequenceName": "*epfid2d1_80",
  "SequenceVariant": "SK",
  "SeriesDescription": "func-bold_fa-77",
  "SeriesNumber": 8,
  "ShimSetting": [4147, -7698, -7504, 234, -40, -145, -7, 67],
  "SliceThickness": 3.5,
  "SliceTiming": [0.99, 0, 1.055, 0.065, 1.1225, 0.1325, 1.1875, 0.1975, 1.2525, 0.265, 1.32, 0.33, 1.385, 0.395, 1.4525, 0.4625, 1.5175, 0.5275, 1.5825, 0.595, 1.65, 0.66, 1.715, 0.725, 1.7825, 0.7925, 1.8475, 0.8575, 1.9125, 0.9225],
  "SoftwareVersions": "syngo MR E11",
  "SpacingBetweenSlices": 3.99,
  "StationName": "AWP66112",
  "TotalReadoutTime": 0.0395,
  "TxRefAmp": 228.438,
  "dcmmeta_affine": [
    [-2.9619812965393066, -0.4263002872467041, -0.28193098306655884, 140.17018127441406],
    [-0.4717734456062317, 2.807680130004883, 1.257790207862854, -96.30755615234375],
    [-0.06400393694639206, -0.9670572876930237, 3.7760534286499023, -9.070402145385742],
    [0.0, 0.0, 0.0, 1.0]
],
  "dcmmeta_reorient_transform": [
    [0.0, -1.0, 0.0, 79.0],
    [1.0, 0.0, 0.0, 0.0],
    [0.0, 0.0, 1.0, 0.0],
    [0.0, 0.0, 0.0, 1.0]
],
  "dcmmeta_shape": [80, 80, 30, 200],
  "dcmmeta_slice_dim": 2,
  "dcmmeta_version": 0.6,
  "global": {
    "const": {
      "AccessionNumber": "qa",
      "AcquisitionMatrix": [80, 0, 0, 80],
      "AngioFlag": "N",
      "BitsAllocated": 16,
      "BitsStored": 12,
      "BodyPartExamined": "BRAIN",
      "Columns": 480,
      "EchoNumbers": 1,
      "EchoTime": 30.0,
      "EchoTrainLength": 80,
      "FlipAngle": 77.0,
      "HighBit": 11,
      "ImageOrientationPatient": [0.98732710586656, 0.15725781045993, -0.0213346448417, -0.1421000928603, 0.93589340790754, 0.32235243545583],
      "ImagePositionPatient": [-613.62866733633, -781.38991594757, -266.07860391988],
      "ImageType": [
        "ORIGINAL",
        "PRIMARY",
        "M",
        "ND",
        "NORM",
        "MOSAIC"
],
      "ImagedNucleus": "1H",
      "ImagingFrequency": 123.252356,
      "InPlanePhaseEncodingDirection": "COL",
      "MRAcquisitionType": "2D",
      "MagneticFieldStrength": 3.0,
      "Manufacturer": "SIEMENS",
      "ManufacturerModelName": "Prisma",
      "Modality": "MR",
      "NumberOfAverages": 1.0,
      "NumberOfPhaseEncodingSteps": 80,
      "PercentPhaseFieldOfView": 100.0,
      "PercentSampling": 100.0,
      "PerformedProcedureStepStartTime": "092834.720000",
      "PhotometricInterpretation": "MONOCHROME2",
      "PixelBandwidth": 2315.0,
      "PixelRepresentation": 0,
      "PixelSpacing": [3.0, 3.0],
      "ProtocolName": "func-bold_fa-77",
      "RepetitionTime": 2000.0,
      "Rows": 480,
      "SAR": 0.0435390676662,
      "SamplesPerPixel": 1,
      "ScanOptions": "FS",
      "ScanningSequence": "EP",
      "SequenceName": "*epfid2d1_80",
      "SequenceVariant": "SK",
      "SeriesDescription": "func-bold_fa-77",
      "SeriesNumber": 8,
      "SeriesTime": "094445.500000",
      "SliceLocation": -48.847953828976,
      "SliceThickness": 3.5,
      "SmallestImagePixelValue": 0,
      "SoftwareVersions": "syngo MR E11",
      "SpacingBetweenSlices": 3.9900000331994,
      "SpecificCharacterSet": "ISO_IR 100",
      "StudyID": "58",
      "StudyTime": "092834.675000",
      "TransmitCoilName": "Body",
      "VariableFlipAngleFlag": "N",
      "WindowCenterWidthExplanation": "Algo1",
      "dBdt": 0.0},
    "slices": {}
  },
  "time": {
    "samples": {
      "AcquisitionNumber": [1, 2, 3, 4, 5, 6, 7, 8, 9, 10, 11, 12, 13, 14, 15, 16, 17, 18, 19, 20, 21, 22, 23, 24, 25, 26, 27, 28, 29, 30, 31, 32, 33, 34, 35, 36, 37, 38, 39, 40, 41, 42, 43, 44, 45, 46, 47, 48, 49, 50, 51, 52, 53, 54, 55, 56, 57, 58, 59, 60, 61, 62, 63, 64, 65, 66, 67, 68, 69, 70, 71, 72, 73, 74, 75, 76, 77, 78, 79, 80, 81, 82, 83, 84, 85, 86, 87, 88, 89, 90, 91, 92, 93, 94, 95, 96, 97, 98, 99, 100, 101, 102, 103, 104, 105, 106, 107, 108, 109, 110, 111, 112, 113, 114, 115, 116, 117, 118, 119, 120, 121, 122, 123, 124, 125, 126, 127, 128, 129, 130, 131, 132, 133, 134, 135, 136, 137, 138, 139, 140, 141, 142, 143, 144, 145, 146, 147, 148, 149, 150, 151, 152, 153, 154, 155, 156, 157, 158, 159, 160, 161, 162, 163, 164, 165, 166, 167, 168, 169, 170, 171, 172, 173, 174, 175, 176, 177, 178, 179, 180, 181, 182, 183, 184, 185, 186, 187, 188, 189, 190, 191, 192, 193, 194, 195, 196, 197, 198, 199, 200],
      "AcquisitionTime": ["094404.562500", "094406.562500", "094408.562500", "094410.562500", "094412.562500", "094414.562500", "094416.562500", "094418.562500", "094420.562500", "094422.562500", "094424.562500", "094426.562500", "094428.562500", "094430.562500", "094432.562500", "094434.562500", "094436.562500", "094438.562500", "094440.562500", "094442.562500", "094444.562500", "094446.562500", "094448.562500", "094450.562500", "094452.562500", "094454.562500", "094456.562500", "094458.562500", "094500.562500", "094502.562500", "094504.562500", "094506.562500", "094508.562500", "094510.562500", "094512.562500", "094514.562500", "094516.562500", "094518.562500", "094520.562500", "094522.562500", "094524.562500", "094526.562500", "094528.562500", "094530.562500", "094532.562500", "094534.562500", "094536.562500", "094538.562500", "094540.562500", "094542.562500", "094544.562500", "094546.562500", "094548.562500", "094550.562500", "094552.562500", "094554.562500", "094556.562500", "094558.562500", "094600.562500", "094602.562500", "094604.562500", "094606.562500", "094608.562500", "094610.562500", "094612.562500", "094614.562500", "094616.562500", "094618.562500", "094620.562500", "094622.562500", "094624.562500", "094626.562500", "094628.562500", "094630.562500", "094632.562500", "094634.562500", "094636.562500", "094638.562500", "094640.562500", "094642.562500", "094644.562500", "094646.562500", "094648.562500", "094650.562500", "094652.562500", "094654.562500", "094656.562500", "094658.562500", "094700.562500", "094702.562500", "094704.562500", "094706.562500", "094708.562500", "094710.562500", "094712.562500", "094714.562500", "094716.562500", "094718.562500", "094720.562500", "094722.562500", "094724.562500", "094726.562500", "094728.562500", "094730.562500", "094732.562500", "094734.562500", "094736.562500", "094738.562500", "094740.562500", "094742.562500", "094744.562500", "094746.562500", "094748.562500", "094750.562500", "094752.562500", "094754.562500", "094756.562500", "094758.562500", "094800.562500", "094802.562500", "094804.562500", "094806.562500", "094808.562500", "094810.562500", "094812.562500", "094814.562500", "094816.562500", "094818.562500", "094820.562500", "094822.562500", "094824.562500", "094826.562500", "094828.562500", "094830.562500", "094832.562500", "094834.562500", "094836.562500", "094838.562500", "094840.562500", "094842.562500", "094844.562500", "094846.562500", "094848.562500", "094850.562500", "094852.562500", "094854.562500", "094856.562500", "094858.562500", "094900.562500", "094902.562500", "094904.562500", "094906.562500", "094908.562500", "094910.562500", "094912.562500", "094914.562500", "094916.562500", "094918.562500", "094920.562500", "094922.562500", "094924.562500", "094926.562500", "094928.562500", "094930.562500", "094932.562500", "094934.562500", "094936.562500", "094938.562500", "094940.562500", "094942.562500", "094944.562500", "094946.562500", "094948.562500", "094950.562500", "094952.562500", "094954.562500", "094956.562500", "094958.562500", "095000.562500", "095002.562500", "095004.562500", "095006.562500", "095008.562500", "095010.562500", "095012.562500", "095014.562500", "095016.562500", "095018.562500", "095020.562500", "095022.562500", "095024.562500", "095026.562500", "095028.562500", "095030.562500", "095032.562500", "095034.562500", "095036.562500", "095038.562500", "095040.562500", "095042.562500"],
      "ContentTime": ["094445.503000", "094445.515000", "094445.518000", "094445.520000", "094445.523000", "094445.526000", "094445.528000", "094445.531000", "094445.533000", "094445.536000", "094445.538000", "094445.541000", "094445.543000", "094445.546000", "094445.548000", "094445.551000", "094445.553000", "094445.556000", "094445.563000", "094445.566000", "094525.498000", "094525.501000", "094525.504000", "094525.507000", "094525.509000", "094525.512000", "094525.514000", "094525.517000", "094525.519000", "094525.522000", "094525.524000", "094525.527000", "094525.529000", "094525.532000", "094525.534000", "094525.537000", "094525.539000", "094525.542000", "094525.544000", "094525.547000", "094605.498000", "094605.501000", "094605.504000", "094605.512000", "094605.514000", "094605.517000", "094605.519000", "094605.522000", "094605.525000", "094605.527000", "094605.529000", "094605.532000", "094605.535000", "094605.537000", "094605.540000", "094605.542000", "094605.545000", "094605.547000", "094605.550000", "094605.552000", "094645.497000", "094645.500000", "094645.503000", "094645.506000", "094645.508000", "094645.511000", "094645.513000", "094645.516000", "094645.518000", "094645.521000", "094645.523000", "094645.526000", "094645.528000", "094645.531000", "094645.533000", "094645.536000", "094645.538000", "094645.541000", "094645.543000", "094645.546000", "094725.498000", "094725.501000", "094725.504000", "094725.506000", "094725.509000", "094725.511000", "094725.514000", "094725.516000", "094725.519000", "094725.521000", "094725.524000", "094725.527000", "094725.529000", "094725.532000", "094725.534000", "094725.537000", "094725.539000", "094725.542000", "094725.544000", "094725.547000", "094805.497000", "094805.500000", "094805.503000", "094805.505000", "094805.508000", "094805.510000", "094805.513000", "094805.516000", "094805.518000", "094805.520000", "094805.523000", "094805.526000", "094805.528000", "094805.531000", "094805.533000", "094805.536000", "094805.538000", "094805.541000", "094805.543000", "094805.546000", "094845.497000", "094845.500000", "094845.503000", "094845.506000", "094845.508000", "094845.511000", "094845.513000", "094845.516000", "094845.518000", "094845.521000", "094845.523000", "094845.526000", "094845.528000", "094845.531000", "094845.534000", "094845.536000", "094845.539000", "094845.541000", "094845.544000", "094845.546000", "094925.498000", "094925.501000", "094925.504000", "094925.507000", "094925.509000", "094925.512000", "094925.514000", "094925.517000", "094925.519000", "094925.522000", "094925.524000", "094925.527000", "094925.529000", "094925.532000", "094925.534000", "094925.537000", "094925.539000", "094925.542000", "094925.545000", "094925.547000", "095005.498000", "095005.501000", "095005.504000", "095005.506000", "095005.509000", "095005.511000", "095005.514000", "095005.517000", "095005.519000", "095005.522000", "095005.524000", "095005.527000", "095005.529000", "095005.532000", "095005.534000", "095005.537000", "095005.539000", "095005.542000", "095005.544000", "095005.547000", "095044.082000", "095044.085000", "095044.087000", "095044.090000", "095044.093000", "095044.095000", "095044.098000", "095044.100000", "095044.103000", "095044.106000", "095044.108000", "095044.111000", "095044.114000", "095044.123000", "095044.129000", "095044.147000", "095044.150000", "095044.153000", "095044.156000", "095044.160000"],
      "InstanceCreationTime": ["094445.503000", "094445.515000", "094445.518000", "094445.520000", "094445.523000", "094445.526000", "094445.528000", "094445.531000", "094445.533000", "094445.536000", "094445.538000", "094445.541000", "094445.543000", "094445.546000", "094445.548000", "094445.551000", "094445.553000", "094445.556000", "094445.563000", "094445.566000", "094525.498000", "094525.501000", "094525.504000", "094525.507000", "094525.509000", "094525.512000", "094525.514000", "094525.517000", "094525.519000", "094525.522000", "094525.524000", "094525.527000", "094525.529000", "094525.532000", "094525.534000", "094525.537000", "094525.539000", "094525.542000", "094525.544000", "094525.547000", "094605.498000", "094605.501000", "094605.504000", "094605.512000", "094605.514000", "094605.517000", "094605.519000", "094605.522000", "094605.525000", "094605.527000", "094605.529000", "094605.532000", "094605.535000", "094605.537000", "094605.540000", "094605.542000", "094605.545000", "094605.547000", "094605.550000", "094605.552000", "094645.497000", "094645.500000", "094645.503000", "094645.506000", "094645.508000", "094645.511000", "094645.513000", "094645.516000", "094645.518000", "094645.521000", "094645.523000", "094645.526000", "094645.528000", "094645.531000", "094645.533000", "094645.536000", "094645.538000", "094645.541000", "094645.543000", "094645.546000", "094725.498000", "094725.501000", "094725.504000", "094725.506000", "094725.509000", "094725.511000", "094725.514000", "094725.516000", "094725.519000", "094725.521000", "094725.524000", "094725.527000", "094725.529000", "094725.532000", "094725.534000", "094725.537000", "094725.539000", "094725.542000", "094725.544000", "094725.547000", "094805.497000", "094805.500000", "094805.503000", "094805.505000", "094805.508000", "094805.510000", "094805.513000", "094805.516000", "094805.518000", "094805.520000", "094805.523000", "094805.526000", "094805.528000", "094805.531000", "094805.533000", "094805.536000", "094805.538000", "094805.541000", "094805.543000", "094805.546000", "094845.497000", "094845.500000", "094845.503000", "094845.506000", "094845.508000", "094845.511000", "094845.513000", "094845.516000", "094845.518000", "094845.521000", "094845.523000", "094845.526000", "094845.528000", "094845.531000", "094845.534000", "094845.536000", "094845.539000", "094845.541000", "094845.544000", "094845.546000", "094925.498000", "094925.501000", "094925.504000", "094925.507000", "094925.509000", "094925.512000", "094925.514000", "094925.517000", "094925.519000", "094925.522000", "094925.524000", "094925.527000", "094925.529000", "094925.532000", "094925.534000", "094925.537000", "094925.539000", "094925.542000", "094925.545000", "094925.547000", "095005.498000", "095005.501000", "095005.504000", "095005.506000", "095005.509000", "095005.511000", "095005.514000", "095005.517000", "095005.519000", "095005.522000", "095005.524000", "095005.527000", "095005.529000", "095005.532000", "095005.534000", "095005.537000", "095005.539000", "095005.542000", "095005.544000", "095005.547000", "095044.082000", "095044.085000", "095044.087000", "095044.090000", "095044.093000", "095044.095000", "095044.098000", "095044.100000", "095044.103000", "095044.106000", "095044.108000", "095044.111000", "095044.114000", "095044.123000", "095044.129000", "095044.147000", "095044.150000", "095044.153000", "095044.156000", "095044.160000"],
      "InstanceNumber": [1, 2, 3, 4, 5, 6, 7, 8, 9, 10, 11, 12, 13, 14, 15, 16, 17, 18, 19, 20, 21, 22, 23, 24, 25, 26, 27, 28, 29, 30, 31, 32, 33, 34, 35, 36, 37, 38, 39, 40, 41, 42, 43, 44, 45, 46, 47, 48, 49, 50, 51, 52, 53, 54, 55, 56, 57, 58, 59, 60, 61, 62, 63, 64, 65, 66, 67, 68, 69, 70, 71, 72, 73, 74, 75, 76, 77, 78, 79, 80, 81, 82, 83, 84, 85, 86, 87, 88, 89, 90, 91, 92, 93, 94, 95, 96, 97, 98, 99, 100, 101, 102, 103, 104, 105, 106, 107, 108, 109, 110, 111, 112, 113, 114, 115, 116, 117, 118, 119, 120, 121, 122, 123, 124, 125, 126, 127, 128, 129, 130, 131, 132, 133, 134, 135, 136, 137, 138, 139, 140, 141, 142, 143, 144, 145, 146, 147, 148, 149, 150, 151, 152, 153, 154, 155, 156, 157, 158, 159, 160, 161, 162, 163, 164, 165, 166, 167, 168, 169, 170, 171, 172, 173, 174, 175, 176, 177, 178, 179, 180, 181, 182, 183, 184, 185, 186, 187, 188, 189, 190, 191, 192, 193, 194, 195, 196, 197, 198, 199, 200],
      "LargestImagePixelValue": [1926, 1926, 1925, 1927, 1927, 1925, 1924, 1926, 1927, 1927, 1928, 1928, 1927, 1926, 1926, 1925, 1926, 1926, 1929, 1928, 1926, 1923, 1927, 1925, 1927, 1927, 1926, 1927, 1927, 1925, 1926, 1928, 1928, 1927, 1926, 1927, 1929, 1930, 1928, 1930, 1927, 1926, 1926, 1927, 1927, 1926, 1928, 1929, 1929, 1926, 1925, 1924, 1926, 1927, 1929, 1928, 1927, 1925, 1926, 1928, 1929, 1928, 1928, 1925, 1927, 1929, 1928, 1925, 1927, 1927, 1927, 1927, 1926, 1925, 1925, 1923, 1926, 1922, 1923, 1922, 1921, 1922, 1923, 1928, 1928, 1926, 1927, 1924, 1926, 1927, 1930, 1930, 1927, 1926, 1924, 1924, 1923, 1924, 1926, 1925, 1925, 1925, 1926, 1926, 1926, 1925, 1928, 1928, 1927, 1923, 1924, 1926, 1929, 1926, 1925, 1925, 1925, 1924, 1924, 1924, 1922, 1924, 1927, 1926, 1927, 1928, 1926, 1925, 1926, 1930, 1926, 1925, 1922, 1923, 1925, 1924, 1925, 1926, 1926, 1927, 1927, 1926, 1926, 1927, 1926, 1927, 1927, 1927, 1927, 1925, 1926, 1927, 1926, 1927, 1928, 1927, 1927, 1925, 1924, 1926, 1926, 1924, 1926, 1925, 1926, 1927, 1925, 1925, 1927, 1925, 1928, 1926, 1927, 1927, 1927, 1927, 1928, 1928, 1926, 1927, 1927, 1926, 1925, 1924, 1927, 1925, 1927, 1926, 1924, 1924, 1925, 1925, 1924, 1928, 1928, 1926, 1926, 1928, 1928, 1926],
      "WindowCenter": [959.0, 959.0, 959.0, 958.0, 959.0, 959.0, 959.0, 959.0, 959.0, 960.0, 959.0, 959.0, 959.0, 959.0, 959.0, 959.0, 959.0, 959.0, 959.0, 959.0, 959.0, 959.0, 959.0, 959.0, 959.0, 959.0, 959.0, 959.0, 959.0, 959.0, 959.0, 959.0, 959.0, 959.0, 959.0, 959.0, 959.0, 959.0, 959.0, 959.0, 959.0, 959.0, 959.0, 959.0, 959.0, 959.0, 959.0, 959.0, 959.0, 959.0, 959.0, 958.0, 958.0, 959.0, 959.0, 959.0, 959.0, 959.0, 959.0, 959.0, 959.0, 959.0, 958.0, 959.0, 959.0, 959.0, 959.0, 958.0, 958.0, 958.0, 958.0, 958.0, 958.0, 958.0, 958.0, 958.0, 958.0, 958.0, 958.0, 958.0, 958.0, 959.0, 958.0, 957.0, 958.0, 958.0, 958.0, 958.0, 958.0, 958.0, 958.0, 958.0, 958.0, 958.0, 958.0, 958.0, 958.0, 958.0, 957.0, 958.0, 958.0, 958.0, 958.0, 958.0, 958.0, 958.0, 958.0, 958.0, 958.0, 958.0, 958.0, 958.0, 959.0, 958.0, 958.0, 958.0, 958.0, 957.0, 958.0, 958.0, 958.0, 958.0, 958.0, 958.0, 958.0, 958.0, 958.0, 958.0, 958.0, 958.0, 958.0, 958.0, 958.0, 958.0, 958.0, 958.0, 958.0, 957.0, 958.0, 958.0, 958.0, 958.0, 958.0, 958.0, 957.0, 958.0, 958.0, 956.0, 958.0, 958.0, 958.0, 958.0, 959.0, 958.0, 958.0, 958.0, 958.0, 958.0, 958.0, 958.0, 958.0, 958.0, 959.0, 958.0, 958.0, 958.0, 958.0, 958.0, 958.0, 959.0, 958.0, 958.0, 958.0, 958.0, 958.0, 958.0, 958.0, 958.0, 957.0, 958.0, 958.0, 959.0, 958.0, 958.0, 958.0, 958.0, 958.0, 958.0, 956.0, 958.0, 958.0, 958.0, 958.0, 958.0, 958.0, 958.0, 958.0, 958.0, 958.0, 958.0],
      "WindowWidth": [2089.0, 2089.0, 2089.0, 2088.0, 2089.0, 2089.0, 2089.0, 2089.0, 2089.0, 2090.0, 2089.0, 2089.0, 2089.0, 2089.0, 2089.0, 2089.0, 2089.0, 2089.0, 2089.0, 2089.0, 2089.0, 2089.0, 2089.0, 2089.0, 2089.0, 2089.0, 2089.0, 2089.0, 2089.0, 2089.0, 2089.0, 2089.0, 2089.0, 2089.0, 2089.0, 2089.0, 2089.0, 2089.0, 2089.0, 2089.0, 2089.0, 2089.0, 2089.0, 2089.0, 2089.0, 2089.0, 2089.0, 2089.0, 2089.0, 2088.0, 2088.0, 2088.0, 2088.0, 2089.0, 2089.0, 2088.0, 2088.0, 2088.0, 2088.0, 2088.0, 2089.0, 2088.0, 2088.0, 2088.0, 2088.0, 2088.0, 2089.0, 2088.0, 2088.0, 2088.0, 2088.0, 2088.0, 2088.0, 2088.0, 2088.0, 2088.0, 2088.0, 2088.0, 2088.0, 2088.0, 2088.0, 2089.0, 2088.0, 2087.0, 2088.0, 2088.0, 2088.0, 2088.0, 2088.0, 2088.0, 2088.0, 2088.0, 2088.0, 2088.0, 2088.0, 2088.0, 2088.0, 2088.0, 2087.0, 2088.0, 2088.0, 2088.0, 2088.0, 2088.0, 2088.0, 2088.0, 2088.0, 2088.0, 2088.0, 2088.0, 2088.0, 2088.0, 2089.0, 2088.0, 2088.0, 2088.0, 2088.0, 2087.0, 2088.0, 2088.0, 2088.0, 2088.0, 2088.0, 2088.0, 2088.0, 2088.0, 2088.0, 2088.0, 2088.0, 2088.0, 2088.0, 2088.0, 2088.0, 2088.0, 2088.0, 2088.0, 2088.0, 2087.0, 2087.0, 2088.0, 2088.0, 2088.0, 2088.0, 2088.0, 2087.0, 2088.0, 2088.0, 2086.0, 2088.0, 2088.0, 2087.0, 2088.0, 2088.0, 2088.0, 2088.0, 2088.0, 2088.0, 2087.0, 2088.0, 2087.0, 2087.0, 2087.0, 2088.0, 2087.0, 2087.0, 2087.0, 2087.0, 2087.0, 2087.0, 2088.0, 2087.0, 2087.0, 2087.0, 2087.0, 2087.0, 2087.0, 2087.0, 2087.0, 2087.0, 2087.0, 2087.0, 2088.0, 2087.0, 2087.0, 2087.0, 2087.0, 2087.0, 2087.0, 2086.0, 2087.0, 2087.0, 2087.0, 2087.0, 2087.0, 2087.0, 2087.0, 2087.0, 2087.0, 2087.0, 2087.0]
    },
    "slices": {}
  }
}