{
  "AcquisitionMatrixPE": 80,
  "AcquisitionNumber": 1,
  "AcquisitionTime": "09:58:7.527500",
  "BandwidthPerPixelPhaseEncode": 25,
  "BaseResolution": 80,
  "BodyPartExamined": "BRAIN",
  "CoilCombinationMethod": "Sum of Squares",
  "ConsistencyInfo": "N4_VE11C_LATEST_20160120",
  "ConversionSoftware": "dcm2niix",
  "ConversionSoftwareVersion": "v1.0.20220720",
  "DerivedVendorReportedEchoSpacing": 0.0005,
  "DeviceSerialNumber": "66112",
  "DwellTime": 2.7e-06,
  "EchoTime": 0.03,
  "EchoTrainLength": 80,
  "EffectiveEchoSpacing": 0.0005,
  "FlipAngle": 10,
  "HeudiconvVersion": "0.13.1",
  "ImageOrientationPatientDICOM": [0.991098, -0.133136, -0.000511598, 0.126259, 0.938672, 0.320865],
  "ImageOrientationText": "Tra>Cor(18.6)>Sag(2.4)",
  "ImageType": [
    "ORIGINAL",
    "PRIMARY",
    "M",
    "ND",
    "NORM",
    "MOSAIC"
],
  "ImagingFrequency": 123.252,
  "InPlanePhaseEncodingDirectionDICOM": "COL",
  "InstitutionAddress": "Maynard 3,Hanover,NH,US,03755",
  "InstitutionName": "Dartmouth College - PBS",
  "InstitutionalDepartmentName": "Department",
  "MRAcquisitionType": "2D",
  "MagneticFieldStrength": 3,
  "Manufacturer": "Siemens",
  "ManufacturersModelName": "Prisma",
  "MatrixCoilMode": "SENSE",
  "Modality": "MR",
  "NonlinearGradientCorrection": false,
  "PartialFourier": 1,
  "PatientPosition": "HFS",
  "PercentPhaseFOV": 100,
  "PercentSampling": 100,
  "PhaseEncodingDirection": "j-",
  "PhaseEncodingSteps": 80,
  "PhaseResolution": 1,
  "PixelBandwidth": 2315,
  "ProcedureStepDescription": "dbic^QA",
  "ProtocolName": "func-bold_fa-10",
  "PulseSequenceDetails": "%SiemensSeq%\\ep2d_bold",
  "ReceiveCoilActiveElements": "HC1-7;NC1,2",
  "ReceiveCoilName": "HeadNeck_64",
  "ReconMatrixPE": 80,
  "RepetitionTime": 2,
  "SAR": 0.00759555,
  "ScanOptions": "FS",
  "ScanningSequence": "EP",
  "SequenceName": "*epfid2d1_80",
  "SequenceVariant": "SK",
  "SeriesDescription": "func-bold_fa-10",
  "SeriesNumber": 9,
  "ShimSetting": [4140, -7690, -7523, 229, -59, -403, -65, 134],
  "SliceThickness": 3.5,
  "SliceTiming": [0.99, 0, 1.0575, 0.0675, 1.1225, 0.1325, 1.1875, 0.1975, 1.255, 0.265, 1.32, 0.33, 1.385, 0.3975, 1.4525, 0.4625, 1.5175, 0.5275, 1.585, 0.595, 1.65, 0.66, 1.715, 0.7275, 1.7825, 0.7925, 1.8475, 0.8575, 1.915, 0.925],
  "SoftwareVersions": "syngo MR E11",
  "SpacingBetweenSlices": 3.99,
  "StationName": "AWP66112",
  "TotalReadoutTime": 0.0395,
  "TxRefAmp": 211.175,
  "dcmmeta_affine": [
    [-2.973292827606201, 0.37877795100212097, 0.16853155195713043, 100.67378997802734],
    [0.3994085490703583, 2.8160147666931152, 1.2691107988357544, -142.376220703125],
    [-0.0015347952721640468, -0.962594211101532, 3.7790284156799316, -30.51187515258789],
    [0.0, 0.0, 0.0, 1.0]
],
  "dcmmeta_reorient_transform": [
    [0.0, -1.0, 0.0, 79.0],
    [1.0, 0.0, 0.0, 0.0],
    [0.0, 0.0, 1.0, 0.0],
    [0.0, 0.0, 0.0, 1.0]
],
  "dcmmeta_shape": [80, 80, 30, 200],
  "dcmmeta_slice_dim": 2,
  "dcmmeta_version": 0.6,
  "global": {
    "const": {
      "AccessionNumber": "qa64",
      "AcquisitionMatrix": [80, 0, 0, 80],
      "AngioFlag": "N",
      "BitsAllocated": 16,
      "BitsStored": 12,
      "BodyPartExamined": "BRAIN",
      "Columns": 480,
      "EchoNumbers": 1,
      "EchoTime": 30.0,
      "EchoTrainLength": 80,
      "FlipAngle": 10.0,
      "HighBit": 11,
      "ImageOrientationPatient": [0.9910976216896, -0.1331361804629, -0.0005115984424, 0.12625931605861, 0.93867161825335, 0.32086473504275],
      "ImagePositionPatient": [-801.01141330386, -563.41021499244, -298.76869927024],
      "ImageType": [
        "ORIGINAL",
        "PRIMARY",
        "M",
        "ND",
        "NORM",
        "MOSAIC"
],
      "ImagedNucleus": "1H",
      "ImagingFrequency": 123.252364,
      "InPlanePhaseEncodingDirection": "COL",
      "MRAcquisitionType": "2D",
      "MagneticFieldStrength": 3.0,
      "Manufacturer": "SIEMENS",
      "ManufacturerModelName": "Prisma",
      "Modality": "MR",
      "NumberOfAverages": 1.0,
      "NumberOfPhaseEncodingSteps": 80,
      "PercentPhaseFieldOfView": 100.0,
      "PercentSampling": 100.0,
      "PerformedProcedureStepStartTime": "093649.511000",
      "PhotometricInterpretation": "MONOCHROME2",
      "PixelBandwidth": 2315.0,
      "PixelRepresentation": 0,
      "PixelSpacing": [3.0, 3.0],
      "ProtocolName": "func-bold_fa-10",
      "RepetitionTime": 2000.0,
      "Rows": 480,
      "SAR": 0.00759555328762,
      "SamplesPerPixel": 1,
      "ScanOptions": "FS",
      "ScanningSequence": "EP",
      "SequenceName": "*epfid2d1_80",
      "SequenceVariant": "SK",
      "SeriesDescription": "func-bold_fa-10",
      "SeriesNumber": 9,
      "SeriesTime": "095856.338000",
      "SliceLocation": -69.932261460132,
      "SliceThickness": 3.5,
      "SmallestImagePixelValue": 0,
      "SoftwareVersions": "syngo MR E11",
      "SpacingBetweenSlices": 3.9900000659139,
      "SpecificCharacterSet": "ISO_IR 100",
      "StudyID": "26",
      "StudyTime": "093649.383000",
      "TransmitCoilName": "Body",
      "VariableFlipAngleFlag": "N",
      "WindowCenterWidthExplanation": "Algo1",
      "dBdt": 0.0},
    "slices": {}
  },
  "time": {
    "samples": {
      "AcquisitionNumber": [1, 2, 3, 4, 5, 6, 7, 8, 9, 10, 11, 12, 13, 14, 15, 16, 17, 18, 19, 20, 21, 22, 23, 24, 25, 26, 27, 28, 29, 30, 31, 32, 33, 34, 35, 36, 37, 38, 39, 40, 41, 42, 43, 44, 45, 46, 47, 48, 49, 50, 51, 52, 53, 54, 55, 56, 57, 58, 59, 60, 61, 62, 63, 64, 65, 66, 67, 68, 69, 70, 71, 72, 73, 74, 75, 76, 77, 78, 79, 80, 81, 82, 83, 84, 85, 86, 87, 88, 89, 90, 91, 92, 93, 94, 95, 96, 97, 98, 99, 100, 101, 102, 103, 104, 105, 106, 107, 108, 109, 110, 111, 112, 113, 114, 115, 116, 117, 118, 119, 120, 121, 122, 123, 124, 125, 126, 127, 128, 129, 130, 131, 132, 133, 134, 135, 136, 137, 138, 139, 140, 141, 142, 143, 144, 145, 146, 147, 148, 149, 150, 151, 152, 153, 154, 155, 156, 157, 158, 159, 160, 161, 162, 163, 164, 165, 166, 167, 168, 169, 170, 171, 172, 173, 174, 175, 176, 177, 178, 179, 180, 181, 182, 183, 184, 185, 186, 187, 188, 189, 190, 191, 192, 193, 194, 195, 196, 197, 198, 199, 200],
      "AcquisitionTime": ["095807.527500", "095809.527500", "095811.527500", "095813.527500", "095815.527500", "095817.527500", "095819.527500", "095821.527500", "095823.527500", "095825.527500", "095827.527500", "095829.527500", "095831.527500", "095833.527500", "095835.527500", "095837.527500", "095839.527500", "095841.527500", "095843.527500", "095845.527500", "095847.527500", "095849.527500", "095851.527500", "095853.527500", "095855.527500", "095857.527500", "095859.527500", "095901.527500", "095903.527500", "095905.527500", "095907.527500", "095909.527500", "095911.527500", "095913.527500", "095915.527500", "095917.527500", "095919.527500", "095921.527500", "095923.527500", "095925.527500", "095927.527500", "095929.527500", "095931.527500", "095933.527500", "095935.527500", "095937.527500", "095939.527500", "095941.527500", "095943.527500", "095945.527500", "095947.527500", "095949.527500", "095951.527500", "095953.527500", "095955.527500", "095957.527500", "095959.527500", "100001.527500", "100003.527500", "100005.527500", "100007.527500", "100009.527500", "100011.527500", "100013.527500", "100015.527500", "100017.527500", "100019.527500", "100021.527500", "100023.527500", "100025.527500", "100027.527500", "100029.527500", "100031.527500", "100033.527500", "100035.527500", "100037.527500", "100039.527500", "100041.527500", "100043.527500", "100045.527500", "100047.527500", "100049.527500", "100051.527500", "100053.527500", "100055.527500", "100057.527500", "100059.527500", "100101.527500", "100103.527500", "100105.527500", "100107.527500", "100109.527500", "100111.527500", "100113.527500", "100115.527500", "100117.527500", "100119.527500", "100121.527500", "100123.527500", "100125.527500", "100127.527500", "100129.527500", "100131.527500", "100133.527500", "100135.527500", "100137.527500", "100139.527500", "100141.527500", "100143.527500", "100145.527500", "100147.527500", "100149.527500", "100151.527500", "100153.527500", "100155.527500", "100157.527500", "100159.527500", "100201.527500", "100203.527500", "100205.527500", "100207.527500", "100209.527500", "100211.527500", "100213.527500", "100215.527500", "100217.527500", "100219.527500", "100221.527500", "100223.527500", "100225.527500", "100227.527500", "100229.527500", "100231.527500", "100233.527500", "100235.527500", "100237.527500", "100239.527500", "100241.527500", "100243.527500", "100245.527500", "100247.527500", "100249.527500", "100251.527500", "100253.527500", "100255.527500", "100257.527500", "100259.527500", "100301.527500", "100303.527500", "100305.527500", "100307.527500", "100309.527500", "100311.527500", "100313.527500", "100315.527500", "100317.527500", "100319.527500", "100321.527500", "100323.527500", "100325.527500", "100327.527500", "100329.527500", "100331.527500", "100333.527500", "100335.527500", "100337.527500", "100339.527500", "100341.527500", "100343.527500", "100345.527500", "100347.527500", "100349.527500", "100351.527500", "100353.527500", "100355.527500", "100357.527500", "100359.527500", "100401.527500", "100403.527500", "100405.527500", "100407.527500", "100409.527500", "100411.527500", "100413.527500", "100415.527500", "100417.527500", "100419.527500", "100421.527500", "100423.527500", "100425.527500", "100427.527500", "100429.527500", "100431.527500", "100433.527500", "100435.527500", "100437.527500", "100439.527500", "100441.527500", "100443.527500", "100445.527500"],
      "ContentTime": ["095856.341000", "095856.345000", "095856.347000", "095856.350000", "095856.353000", "095856.355000", "095856.358000", "095856.360000", "095856.363000", "095856.365000", "095856.368000", "095856.370000", "095856.373000", "095856.376000", "095856.378000", "095856.381000", "095856.383000", "095856.386000", "095856.397000", "095856.400000", "095856.402000", "095856.405000", "095856.408000", "095856.410000", "095936.336000", "095936.339000", "095936.342000", "095936.345000", "095936.347000", "095936.350000", "095936.352000", "095936.355000", "095936.358000", "095936.360000", "095936.363000", "095936.365000", "095936.368000", "095936.370000", "095936.373000", "095936.375000", "095936.378000", "095936.381000", "095936.383000", "095936.386000", "100016.335000", "100016.338000", "100016.341000", "100016.344000", "100016.346000", "100016.349000", "100016.352000", "100016.354000", "100016.357000", "100016.359000", "100016.362000", "100016.364000", "100016.367000", "100016.369000", "100016.372000", "100016.375000", "100016.377000", "100016.380000", "100016.382000", "100016.385000", "100056.337000", "100056.339000", "100056.356000", "100056.359000", "100056.361000", "100056.364000", "100056.367000", "100056.369000", "100056.372000", "100056.374000", "100056.377000", "100056.380000", "100056.382000", "100056.385000", "100056.387000", "100056.390000", "100056.392000", "100056.395000", "100056.397000", "100056.400000", "100136.336000", "100136.339000", "100136.342000", "100136.344000", "100136.347000", "100136.350000", "100136.352000", "100136.355000", "100136.357000", "100136.360000", "100136.362000", "100136.365000", "100136.368000", "100136.370000", "100136.373000", "100136.375000", "100136.378000", "100136.380000", "100136.383000", "100136.385000", "100216.337000", "100216.340000", "100216.342000", "100216.345000", "100216.347000", "100216.350000", "100216.353000", "100216.355000", "100216.358000", "100216.361000", "100216.363000", "100216.366000", "100216.368000", "100216.371000", "100216.374000", "100216.376000", "100216.379000", "100216.381000", "100216.384000", "100216.387000", "100256.337000", "100256.339000", "100256.342000", "100256.345000", "100256.347000", "100256.350000", "100256.353000", "100256.355000", "100256.358000", "100256.360000", "100256.363000", "100256.365000", "100256.368000", "100256.371000", "100256.373000", "100256.376000", "100256.378000", "100256.381000", "100256.384000", "100256.386000", "100336.337000", "100336.339000", "100336.342000", "100336.345000", "100336.347000", "100336.350000", "100336.352000", "100336.355000", "100336.357000", "100336.360000", "100336.363000", "100336.365000", "100336.368000", "100336.370000", "100336.373000", "100336.375000", "100336.378000", "100336.381000", "100336.383000", "100336.386000", "100416.336000", "100416.339000", "100416.342000", "100416.345000", "100416.347000", "100416.350000", "100416.352000", "100416.355000", "100416.357000", "100416.360000", "100416.363000", "100416.365000", "100416.368000", "100416.370000", "100416.373000", "100416.375000", "100416.378000", "100416.381000", "100416.383000", "100416.386000", "100446.708000", "100446.711000", "100446.714000", "100446.716000", "100446.719000", "100446.721000", "100446.724000", "100446.727000", "100446.729000", "100446.732000", "100446.734000", "100446.737000", "100446.740000", "100446.747000", "100446.750000", "100446.755000"],
      "InstanceCreationTime": ["095856.341000", "095856.345000", "095856.347000", "095856.350000", "095856.353000", "095856.355000", "095856.358000", "095856.360000", "095856.363000", "095856.365000", "095856.368000", "095856.370000", "095856.373000", "095856.376000", "095856.378000", "095856.381000", "095856.383000", "095856.386000", "095856.397000", "095856.400000", "095856.402000", "095856.405000", "095856.408000", "095856.410000", "095936.336000", "095936.339000", "095936.342000", "095936.345000", "095936.347000", "095936.350000", "095936.352000", "095936.355000", "095936.358000", "095936.360000", "095936.363000", "095936.365000", "095936.368000", "095936.370000", "095936.373000", "095936.375000", "095936.378000", "095936.381000", "095936.383000", "095936.386000", "100016.335000", "100016.338000", "100016.341000", "100016.344000", "100016.346000", "100016.349000", "100016.352000", "100016.354000", "100016.357000", "100016.359000", "100016.362000", "100016.364000", "100016.367000", "100016.369000", "100016.372000", "100016.375000", "100016.377000", "100016.380000", "100016.382000", "100016.385000", "100056.337000", "100056.339000", "100056.356000", "100056.359000", "100056.361000", "100056.364000", "100056.367000", "100056.369000", "100056.372000", "100056.374000", "100056.377000", "100056.380000", "100056.382000", "100056.385000", "100056.387000", "100056.390000", "100056.392000", "100056.395000", "100056.397000", "100056.400000", "100136.336000", "100136.339000", "100136.342000", "100136.344000", "100136.347000", "100136.350000", "100136.352000", "100136.355000", "100136.357000", "100136.360000", "100136.362000", "100136.365000", "100136.368000", "100136.370000", "100136.373000", "100136.375000", "100136.378000", "100136.380000", "100136.383000", "100136.385000", "100216.337000", "100216.340000", "100216.342000", "100216.345000", "100216.347000", "100216.350000", "100216.353000", "100216.355000", "100216.358000", "100216.361000", "100216.363000", "100216.366000", "100216.368000", "100216.371000", "100216.374000", "100216.376000", "100216.379000", "100216.381000", "100216.384000", "100216.387000", "100256.337000", "100256.339000", "100256.342000", "100256.345000", "100256.347000", "100256.350000", "100256.353000", "100256.355000", "100256.358000", "100256.360000", "100256.363000", "100256.365000", "100256.368000", "100256.371000", "100256.373000", "100256.376000", "100256.378000", "100256.381000", "100256.384000", "100256.386000", "100336.337000", "100336.339000", "100336.342000", "100336.345000", "100336.347000", "100336.350000", "100336.352000", "100336.355000", "100336.357000", "100336.360000", "100336.363000", "100336.365000", "100336.368000", "100336.370000", "100336.373000", "100336.375000", "100336.378000", "100336.381000", "100336.383000", "100336.386000", "100416.336000", "100416.339000", "100416.342000", "100416.345000", "100416.347000", "100416.350000", "100416.352000", "100416.355000", "100416.357000", "100416.360000", "100416.363000", "100416.365000", "100416.368000", "100416.370000", "100416.373000", "100416.375000", "100416.378000", "100416.381000", "100416.383000", "100416.386000", "100446.708000", "100446.711000", "100446.714000", "100446.716000", "100446.719000", "100446.721000", "100446.724000", "100446.727000", "100446.729000", "100446.732000", "100446.734000", "100446.737000", "100446.740000", "100446.747000", "100446.750000", "100446.755000"],
      "InstanceNumber": [1, 2, 3, 4, 5, 6, 7, 8, 9, 10, 11, 12, 13, 14, 15, 16, 17, 18, 19, 20, 21, 22, 23, 24, 25, 26, 27, 28, 29, 30, 31, 32, 33, 34, 35, 36, 37, 38, 39, 40, 41, 42, 43, 44, 45, 46, 47, 48, 49, 50, 51, 52, 53, 54, 55, 56, 57, 58, 59, 60, 61, 62, 63, 64, 65, 66, 67, 68, 69, 70, 71, 72, 73, 74, 75, 76, 77, 78, 79, 80, 81, 82, 83, 84, 85, 86, 87, 88, 89, 90, 91, 92, 93, 94, 95, 96, 97, 98, 99, 100, 101, 102, 103, 104, 105, 106, 107, 108, 109, 110, 111, 112, 113, 114, 115, 116, 117, 118, 119, 120, 121, 122, 123, 124, 125, 126, 127, 128, 129, 130, 131, 132, 133, 134, 135, 136, 137, 138, 139, 140, 141, 142, 143, 144, 145, 146, 147, 148, 149, 150, 151, 152, 153, 154, 155, 156, 157, 158, 159, 160, 161, 162, 163, 164, 165, 166, 167, 168, 169, 170, 171, 172, 173, 174, 175, 176, 177, 178, 179, 180, 181, 182, 183, 184, 185, 186, 187, 188, 189, 190, 191, 192, 193, 194, 195, 196, 197, 198, 199, 200],
      "LargestImagePixelValue": [777, 778, 779, 778, 778, 772, 775, 775, 778, 776, 781, 779, 773, 775, 775, 775, 775, 775, 776, 781, 774, 776, 774, 777, 777, 776, 777, 777, 778, 773, 777, 776, 773, 776, 773, 776, 775, 777, 775, 775, 778, 777, 775, 774, 775, 777, 774, 776, 776, 776, 776, 773, 776, 779, 775, 776, 777, 775, 774, 776, 776, 774, 776, 774, 775, 774, 776, 776, 776, 778, 773, 774, 773, 777, 775, 774, 774, 778, 777, 776, 776, 775, 776, 777, 771, 773, 775, 775, 774, 776, 775, 773, 773, 776, 772, 773, 776, 772, 767, 776, 774, 775, 774, 773, 773, 777, 773, 773, 773, 775, 767, 772, 769, 771, 774, 774, 775, 775, 773, 771, 770, 777, 775, 771, 773, 772, 767, 770, 774, 774, 776, 773, 773, 772, 771, 775, 771, 771, 773, 772, 772, 769, 770, 769, 764, 771, 772, 773, 774, 773, 773, 775, 772, 775, 773, 774, 776, 770, 775, 776, 777, 774, 773, 772, 773, 772, 771, 771, 775, 775, 772, 772, 771, 771, 774, 774, 773, 775, 772, 772, 772, 774, 772, 770, 773, 773, 773, 772, 772, 773, 770, 771, 772, 771, 773, 773, 775, 770, 774, 774],
      "WindowCenter": [482.0, 482.0, 482.0, 482.0, 482.0, 482.0, 482.0, 482.0, 482.0, 482.0, 482.0, 482.0, 482.0, 482.0, 482.0, 482.0, 482.0, 482.0, 482.0, 482.0, 482.0, 482.0, 482.0, 482.0, 482.0, 482.0, 482.0, 482.0, 482.0, 482.0, 482.0, 482.0, 482.0, 482.0, 482.0, 482.0, 482.0, 482.0, 482.0, 482.0, 482.0, 482.0, 482.0, 482.0, 482.0, 482.0, 482.0, 482.0, 482.0, 482.0, 482.0, 482.0, 482.0, 482.0, 482.0, 482.0, 482.0, 482.0, 482.0, 482.0, 482.0, 482.0, 482.0, 482.0, 482.0, 482.0, 482.0, 481.0, 481.0, 482.0, 481.0, 481.0, 481.0, 481.0, 481.0, 481.0, 481.0, 481.0, 481.0, 481.0, 481.0, 481.0, 481.0, 481.0, 481.0, 481.0, 481.0, 481.0, 481.0, 481.0, 481.0, 481.0, 481.0, 481.0, 481.0, 481.0, 481.0, 479.0, 478.0, 481.0, 480.0, 481.0, 481.0, 481.0, 481.0, 481.0, 481.0, 479.0, 480.0, 480.0, 478.0, 479.0, 479.0, 479.0, 481.0, 481.0, 481.0, 481.0, 481.0, 479.0, 481.0, 481.0, 481.0, 481.0, 481.0, 481.0, 478.0, 481.0, 481.0, 481.0, 481.0, 481.0, 481.0, 481.0, 481.0, 480.0, 481.0, 479.0, 480.0, 481.0, 478.0, 477.0, 478.0, 478.0, 477.0, 481.0, 481.0, 481.0, 481.0, 481.0, 481.0, 481.0, 481.0, 481.0, 481.0, 481.0, 481.0, 481.0, 481.0, 481.0, 481.0, 481.0, 481.0, 481.0, 481.0, 481.0, 481.0, 481.0, 481.0, 481.0, 481.0, 481.0, 481.0, 481.0, 481.0, 481.0, 481.0, 481.0, 481.0, 481.0, 481.0, 481.0, 481.0, 481.0, 481.0, 481.0, 481.0, 481.0, 481.0, 481.0, 481.0, 481.0, 481.0, 481.0, 481.0, 481.0, 481.0, 481.0, 481.0, 481.0],
      "WindowWidth": [996.0, 997.0, 997.0, 996.0, 996.0, 997.0, 996.0, 996.0, 996.0, 996.0, 996.0, 997.0, 996.0, 996.0, 996.0, 996.0, 996.0, 996.0, 996.0, 996.0, 996.0, 996.0, 996.0, 996.0, 996.0, 996.0, 996.0, 996.0, 996.0, 996.0, 996.0, 996.0, 996.0, 996.0, 996.0, 996.0, 996.0, 996.0, 996.0, 996.0, 996.0, 996.0, 996.0, 996.0, 996.0, 996.0, 996.0, 996.0, 996.0, 996.0, 996.0, 996.0, 996.0, 996.0, 996.0, 996.0, 996.0, 996.0, 996.0, 996.0, 996.0, 996.0, 996.0, 996.0, 996.0, 996.0, 996.0, 996.0, 995.0, 996.0, 996.0, 996.0, 996.0, 995.0, 996.0, 996.0, 996.0, 996.0, 996.0, 996.0, 996.0, 996.0, 996.0, 996.0, 995.0, 995.0, 996.0, 995.0, 996.0, 996.0, 995.0, 995.0, 996.0, 995.0, 996.0, 996.0, 996.0, 991.0, 989.0, 995.0, 993.0, 995.0, 995.0, 996.0, 995.0, 994.0, 995.0, 991.0, 993.0, 993.0, 989.0, 991.0, 991.0, 990.0, 994.0, 994.0, 995.0, 994.0, 994.0, 992.0, 995.0, 995.0, 995.0, 995.0, 995.0, 995.0, 989.0, 994.0, 995.0, 994.0, 994.0, 994.0, 994.0, 994.0, 994.0, 993.0, 994.0, 991.0, 992.0, 994.0, 989.0, 988.0, 989.0, 989.0, 988.0, 994.0, 994.0, 994.0, 994.0, 994.0, 994.0, 994.0, 994.0, 994.0, 994.0, 994.0, 994.0, 994.0, 994.0, 994.0, 995.0, 994.0, 994.0, 994.0, 994.0, 994.0, 994.0, 994.0, 994.0, 994.0, 994.0, 994.0, 994.0, 994.0, 994.0, 994.0, 994.0, 994.0, 994.0, 994.0, 994.0, 994.0, 994.0, 994.0, 994.0, 994.0, 994.0, 994.0, 994.0, 994.0, 994.0, 994.0, 994.0, 994.0, 994.0, 994.0, 994.0, 994.0, 994.0, 994.0]
    },
    "slices": {}
  }
}