{
  "AcquisitionMatrixPE": 80,
  "AcquisitionNumber": 1,
  "AcquisitionTime": "09:44:31.830000",
  "BandwidthPerPixelPhaseEncode": 48.077,
  "BaseResolution": 80,
  "BodyPartExamined": "BRAIN",
  "CoilCombinationMethod": "Sum of Squares",
  "ConsistencyInfo": "N4_VE11C_LATEST_20160120",
  "ConversionSoftware": "dcm2niix",
  "ConversionSoftwareVersion": "v1.0.20220720",
  "DerivedVendorReportedEchoSpacing": 0.000519999,
  "DeviceSerialNumber": "66112",
  "DwellTime": 2.7e-06,
  "EchoTime": 0.035,
  "EchoTrainLength": 39,
  "EffectiveEchoSpacing": 0.00026,
  "FlipAngle": 90,
  "HeudiconvVersion": "0.13.1",
  "ImageOrientationPatientDICOM": [0.991076, -0.1333, -0.000567588, 0.126432, 0.938648, 0.320865],
  "ImageOrientationText": "Tra>Cor(18.6)>Sag(2.4)",
  "ImageType": [
    "ORIGINAL",
    "PRIMARY",
    "M",
    "ND",
    "NORM",
    "MOSAIC"
],
  "ImagingFrequency": 123.252,
  "InPlanePhaseEncodingDirectionDICOM": "COL",
  "InstitutionAddress": "Maynard 3,Hanover,NH,US,03755",
  "InstitutionName": "Dartmouth College - PBS",
  "InstitutionalDepartmentName": "Department",
  "MRAcquisitionType": "2D",
  "MagneticFieldStrength": 3,
  "Manufacturer": "Siemens",
  "ManufacturersModelName": "Prisma",
  "MatrixCoilMode": "GRAPPA",
  "Modality": "MR",
  "NonlinearGradientCorrection": false,
  "ParallelReductionFactorInPlane": 2,
  "PartialFourier": 1,
  "PatientPosition": "HFS",
  "PercentPhaseFOV": 100,
  "PercentSampling": 100,
  "PhaseEncodingDirection": "j-",
  "PhaseEncodingSteps": 79,
  "PhaseResolution": 1,
  "PixelBandwidth": 2315,
  "ProcedureStepDescription": "dbic^QA",
  "ProtocolName": "func-bold_task-rest_acq-p2",
  "PulseSequenceDetails": "%SiemensSeq%\\ep2d_bold",
  "ReceiveCoilActiveElements": "HC1-7;NC1,2",
  "ReceiveCoilName": "HeadNeck_64",
  "ReconMatrixPE": 80,
  "RefLinesPE": 24,
  "RepetitionTime": 2,
  "SAR": 0.0360314,
  "ScanOptions": "FS",
  "ScanningSequence": "EP",
  "SequenceName": "*epfid2d1_80",
  "SequenceVariant": "SK",
  "SeriesDescription": "func-bold_task-rest_acq-p2",
  "SeriesNumber": 5,
  "ShimSetting": [4140, -7690, -7523, 229, -58, -403, -66, 134],
  "SliceThickness": 3.5,
  "SliceTiming": [0.99, 0, 1.0575, 0.0675, 1.1225, 0.1325, 1.1875, 0.1975, 1.255, 0.265, 1.32, 0.33, 1.3875, 0.3975, 1.4525, 0.4625, 1.5175, 0.5275, 1.585, 0.595, 1.65, 0.66, 1.7175, 0.7275, 1.7825, 0.7925, 1.8475, 0.8575, 1.915, 0.925],
  "SoftwareVersions": "syngo MR E11",
  "SpacingBetweenSlices": 3.99,
  "StationName": "AWP66112",
  "TaskName": "rest",
  "TotalReadoutTime": 0.02054,
  "TxRefAmp": 211.175,
  "dcmmeta_affine": [
    [-2.97322678565979, 0.37929677963256836, 0.16853153705596924, 102.25709533691406],
    [0.3998999297618866, 2.8159451484680176, 1.2691106796264648, -144.85853576660156],
    [-0.0017027626745402813, -0.9625939130783081, 3.7790284156799316, -31.09842300415039],
    [0.0, 0.0, 0.0, 1.0]
],
  "dcmmeta_reorient_transform": [
    [0.0, -1.0, 0.0, 79.0],
    [1.0, 0.0, 0.0, 0.0],
    [0.0, 0.0, 1.0, 0.0],
    [0.0, 0.0, 0.0, 1.0]
],
  "dcmmeta_shape": [80, 80, 30, 200],
  "dcmmeta_slice_dim": 2,
  "dcmmeta_version": 0.6,
  "global": {
    "const": {
      "AccessionNumber": "qa64",
      "AcquisitionMatrix": [80, 0, 0, 80],
      "AngioFlag": "N",
      "BitsAllocated": 16,
      "BitsStored": 12,
      "BodyPartExamined": "BRAIN",
      "Columns": 480,
      "EchoNumbers": 1,
      "EchoTime": 35.0,
      "EchoTrainLength": 39,
      "FlipAngle": 90.0,
      "HighBit": 11,
      "ImageOrientationPatient": [0.99107557501902, -0.133299971662, -0.0005675875492, 0.12643225581326, 0.93864837554856, 0.32086463153488],
      "ImagePositionPatient": [-802.7262386612, -560.8101689593, -299.32156667703],
      "ImageType": [
        "ORIGINAL",
        "PRIMARY",
        "M",
        "ND",
        "NORM",
        "MOSAIC"
],
      "ImagedNucleus": "1H",
      "ImagingFrequency": 123.252366,
      "InPlanePhaseEncodingDirection": "COL",
      "LargestImagePixelValue": 4095,
      "MRAcquisitionType": "2D",
      "MagneticFieldStrength": 3.0,
      "Manufacturer": "SIEMENS",
      "ManufacturerModelName": "Prisma",
      "Modality": "MR",
      "NumberOfAverages": 1.0,
      "NumberOfPhaseEncodingSteps": 79,
      "PercentPhaseFieldOfView": 100.0,
      "PercentSampling": 100.0,
      "PerformedProcedureStepStartTime": "093649.511000",
      "PhotometricInterpretation": "MONOCHROME2",
      "PixelBandwidth": 2315.0,
      "PixelRepresentation": 0,
      "PixelSpacing": [3.0, 3.0],
      "ProtocolName": "func-bold_task-rest_acq-p2",
      "RepetitionTime": 2000.0,
      "Rows": 480,
      "SAR": 0.03603143449458,
      "SamplesPerPixel": 1,
      "ScanOptions": "FS",
      "ScanningSequence": "EP",
      "SequenceName": "*epfid2d1_80",
      "SequenceVariant": "SK",
      "SeriesDescription": "func-bold_task-rest_acq-p2",
      "SeriesNumber": 5,
      "SeriesTime": "094516.410000",
      "SliceLocation": -71.21047551759,
      "SliceThickness": 3.5,
      "SmallestImagePixelValue": 0,
      "SoftwareVersions": "syngo MR E11",
      "SpacingBetweenSlices": 3.9900000659139,
      "SpecificCharacterSet": "ISO_IR 100",
      "StudyID": "26",
      "StudyTime": "093649.383000",
      "TransmitCoilName": "Body",
      "VariableFlipAngleFlag": "N",
      "WindowCenterWidthExplanation": "Algo1",
      "dBdt": 0.0},
    "slices": {}
  },
  "time": {
    "samples": {
      "AcquisitionNumber": [1, 2, 3, 4, 5, 6, 7, 8, 9, 10, 11, 12, 13, 14, 15, 16, 17, 18, 19, 20, 21, 22, 23, 24, 25, 26, 27, 28, 29, 30, 31, 32, 33, 34, 35, 36, 37, 38, 39, 40, 41, 42, 43, 44, 45, 46, 47, 48, 49, 50, 51, 52, 53, 54, 55, 56, 57, 58, 59, 60, 61, 62, 63, 64, 65, 66, 67, 68, 69, 70, 71, 72, 73, 74, 75, 76, 77, 78, 79, 80, 81, 82, 83, 84, 85, 86, 87, 88, 89, 90, 91, 92, 93, 94, 95, 96, 97, 98, 99, 100, 101, 102, 103, 104, 105, 106, 107, 108, 109, 110, 111, 112, 113, 114, 115, 116, 117, 118, 119, 120, 121, 122, 123, 124, 125, 126, 127, 128, 129, 130, 131, 132, 133, 134, 135, 136, 137, 138, 139, 140, 141, 142, 143, 144, 145, 146, 147, 148, 149, 150, 151, 152, 153, 154, 155, 156, 157, 158, 159, 160, 161, 162, 163, 164, 165, 166, 167, 168, 169, 170, 171, 172, 173, 174, 175, 176, 177, 178, 179, 180, 181, 182, 183, 184, 185, 186, 187, 188, 189, 190, 191, 192, 193, 194, 195, 196, 197, 198, 199, 200],
      "AcquisitionTime": ["094431.830000", "094433.830000", "094435.830000", "094437.830000", "094439.830000", "094441.830000", "094443.830000", "094445.830000", "094447.830000", "094449.830000", "094451.830000", "094453.830000", "094455.830000", "094457.830000", "094459.830000", "094501.830000", "094503.830000", "094505.830000", "094507.830000", "094509.830000", "094511.830000", "094513.830000", "094515.830000", "094517.830000", "094519.830000", "094521.830000", "094523.830000", "094525.830000", "094527.830000", "094529.830000", "094531.830000", "094533.830000", "094535.830000", "094537.830000", "094539.830000", "094541.830000", "094543.830000", "094545.830000", "094547.830000", "094549.830000", "094551.830000", "094553.830000", "094555.830000", "094557.830000", "094559.830000", "094601.830000", "094603.830000", "094605.830000", "094607.830000", "094609.830000", "094611.830000", "094613.830000", "094615.830000", "094617.830000", "094619.830000", "094621.830000", "094623.830000", "094625.830000", "094627.830000", "094629.830000", "094631.830000", "094633.830000", "094635.830000", "094637.830000", "094639.830000", "094641.830000", "094643.830000", "094645.830000", "094647.830000", "094649.830000", "094651.830000", "094653.830000", "094655.830000", "094657.830000", "094659.830000", "094701.830000", "094703.830000", "094705.830000", "094707.830000", "094709.830000", "094711.830000", "094713.830000", "094715.830000", "094717.830000", "094719.830000", "094721.830000", "094723.830000", "094725.830000", "094727.830000", "094729.830000", "094731.830000", "094733.830000", "094735.830000", "094737.830000", "094739.830000", "094741.830000", "094743.830000", "094745.830000", "094747.830000", "094749.830000", "094751.830000", "094753.830000", "094755.830000", "094757.830000", "094759.830000", "094801.830000", "094803.830000", "094805.830000", "094807.830000", "094809.830000", "094811.830000", "094813.830000", "094815.830000", "094817.830000", "094819.830000", "094821.830000", "094823.830000", "094825.830000", "094827.830000", "094829.830000", "094831.830000", "094833.830000", "094835.830000", "094837.830000", "094839.830000", "094841.830000", "094843.830000", "094845.830000", "094847.830000", "094849.830000", "094851.830000", "094853.830000", "094855.830000", "094857.830000", "094859.830000", "094901.830000", "094903.830000", "094905.830000", "094907.830000", "094909.830000", "094911.830000", "094913.830000", "094915.830000", "094917.830000", "094919.830000", "094921.830000", "094923.830000", "094925.830000", "094927.830000", "094929.830000", "094931.830000", "094933.830000", "094935.830000", "094937.830000", "094939.830000", "094941.830000", "094943.830000", "094945.830000", "094947.830000", "094949.830000", "094951.830000", "094953.830000", "094955.830000", "094957.830000", "094959.830000", "095001.830000", "095003.830000", "095005.830000", "095007.830000", "095009.830000", "095011.830000", "095013.830000", "095015.830000", "095017.830000", "095019.830000", "095021.830000", "095023.830000", "095025.830000", "095027.830000", "095029.830000", "095031.830000", "095033.830000", "095035.830000", "095037.830000", "095039.830000", "095041.830000", "095043.830000", "095045.830000", "095047.830000", "095049.830000", "095051.830000", "095053.830000", "095055.830000", "095057.830000", "095059.830000", "095101.830000", "095103.830000", "095105.830000", "095107.830000", "095109.830000"],
      "ContentTime": ["094516.414000", "094516.417000", "094516.420000", "094516.423000", "094516.425000", "094516.428000", "094516.431000", "094516.439000", "094516.441000", "094516.444000", "094516.446000", "094516.449000", "094516.451000", "094516.454000", "094516.457000", "094516.459000", "094516.462000", "094516.464000", "094516.467000", "094516.470000", "094516.472000", "094516.475000", "094556.409000", "094556.411000", "094556.414000", "094556.417000", "094556.419000", "094556.426000", "094556.429000", "094556.432000", "094556.434000", "094556.437000", "094556.440000", "094556.442000", "094556.445000", "094556.447000", "094556.450000", "094556.453000", "094556.540000", "094556.542000", "094556.545000", "094556.547000", "094636.408000", "094636.410000", "094636.413000", "094636.416000", "094636.418000", "094636.421000", "094636.423000", "094636.426000", "094636.429000", "094636.431000", "094636.434000", "094636.436000", "094636.439000", "094636.442000", "094636.444000", "094636.447000", "094636.449000", "094636.452000", "094636.455000", "094636.457000", "094716.409000", "094716.412000", "094716.414000", "094716.417000", "094716.420000", "094716.422000", "094716.425000", "094716.427000", "094716.430000", "094716.432000", "094716.435000", "094716.438000", "094716.440000", "094716.443000", "094716.445000", "094716.448000", "094716.451000", "094716.453000", "094716.456000", "094716.459000", "094756.409000", "094756.411000", "094756.414000", "094756.417000", "094756.419000", "094756.422000", "094756.425000", "094756.427000", "094756.430000", "094756.432000", "094756.435000", "094756.438000", "094756.440000", "094756.443000", "094756.445000", "094756.448000", "094756.451000", "094756.453000", "094756.456000", "094756.459000", "094836.409000", "094836.411000", "094836.414000", "094836.417000", "094836.419000", "094836.422000", "094836.425000", "094836.427000", "094836.430000", "094836.432000", "094836.435000", "094836.438000", "094836.440000", "094836.443000", "094836.445000", "094836.448000", "094836.451000", "094836.453000", "094836.456000", "094836.458000", "094916.408000", "094916.411000", "094916.414000", "094916.417000", "094916.419000", "094916.422000", "094916.425000", "094916.427000", "094916.430000", "094916.432000", "094916.435000", "094916.438000", "094916.440000", "094916.443000", "094916.445000", "094916.448000", "094916.451000", "094916.453000", "094916.456000", "094916.467000", "094956.409000", "094956.411000", "094956.414000", "094956.417000", "094956.419000", "094956.422000", "094956.425000", "094956.427000", "094956.430000", "094956.432000", "094956.435000", "094956.438000", "094956.440000", "094956.443000", "094956.446000", "094956.448000", "094956.451000", "094956.453000", "094956.456000", "094956.458000", "095036.409000", "095036.411000", "095036.414000", "095036.417000", "095036.419000", "095036.422000", "095036.424000", "095036.427000", "095036.430000", "095036.432000", "095036.435000", "095036.437000", "095036.440000", "095036.443000", "095036.445000", "095036.448000", "095036.451000", "095036.453000", "095036.456000", "095036.459000", "095111.379000", "095111.382000", "095111.384000", "095111.387000", "095111.390000", "095111.393000", "095111.395000", "095111.398000", "095111.401000", "095111.403000", "095111.406000", "095111.412000", "095111.416000", "095111.418000", "095111.426000", "095111.431000", "095111.434000", "095111.437000"],
      "InstanceCreationTime": ["094516.414000", "094516.417000", "094516.420000", "094516.423000", "094516.425000", "094516.428000", "094516.431000", "094516.439000", "094516.441000", "094516.444000", "094516.446000", "094516.449000", "094516.451000", "094516.454000", "094516.457000", "094516.459000", "094516.462000", "094516.464000", "094516.467000", "094516.470000", "094516.472000", "094516.475000", "094556.409000", "094556.411000", "094556.414000", "094556.417000", "094556.419000", "094556.426000", "094556.429000", "094556.432000", "094556.434000", "094556.437000", "094556.440000", "094556.442000", "094556.445000", "094556.447000", "094556.450000", "094556.453000", "094556.540000", "094556.542000", "094556.545000", "094556.547000", "094636.408000", "094636.410000", "094636.413000", "094636.416000", "094636.418000", "094636.421000", "094636.423000", "094636.426000", "094636.429000", "094636.431000", "094636.434000", "094636.436000", "094636.439000", "094636.442000", "094636.444000", "094636.447000", "094636.449000", "094636.452000", "094636.455000", "094636.457000", "094716.409000", "094716.412000", "094716.414000", "094716.417000", "094716.420000", "094716.422000", "094716.425000", "094716.427000", "094716.430000", "094716.432000", "094716.435000", "094716.438000", "094716.440000", "094716.443000", "094716.445000", "094716.448000", "094716.451000", "094716.453000", "094716.456000", "094716.459000", "094756.409000", "094756.411000", "094756.414000", "094756.417000", "094756.419000", "094756.422000", "094756.425000", "094756.427000", "094756.430000", "094756.432000", "094756.435000", "094756.438000", "094756.440000", "094756.443000", "094756.445000", "094756.448000", "094756.451000", "094756.453000", "094756.456000", "094756.459000", "094836.409000", "094836.411000", "094836.414000", "094836.417000", "094836.419000", "094836.422000", "094836.425000", "094836.427000", "094836.430000", "094836.432000", "094836.435000", "094836.438000", "094836.440000", "094836.443000", "094836.445000", "094836.448000", "094836.451000", "094836.453000", "094836.456000", "094836.458000", "094916.408000", "094916.411000", "094916.414000", "094916.417000", "094916.419000", "094916.422000", "094916.425000", "094916.427000", "094916.430000", "094916.432000", "094916.435000", "094916.438000", "094916.440000", "094916.443000", "094916.445000", "094916.448000", "094916.451000", "094916.453000", "094916.456000", "094916.467000", "094956.409000", "094956.411000", "094956.414000", "094956.417000", "094956.419000", "094956.422000", "094956.425000", "094956.427000", "094956.430000", "094956.432000", "094956.435000", "094956.438000", "094956.440000", "094956.443000", "094956.446000", "094956.448000", "094956.451000", "094956.453000", "094956.456000", "094956.458000", "095036.409000", "095036.411000", "095036.414000", "095036.417000", "095036.419000", "095036.422000", "095036.424000", "095036.427000", "095036.430000", "095036.432000", "095036.435000", "095036.437000", "095036.440000", "095036.443000", "095036.445000", "095036.448000", "095036.451000", "095036.453000", "095036.456000", "095036.459000", "095111.379000", "095111.382000", "095111.384000", "095111.387000", "095111.390000", "095111.393000", "095111.395000", "095111.398000", "095111.401000", "095111.403000", "095111.406000", "095111.412000", "095111.416000", "095111.418000", "095111.426000", "095111.431000", "095111.434000", "095111.437000"],
      "InstanceNumber": [1, 2, 3, 4, 5, 6, 7, 8, 9, 10, 11, 12, 13, 14, 15, 16, 17, 18, 19, 20, 21, 22, 23, 24, 25, 26, 27, 28, 29, 30, 31, 32, 33, 34, 35, 36, 37, 38, 39, 40, 41, 42, 43, 44, 45, 46, 47, 48, 49, 50, 51, 52, 53, 54, 55, 56, 57, 58, 59, 60, 61, 62, 63, 64, 65, 66, 67, 68, 69, 70, 71, 72, 73, 74, 75, 76, 77, 78, 79, 80, 81, 82, 83, 84, 85, 86, 87, 88, 89, 90, 91, 92, 93, 94, 95, 96, 97, 98, 99, 100, 101, 102, 103, 104, 105, 106, 107, 108, 109, 110, 111, 112, 113, 114, 115, 116, 117, 118, 119, 120, 121, 122, 123, 124, 125, 126, 127, 128, 129, 130, 131, 132, 133, 134, 135, 136, 137, 138, 139, 140, 141, 142, 143, 144, 145, 146, 147, 148, 149, 150, 151, 152, 153, 154, 155, 156, 157, 158, 159, 160, 161, 162, 163, 164, 165, 166, 167, 168, 169, 170, 171, 172, 173, 174, 175, 176, 177, 178, 179, 180, 181, 182, 183, 184, 185, 186, 187, 188, 189, 190, 191, 192, 193, 194, 195, 196, 197, 198, 199, 200],
      "WindowCenter": [1584.0, 1584.0, 1585.0, 1584.0, 1585.0, 1584.0, 1583.0, 1585.0, 1584.0, 1584.0, 1584.0, 1585.0, 1585.0, 1584.0, 1585.0, 1584.0, 1584.0, 1585.0, 1584.0, 1584.0, 1584.0, 1585.0, 1584.0, 1584.0, 1583.0, 1583.0, 1584.0, 1584.0, 1584.0, 1584.0, 1584.0, 1584.0, 1584.0, 1584.0, 1584.0, 1584.0, 1583.0, 1584.0, 1584.0, 1584.0, 1583.0, 1584.0, 1584.0, 1583.0, 1583.0, 1583.0, 1583.0, 1582.0, 1583.0, 1583.0, 1583.0, 1583.0, 1583.0, 1583.0, 1583.0, 1583.0, 1583.0, 1583.0, 1583.0, 1583.0, 1584.0, 1583.0, 1582.0, 1582.0, 1582.0, 1583.0, 1582.0, 1582.0, 1583.0, 1581.0, 1583.0, 1582.0, 1582.0, 1582.0, 1582.0, 1582.0, 1582.0, 1582.0, 1581.0, 1582.0, 1582.0, 1582.0, 1582.0, 1581.0, 1581.0, 1582.0, 1582.0, 1582.0, 1582.0, 1582.0, 1582.0, 1581.0, 1581.0, 1582.0, 1582.0, 1582.0, 1582.0, 1581.0, 1582.0, 1582.0, 1581.0, 1581.0, 1582.0, 1582.0, 1580.0, 1581.0, 1581.0, 1581.0, 1581.0, 1581.0, 1580.0, 1581.0, 1580.0, 1581.0, 1581.0, 1580.0, 1581.0, 1582.0, 1582.0, 1580.0, 1580.0, 1581.0, 1580.0, 1580.0, 1580.0, 1582.0, 1580.0, 1580.0, 1580.0, 1580.0, 1580.0, 1580.0, 1580.0, 1580.0, 1579.0, 1580.0, 1579.0, 1580.0, 1578.0, 1579.0, 1579.0, 1580.0, 1580.0, 1579.0, 1579.0, 1581.0, 1579.0, 1579.0, 1579.0, 1579.0, 1579.0, 1580.0, 1578.0, 1580.0, 1580.0, 1579.0, 1579.0, 1579.0, 1579.0, 1579.0, 1578.0, 1578.0, 1578.0, 1578.0, 1579.0, 1579.0, 1579.0, 1579.0, 1580.0, 1578.0, 1579.0, 1578.0, 1578.0, 1579.0, 1577.0, 1579.0, 1579.0, 1578.0, 1578.0, 1577.0, 1578.0, 1577.0, 1579.0, 1578.0, 1578.0, 1577.0, 1577.0, 1578.0, 1578.0, 1579.0, 1578.0, 1578.0, 1578.0, 1578.0, 1578.0, 1579.0, 1578.0, 1577.0, 1578.0, 1578.0],
      "WindowWidth": [3491.0, 3489.0, 3489.0, 3489.0, 3488.0, 3488.0, 3489.0, 3488.0, 3488.0, 3489.0, 3489.0, 3488.0, 3488.0, 3489.0, 3489.0, 3489.0, 3489.0, 3488.0, 3488.0, 3488.0, 3488.0, 3488.0, 3488.0, 3488.0, 3489.0, 3488.0, 3488.0, 3488.0, 3488.0, 3488.0, 3488.0, 3488.0, 3488.0, 3488.0, 3488.0, 3488.0, 3488.0, 3488.0, 3488.0, 3488.0, 3488.0, 3488.0, 3488.0, 3488.0, 3488.0, 3488.0, 3488.0, 3488.0, 3488.0, 3488.0, 3487.0, 3488.0, 3488.0, 3487.0, 3487.0, 3487.0, 3487.0, 3487.0, 3487.0, 3487.0, 3487.0, 3487.0, 3487.0, 3487.0, 3487.0, 3487.0, 3488.0, 3487.0, 3487.0, 3488.0, 3487.0, 3487.0, 3487.0, 3487.0, 3487.0, 3487.0, 3487.0, 3487.0, 3487.0, 3487.0, 3487.0, 3487.0, 3487.0, 3487.0, 3486.0, 3487.0, 3486.0, 3487.0, 3487.0, 3486.0, 3486.0, 3486.0, 3486.0, 3486.0, 3486.0, 3486.0, 3486.0, 3486.0, 3486.0, 3486.0, 3486.0, 3486.0, 3486.0, 3486.0, 3487.0, 3486.0, 3486.0, 3486.0, 3486.0, 3486.0, 3486.0, 3486.0, 3486.0, 3486.0, 3486.0, 3486.0, 3486.0, 3485.0, 3485.0, 3486.0, 3486.0, 3486.0, 3486.0, 3486.0, 3486.0, 3485.0, 3486.0, 3486.0, 3485.0, 3485.0, 3485.0, 3485.0, 3485.0, 3485.0, 3485.0, 3485.0, 3485.0, 3485.0, 3485.0, 3485.0, 3485.0, 3485.0, 3485.0, 3485.0, 3485.0, 3484.0, 3485.0, 3485.0, 3485.0, 3485.0, 3485.0, 3484.0, 3485.0, 3484.0, 3484.0, 3485.0, 3485.0, 3485.0, 3485.0, 3484.0, 3485.0, 3485.0, 3485.0, 3484.0, 3484.0, 3484.0, 3484.0, 3484.0, 3484.0, 3484.0, 3484.0, 3484.0, 3484.0, 3484.0, 3484.0, 3484.0, 3483.0, 3484.0, 3484.0, 3484.0, 3484.0, 3484.0, 3484.0, 3484.0, 3484.0, 3484.0, 3484.0, 3484.0, 3484.0, 3483.0, 3484.0, 3484.0, 3484.0, 3484.0, 3484.0, 3483.0, 3483.0, 3484.0, 3483.0, 3484.0]
    },
    "slices": {}
  }
}