{
  "AcquisitionMatrixPE": 80,
  "AcquisitionNumber": 1,
  "AcquisitionTime": "10:48:54.790000",
  "BandwidthPerPixelPhaseEncode": 48.077,
  "BaseResolution": 80,
  "BodyPartExamined": "BRAIN",
  "CoilCombinationMethod": "Sum of Squares",
  "ConsistencyInfo": "N4_VE11C_LATEST_20160120",
  "ConversionSoftware": "dcm2niix",
  "ConversionSoftwareVersion": "v1.0.20220720",
  "DerivedVendorReportedEchoSpacing": 0.000519999,
  "DeviceSerialNumber": "66112",
  "DwellTime": 2.7e-06,
  "EchoTime": 0.035,
  "EchoTrainLength": 39,
  "EffectiveEchoSpacing": 0.00026,
  "FlipAngle": 90,
  "HeudiconvVersion": "0.13.1",
  "ImageOrientationPatientDICOM": [0.992501, -0.122141, 0.00475834, 0.112029, 0.924521, 0.364294],
  "ImageOrientationText": "Tra>Cor(21.2)>Sag(2.8)",
  "ImageType": [
    "ORIGINAL",
    "PRIMARY",
    "M",
    "ND",
    "NORM",
    "MOSAIC"
],
  "ImagingFrequency": 123.252,
  "InPlanePhaseEncodingDirectionDICOM": "COL",
  "InstitutionAddress": "Maynard 3,Hanover,NH,US,03755",
  "InstitutionName": "Dartmouth College - PBS",
  "InstitutionalDepartmentName": "Department",
  "MRAcquisitionType": "2D",
  "MagneticFieldStrength": 3,
  "Manufacturer": "Siemens",
  "ManufacturersModelName": "Prisma",
  "MatrixCoilMode": "GRAPPA",
  "Modality": "MR",
  "NonlinearGradientCorrection": false,
  "ParallelReductionFactorInPlane": 2,
  "PartialFourier": 1,
  "PatientPosition": "HFS",
  "PercentPhaseFOV": 100,
  "PercentSampling": 100,
  "PhaseEncodingDirection": "j-",
  "PhaseEncodingSteps": 79,
  "PhaseResolution": 1,
  "PixelBandwidth": 2315,
  "ProcedureStepDescription": "dbic^QA",
  "ProtocolName": "func-bold_task-rest_acq-p2",
  "PulseSequenceDetails": "%SiemensSeq%\\ep2d_bold",
  "ReceiveCoilActiveElements": "HEA;HEP",
  "ReceiveCoilName": "Head_32",
  "ReconMatrixPE": 80,
  "RefLinesPE": 24,
  "RepetitionTime": 2,
  "SAR": 0.0474615,
  "ScanOptions": "FS",
  "ScanningSequence": "EP",
  "SequenceName": "*epfid2d1_80",
  "SequenceVariant": "SK",
  "SeriesDescription": "func-bold_task-rest_acq-p2",
  "SeriesNumber": 5,
  "ShimSetting": [4145, -7700, -7522, 241, -86, -127, 7, 65],
  "SliceThickness": 3.5,
  "SliceTiming": [0.99, 0, 1.055, 0.065, 1.1225, 0.1325, 1.1875, 0.1975, 1.2525, 0.2625, 1.32, 0.33, 1.385, 0.395, 1.4525, 0.4625, 1.5175, 0.5275, 1.5825, 0.5925, 1.65, 0.66, 1.715, 0.725, 1.7825, 0.7925, 1.8475, 0.8575, 1.9125, 0.9225],
  "SoftwareVersions": "syngo MR E11",
  "SpacingBetweenSlices": 3.99,
  "StationName": "AWP66112",
  "TaskName": "rest",
  "TotalReadoutTime": 0.02054,
  "TxRefAmp": 220.271,
  "dcmmeta_affine": [
    [-2.977504014968872, 0.33608579635620117, 0.1950886845588684, 103.60818481445312],
    [0.3664230406284332, 2.773563861846924, 1.440506100654602, -137.3489990234375],
    [0.014275006018579006, -1.092881679534912, 3.7157747745513916, -13.586360931396484],
    [0.0, 0.0, 0.0, 1.0]
],
  "dcmmeta_reorient_transform": [
    [0.0, -1.0, 0.0, 79.0],
    [1.0, 0.0, 0.0, 0.0],
    [0.0, 0.0, 1.0, 0.0],
    [0.0, 0.0, 0.0, 1.0]
],
  "dcmmeta_shape": [80, 80, 30, 200],
  "dcmmeta_slice_dim": 2,
  "dcmmeta_version": 0.6,
  "global": {
    "const": {
      "AccessionNumber": "qa",
      "AcquisitionMatrix": [80, 0, 0, 80],
      "AngioFlag": "N",
      "BitsAllocated": 16,
      "BitsStored": 12,
      "BodyPartExamined": "BRAIN",
      "Columns": 480,
      "EchoNumbers": 1,
      "EchoTime": 35.0,
      "EchoTrainLength": 39,
      "FlipAngle": 90.0,
      "HighBit": 11,
      "ImageOrientationPatient": [0.99250135036775, -0.1221410158871, 0.00475833545045, 0.11202859680175, 0.92452126147934, 0.36429387940408],
      "ImagePositionPatient": [-792.87693271247, -563.1906855102, -321.35533959883],
      "ImageType": [
        "ORIGINAL",
        "PRIMARY",
        "M",
        "ND",
        "NORM",
        "MOSAIC"
],
      "ImagedNucleus": "1H",
      "ImagingFrequency": 123.252352,
      "InPlanePhaseEncodingDirection": "COL",
      "MRAcquisitionType": "2D",
      "MagneticFieldStrength": 3.0,
      "Manufacturer": "SIEMENS",
      "ManufacturerModelName": "Prisma",
      "Modality": "MR",
      "NumberOfAverages": 1.0,
      "NumberOfPhaseEncodingSteps": 79,
      "PercentPhaseFieldOfView": 100.0,
      "PercentSampling": 100.0,
      "PerformedProcedureStepStartTime": "104518.047000",
      "PhotometricInterpretation": "MONOCHROME2",
      "PixelBandwidth": 2315.0,
      "PixelRepresentation": 0,
      "PixelSpacing": [3.0, 3.0],
      "ProtocolName": "func-bold_task-rest_acq-p2",
      "RepetitionTime": 2000.0,
      "Rows": 480,
      "SAR": 0.04746147876091,
      "SamplesPerPixel": 1,
      "ScanOptions": "FS",
      "ScanningSequence": "EP",
      "SequenceName": "*epfid2d1_80",
      "SequenceVariant": "SK",
      "SeriesDescription": "func-bold_task-rest_acq-p2",
      "SeriesNumber": 5,
      "SeriesTime": "104950.661000",
      "SliceLocation": -57.173721274228,
      "SliceThickness": 3.5,
      "SmallestImagePixelValue": 0,
      "SoftwareVersions": "syngo MR E11",
      "SpacingBetweenSlices": 3.98999998777,
      "SpecificCharacterSet": "ISO_IR 100",
      "StudyID": "23",
      "StudyTime": "104517.997000",
      "TransmitCoilName": "Body",
      "VariableFlipAngleFlag": "N",
      "WindowCenterWidthExplanation": "Algo1",
      "dBdt": 0.0},
    "slices": {}
  },
  "time": {
    "samples": {
      "AcquisitionNumber": [1, 2, 3, 4, 5, 6, 7, 8, 9, 10, 11, 12, 13, 14, 15, 16, 17, 18, 19, 20, 21, 22, 23, 24, 25, 26, 27, 28, 29, 30, 31, 32, 33, 34, 35, 36, 37, 38, 39, 40, 41, 42, 43, 44, 45, 46, 47, 48, 49, 50, 51, 52, 53, 54, 55, 56, 57, 58, 59, 60, 61, 62, 63, 64, 65, 66, 67, 68, 69, 70, 71, 72, 73, 74, 75, 76, 77, 78, 79, 80, 81, 82, 83, 84, 85, 86, 87, 88, 89, 90, 91, 92, 93, 94, 95, 96, 97, 98, 99, 100, 101, 102, 103, 104, 105, 106, 107, 108, 109, 110, 111, 112, 113, 114, 115, 116, 117, 118, 119, 120, 121, 122, 123, 124, 125, 126, 127, 128, 129, 130, 131, 132, 133, 134, 135, 136, 137, 138, 139, 140, 141, 142, 143, 144, 145, 146, 147, 148, 149, 150, 151, 152, 153, 154, 155, 156, 157, 158, 159, 160, 161, 162, 163, 164, 165, 166, 167, 168, 169, 170, 171, 172, 173, 174, 175, 176, 177, 178, 179, 180, 181, 182, 183, 184, 185, 186, 187, 188, 189, 190, 191, 192, 193, 194, 195, 196, 197, 198, 199, 200],
      "AcquisitionTime": ["104854.790000", "104856.790000", "104858.790000", "104900.790000", "104902.790000", "104904.790000", "104906.790000", "104908.790000", "104910.790000", "104912.790000", "104914.790000", "104916.790000", "104918.790000", "104920.790000", "104922.790000", "104924.790000", "104926.790000", "104928.790000", "104930.790000", "104932.790000", "104934.790000", "104936.790000", "104938.790000", "104940.790000", "104942.790000", "104944.790000", "104946.790000", "104948.790000", "104950.790000", "104952.790000", "104954.790000", "104956.790000", "104958.790000", "105000.790000", "105002.790000", "105004.790000", "105006.790000", "105008.790000", "105010.790000", "105012.790000", "105014.790000", "105016.790000", "105018.790000", "105020.790000", "105022.790000", "105024.790000", "105026.790000", "105028.790000", "105030.790000", "105032.790000", "105034.790000", "105036.790000", "105038.790000", "105040.790000", "105042.790000", "105044.790000", "105046.790000", "105048.790000", "105050.790000", "105052.790000", "105054.790000", "105056.790000", "105058.790000", "105100.790000", "105102.790000", "105104.790000", "105106.790000", "105108.790000", "105110.790000", "105112.790000", "105114.790000", "105116.790000", "105118.790000", "105120.790000", "105122.790000", "105124.790000", "105126.790000", "105128.790000", "105130.790000", "105132.790000", "105134.790000", "105136.790000", "105138.790000", "105140.790000", "105142.790000", "105144.790000", "105146.790000", "105148.790000", "105150.790000", "105152.790000", "105154.790000", "105156.790000", "105158.790000", "105200.790000", "105202.790000", "105204.790000", "105206.790000", "105208.790000", "105210.790000", "105212.790000", "105214.790000", "105216.790000", "105218.790000", "105220.790000", "105222.790000", "105224.790000", "105226.790000", "105228.790000", "105230.790000", "105232.790000", "105234.790000", "105236.790000", "105238.790000", "105240.790000", "105242.790000", "105244.790000", "105246.790000", "105248.790000", "105250.790000", "105252.790000", "105254.790000", "105256.790000", "105258.790000", "105300.790000", "105302.790000", "105304.790000", "105306.790000", "105308.790000", "105310.790000", "105312.790000", "105314.790000", "105316.790000", "105318.790000", "105320.790000", "105322.790000", "105324.790000", "105326.790000", "105328.790000", "105330.790000", "105332.790000", "105334.790000", "105336.790000", "105338.790000", "105340.790000", "105342.790000", "105344.790000", "105346.790000", "105348.790000", "105350.790000", "105352.790000", "105354.790000", "105356.790000", "105358.790000", "105400.790000", "105402.790000", "105404.790000", "105406.790000", "105408.790000", "105410.790000", "105412.790000", "105414.790000", "105416.790000", "105418.790000", "105420.790000", "105422.790000", "105424.790000", "105426.790000", "105428.790000", "105430.790000", "105432.790000", "105434.790000", "105436.790000", "105438.790000", "105440.790000", "105442.790000", "105444.790000", "105446.790000", "105448.790000", "105450.790000", "105452.790000", "105454.790000", "105456.790000", "105458.790000", "105500.790000", "105502.790000", "105504.790000", "105506.790000", "105508.790000", "105510.790000", "105512.790000", "105514.790000", "105516.790000", "105518.790000", "105520.790000", "105522.790000", "105524.790000", "105526.790000", "105528.790000", "105530.790000", "105532.790000"],
      "ContentTime": ["104950.664000", "104950.668000", "104950.670000", "104950.673000", "104950.675000", "104950.678000", "104950.680000", "104950.683000", "104950.685000", "104950.688000", "104950.690000", "104950.693000", "104950.695000", "104950.698000", "104950.700000", "104950.708000", "104950.711000", "104950.713000", "104950.716000", "104950.723000", "104950.726000", "104950.728000", "104950.731000", "104950.733000", "104950.736000", "104950.738000", "104950.741000", "104950.743000", "105030.636000", "105030.639000", "105030.642000", "105030.644000", "105030.647000", "105030.649000", "105030.652000", "105030.654000", "105030.657000", "105030.660000", "105030.662000", "105030.665000", "105030.667000", "105030.670000", "105030.672000", "105030.674000", "105030.677000", "105030.680000", "105030.682000", "105030.685000", "105110.636000", "105110.639000", "105110.642000", "105110.644000", "105110.647000", "105110.650000", "105110.652000", "105110.655000", "105110.657000", "105110.660000", "105110.662000", "105110.665000", "105110.667000", "105110.670000", "105110.672000", "105110.675000", "105110.677000", "105110.680000", "105110.682000", "105110.685000", "105150.638000", "105150.640000", "105150.643000", "105150.645000", "105150.648000", "105150.651000", "105150.653000", "105150.656000", "105150.658000", "105150.661000", "105150.663000", "105150.666000", "105150.668000", "105150.671000", "105150.673000", "105150.676000", "105150.678000", "105150.681000", "105150.683000", "105150.686000", "105230.636000", "105230.639000", "105230.642000", "105230.644000", "105230.647000", "105230.649000", "105230.652000", "105230.654000", "105230.657000", "105230.659000", "105230.662000", "105230.664000", "105230.667000", "105230.669000", "105230.672000", "105230.675000", "105230.677000", "105230.680000", "105230.682000", "105230.685000", "105250.637000", "105250.639000", "105250.642000", "105250.644000", "105250.647000", "105250.649000", "105250.652000", "105250.655000", "105250.657000", "105250.660000", "105330.636000", "105330.639000", "105330.642000", "105330.644000", "105330.647000", "105330.650000", "105330.653000", "105330.655000", "105330.658000", "105330.661000", "105330.663000", "105330.666000", "105330.668000", "105330.671000", "105330.673000", "105330.676000", "105330.678000", "105330.681000", "105330.683000", "105330.686000", "105410.637000", "105410.640000", "105410.643000", "105410.645000", "105410.648000", "105410.650000", "105410.653000", "105410.656000", "105410.658000", "105410.661000", "105410.663000", "105410.666000", "105410.668000", "105410.671000", "105410.673000", "105410.676000", "105410.678000", "105410.681000", "105410.684000", "105410.686000", "105450.636000", "105450.639000", "105450.650000", "105450.652000", "105450.655000", "105450.657000", "105450.660000", "105450.663000", "105450.665000", "105450.668000", "105450.670000", "105450.673000", "105450.675000", "105450.678000", "105450.680000", "105450.683000", "105450.692000", "105450.695000", "105450.697000", "105450.700000", "105530.636000", "105530.639000", "105530.642000", "105530.644000", "105530.647000", "105530.650000", "105530.652000", "105530.655000", "105530.657000", "105530.660000", "105530.662000", "105530.665000", "105530.668000", "105530.670000", "105530.673000", "105530.675000", "105530.678000", "105530.680000", "105530.683000", "105530.685000", "105534.349000", "105534.352000"],
      "InstanceCreationTime": ["104950.664000", "104950.668000", "104950.670000", "104950.673000", "104950.675000", "104950.678000", "104950.680000", "104950.683000", "104950.685000", "104950.688000", "104950.690000", "104950.693000", "104950.695000", "104950.698000", "104950.700000", "104950.708000", "104950.711000", "104950.713000", "104950.716000", "104950.723000", "104950.726000", "104950.728000", "104950.731000", "104950.733000", "104950.736000", "104950.738000", "104950.741000", "104950.743000", "105030.636000", "105030.639000", "105030.642000", "105030.644000", "105030.647000", "105030.649000", "105030.652000", "105030.654000", "105030.657000", "105030.660000", "105030.662000", "105030.665000", "105030.667000", "105030.670000", "105030.672000", "105030.674000", "105030.677000", "105030.680000", "105030.682000", "105030.685000", "105110.636000", "105110.639000", "105110.642000", "105110.644000", "105110.647000", "105110.650000", "105110.652000", "105110.655000", "105110.657000", "105110.660000", "105110.662000", "105110.665000", "105110.667000", "105110.670000", "105110.672000", "105110.675000", "105110.677000", "105110.680000", "105110.682000", "105110.685000", "105150.638000", "105150.640000", "105150.643000", "105150.645000", "105150.648000", "105150.651000", "105150.653000", "105150.656000", "105150.658000", "105150.661000", "105150.663000", "105150.666000", "105150.668000", "105150.671000", "105150.673000", "105150.676000", "105150.678000", "105150.681000", "105150.683000", "105150.686000", "105230.636000", "105230.639000", "105230.642000", "105230.644000", "105230.647000", "105230.649000", "105230.652000", "105230.654000", "105230.657000", "105230.659000", "105230.662000", "105230.664000", "105230.667000", "105230.669000", "105230.672000", "105230.675000", "105230.677000", "105230.680000", "105230.682000", "105230.685000", "105250.637000", "105250.639000", "105250.642000", "105250.644000", "105250.647000", "105250.649000", "105250.652000", "105250.655000", "105250.657000", "105250.660000", "105330.636000", "105330.639000", "105330.642000", "105330.644000", "105330.647000", "105330.650000", "105330.653000", "105330.655000", "105330.658000", "105330.661000", "105330.663000", "105330.666000", "105330.668000", "105330.671000", "105330.673000", "105330.676000", "105330.678000", "105330.681000", "105330.683000", "105330.686000", "105410.637000", "105410.640000", "105410.643000", "105410.645000", "105410.648000", "105410.650000", "105410.653000", "105410.656000", "105410.658000", "105410.661000", "105410.663000", "105410.666000", "105410.668000", "105410.671000", "105410.673000", "105410.676000", "105410.678000", "105410.681000", "105410.684000", "105410.686000", "105450.636000", "105450.639000", "105450.650000", "105450.652000", "105450.655000", "105450.657000", "105450.660000", "105450.663000", "105450.665000", "105450.668000", "105450.670000", "105450.673000", "105450.675000", "105450.678000", "105450.680000", "105450.683000", "105450.692000", "105450.695000", "105450.697000", "105450.700000", "105530.636000", "105530.639000", "105530.642000", "105530.644000", "105530.647000", "105530.650000", "105530.652000", "105530.655000", "105530.657000", "105530.660000", "105530.662000", "105530.665000", "105530.668000", "105530.670000", "105530.673000", "105530.675000", "105530.678000", "105530.680000", "105530.683000", "105530.685000", "105534.349000", "105534.352000"],
      "InstanceNumber": [1, 2, 3, 4, 5, 6, 7, 8, 9, 10, 11, 12, 13, 14, 15, 16, 17, 18, 19, 20, 21, 22, 23, 24, 25, 26, 27, 28, 29, 30, 31, 32, 33, 34, 35, 36, 37, 38, 39, 40, 41, 42, 43, 44, 45, 46, 47, 48, 49, 50, 51, 52, 53, 54, 55, 56, 57, 58, 59, 60, 61, 62, 63, 64, 65, 66, 67, 68, 69, 70, 71, 72, 73, 74, 75, 76, 77, 78, 79, 80, 81, 82, 83, 84, 85, 86, 87, 88, 89, 90, 91, 92, 93, 94, 95, 96, 97, 98, 99, 100, 101, 102, 103, 104, 105, 106, 107, 108, 109, 110, 111, 112, 113, 114, 115, 116, 117, 118, 119, 120, 121, 122, 123, 124, 125, 126, 127, 128, 129, 130, 131, 132, 133, 134, 135, 136, 137, 138, 139, 140, 141, 142, 143, 144, 145, 146, 147, 148, 149, 150, 151, 152, 153, 154, 155, 156, 157, 158, 159, 160, 161, 162, 163, 164, 165, 166, 167, 168, 169, 170, 171, 172, 173, 174, 175, 176, 177, 178, 179, 180, 181, 182, 183, 184, 185, 186, 187, 188, 189, 190, 191, 192, 193, 194, 195, 196, 197, 198, 199, 200],
      "LargestImagePixelValue": [2091, 2097, 2098, 2089, 2086, 2090, 2095, 2097, 2092, 2096, 2096, 2095, 2096, 2101, 2093, 2103, 2097, 2091, 2091, 2091, 2096, 2090, 2100, 2101, 2092, 2095, 2100, 2095, 2098, 2103, 2095, 2095, 2098, 2097, 2101, 2088, 2097, 2091, 2099, 2101, 2092, 2097, 2087, 2097, 2100, 2096, 2095, 2098, 2095, 2090, 2090, 2098, 2095, 2102, 2091, 2089, 2090, 2098, 2095, 2094, 2088, 2098, 2092, 2091, 2092, 2097, 2092, 2094, 2089, 2100, 2100, 2092, 2094, 2097, 2095, 2098, 2093, 2095, 2104, 2097, 2092, 2099, 2093, 2090, 2090, 2099, 2089, 2099, 2091, 2094, 2093, 2088, 2096, 2090, 2089, 2092, 2096, 2097, 2102, 2100, 2090, 2094, 2093, 2095, 2095, 2092, 2093, 2096, 2099, 2093, 2093, 2086, 2102, 2101, 2092, 2098, 2093, 2090, 2096, 2101, 2091, 2094, 2093, 2088, 2094, 2094, 2096, 2095, 2096, 2097, 2090, 2098, 2098, 2095, 2093, 2096, 2098, 2098, 2104, 2099, 2098, 2093, 2097, 2092, 2093, 2101, 2093, 2092, 2093, 2091, 2096, 2095, 2093, 2098, 2095, 2093, 2096, 2096, 2089, 2092, 2097, 2095, 2098, 2095, 2092, 2097, 2090, 2093, 2095, 2098, 2088, 2090, 2101, 2097, 2103, 2093, 2087, 2090, 2095, 2094, 2094, 2092, 2102, 2092, 2095, 2099, 2097, 2098, 2095, 2103, 2104, 2098, 2093, 2093, 2095, 2088, 2094, 2094, 2089, 2088],
      "WindowCenter": [1005.0, 1006.0, 1005.0, 1005.0, 1005.0, 1006.0, 1005.0, 1006.0, 1005.0, 1005.0, 1005.0, 1005.0, 1005.0, 1005.0, 1005.0, 1005.0, 1005.0, 1005.0, 1005.0, 1005.0, 1005.0, 1005.0, 1005.0, 1005.0, 1005.0, 1005.0, 1005.0, 1005.0, 1005.0, 1006.0, 1005.0, 1005.0, 1005.0, 1005.0, 1005.0, 1006.0, 1005.0, 1006.0, 1005.0, 1005.0, 1005.0, 1005.0, 1005.0, 1005.0, 1005.0, 1005.0, 1005.0, 1005.0, 1005.0, 1005.0, 1005.0, 1005.0, 1005.0, 1006.0, 1005.0, 1005.0, 1005.0, 1005.0, 1006.0, 1005.0, 1005.0, 1005.0, 1005.0, 1005.0, 1005.0, 1005.0, 1006.0, 1006.0, 1006.0, 1005.0, 1005.0, 1006.0, 1006.0, 1005.0, 1005.0, 1005.0, 1005.0, 1005.0, 1005.0, 1005.0, 1005.0, 1005.0, 1005.0, 1005.0, 1006.0, 1005.0, 1005.0, 1005.0, 1005.0, 1005.0, 1005.0, 1005.0, 1006.0, 1005.0, 1005.0, 1005.0, 1005.0, 1005.0, 1005.0, 1005.0, 1005.0, 1005.0, 1005.0, 1005.0, 1005.0, 1005.0, 1005.0, 1005.0, 1005.0, 1006.0, 1005.0, 1006.0, 1005.0, 1005.0, 1005.0, 1005.0, 1005.0, 1005.0, 1005.0, 1005.0, 1005.0, 1005.0, 1005.0, 1005.0, 1005.0, 1005.0, 1006.0, 1005.0, 1005.0, 1005.0, 1005.0, 1005.0, 1005.0, 1005.0, 1005.0, 1005.0, 1005.0, 1005.0, 1005.0, 1005.0, 1005.0, 1005.0, 1005.0, 1005.0, 1005.0, 1005.0, 1005.0, 1005.0, 1005.0, 1005.0, 1005.0, 1006.0, 1005.0, 1005.0, 1005.0, 1005.0, 1005.0, 1005.0, 1005.0, 1005.0, 1005.0, 1005.0, 1005.0, 1005.0, 1005.0, 1005.0, 1005.0, 1005.0, 1004.0, 1005.0, 1005.0, 1005.0, 1005.0, 1004.0, 1004.0, 1004.0, 1005.0, 1005.0, 1005.0, 1005.0, 1005.0, 1004.0, 1004.0, 1005.0, 1004.0, 1004.0, 1005.0, 1004.0, 1005.0, 1004.0, 1004.0, 1005.0, 1004.0, 1005.0, 1005.0, 1004.0, 1004.0, 1004.0, 1005.0, 1005.0],
      "WindowWidth": [2220.0, 2220.0, 2219.0, 2219.0, 2219.0, 2220.0, 2219.0, 2220.0, 2219.0, 2219.0, 2219.0, 2219.0, 2220.0, 2219.0, 2219.0, 2219.0, 2219.0, 2219.0, 2219.0, 2219.0, 2219.0, 2219.0, 2219.0, 2219.0, 2219.0, 2219.0, 2219.0, 2219.0, 2219.0, 2220.0, 2219.0, 2219.0, 2219.0, 2219.0, 2219.0, 2219.0, 2219.0, 2220.0, 2219.0, 2219.0, 2219.0, 2219.0, 2219.0, 2219.0, 2219.0, 2219.0, 2219.0, 2219.0, 2219.0, 2219.0, 2219.0, 2219.0, 2219.0, 2219.0, 2219.0, 2219.0, 2219.0, 2219.0, 2220.0, 2219.0, 2219.0, 2219.0, 2219.0, 2219.0, 2219.0, 2219.0, 2220.0, 2220.0, 2220.0, 2219.0, 2219.0, 2220.0, 2220.0, 2219.0, 2219.0, 2219.0, 2219.0, 2219.0, 2218.0, 2219.0, 2219.0, 2219.0, 2219.0, 2219.0, 2219.0, 2219.0, 2219.0, 2218.0, 2219.0, 2219.0, 2218.0, 2219.0, 2220.0, 2218.0, 2219.0, 2219.0, 2219.0, 2219.0, 2219.0, 2219.0, 2218.0, 2219.0, 2218.0, 2218.0, 2219.0, 2219.0, 2218.0, 2219.0, 2218.0, 2219.0, 2219.0, 2220.0, 2219.0, 2219.0, 2218.0, 2218.0, 2218.0, 2219.0, 2219.0, 2219.0, 2219.0, 2218.0, 2219.0, 2218.0, 2219.0, 2219.0, 2219.0, 2218.0, 2218.0, 2219.0, 2219.0, 2219.0, 2219.0, 2219.0, 2219.0, 2219.0, 2219.0, 2219.0, 2219.0, 2218.0, 2219.0, 2218.0, 2219.0, 2218.0, 2218.0, 2219.0, 2218.0, 2218.0, 2219.0, 2219.0, 2218.0, 2219.0, 2219.0, 2219.0, 2218.0, 2218.0, 2219.0, 2218.0, 2218.0, 2219.0, 2219.0, 2219.0, 2219.0, 2218.0, 2219.0, 2218.0, 2219.0, 2218.0, 2219.0, 2218.0, 2218.0, 2218.0, 2218.0, 2218.0, 2219.0, 2219.0, 2218.0, 2218.0, 2218.0, 2218.0, 2218.0, 2219.0, 2218.0, 2218.0, 2219.0, 2218.0, 2219.0, 2219.0, 2218.0, 2219.0, 2219.0, 2219.0, 2219.0, 2218.0, 2218.0, 2218.0, 2218.0, 2219.0, 2219.0, 2219.0]
    },
    "slices": {}
  }
}