{
  "AcquisitionMatrixPE": 80,
  "AcquisitionNumber": 1,
  "AcquisitionTime": "11:09:25.497500",
  "BandwidthPerPixelPhaseEncode": 25,
  "BaseResolution": 80,
  "BodyPartExamined": "BRAIN",
  "CoilCombinationMethod": "Sum of Squares",
  "ConsistencyInfo": "N4_VE11C_LATEST_20160120",
  "ConversionSoftware": "dcm2niix",
  "ConversionSoftwareVersion": "v1.0.20220720",
  "DerivedVendorReportedEchoSpacing": 0.0005,
  "DeviceSerialNumber": "66112",
  "DwellTime": 2.7e-06,
  "EchoTime": 0.03,
  "EchoTrainLength": 80,
  "EffectiveEchoSpacing": 0.0005,
  "FlipAngle": 10,
  "HeudiconvVersion": "0.13.1",
  "ImageOrientationPatientDICOM": [0.992501, -0.122141, 0.00475834, 0.112029, 0.924521, 0.364294],
  "ImageOrientationText": "Tra>Cor(21.2)>Sag(2.8)",
  "ImageType": [
    "ORIGINAL",
    "PRIMARY",
    "M",
    "ND",
    "NORM",
    "MOSAIC"
],
  "ImagingFrequency": 123.252,
  "InPlanePhaseEncodingDirectionDICOM": "COL",
  "InstitutionAddress": "Maynard 3,Hanover,NH,US,03755",
  "InstitutionName": "Dartmouth College - PBS",
  "InstitutionalDepartmentName": "Department",
  "MRAcquisitionType": "2D",
  "MagneticFieldStrength": 3,
  "Manufacturer": "Siemens",
  "ManufacturersModelName": "Prisma",
  "MatrixCoilMode": "SENSE",
  "Modality": "MR",
  "NonlinearGradientCorrection": false,
  "PartialFourier": 1,
  "PatientPosition": "HFS",
  "PercentPhaseFOV": 100,
  "PercentSampling": 100,
  "PhaseEncodingDirection": "j-",
  "PhaseEncodingSteps": 80,
  "PhaseResolution": 1,
  "PixelBandwidth": 2315,
  "ProcedureStepDescription": "dbic^QA",
  "ProtocolName": "func-bold_fa-10",
  "PulseSequenceDetails": "%SiemensSeq%\\ep2d_bold",
  "ReceiveCoilActiveElements": "HEA;HEP",
  "ReceiveCoilName": "Head_32",
  "ReconMatrixPE": 80,
  "RepetitionTime": 2,
  "SAR": 0.010005,
  "ScanOptions": "FS",
  "ScanningSequence": "EP",
  "SequenceName": "*epfid2d1_80",
  "SequenceVariant": "SK",
  "SeriesDescription": "func-bold_fa-10",
  "SeriesNumber": 10,
  "ShimSetting": [4145, -7701, -7522, 242, -87, -124, 9, 66],
  "SliceThickness": 3.5,
  "SliceTiming": [0.99, 0, 1.055, 0.065, 1.1225, 0.1325, 1.1875, 0.1975, 1.255, 0.265, 1.32, 0.33, 1.385, 0.395, 1.4525, 0.4625, 1.5175, 0.5275, 1.5825, 0.595, 1.65, 0.66, 1.715, 0.725, 1.7825, 0.7925, 1.8475, 0.8575, 1.9125, 0.925],
  "SoftwareVersions": "syngo MR E11",
  "SpacingBetweenSlices": 3.99,
  "StationName": "AWP66112",
  "TotalReadoutTime": 0.0395,
  "TxRefAmp": 220.271,
  "dcmmeta_affine": [
    [-2.977504014968872, 0.33608579635620117, 0.1950886845588684, 104.20374298095703],
    [0.3664230406284332, 2.773563861846924, 1.440506100654602, -132.5142364501953],
    [0.014275006018579006, -1.092881679534912, 3.7157747745513916, -13.42379379272461],
    [0.0, 0.0, 0.0, 1.0]
],
  "dcmmeta_reorient_transform": [
    [0.0, -1.0, 0.0, 79.0],
    [1.0, 0.0, 0.0, 0.0],
    [0.0, 0.0, 1.0, 0.0],
    [0.0, 0.0, 0.0, 1.0]
],
  "dcmmeta_shape": [80, 80, 30, 200],
  "dcmmeta_slice_dim": 2,
  "dcmmeta_version": 0.6,
  "global": {
    "const": {
      "AccessionNumber": "qa",
      "AcquisitionMatrix": [80, 0, 0, 80],
      "AngioFlag": "N",
      "BitsAllocated": 16,
      "BitsStored": 12,
      "BodyPartExamined": "BRAIN",
      "Columns": 480,
      "EchoNumbers": 1,
      "EchoTime": 30.0,
      "EchoTrainLength": 80,
      "FlipAngle": 10.0,
      "HighBit": 11,
      "ImageOrientationPatient": [0.99250135036775, -0.1221410158871, 0.00475833545045, 0.11202859680175, 0.92452126147934, 0.36429387940408],
      "ImagePositionPatient": [-793.47248849479, -568.02544236139, -321.19277246015],
      "ImageType": [
        "ORIGINAL",
        "PRIMARY",
        "M",
        "ND",
        "NORM",
        "MOSAIC"
],
      "ImagedNucleus": "1H",
      "ImagingFrequency": 123.252356,
      "InPlanePhaseEncodingDirection": "COL",
      "MRAcquisitionType": "2D",
      "MagneticFieldStrength": 3.0,
      "Manufacturer": "SIEMENS",
      "ManufacturerModelName": "Prisma",
      "Modality": "MR",
      "NumberOfAverages": 1.0,
      "NumberOfPhaseEncodingSteps": 80,
      "PercentPhaseFieldOfView": 100.0,
      "PercentSampling": 100.0,
      "PerformedProcedureStepStartTime": "104518.047000",
      "PhotometricInterpretation": "MONOCHROME2",
      "PixelBandwidth": 2315.0,
      "PixelRepresentation": 0,
      "PixelSpacing": [3.0, 3.0],
      "ProtocolName": "func-bold_fa-10",
      "RepetitionTime": 2000.0,
      "Rows": 480,
      "SAR": 0.01000504778523,
      "SamplesPerPixel": 1,
      "ScanOptions": "FS",
      "ScanningSequence": "EP",
      "SequenceName": "*epfid2d1_80",
      "SequenceVariant": "SK",
      "SeriesDescription": "func-bold_fa-10",
      "SeriesNumber": 10,
      "SeriesTime": "111010.638000",
      "SliceLocation": -55.247719818441,
      "SliceThickness": 3.5,
      "SmallestImagePixelValue": 0,
      "SoftwareVersions": "syngo MR E11",
      "SpacingBetweenSlices": 3.9899999640248,
      "SpecificCharacterSet": "ISO_IR 100",
      "StudyID": "23",
      "StudyTime": "104517.997000",
      "TransmitCoilName": "Body",
      "VariableFlipAngleFlag": "N",
      "WindowCenterWidthExplanation": "Algo1",
      "dBdt": 0.0},
    "slices": {}
  },
  "time": {
    "samples": {
      "AcquisitionNumber": [1, 2, 3, 4, 5, 6, 7, 8, 9, 10, 11, 12, 13, 14, 15, 16, 17, 18, 19, 20, 21, 22, 23, 24, 25, 26, 27, 28, 29, 30, 31, 32, 33, 34, 35, 36, 37, 38, 39, 40, 41, 42, 43, 44, 45, 46, 47, 48, 49, 50, 51, 52, 53, 54, 55, 56, 57, 58, 59, 60, 61, 62, 63, 64, 65, 66, 67, 68, 69, 70, 71, 72, 73, 74, 75, 76, 77, 78, 79, 80, 81, 82, 83, 84, 85, 86, 87, 88, 89, 90, 91, 92, 93, 94, 95, 96, 97, 98, 99, 100, 101, 102, 103, 104, 105, 106, 107, 108, 109, 110, 111, 112, 113, 114, 115, 116, 117, 118, 119, 120, 121, 122, 123, 124, 125, 126, 127, 128, 129, 130, 131, 132, 133, 134, 135, 136, 137, 138, 139, 140, 141, 142, 143, 144, 145, 146, 147, 148, 149, 150, 151, 152, 153, 154, 155, 156, 157, 158, 159, 160, 161, 162, 163, 164, 165, 166, 167, 168, 169, 170, 171, 172, 173, 174, 175, 176, 177, 178, 179, 180, 181, 182, 183, 184, 185, 186, 187, 188, 189, 190, 191, 192, 193, 194, 195, 196, 197, 198, 199, 200],
      "AcquisitionTime": ["110925.497500", "110927.497500", "110929.497500", "110931.497500", "110933.497500", "110935.497500", "110937.497500", "110939.497500", "110941.497500", "110943.497500", "110945.497500", "110947.497500", "110949.497500", "110951.497500", "110953.497500", "110955.497500", "110957.497500", "110959.497500", "111001.497500", "111003.497500", "111005.497500", "111007.497500", "111009.497500", "111011.497500", "111013.497500", "111015.497500", "111017.497500", "111019.497500", "111021.497500", "111023.497500", "111025.497500", "111027.497500", "111029.497500", "111031.497500", "111033.497500", "111035.497500", "111037.497500", "111039.497500", "111041.497500", "111043.497500", "111045.497500", "111047.497500", "111049.497500", "111051.497500", "111053.497500", "111055.497500", "111057.497500", "111059.497500", "111101.497500", "111103.497500", "111105.497500", "111107.497500", "111109.497500", "111111.497500", "111113.497500", "111115.497500", "111117.497500", "111119.497500", "111121.497500", "111123.497500", "111125.497500", "111127.497500", "111129.497500", "111131.497500", "111133.497500", "111135.497500", "111137.497500", "111139.497500", "111141.497500", "111143.497500", "111145.497500", "111147.497500", "111149.497500", "111151.497500", "111153.497500", "111155.497500", "111157.497500", "111159.497500", "111201.497500", "111203.497500", "111205.497500", "111207.497500", "111209.497500", "111211.497500", "111213.497500", "111215.497500", "111217.497500", "111219.497500", "111221.497500", "111223.497500", "111225.497500", "111227.497500", "111229.497500", "111231.497500", "111233.497500", "111235.497500", "111237.497500", "111239.497500", "111241.497500", "111243.497500", "111245.497500", "111247.497500", "111249.497500", "111251.497500", "111253.497500", "111255.497500", "111257.497500", "111259.497500", "111301.497500", "111303.497500", "111305.497500", "111307.497500", "111309.497500", "111311.497500", "111313.497500", "111315.497500", "111317.497500", "111319.497500", "111321.497500", "111323.497500", "111325.497500", "111327.497500", "111329.497500", "111331.497500", "111333.497500", "111335.497500", "111337.497500", "111339.497500", "111341.497500", "111343.497500", "111345.497500", "111347.497500", "111349.497500", "111351.497500", "111353.497500", "111355.497500", "111357.497500", "111359.497500", "111401.497500", "111403.497500", "111405.497500", "111407.497500", "111409.497500", "111411.497500", "111413.497500", "111415.497500", "111417.497500", "111419.497500", "111421.497500", "111423.497500", "111425.497500", "111427.497500", "111429.497500", "111431.497500", "111433.497500", "111435.497500", "111437.497500", "111439.497500", "111441.497500", "111443.497500", "111445.497500", "111447.497500", "111449.497500", "111451.497500", "111453.497500", "111455.497500", "111457.497500", "111459.497500", "111501.497500", "111503.497500", "111505.497500", "111507.497500", "111509.497500", "111511.497500", "111513.497500", "111515.497500", "111517.497500", "111519.497500", "111521.497500", "111523.497500", "111525.497500", "111527.497500", "111529.497500", "111531.497500", "111533.497500", "111535.497500", "111537.497500", "111539.497500", "111541.497500", "111543.497500", "111545.497500", "111547.497500", "111549.497500", "111551.497500", "111553.497500", "111555.497500", "111557.497500", "111559.497500", "111601.497500", "111603.497500"],
      "ContentTime": ["111010.641000", "111010.645000", "111010.647000", "111010.649000", "111010.652000", "111010.654000", "111010.657000", "111010.659000", "111010.662000", "111010.672000", "111010.674000", "111010.677000", "111010.679000", "111010.682000", "111010.684000", "111010.687000", "111010.689000", "111010.692000", "111010.694000", "111010.697000", "111010.699000", "111010.702000", "111050.637000", "111050.640000", "111050.643000", "111050.645000", "111050.648000", "111050.650000", "111050.659000", "111050.661000", "111050.664000", "111050.666000", "111050.669000", "111050.671000", "111050.674000", "111050.676000", "111050.679000", "111050.681000", "111050.684000", "111050.686000", "111050.689000", "111050.691000", "111130.636000", "111130.639000", "111130.642000", "111130.644000", "111130.647000", "111130.649000", "111130.652000", "111130.654000", "111130.657000", "111130.659000", "111130.661000", "111130.664000", "111130.666000", "111130.669000", "111130.671000", "111130.674000", "111130.676000", "111130.679000", "111130.681000", "111130.684000", "111210.636000", "111210.639000", "111210.642000", "111210.644000", "111210.647000", "111210.649000", "111210.651000", "111210.654000", "111210.656000", "111210.659000", "111210.661000", "111210.664000", "111210.666000", "111210.669000", "111210.671000", "111210.674000", "111210.676000", "111210.679000", "111210.681000", "111210.684000", "111250.638000", "111250.640000", "111250.643000", "111250.645000", "111250.648000", "111250.650000", "111250.653000", "111250.655000", "111250.658000", "111250.660000", "111250.668000", "111250.671000", "111250.673000", "111250.676000", "111250.678000", "111250.681000", "111250.683000", "111250.686000", "111250.688000", "111250.690000", "111330.636000", "111330.639000", "111330.642000", "111330.644000", "111330.647000", "111330.649000", "111330.652000", "111330.654000", "111330.657000", "111330.659000", "111330.661000", "111330.664000", "111330.666000", "111330.669000", "111330.671000", "111330.674000", "111330.676000", "111330.679000", "111330.681000", "111330.684000", "111410.636000", "111410.639000", "111410.642000", "111410.644000", "111410.647000", "111410.649000", "111410.652000", "111410.654000", "111410.656000", "111410.659000", "111410.661000", "111410.664000", "111410.666000", "111410.669000", "111410.671000", "111410.674000", "111410.677000", "111410.679000", "111410.682000", "111410.684000", "111450.636000", "111450.639000", "111450.642000", "111450.644000", "111450.647000", "111450.649000", "111450.652000", "111450.654000", "111450.657000", "111450.659000", "111450.662000", "111450.664000", "111450.667000", "111450.669000", "111450.672000", "111450.674000", "111450.677000", "111450.679000", "111450.681000", "111450.684000", "111530.637000", "111530.640000", "111530.643000", "111530.653000", "111530.655000", "111530.658000", "111530.660000", "111530.663000", "111530.665000", "111530.668000", "111530.670000", "111530.673000", "111530.675000", "111530.678000", "111530.681000", "111530.683000", "111530.685000", "111530.688000", "111530.690000", "111530.693000", "111605.186000", "111605.188000", "111605.191000", "111605.196000", "111605.198000", "111605.201000", "111605.203000", "111605.206000", "111605.208000", "111605.211000", "111605.214000", "111605.216000", "111605.222000", "111605.226000", "111605.229000", "111605.232000", "111605.235000", "111605.238000"],
      "InstanceCreationTime": ["111010.641000", "111010.645000", "111010.647000", "111010.649000", "111010.652000", "111010.654000", "111010.657000", "111010.659000", "111010.662000", "111010.672000", "111010.674000", "111010.677000", "111010.679000", "111010.682000", "111010.684000", "111010.687000", "111010.689000", "111010.692000", "111010.694000", "111010.697000", "111010.699000", "111010.702000", "111050.637000", "111050.640000", "111050.643000", "111050.645000", "111050.648000", "111050.650000", "111050.659000", "111050.661000", "111050.664000", "111050.666000", "111050.669000", "111050.671000", "111050.674000", "111050.676000", "111050.679000", "111050.681000", "111050.684000", "111050.686000", "111050.689000", "111050.691000", "111130.636000", "111130.639000", "111130.642000", "111130.644000", "111130.647000", "111130.649000", "111130.652000", "111130.654000", "111130.657000", "111130.659000", "111130.661000", "111130.664000", "111130.666000", "111130.669000", "111130.671000", "111130.674000", "111130.676000", "111130.679000", "111130.681000", "111130.684000", "111210.636000", "111210.639000", "111210.642000", "111210.644000", "111210.647000", "111210.649000", "111210.651000", "111210.654000", "111210.656000", "111210.659000", "111210.661000", "111210.664000", "111210.666000", "111210.669000", "111210.671000", "111210.674000", "111210.676000", "111210.679000", "111210.681000", "111210.684000", "111250.638000", "111250.640000", "111250.643000", "111250.645000", "111250.648000", "111250.650000", "111250.653000", "111250.655000", "111250.658000", "111250.660000", "111250.668000", "111250.671000", "111250.673000", "111250.676000", "111250.678000", "111250.681000", "111250.683000", "111250.686000", "111250.688000", "111250.690000", "111330.636000", "111330.639000", "111330.642000", "111330.644000", "111330.647000", "111330.649000", "111330.652000", "111330.654000", "111330.657000", "111330.659000", "111330.661000", "111330.664000", "111330.666000", "111330.669000", "111330.671000", "111330.674000", "111330.676000", "111330.679000", "111330.681000", "111330.684000", "111410.636000", "111410.639000", "111410.642000", "111410.644000", "111410.647000", "111410.649000", "111410.652000", "111410.654000", "111410.656000", "111410.659000", "111410.661000", "111410.664000", "111410.666000", "111410.669000", "111410.671000", "111410.674000", "111410.677000", "111410.679000", "111410.682000", "111410.684000", "111450.636000", "111450.639000", "111450.642000", "111450.644000", "111450.647000", "111450.649000", "111450.652000", "111450.654000", "111450.657000", "111450.659000", "111450.662000", "111450.664000", "111450.667000", "111450.669000", "111450.672000", "111450.674000", "111450.677000", "111450.679000", "111450.681000", "111450.684000", "111530.637000", "111530.640000", "111530.643000", "111530.653000", "111530.655000", "111530.658000", "111530.660000", "111530.663000", "111530.665000", "111530.668000", "111530.670000", "111530.673000", "111530.675000", "111530.678000", "111530.681000", "111530.683000", "111530.685000", "111530.688000", "111530.690000", "111530.693000", "111605.186000", "111605.188000", "111605.191000", "111605.196000", "111605.198000", "111605.201000", "111605.203000", "111605.206000", "111605.208000", "111605.211000", "111605.214000", "111605.216000", "111605.222000", "111605.226000", "111605.229000", "111605.232000", "111605.235000", "111605.238000"],
      "InstanceNumber": [1, 2, 3, 4, 5, 6, 7, 8, 9, 10, 11, 12, 13, 14, 15, 16, 17, 18, 19, 20, 21, 22, 23, 24, 25, 26, 27, 28, 29, 30, 31, 32, 33, 34, 35, 36, 37, 38, 39, 40, 41, 42, 43, 44, 45, 46, 47, 48, 49, 50, 51, 52, 53, 54, 55, 56, 57, 58, 59, 60, 61, 62, 63, 64, 65, 66, 67, 68, 69, 70, 71, 72, 73, 74, 75, 76, 77, 78, 79, 80, 81, 82, 83, 84, 85, 86, 87, 88, 89, 90, 91, 92, 93, 94, 95, 96, 97, 98, 99, 100, 101, 102, 103, 104, 105, 106, 107, 108, 109, 110, 111, 112, 113, 114, 115, 116, 117, 118, 119, 120, 121, 122, 123, 124, 125, 126, 127, 128, 129, 130, 131, 132, 133, 134, 135, 136, 137, 138, 139, 140, 141, 142, 143, 144, 145, 146, 147, 148, 149, 150, 151, 152, 153, 154, 155, 156, 157, 158, 159, 160, 161, 162, 163, 164, 165, 166, 167, 168, 169, 170, 171, 172, 173, 174, 175, 176, 177, 178, 179, 180, 181, 182, 183, 184, 185, 186, 187, 188, 189, 190, 191, 192, 193, 194, 195, 196, 197, 198, 199, 200],
      "LargestImagePixelValue": [362, 360, 359, 359, 357, 358, 358, 358, 358, 362, 357, 358, 357, 359, 359, 358, 359, 358, 362, 358, 357, 359, 358, 359, 357, 360, 357, 359, 361, 362, 359, 359, 362, 360, 361, 359, 357, 356, 356, 358, 359, 364, 359, 357, 357, 358, 356, 357, 359, 358, 358, 358, 363, 358, 361, 357, 359, 361, 362, 357, 358, 360, 358, 357, 359, 358, 363, 363, 362, 357, 363, 362, 359, 361, 360, 362, 363, 363, 359, 362, 358, 359, 362, 358, 358, 358, 358, 358, 358, 359, 357, 358, 361, 362, 361, 362, 362, 359, 359, 358, 357, 361, 362, 365, 362, 361, 362, 362, 361, 362, 362, 362, 360, 361, 361, 362, 362, 363, 362, 361, 363, 361, 361, 362, 363, 358, 361, 359, 360, 362, 360, 359, 359, 358, 358, 359, 358, 357, 360, 358, 359, 358, 359, 361, 362, 359, 358, 359, 358, 358, 358, 361, 357, 359, 359, 359, 360, 358, 358, 361, 358, 358, 361, 361, 360, 361, 362, 361, 361, 361, 361, 361, 363, 360, 363, 360, 362, 360, 361, 361, 358, 358, 362, 359, 358, 357, 360, 362, 358, 358, 357, 363, 358, 358, 357, 359, 361, 360, 360, 360],
      "WindowCenter": [286.0, 287.0, 285.0, 285.0, 285.0, 286.0, 286.0, 285.0, 285.0, 286.0, 285.0, 286.0, 286.0, 285.0, 285.0, 285.0, 285.0, 286.0, 287.0, 285.0, 285.0, 285.0, 285.0, 285.0, 285.0, 285.0, 285.0, 285.0, 286.0, 286.0, 285.0, 285.0, 286.0, 285.0, 286.0, 285.0, 285.0, 285.0, 285.0, 285.0, 285.0, 286.0, 285.0, 286.0, 286.0, 285.0, 285.0, 285.0, 285.0, 285.0, 285.0, 285.0, 285.0, 285.0, 285.0, 286.0, 286.0, 287.0, 286.0, 285.0, 285.0, 285.0, 286.0, 285.0, 286.0, 287.0, 287.0, 287.0, 287.0, 286.0, 287.0, 287.0, 286.0, 286.0, 287.0, 287.0, 287.0, 286.0, 285.0, 285.0, 285.0, 285.0, 286.0, 285.0, 285.0, 286.0, 286.0, 285.0, 285.0, 285.0, 285.0, 286.0, 287.0, 287.0, 287.0, 287.0, 287.0, 286.0, 285.0, 285.0, 286.0, 287.0, 286.0, 287.0, 287.0, 287.0, 287.0, 287.0, 287.0, 287.0, 287.0, 287.0, 287.0, 287.0, 287.0, 287.0, 287.0, 287.0, 287.0, 287.0, 287.0, 287.0, 287.0, 287.0, 287.0, 285.0, 286.0, 285.0, 285.0, 286.0, 285.0, 285.0, 285.0, 285.0, 285.0, 286.0, 285.0, 285.0, 285.0, 285.0, 285.0, 285.0, 285.0, 286.0, 287.0, 285.0, 285.0, 285.0, 285.0, 285.0, 285.0, 287.0, 285.0, 285.0, 285.0, 285.0, 285.0, 286.0, 286.0, 287.0, 285.0, 286.0, 287.0, 287.0, 287.0, 287.0, 287.0, 287.0, 287.0, 287.0, 287.0, 287.0, 287.0, 287.0, 287.0, 287.0, 286.0, 286.0, 286.0, 286.0, 285.0, 286.0, 286.0, 285.0, 286.0, 285.0, 285.0, 287.0, 285.0, 285.0, 286.0, 286.0, 285.0, 285.0, 285.0, 285.0, 286.0, 285.0, 285.0, 286.0],
      "WindowWidth": [624.0, 624.0, 622.0, 622.0, 622.0, 622.0, 622.0, 622.0, 622.0, 623.0, 622.0, 622.0, 624.0, 622.0, 622.0, 622.0, 622.0, 624.0, 626.0, 622.0, 622.0, 622.0, 622.0, 622.0, 622.0, 622.0, 622.0, 622.0, 623.0, 622.0, 622.0, 622.0, 624.0, 622.0, 624.0, 622.0, 622.0, 622.0, 622.0, 622.0, 622.0, 624.0, 622.0, 622.0, 624.0, 622.0, 622.0, 622.0, 622.0, 622.0, 622.0, 622.0, 622.0, 622.0, 623.0, 622.0, 622.0, 626.0, 624.0, 622.0, 622.0, 622.0, 623.0, 622.0, 623.0, 624.0, 626.0, 625.0, 626.0, 624.0, 624.0, 625.0, 623.0, 624.0, 626.0, 626.0, 625.0, 624.0, 622.0, 622.0, 622.0, 622.0, 624.0, 622.0, 622.0, 622.0, 623.0, 622.0, 622.0, 622.0, 622.0, 624.0, 626.0, 625.0, 624.0, 626.0, 625.0, 624.0, 622.0, 622.0, 624.0, 626.0, 624.0, 626.0, 625.0, 626.0, 626.0, 626.0, 626.0, 626.0, 626.0, 626.0, 626.0, 626.0, 626.0, 626.0, 626.0, 626.0, 625.0, 625.0, 625.0, 625.0, 626.0, 625.0, 625.0, 622.0, 624.0, 622.0, 622.0, 624.0, 622.0, 622.0, 622.0, 622.0, 622.0, 622.0, 622.0, 622.0, 622.0, 622.0, 622.0, 622.0, 622.0, 624.0, 625.0, 622.0, 622.0, 622.0, 622.0, 622.0, 622.0, 625.0, 622.0, 622.0, 622.0, 622.0, 622.0, 623.0, 622.0, 626.0, 622.0, 624.0, 625.0, 626.0, 625.0, 626.0, 625.0, 625.0, 625.0, 625.0, 625.0, 625.0, 625.0, 626.0, 625.0, 625.0, 624.0, 624.0, 624.0, 624.0, 622.0, 624.0, 624.0, 622.0, 622.0, 622.0, 622.0, 624.0, 622.0, 622.0, 624.0, 624.0, 622.0, 622.0, 622.0, 622.0, 624.0, 622.0, 622.0, 622.0]
    },
    "slices": {}
  }
}