{
  "AcquisitionMatrixPE": 80,
  "AcquisitionNumber": 1,
  "AcquisitionTime": "09:54:37.057500",
  "BandwidthPerPixelPhaseEncode": 46.296,
  "BaseResolution": 80,
  "BodyPartExamined": "BRAIN",
  "CoilCombinationMethod": "Sum of Squares",
  "ConsistencyInfo": "N4_VE11E_LATEST_20181129",
  "ConversionSoftware": "dcm2niix",
  "ConversionSoftwareVersion": "v1.0.20220720",
  "DerivedVendorReportedEchoSpacing": 0.000540003,
  "DeviceSerialNumber": "66112",
  "DwellTime": 2.7e-06,
  "EchoTime": 0.035,
  "EchoTrainLength": 39,
  "EffectiveEchoSpacing": 0.000270002,
  "FlipAngle": 90,
  "HeudiconvVersion": "0.13.1",
  "ImageOrientationPatientDICOM": [0.98935, -0.145551, 0.00136035, 0.13834, 0.943154, 0.302195],
  "ImageOrientationText": "Tra>Cor(17.4)>Sag(2.6)",
  "ImageType": [
    "ORIGINAL",
    "PRIMARY",
    "M",
    "ND",
    "NORM",
    "MOSAIC"
],
  "ImagingFrequency": 123.259,
  "InPlanePhaseEncodingDirectionDICOM": "COL",
  "InstitutionAddress": "Maynard 3,Hanover,NH,US,03755",
  "InstitutionName": "Dartmouth College - PBS",
  "InstitutionalDepartmentName": "Department",
  "MRAcquisitionType": "2D",
  "MagneticFieldStrength": 3,
  "Manufacturer": "Siemens",
  "ManufacturersModelName": "Prisma",
  "Modality": "MR",
  "MultibandAccelerationFactor": 4,
  "NonlinearGradientCorrection": false,
  "ParallelReductionFactorInPlane": 2,
  "PartialFourier": 1,
  "PatientPosition": "HFS",
  "PercentPhaseFOV": 100,
  "PercentSampling": 100,
  "PhaseEncodingDirection": "j-",
  "PhaseEncodingSteps": 79,
  "PhaseResolution": 1,
  "PixelBandwidth": 2315,
  "ProcedureStepDescription": "dbic^QA",
  "ProtocolName": "func-bold_task-rest_acq-p2-s4-3.5mm",
  "PulseSequenceDetails": "%SiemensSeq%\\ep2d_bold",
  "ReceiveCoilActiveElements": "HEA;HEP",
  "ReceiveCoilName": "Head_32",
  "ReconMatrixPE": 80,
  "RefLinesPE": 24,
  "RepetitionTime": 2,
  "SAR": 0.0207387,
  "ScanOptions": "FS",
  "ScanningSequence": "EP",
  "SequenceName": "*epfid2d1_80",
  "SequenceVariant": "SK",
  "SeriesDescription": "func-bold_task-rest_acq-p2-s4-3.5mm",
  "SeriesNumber": 7,
  "ShimSetting": [4219, -7738, -7476, 2, -151, -83, -22, 45],
  "SliceThickness": 3.5,
  "SliceTiming": [1.485, 0, 0.99, 0.2475, 1.2375, 0.7425, 1.7325, 0.495, 1.485, 0, 0.99, 0.2475, 1.2375, 0.7425, 1.7325, 0.495, 1.485, 0, 0.99, 0.2475, 1.2375, 0.7425, 1.7325, 0.495, 1.485, 0, 0.99, 0.2475, 1.2375, 0.7425, 1.7325, 0.495],
  "SoftwareVersions": "syngo MR E11",
  "SpacingBetweenSlices": 3.99,
  "StationName": "AWP66112",
  "TaskName": "rest",
  "TotalReadoutTime": 0.0213301,
  "TxRefAmp": 229.597,
  "dcmmeta_affine": [
    [-2.9680492877960205, 0.41501933336257935, 0.18061935901641846, 94.93893432617188],
    [0.4366544783115387, 2.829463005065918, 1.1921671628952026, -152.134033203125],
    [0.004081042483448982, -0.906586229801178, 3.8034474849700928, -25.35828399658203],
    [0.0, 0.0, 0.0, 1.0]
],
  "dcmmeta_reorient_transform": [
    [0.0, -1.0, 0.0, 79.0],
    [1.0, 0.0, 0.0, 0.0],
    [0.0, 0.0, 1.0, 0.0],
    [0.0, 0.0, 0.0, 1.0]
],
  "dcmmeta_shape": [80, 80, 32, 200],
  "dcmmeta_slice_dim": 2,
  "dcmmeta_version": 0.6,
  "global": {
    "const": {
      "AccessionNumber": "qa",
      "AcquisitionMatrix": [80, 0, 0, 80],
      "AngioFlag": "N",
      "BitsAllocated": 16,
      "BitsStored": 12,
      "BodyPartExamined": "BRAIN",
      "Columns": 480,
      "EchoNumbers": 1,
      "EchoTime": 35.0,
      "EchoTrainLength": 39,
      "FlipAngle": 90.0,
      "HighBit": 11,
      "ImageOrientationPatient": [0.98934974262916, -0.145551489908, 0.00136034744741, 0.138339777104, 0.94315430043124, 0.30219541963583],
      "ImagePositionPatient": [-804.33916989086, -549.95521978948, -279.11205888563],
      "ImageType": [
        "ORIGINAL",
        "PRIMARY",
        "M",
        "ND",
        "NORM",
        "MOSAIC"
],
      "ImagedNucleus": "1H",
      "ImagingFrequency": 123.259261,
      "InPlanePhaseEncodingDirection": "COL",
      "MRAcquisitionType": "2D",
      "MagneticFieldStrength": 3.0,
      "Manufacturer": "SIEMENS",
      "ManufacturerModelName": "Prisma",
      "Modality": "MR",
      "NumberOfAverages": 1.0,
      "NumberOfPhaseEncodingSteps": 79,
      "PercentPhaseFieldOfView": 100.0,
      "PercentSampling": 100.0,
      "PerformedProcedureStepStartTime": "094601.314000",
      "PhotometricInterpretation": "MONOCHROME2",
      "PixelBandwidth": 2315.0,
      "PixelRepresentation": 0,
      "PixelSpacing": [3.0, 3.0],
      "ProtocolName": "func-bold_task-rest_acq-p2-s4-3.5mm",
      "RepetitionTime": 2000.0,
      "Rows": 480,
      "SAR": 0.02073867482787,
      "SamplesPerPixel": 1,
      "ScanOptions": "FS",
      "ScanningSequence": "EP",
      "SequenceName": "*epfid2d1_80",
      "SequenceVariant": "SK",
      "SeriesDescription": "func-bold_task-rest_acq-p2-s4-3.5mm",
      "SeriesNumber": 7,
      "SeriesTime": "095527.905000",
      "SliceLocation": -65.330903144841,
      "SliceThickness": 3.5,
      "SmallestImagePixelValue": 0,
      "SoftwareVersions": "syngo MR E11",
      "SpacingBetweenSlices": 3.9899999509293,
      "SpecificCharacterSet": "ISO_IR 100",
      "StudyID": "6",
      "StudyTime": "094601.259000",
      "TransmitCoilName": "Body",
      "VariableFlipAngleFlag": "N",
      "WindowCenterWidthExplanation": "Algo1"
    },
    "slices": {}
  },
  "time": {
    "samples": {
      "AcquisitionNumber": [1, 2, 3, 4, 5, 6, 7, 8, 9, 10, 11, 12, 13, 14, 15, 16, 17, 18, 19, 20, 21, 22, 23, 24, 25, 26, 27, 28, 29, 30, 31, 32, 33, 34, 35, 36, 37, 38, 39, 40, 41, 42, 43, 44, 45, 46, 47, 48, 49, 50, 51, 52, 53, 54, 55, 56, 57, 58, 59, 60, 61, 62, 63, 64, 65, 66, 67, 68, 69, 70, 71, 72, 73, 74, 75, 76, 77, 78, 79, 80, 81, 82, 83, 84, 85, 86, 87, 88, 89, 90, 91, 92, 93, 94, 95, 96, 97, 98, 99, 100, 101, 102, 103, 104, 105, 106, 107, 108, 109, 110, 111, 112, 113, 114, 115, 116, 117, 118, 119, 120, 121, 122, 123, 124, 125, 126, 127, 128, 129, 130, 131, 132, 133, 134, 135, 136, 137, 138, 139, 140, 141, 142, 143, 144, 145, 146, 147, 148, 149, 150, 151, 152, 153, 154, 155, 156, 157, 158, 159, 160, 161, 162, 163, 164, 165, 166, 167, 168, 169, 170, 171, 172, 173, 174, 175, 176, 177, 178, 179, 180, 181, 182, 183, 184, 185, 186, 187, 188, 189, 190, 191, 192, 193, 194, 195, 196, 197, 198, 199, 200],
      "AcquisitionTime": ["095437.057500", "095439.057500", "095441.057500", "095443.057500", "095445.057500", "095447.057500", "095449.057500", "095451.057500", "095453.057500", "095455.057500", "095457.057500", "095459.057500", "095501.057500", "095503.057500", "095505.057500", "095507.057500", "095509.057500", "095511.057500", "095513.057500", "095515.057500", "095517.057500", "095519.057500", "095521.057500", "095523.057500", "095525.057500", "095527.057500", "095529.057500", "095531.057500", "095533.057500", "095535.057500", "095537.057500", "095539.057500", "095541.057500", "095543.057500", "095545.057500", "095547.057500", "095549.057500", "095551.057500", "095553.057500", "095555.057500", "095557.057500", "095559.057500", "095601.057500", "095603.057500", "095605.057500", "095607.057500", "095609.057500", "095611.057500", "095613.057500", "095615.057500", "095617.057500", "095619.057500", "095621.057500", "095623.057500", "095625.057500", "095627.057500", "095629.057500", "095631.057500", "095633.057500", "095635.057500", "095637.057500", "095639.057500", "095641.057500", "095643.057500", "095645.057500", "095647.057500", "095649.057500", "095651.057500", "095653.057500", "095655.057500", "095657.057500", "095659.057500", "095701.057500", "095703.057500", "095705.057500", "095707.057500", "095709.057500", "095711.057500", "095713.057500", "095715.057500", "095717.057500", "095719.057500", "095721.057500", "095723.057500", "095725.057500", "095727.057500", "095729.057500", "095731.057500", "095733.057500", "095735.057500", "095737.057500", "095739.057500", "095741.057500", "095743.057500", "095745.057500", "095747.057500", "095749.057500", "095751.057500", "095753.057500", "095755.057500", "095757.057500", "095759.057500", "095801.057500", "095803.057500", "095805.057500", "095807.057500", "095809.057500", "095811.057500", "095813.057500", "095815.057500", "095817.057500", "095819.057500", "095821.057500", "095823.057500", "095825.057500", "095827.057500", "095829.057500", "095831.057500", "095833.057500", "095835.057500", "095837.057500", "095839.057500", "095841.057500", "095843.057500", "095845.057500", "095847.057500", "095849.057500", "095851.057500", "095853.057500", "095855.057500", "095857.057500", "095859.057500", "095901.057500", "095903.057500", "095905.057500", "095907.057500", "095909.057500", "095911.057500", "095913.057500", "095915.057500", "095917.057500", "095919.057500", "095921.057500", "095923.057500", "095925.057500", "095927.057500", "095929.057500", "095931.057500", "095933.057500", "095935.057500", "095937.057500", "095939.057500", "095941.057500", "095943.057500", "095945.057500", "095947.057500", "095949.057500", "095951.057500", "095953.057500", "095955.057500", "095957.057500", "095959.057500", "100001.057500", "100003.057500", "100005.057500", "100007.057500", "100009.057500", "100011.057500", "100013.057500", "100015.057500", "100017.057500", "100019.057500", "100021.057500", "100023.057500", "100025.057500", "100027.057500", "100029.057500", "100031.057500", "100033.057500", "100035.057500", "100037.057500", "100039.057500", "100041.057500", "100043.057500", "100045.057500", "100047.057500", "100049.057500", "100051.057500", "100053.057500", "100055.057500", "100057.057500", "100059.057500", "100101.057500", "100103.057500", "100105.057500", "100107.057500", "100109.057500", "100111.057500", "100113.057500", "100115.057500"],
      "ContentTime": ["095527.908000", "095527.911000", "095527.914000", "095527.916000", "095527.919000", "095527.921000", "095527.923000", "095527.926000", "095527.933000", "095527.935000", "095527.938000", "095527.940000", "095527.945000", "095527.947000", "095527.949000", "095527.962000", "095527.964000", "095527.967000", "095527.969000", "095527.971000", "095527.974000", "095527.976000", "095527.979000", "095527.981000", "095527.983000", "095607.903000", "095607.906000", "095607.908000", "095607.911000", "095607.913000", "095607.915000", "095607.918000", "095607.920000", "095607.923000", "095607.925000", "095607.927000", "095607.930000", "095607.932000", "095607.934000", "095607.937000", "095607.939000", "095607.947000", "095607.950000", "095607.952000", "095607.955000", "095647.903000", "095647.906000", "095647.908000", "095647.911000", "095647.913000", "095647.916000", "095647.918000", "095647.920000", "095647.923000", "095647.925000", "095647.927000", "095647.930000", "095647.932000", "095647.934000", "095647.937000", "095647.939000", "095647.942000", "095647.944000", "095647.946000", "095647.949000", "095727.902000", "095727.905000", "095727.907000", "095727.910000", "095727.912000", "095727.914000", "095727.917000", "095727.919000", "095727.922000", "095727.924000", "095727.927000", "095727.929000", "095727.931000", "095727.934000", "095727.936000", "095727.938000", "095727.941000", "095727.943000", "095727.946000", "095727.948000", "095807.903000", "095807.906000", "095807.909000", "095807.911000", "095807.913000", "095807.916000", "095807.918000", "095807.921000", "095807.923000", "095807.925000", "095807.928000", "095807.930000", "095807.932000", "095807.935000", "095807.937000", "095807.940000", "095807.942000", "095807.944000", "095807.947000", "095807.949000", "095827.903000", "095827.906000", "095827.908000", "095827.911000", "095827.913000", "095827.915000", "095827.918000", "095827.920000", "095827.923000", "095827.925000", "095907.903000", "095907.906000", "095907.908000", "095907.910000", "095907.913000", "095907.915000", "095907.918000", "095907.920000", "095907.922000", "095907.925000", "095907.927000", "095907.930000", "095907.932000", "095907.935000", "095907.937000", "095907.939000", "095907.942000", "095907.944000", "095907.946000", "095907.949000", "095947.902000", "095947.905000", "095947.907000", "095947.909000", "095947.912000", "095947.914000", "095947.917000", "095947.919000", "095947.922000", "095947.924000", "095947.926000", "095947.929000", "095947.931000", "095947.933000", "095947.936000", "095947.938000", "095947.941000", "095947.943000", "095947.945000", "095947.947000", "100027.903000", "100027.906000", "100027.908000", "100027.910000", "100027.913000", "100027.915000", "100027.918000", "100027.920000", "100027.922000", "100027.925000", "100027.927000", "100027.929000", "100027.932000", "100027.934000", "100027.937000", "100027.939000", "100027.941000", "100027.944000", "100027.946000", "100027.948000", "100107.903000", "100107.906000", "100107.908000", "100107.911000", "100107.913000", "100107.916000", "100107.918000", "100107.920000", "100107.923000", "100107.925000", "100107.928000", "100107.930000", "100107.932000", "100107.935000", "100107.937000", "100107.940000", "100107.942000", "100107.944000", "100107.947000", "100107.949000", "100116.146000", "100116.149000", "100116.152000", "100116.155000", "100116.157000"],
      "InstanceCreationTime": ["095527.908000", "095527.911000", "095527.914000", "095527.916000", "095527.919000", "095527.921000", "095527.923000", "095527.926000", "095527.933000", "095527.935000", "095527.938000", "095527.940000", "095527.945000", "095527.947000", "095527.949000", "095527.962000", "095527.964000", "095527.967000", "095527.969000", "095527.971000", "095527.974000", "095527.976000", "095527.979000", "095527.981000", "095527.983000", "095607.903000", "095607.906000", "095607.908000", "095607.911000", "095607.913000", "095607.915000", "095607.918000", "095607.920000", "095607.923000", "095607.925000", "095607.927000", "095607.930000", "095607.932000", "095607.934000", "095607.937000", "095607.939000", "095607.947000", "095607.950000", "095607.952000", "095607.955000", "095647.903000", "095647.906000", "095647.908000", "095647.911000", "095647.913000", "095647.916000", "095647.918000", "095647.920000", "095647.923000", "095647.925000", "095647.927000", "095647.930000", "095647.932000", "095647.934000", "095647.937000", "095647.939000", "095647.942000", "095647.944000", "095647.946000", "095647.949000", "095727.902000", "095727.905000", "095727.907000", "095727.910000", "095727.912000", "095727.914000", "095727.917000", "095727.919000", "095727.922000", "095727.924000", "095727.927000", "095727.929000", "095727.931000", "095727.934000", "095727.936000", "095727.938000", "095727.941000", "095727.943000", "095727.946000", "095727.948000", "095807.903000", "095807.906000", "095807.909000", "095807.911000", "095807.913000", "095807.916000", "095807.918000", "095807.921000", "095807.923000", "095807.925000", "095807.928000", "095807.930000", "095807.932000", "095807.935000", "095807.937000", "095807.940000", "095807.942000", "095807.944000", "095807.947000", "095807.949000", "095827.903000", "095827.906000", "095827.908000", "095827.911000", "095827.913000", "095827.915000", "095827.918000", "095827.920000", "095827.923000", "095827.925000", "095907.903000", "095907.906000", "095907.908000", "095907.910000", "095907.913000", "095907.915000", "095907.918000", "095907.920000", "095907.922000", "095907.925000", "095907.927000", "095907.930000", "095907.932000", "095907.935000", "095907.937000", "095907.939000", "095907.942000", "095907.944000", "095907.946000", "095907.949000", "095947.902000", "095947.905000", "095947.907000", "095947.909000", "095947.912000", "095947.914000", "095947.917000", "095947.919000", "095947.922000", "095947.924000", "095947.926000", "095947.929000", "095947.931000", "095947.933000", "095947.936000", "095947.938000", "095947.941000", "095947.943000", "095947.945000", "095947.947000", "100027.903000", "100027.906000", "100027.908000", "100027.910000", "100027.913000", "100027.915000", "100027.918000", "100027.920000", "100027.922000", "100027.925000", "100027.927000", "100027.929000", "100027.932000", "100027.934000", "100027.937000", "100027.939000", "100027.941000", "100027.944000", "100027.946000", "100027.948000", "100107.903000", "100107.906000", "100107.908000", "100107.911000", "100107.913000", "100107.916000", "100107.918000", "100107.920000", "100107.923000", "100107.925000", "100107.928000", "100107.930000", "100107.932000", "100107.935000", "100107.937000", "100107.940000", "100107.942000", "100107.944000", "100107.947000", "100107.949000", "100116.146000", "100116.149000", "100116.152000", "100116.155000", "100116.157000"],
      "InstanceNumber": [1, 2, 3, 4, 5, 6, 7, 8, 9, 10, 11, 12, 13, 14, 15, 16, 17, 18, 19, 20, 21, 22, 23, 24, 25, 26, 27, 28, 29, 30, 31, 32, 33, 34, 35, 36, 37, 38, 39, 40, 41, 42, 43, 44, 45, 46, 47, 48, 49, 50, 51, 52, 53, 54, 55, 56, 57, 58, 59, 60, 61, 62, 63, 64, 65, 66, 67, 68, 69, 70, 71, 72, 73, 74, 75, 76, 77, 78, 79, 80, 81, 82, 83, 84, 85, 86, 87, 88, 89, 90, 91, 92, 93, 94, 95, 96, 97, 98, 99, 100, 101, 102, 103, 104, 105, 106, 107, 108, 109, 110, 111, 112, 113, 114, 115, 116, 117, 118, 119, 120, 121, 122, 123, 124, 125, 126, 127, 128, 129, 130, 131, 132, 133, 134, 135, 136, 137, 138, 139, 140, 141, 142, 143, 144, 145, 146, 147, 148, 149, 150, 151, 152, 153, 154, 155, 156, 157, 158, 159, 160, 161, 162, 163, 164, 165, 166, 167, 168, 169, 170, 171, 172, 173, 174, 175, 176, 177, 178, 179, 180, 181, 182, 183, 184, 185, 186, 187, 188, 189, 190, 191, 192, 193, 194, 195, 196, 197, 198, 199, 200],
      "LargestImagePixelValue": [2160, 2157, 2161, 2160, 2156, 2151, 2159, 2156, 2156, 2157, 2156, 2162, 2158, 2157, 2159, 2158, 2158, 2153, 2159, 2154, 2150, 2156, 2159, 2162, 2158, 2158, 2157, 2156, 2159, 2155, 2156, 2159, 2160, 2158, 2157, 2157, 2158, 2159, 2157, 2156, 2159, 2150, 2153, 2155, 2157, 2160, 2155, 2156, 2157, 2155, 2158, 2152, 2153, 2156, 2153, 2159, 2156, 2155, 2156, 2154, 2154, 2150, 2154, 2151, 2154, 2157, 2158, 2158, 2158, 2157, 2156, 2151, 2154, 2153, 2154, 2154, 2150, 2156, 2156, 2159, 2154, 2151, 2149, 2153, 2153, 2148, 2153, 2156, 2154, 2154, 2157, 2152, 2154, 2152, 2151, 2153, 2152, 2156, 2153, 2151, 2153, 2153, 2149, 2154, 2152, 2152, 2152, 2151, 2154, 2159, 2153, 2148, 2151, 2152, 2148, 2150, 2146, 2151, 2154, 2155, 2151, 2156, 2152, 2150, 2149, 2151, 2150, 2149, 2149, 2151, 2150, 2151, 2153, 2152, 2150, 2148, 2149, 2150, 2150, 2151, 2153, 2154, 2151, 2148, 2147, 2152, 2151, 2153, 2148, 2147, 2148, 2144, 2147, 2149, 2153, 2151, 2151, 2147, 2151, 2155, 2152, 2149, 2151, 2153, 2150, 2150, 2149, 2150, 2149, 2149, 2146, 2150, 2148, 2151, 2148, 2149, 2150, 2149, 2150, 2147, 2155, 2149, 2153, 2149, 2150, 2148, 2154, 2150, 2148, 2149, 2152, 2151, 2151, 2148, 2151, 2149, 2149, 2150, 2149, 2149],
      "WindowCenter": [954.0, 954.0, 954.0, 955.0, 954.0, 954.0, 954.0, 955.0, 955.0, 955.0, 954.0, 954.0, 954.0, 954.0, 954.0, 954.0, 955.0, 954.0, 954.0, 954.0, 954.0, 955.0, 954.0, 954.0, 954.0, 955.0, 955.0, 955.0, 954.0, 955.0, 955.0, 954.0, 955.0, 954.0, 954.0, 954.0, 954.0, 955.0, 954.0, 955.0, 954.0, 954.0, 955.0, 954.0, 955.0, 955.0, 954.0, 954.0, 954.0, 954.0, 955.0, 954.0, 954.0, 954.0, 954.0, 954.0, 954.0, 954.0, 954.0, 954.0, 954.0, 954.0, 954.0, 954.0, 955.0, 954.0, 954.0, 955.0, 954.0, 954.0, 954.0, 954.0, 954.0, 955.0, 954.0, 955.0, 954.0, 954.0, 954.0, 954.0, 954.0, 954.0, 955.0, 954.0, 954.0, 955.0, 954.0, 954.0, 954.0, 954.0, 955.0, 954.0, 954.0, 955.0, 954.0, 954.0, 954.0, 955.0, 954.0, 955.0, 954.0, 954.0, 954.0, 954.0, 954.0, 954.0, 954.0, 954.0, 954.0, 954.0, 954.0, 955.0, 954.0, 955.0, 954.0, 955.0, 955.0, 954.0, 954.0, 955.0, 954.0, 954.0, 954.0, 954.0, 955.0, 955.0, 955.0, 954.0, 954.0, 955.0, 954.0, 955.0, 955.0, 954.0, 954.0, 955.0, 954.0, 954.0, 955.0, 954.0, 954.0, 955.0, 954.0, 955.0, 954.0, 955.0, 954.0, 954.0, 954.0, 954.0, 954.0, 955.0, 955.0, 954.0, 954.0, 955.0, 954.0, 954.0, 954.0, 954.0, 954.0, 954.0, 955.0, 954.0, 954.0, 954.0, 954.0, 954.0, 954.0, 955.0, 954.0, 955.0, 955.0, 954.0, 955.0, 955.0, 954.0, 954.0, 954.0, 955.0, 955.0, 954.0, 955.0, 954.0, 954.0, 954.0, 954.0, 954.0, 954.0, 955.0, 954.0, 954.0, 954.0, 955.0, 955.0, 954.0, 954.0, 954.0, 954.0, 954.0],
      "WindowWidth": [2233.0, 2233.0, 2233.0, 2233.0, 2232.0, 2232.0, 2233.0, 2233.0, 2233.0, 2233.0, 2232.0, 2233.0, 2233.0, 2232.0, 2232.0, 2232.0, 2233.0, 2232.0, 2232.0, 2233.0, 2232.0, 2233.0, 2233.0, 2233.0, 2233.0, 2233.0, 2233.0, 2233.0, 2232.0, 2233.0, 2233.0, 2233.0, 2233.0, 2232.0, 2233.0, 2233.0, 2232.0, 2233.0, 2232.0, 2233.0, 2232.0, 2233.0, 2233.0, 2233.0, 2233.0, 2233.0, 2232.0, 2233.0, 2232.0, 2232.0, 2233.0, 2232.0, 2232.0, 2233.0, 2233.0, 2232.0, 2232.0, 2232.0, 2232.0, 2232.0, 2232.0, 2232.0, 2232.0, 2232.0, 2233.0, 2232.0, 2232.0, 2233.0, 2232.0, 2232.0, 2232.0, 2232.0, 2232.0, 2233.0, 2232.0, 2233.0, 2232.0, 2232.0, 2232.0, 2232.0, 2232.0, 2232.0, 2233.0, 2232.0, 2232.0, 2233.0, 2232.0, 2232.0, 2232.0, 2232.0, 2233.0, 2232.0, 2232.0, 2233.0, 2232.0, 2232.0, 2232.0, 2233.0, 2232.0, 2233.0, 2232.0, 2232.0, 2232.0, 2232.0, 2232.0, 2232.0, 2232.0, 2232.0, 2232.0, 2232.0, 2232.0, 2232.0, 2232.0, 2232.0, 2232.0, 2232.0, 2233.0, 2232.0, 2232.0, 2233.0, 2231.0, 2232.0, 2231.0, 2232.0, 2232.0, 2232.0, 2233.0, 2232.0, 2231.0, 2232.0, 2232.0, 2232.0, 2233.0, 2232.0, 2231.0, 2233.0, 2231.0, 2231.0, 2233.0, 2232.0, 2232.0, 2232.0, 2231.0, 2232.0, 2231.0, 2231.0, 2232.0, 2231.0, 2231.0, 2231.0, 2231.0, 2232.0, 2232.0, 2231.0, 2231.0, 2232.0, 2231.0, 2231.0, 2231.0, 2231.0, 2231.0, 2231.0, 2233.0, 2231.0, 2231.0, 2231.0, 2231.0, 2231.0, 2231.0, 2232.0, 2231.0, 2232.0, 2232.0, 2231.0, 2231.0, 2231.0, 2231.0, 2231.0, 2230.0, 2231.0, 2232.0, 2231.0, 2232.0, 2231.0, 2231.0, 2231.0, 2231.0, 2231.0, 2231.0, 2231.0, 2231.0, 2231.0, 2230.0, 2232.0, 2231.0, 2231.0, 2231.0, 2231.0, 2231.0, 2231.0]
    },
    "slices": {}
  }
}