{
  "AcquisitionMatrixPE": 80,
  "AcquisitionNumber": 1,
  "AcquisitionTime": "09:47:42.735000",
  "BandwidthPerPixelPhaseEncode": 48.077,
  "BaseResolution": 80,
  "BodyPartExamined": "BRAIN",
  "CoilCombinationMethod": "Sum of Squares",
  "ConsistencyInfo": "N4_VE11E_LATEST_20181129",
  "ConversionSoftware": "dcm2niix",
  "ConversionSoftwareVersion": "v1.0.20220720",
  "DerivedVendorReportedEchoSpacing": 0.000519999,
  "DeviceSerialNumber": "66112",
  "DwellTime": 2.7e-06,
  "EchoTime": 0.035,
  "EchoTrainLength": 39,
  "EffectiveEchoSpacing": 0.00026,
  "FlipAngle": 90,
  "HeudiconvVersion": "0.13.1",
  "ImageOrientationPatientDICOM": [0.98935, -0.145551, 0.00136035, 0.13834, 0.943154, 0.302195],
  "ImageOrientationText": "Tra>Cor(17.4)>Sag(2.6)",
  "ImageType": [
    "ORIGINAL",
    "PRIMARY",
    "M",
    "ND",
    "NORM",
    "MOSAIC"
],
  "ImagingFrequency": 123.259,
  "InPlanePhaseEncodingDirectionDICOM": "COL",
  "InstitutionAddress": "Maynard 3,Hanover,NH,US,03755",
  "InstitutionName": "Dartmouth College - PBS",
  "InstitutionalDepartmentName": "Department",
  "MRAcquisitionType": "2D",
  "MagneticFieldStrength": 3,
  "Manufacturer": "Siemens",
  "ManufacturersModelName": "Prisma",
  "MatrixCoilMode": "GRAPPA",
  "Modality": "MR",
  "NonlinearGradientCorrection": false,
  "ParallelReductionFactorInPlane": 2,
  "PartialFourier": 1,
  "PatientPosition": "HFS",
  "PercentPhaseFOV": 100,
  "PercentSampling": 100,
  "PhaseEncodingDirection": "j-",
  "PhaseEncodingSteps": 79,
  "PhaseResolution": 1,
  "PixelBandwidth": 2315,
  "ProcedureStepDescription": "dbic^QA",
  "ProtocolName": "func-bold_task-rest_acq-p2",
  "PulseSequenceDetails": "%SiemensSeq%\\ep2d_bold",
  "ReceiveCoilActiveElements": "HEA;HEP",
  "ReceiveCoilName": "Head_32",
  "ReconMatrixPE": 80,
  "RefLinesPE": 24,
  "RepetitionTime": 2,
  "SAR": 0.0551482,
  "ScanOptions": "FS",
  "ScanningSequence": "EP",
  "SequenceName": "*epfid2d1_80",
  "SequenceVariant": "SK",
  "SeriesDescription": "func-bold_task-rest_acq-p2",
  "SeriesNumber": 5,
  "ShimSetting": [4219, -7737, -7477, 1, -150, -86, -25, 45],
  "SliceThickness": 3.5,
  "SliceTiming": [0.99, 0, 1.055, 0.065, 1.12, 0.13, 1.1875, 0.1975, 1.2525, 0.2625, 1.32, 0.33, 1.385, 0.395, 1.45, 0.46, 1.5175, 0.5275, 1.5825, 0.5925, 1.6475, 0.66, 1.715, 0.725, 1.78, 0.79, 1.8475, 0.8575, 1.9125, 0.9225],
  "SoftwareVersions": "syngo MR E11",
  "SpacingBetweenSlices": 3.99,
  "StationName": "AWP66112",
  "TaskName": "rest",
  "TotalReadoutTime": 0.02054,
  "TxRefAmp": 229.597,
  "dcmmeta_affine": [
    [-2.9680492877960205, 0.41501933336257935, 0.18061935901641846, 95.11955261230469],
    [0.4366544783115387, 2.829463005065918, 1.1921671628952026, -150.94186401367188],
    [0.004081042483448982, -0.906586229801178, 3.8034474849700928, -21.55483627319336],
    [0.0, 0.0, 0.0, 1.0]
],
  "dcmmeta_reorient_transform": [
    [0.0, -1.0, 0.0, 79.0],
    [1.0, 0.0, 0.0, 0.0],
    [0.0, 0.0, 1.0, 0.0],
    [0.0, 0.0, 0.0, 1.0]
],
  "dcmmeta_shape": [80, 80, 30, 200],
  "dcmmeta_slice_dim": 2,
  "dcmmeta_version": 0.6,
  "global": {
    "const": {
      "AccessionNumber": "qa",
      "AcquisitionMatrix": [80, 0, 0, 80],
      "AngioFlag": "N",
      "BitsAllocated": 16,
      "BitsStored": 12,
      "BodyPartExamined": "BRAIN",
      "Columns": 480,
      "EchoNumbers": 1,
      "EchoTime": 35.0,
      "EchoTrainLength": 39,
      "FlipAngle": 90.0,
      "HighBit": 11,
      "ImageOrientationPatient": [0.98934974262916, -0.145551489908, 0.00136034744741, 0.138339777104, 0.94315430043124, 0.30219541963583],
      "ImagePositionPatient": [-804.51978913067, -551.14738707158, -275.30861116224],
      "ImageType": [
        "ORIGINAL",
        "PRIMARY",
        "M",
        "ND",
        "NORM",
        "MOSAIC"
],
      "ImagedNucleus": "1H",
      "ImagingFrequency": 123.259262,
      "InPlanePhaseEncodingDirection": "COL",
      "MRAcquisitionType": "2D",
      "MagneticFieldStrength": 3.0,
      "Manufacturer": "SIEMENS",
      "ManufacturerModelName": "Prisma",
      "Modality": "MR",
      "NumberOfAverages": 1.0,
      "NumberOfPhaseEncodingSteps": 79,
      "PercentPhaseFieldOfView": 100.0,
      "PercentSampling": 100.0,
      "PerformedProcedureStepStartTime": "094601.314000",
      "PhotometricInterpretation": "MONOCHROME2",
      "PixelBandwidth": 2315.0,
      "PixelRepresentation": 0,
      "PixelSpacing": [3.0, 3.0],
      "ProtocolName": "func-bold_task-rest_acq-p2",
      "RepetitionTime": 2000.0,
      "Rows": 480,
      "SAR": 0.05514822882864,
      "SamplesPerPixel": 1,
      "ScanOptions": "FS",
      "ScanningSequence": "EP",
      "SequenceName": "*epfid2d1_80",
      "SequenceVariant": "SK",
      "SeriesDescription": "func-bold_task-rest_acq-p2",
      "SeriesNumber": 5,
      "SeriesTime": "094827.819000",
      "SliceLocation": -61.340903054258,
      "SliceThickness": 3.5,
      "SmallestImagePixelValue": 0,
      "SoftwareVersions": "syngo MR E11",
      "SpacingBetweenSlices": 3.9899999511237,
      "SpecificCharacterSet": "ISO_IR 100",
      "StudyID": "6",
      "StudyTime": "094601.259000",
      "TransmitCoilName": "Body",
      "VariableFlipAngleFlag": "N",
      "WindowCenterWidthExplanation": "Algo1"
    },
    "slices": {}
  },
  "time": {
    "samples": {
      "AcquisitionNumber": [1, 2, 3, 4, 5, 6, 7, 8, 9, 10, 11, 12, 13, 14, 15, 16, 17, 18, 19, 20, 21, 22, 23, 24, 25, 26, 27, 28, 29, 30, 31, 32, 33, 34, 35, 36, 37, 38, 39, 40, 41, 42, 43, 44, 45, 46, 47, 48, 49, 50, 51, 52, 53, 54, 55, 56, 57, 58, 59, 60, 61, 62, 63, 64, 65, 66, 67, 68, 69, 70, 71, 72, 73, 74, 75, 76, 77, 78, 79, 80, 81, 82, 83, 84, 85, 86, 87, 88, 89, 90, 91, 92, 93, 94, 95, 96, 97, 98, 99, 100, 101, 102, 103, 104, 105, 106, 107, 108, 109, 110, 111, 112, 113, 114, 115, 116, 117, 118, 119, 120, 121, 122, 123, 124, 125, 126, 127, 128, 129, 130, 131, 132, 133, 134, 135, 136, 137, 138, 139, 140, 141, 142, 143, 144, 145, 146, 147, 148, 149, 150, 151, 152, 153, 154, 155, 156, 157, 158, 159, 160, 161, 162, 163, 164, 165, 166, 167, 168, 169, 170, 171, 172, 173, 174, 175, 176, 177, 178, 179, 180, 181, 182, 183, 184, 185, 186, 187, 188, 189, 190, 191, 192, 193, 194, 195, 196, 197, 198, 199, 200],
      "AcquisitionTime": ["094742.735000", "094744.735000", "094746.735000", "094748.735000", "094750.735000", "094752.735000", "094754.735000", "094756.735000", "094758.735000", "094800.735000", "094802.735000", "094804.735000", "094806.735000", "094808.735000", "094810.735000", "094812.735000", "094814.735000", "094816.735000", "094818.735000", "094820.735000", "094822.735000", "094824.735000", "094826.735000", "094828.735000", "094830.735000", "094832.735000", "094834.735000", "094836.735000", "094838.735000", "094840.735000", "094842.735000", "094844.735000", "094846.735000", "094848.735000", "094850.735000", "094852.735000", "094854.735000", "094856.735000", "094858.735000", "094900.735000", "094902.735000", "094904.735000", "094906.735000", "094908.735000", "094910.735000", "094912.735000", "094914.735000", "094916.735000", "094918.735000", "094920.735000", "094922.735000", "094924.735000", "094926.735000", "094928.735000", "094930.735000", "094932.735000", "094934.735000", "094936.735000", "094938.735000", "094940.735000", "094942.735000", "094944.735000", "094946.735000", "094948.735000", "094950.735000", "094952.735000", "094954.735000", "094956.735000", "094958.735000", "095000.735000", "095002.735000", "095004.735000", "095006.735000", "095008.735000", "095010.735000", "095012.735000", "095014.735000", "095016.735000", "095018.735000", "095020.735000", "095022.735000", "095024.735000", "095026.735000", "095028.735000", "095030.735000", "095032.735000", "095034.735000", "095036.735000", "095038.735000", "095040.735000", "095042.735000", "095044.735000", "095046.735000", "095048.735000", "095050.735000", "095052.735000", "095054.735000", "095056.735000", "095058.735000", "095100.735000", "095102.735000", "095104.735000", "095106.735000", "095108.735000", "095110.735000", "095112.735000", "095114.735000", "095116.735000", "095118.735000", "095120.735000", "095122.735000", "095124.735000", "095126.735000", "095128.735000", "095130.735000", "095132.735000", "095134.735000", "095136.735000", "095138.735000", "095140.735000", "095142.735000", "095144.735000", "095146.735000", "095148.735000", "095150.735000", "095152.735000", "095154.735000", "095156.735000", "095158.735000", "095200.735000", "095202.735000", "095204.735000", "095206.735000", "095208.735000", "095210.735000", "095212.735000", "095214.735000", "095216.735000", "095218.735000", "095220.735000", "095222.735000", "095224.735000", "095226.735000", "095228.735000", "095230.735000", "095232.735000", "095234.735000", "095236.735000", "095238.735000", "095240.735000", "095242.735000", "095244.735000", "095246.735000", "095248.735000", "095250.735000", "095252.735000", "095254.735000", "095256.735000", "095258.735000", "095300.735000", "095302.735000", "095304.735000", "095306.735000", "095308.735000", "095310.735000", "095312.735000", "095314.735000", "095316.735000", "095318.735000", "095320.735000", "095322.735000", "095324.735000", "095326.735000", "095328.735000", "095330.735000", "095332.735000", "095334.735000", "095336.735000", "095338.735000", "095340.735000", "095342.735000", "095344.735000", "095346.735000", "095348.735000", "095350.735000", "095352.735000", "095354.735000", "095356.735000", "095358.735000", "095400.735000", "095402.735000", "095404.735000", "095406.735000", "095408.735000", "095410.735000", "095412.735000", "095414.735000", "095416.735000", "095418.735000", "095420.735000"],
      "ContentTime": ["094827.822000", "094827.825000", "094827.828000", "094827.830000", "094827.832000", "094827.835000", "094827.837000", "094827.839000", "094827.842000", "094827.844000", "094827.846000", "094827.849000", "094827.851000", "094827.853000", "094827.856000", "094827.858000", "094827.860000", "094827.863000", "094827.870000", "094827.872000", "094827.875000", "094827.877000", "094907.817000", "094907.820000", "094907.823000", "094907.825000", "094907.827000", "094907.830000", "094907.832000", "094907.834000", "094907.837000", "094907.839000", "094907.841000", "094907.844000", "094907.846000", "094907.848000", "094907.851000", "094907.853000", "094907.855000", "094907.858000", "094907.860000", "094907.862000", "094947.817000", "094947.820000", "094947.822000", "094947.825000", "094947.827000", "094947.829000", "094947.832000", "094947.834000", "094947.836000", "094947.838000", "094947.841000", "094947.843000", "094947.845000", "094947.848000", "094947.850000", "094947.852000", "094947.855000", "094947.857000", "094947.859000", "094947.862000", "095027.817000", "095027.825000", "095027.827000", "095027.830000", "095027.832000", "095027.834000", "095027.836000", "095027.839000", "095027.841000", "095027.843000", "095027.846000", "095027.848000", "095027.850000", "095027.853000", "095027.855000", "095027.858000", "095027.860000", "095027.862000", "095027.865000", "095027.867000", "095107.817000", "095107.822000", "095107.824000", "095107.826000", "095107.829000", "095107.831000", "095107.833000", "095107.836000", "095107.838000", "095107.840000", "095107.843000", "095107.845000", "095107.847000", "095107.850000", "095107.852000", "095107.854000", "095107.856000", "095107.859000", "095107.861000", "095107.864000", "095147.817000", "095147.820000", "095147.822000", "095147.825000", "095147.827000", "095147.829000", "095147.832000", "095147.834000", "095147.837000", "095147.839000", "095147.841000", "095147.844000", "095147.846000", "095147.848000", "095147.850000", "095147.853000", "095147.855000", "095147.858000", "095147.860000", "095147.862000", "095227.817000", "095227.820000", "095227.822000", "095227.824000", "095227.827000", "095227.829000", "095227.831000", "095227.834000", "095227.836000", "095227.838000", "095227.841000", "095227.843000", "095227.846000", "095227.848000", "095227.850000", "095227.853000", "095227.855000", "095227.857000", "095227.860000", "095227.862000", "095307.817000", "095307.820000", "095307.822000", "095307.825000", "095307.827000", "095307.829000", "095307.832000", "095307.834000", "095307.837000", "095307.839000", "095307.841000", "095307.844000", "095307.846000", "095307.848000", "095307.851000", "095307.853000", "095307.855000", "095307.858000", "095307.860000", "095307.862000", "095347.817000", "095347.820000", "095347.822000", "095347.825000", "095347.827000", "095347.830000", "095347.832000", "095347.834000", "095347.837000", "095347.839000", "095347.841000", "095347.844000", "095347.846000", "095347.849000", "095347.851000", "095347.854000", "095347.856000", "095347.858000", "095347.861000", "095347.863000", "095422.288000", "095422.298000", "095422.301000", "095422.304000", "095422.307000", "095422.313000", "095422.316000", "095422.320000", "095422.323000", "095422.327000", "095422.330000", "095422.332000", "095422.335000", "095422.337000", "095422.339000", "095422.342000", "095422.344000", "095422.347000"],
      "InstanceCreationTime": ["094827.822000", "094827.825000", "094827.828000", "094827.830000", "094827.832000", "094827.835000", "094827.837000", "094827.839000", "094827.842000", "094827.844000", "094827.846000", "094827.849000", "094827.851000", "094827.853000", "094827.856000", "094827.858000", "094827.860000", "094827.863000", "094827.870000", "094827.872000", "094827.875000", "094827.877000", "094907.817000", "094907.820000", "094907.823000", "094907.825000", "094907.827000", "094907.830000", "094907.832000", "094907.834000", "094907.837000", "094907.839000", "094907.841000", "094907.844000", "094907.846000", "094907.848000", "094907.851000", "094907.853000", "094907.855000", "094907.858000", "094907.860000", "094907.862000", "094947.817000", "094947.820000", "094947.822000", "094947.825000", "094947.827000", "094947.829000", "094947.832000", "094947.834000", "094947.836000", "094947.838000", "094947.841000", "094947.843000", "094947.845000", "094947.848000", "094947.850000", "094947.852000", "094947.855000", "094947.857000", "094947.859000", "094947.862000", "095027.817000", "095027.825000", "095027.827000", "095027.830000", "095027.832000", "095027.834000", "095027.836000", "095027.839000", "095027.841000", "095027.843000", "095027.846000", "095027.848000", "095027.850000", "095027.853000", "095027.855000", "095027.858000", "095027.860000", "095027.862000", "095027.865000", "095027.867000", "095107.817000", "095107.822000", "095107.824000", "095107.826000", "095107.829000", "095107.831000", "095107.833000", "095107.836000", "095107.838000", "095107.840000", "095107.843000", "095107.845000", "095107.847000", "095107.850000", "095107.852000", "095107.854000", "095107.856000", "095107.859000", "095107.861000", "095107.864000", "095147.817000", "095147.820000", "095147.822000", "095147.825000", "095147.827000", "095147.829000", "095147.832000", "095147.834000", "095147.837000", "095147.839000", "095147.841000", "095147.844000", "095147.846000", "095147.848000", "095147.850000", "095147.853000", "095147.855000", "095147.858000", "095147.860000", "095147.862000", "095227.817000", "095227.820000", "095227.822000", "095227.824000", "095227.827000", "095227.829000", "095227.831000", "095227.834000", "095227.836000", "095227.838000", "095227.841000", "095227.843000", "095227.846000", "095227.848000", "095227.850000", "095227.853000", "095227.855000", "095227.857000", "095227.860000", "095227.862000", "095307.817000", "095307.820000", "095307.822000", "095307.825000", "095307.827000", "095307.829000", "095307.832000", "095307.834000", "095307.837000", "095307.839000", "095307.841000", "095307.844000", "095307.846000", "095307.848000", "095307.851000", "095307.853000", "095307.855000", "095307.858000", "095307.860000", "095307.862000", "095347.817000", "095347.820000", "095347.822000", "095347.825000", "095347.827000", "095347.830000", "095347.832000", "095347.834000", "095347.837000", "095347.839000", "095347.841000", "095347.844000", "095347.846000", "095347.849000", "095347.851000", "095347.854000", "095347.856000", "095347.858000", "095347.861000", "095347.863000", "095422.288000", "095422.298000", "095422.301000", "095422.304000", "095422.307000", "095422.313000", "095422.316000", "095422.320000", "095422.323000", "095422.327000", "095422.330000", "095422.332000", "095422.335000", "095422.337000", "095422.339000", "095422.342000", "095422.344000", "095422.347000"],
      "InstanceNumber": [1, 2, 3, 4, 5, 6, 7, 8, 9, 10, 11, 12, 13, 14, 15, 16, 17, 18, 19, 20, 21, 22, 23, 24, 25, 26, 27, 28, 29, 30, 31, 32, 33, 34, 35, 36, 37, 38, 39, 40, 41, 42, 43, 44, 45, 46, 47, 48, 49, 50, 51, 52, 53, 54, 55, 56, 57, 58, 59, 60, 61, 62, 63, 64, 65, 66, 67, 68, 69, 70, 71, 72, 73, 74, 75, 76, 77, 78, 79, 80, 81, 82, 83, 84, 85, 86, 87, 88, 89, 90, 91, 92, 93, 94, 95, 96, 97, 98, 99, 100, 101, 102, 103, 104, 105, 106, 107, 108, 109, 110, 111, 112, 113, 114, 115, 116, 117, 118, 119, 120, 121, 122, 123, 124, 125, 126, 127, 128, 129, 130, 131, 132, 133, 134, 135, 136, 137, 138, 139, 140, 141, 142, 143, 144, 145, 146, 147, 148, 149, 150, 151, 152, 153, 154, 155, 156, 157, 158, 159, 160, 161, 162, 163, 164, 165, 166, 167, 168, 169, 170, 171, 172, 173, 174, 175, 176, 177, 178, 179, 180, 181, 182, 183, 184, 185, 186, 187, 188, 189, 190, 191, 192, 193, 194, 195, 196, 197, 198, 199, 200],
      "LargestImagePixelValue": [2151, 2140, 2148, 2144, 2157, 2144, 2146, 2145, 2143, 2147, 2143, 2141, 2151, 2145, 2139, 2148, 2148, 2139, 2146, 2148, 2144, 2142, 2138, 2145, 2148, 2151, 2136, 2142, 2138, 2143, 2142, 2140, 2142, 2143, 2145, 2146, 2143, 2144, 2146, 2149, 2139, 2141, 2146, 2142, 2138, 2143, 2144, 2134, 2144, 2141, 2136, 2143, 2135, 2138, 2142, 2143, 2134, 2136, 2139, 2141, 2134, 2137, 2141, 2135, 2140, 2131, 2143, 2139, 2137, 2139, 2135, 2138, 2139, 2134, 2139, 2133, 2134, 2137, 2131, 2134, 2135, 2142, 2138, 2136, 2141, 2132, 2138, 2134, 2133, 2134, 2141, 2126, 2135, 2141, 2143, 2132, 2138, 2134, 2130, 2130, 2127, 2139, 2137, 2127, 2133, 2135, 2132, 2134, 2132, 2130, 2131, 2133, 2134, 2132, 2136, 2135, 2134, 2137, 2130, 2131, 2129, 2131, 2131, 2132, 2136, 2135, 2128, 2129, 2136, 2127, 2127, 2131, 2134, 2129, 2130, 2132, 2130, 2137, 2131, 2131, 2132, 2127, 2133, 2131, 2131, 2134, 2127, 2134, 2128, 2133, 2131, 2134, 2133, 2127, 2129, 2131, 2128, 2129, 2132, 2124, 2129, 2131, 2127, 2124, 2134, 2128, 2129, 2132, 2131, 2128, 2126, 2125, 2128, 2125, 2131, 2133, 2127, 2125, 2131, 2123, 2129, 2131, 2125, 2123, 2127, 2127, 2126, 2125, 2124, 2124, 2130, 2126, 2132, 2126, 2133, 2131, 2127, 2124, 2124, 2124],
      "WindowCenter": [1019.0, 1019.0, 1019.0, 1019.0, 1019.0, 1019.0, 1019.0, 1019.0, 1019.0, 1019.0, 1019.0, 1019.0, 1019.0, 1019.0, 1019.0, 1019.0, 1019.0, 1019.0, 1019.0, 1019.0, 1019.0, 1019.0, 1019.0, 1019.0, 1019.0, 1019.0, 1019.0, 1019.0, 1019.0, 1019.0, 1019.0, 1019.0, 1019.0, 1019.0, 1019.0, 1019.0, 1019.0, 1019.0, 1019.0, 1019.0, 1019.0, 1019.0, 1019.0, 1019.0, 1019.0, 1019.0, 1019.0, 1019.0, 1019.0, 1019.0, 1019.0, 1019.0, 1019.0, 1019.0, 1019.0, 1019.0, 1019.0, 1019.0, 1019.0, 1019.0, 1019.0, 1019.0, 1018.0, 1019.0, 1019.0, 1019.0, 1019.0, 1019.0, 1019.0, 1019.0, 1019.0, 1019.0, 1019.0, 1018.0, 1018.0, 1019.0, 1018.0, 1018.0, 1018.0, 1018.0, 1018.0, 1018.0, 1018.0, 1018.0, 1018.0, 1018.0, 1018.0, 1018.0, 1018.0, 1018.0, 1018.0, 1018.0, 1018.0, 1018.0, 1018.0, 1018.0, 1018.0, 1018.0, 1018.0, 1018.0, 1018.0, 1018.0, 1018.0, 1018.0, 1018.0, 1018.0, 1018.0, 1018.0, 1018.0, 1018.0, 1018.0, 1018.0, 1018.0, 1018.0, 1018.0, 1018.0, 1018.0, 1018.0, 1018.0, 1018.0, 1018.0, 1018.0, 1018.0, 1018.0, 1018.0, 1018.0, 1018.0, 1018.0, 1018.0, 1018.0, 1018.0, 1018.0, 1018.0, 1018.0, 1018.0, 1018.0, 1018.0, 1018.0, 1018.0, 1018.0, 1018.0, 1018.0, 1018.0, 1018.0, 1018.0, 1018.0, 1018.0, 1018.0, 1018.0, 1018.0, 1018.0, 1018.0, 1018.0, 1018.0, 1018.0, 1018.0, 1018.0, 1018.0, 1018.0, 1018.0, 1018.0, 1018.0, 1018.0, 1018.0, 1018.0, 1018.0, 1018.0, 1018.0, 1018.0, 1018.0, 1018.0, 1018.0, 1018.0, 1018.0, 1018.0, 1018.0, 1018.0, 1018.0, 1018.0, 1018.0, 1018.0, 1018.0, 1018.0, 1018.0, 1018.0, 1018.0, 1018.0, 1018.0, 1018.0, 1018.0, 1018.0, 1018.0, 1018.0, 1018.0, 1018.0, 1018.0, 1018.0, 1018.0, 1018.0, 1018.0],
      "WindowWidth": [2263.0, 2262.0, 2262.0, 2262.0, 2262.0, 2262.0, 2262.0, 2262.0, 2262.0, 2262.0, 2262.0, 2262.0, 2262.0, 2262.0, 2262.0, 2262.0, 2262.0, 2262.0, 2262.0, 2262.0, 2262.0, 2262.0, 2262.0, 2262.0, 2262.0, 2262.0, 2262.0, 2262.0, 2262.0, 2262.0, 2262.0, 2261.0, 2262.0, 2261.0, 2261.0, 2261.0, 2261.0, 2261.0, 2261.0, 2261.0, 2261.0, 2261.0, 2261.0, 2261.0, 2261.0, 2261.0, 2261.0, 2261.0, 2261.0, 2261.0, 2261.0, 2261.0, 2261.0, 2261.0, 2261.0, 2261.0, 2261.0, 2261.0, 2261.0, 2261.0, 2261.0, 2261.0, 2261.0, 2261.0, 2261.0, 2261.0, 2261.0, 2261.0, 2261.0, 2261.0, 2261.0, 2261.0, 2261.0, 2260.0, 2261.0, 2261.0, 2261.0, 2261.0, 2261.0, 2260.0, 2260.0, 2260.0, 2260.0, 2260.0, 2260.0, 2260.0, 2260.0, 2260.0, 2260.0, 2260.0, 2260.0, 2260.0, 2261.0, 2260.0, 2260.0, 2260.0, 2260.0, 2260.0, 2260.0, 2260.0, 2260.0, 2260.0, 2260.0, 2260.0, 2260.0, 2260.0, 2260.0, 2260.0, 2260.0, 2260.0, 2260.0, 2260.0, 2260.0, 2260.0, 2260.0, 2260.0, 2260.0, 2260.0, 2260.0, 2260.0, 2260.0, 2260.0, 2260.0, 2260.0, 2260.0, 2260.0, 2260.0, 2260.0, 2260.0, 2260.0, 2260.0, 2260.0, 2260.0, 2260.0, 2259.0, 2259.0, 2260.0, 2259.0, 2260.0, 2259.0, 2260.0, 2260.0, 2260.0, 2259.0, 2260.0, 2259.0, 2259.0, 2259.0, 2259.0, 2259.0, 2259.0, 2259.0, 2259.0, 2259.0, 2259.0, 2259.0, 2259.0, 2259.0, 2259.0, 2259.0, 2259.0, 2259.0, 2259.0, 2259.0, 2259.0, 2259.0, 2259.0, 2259.0, 2259.0, 2259.0, 2259.0, 2259.0, 2259.0, 2259.0, 2259.0, 2259.0, 2259.0, 2259.0, 2259.0, 2259.0, 2259.0, 2258.0, 2259.0, 2259.0, 2259.0, 2259.0, 2258.0, 2259.0, 2259.0, 2259.0, 2259.0, 2259.0, 2259.0, 2259.0, 2259.0, 2259.0, 2258.0, 2259.0, 2258.0, 2258.0]
    },
    "slices": {}
  }
}