{
  "AcquisitionMatrixPE": 80,
  "AcquisitionNumber": 1,
  "AcquisitionTime": "09:58:3.417500",
  "BandwidthPerPixelPhaseEncode": 25,
  "BaseResolution": 80,
  "BodyPartExamined": "BRAIN",
  "CoilCombinationMethod": "Sum of Squares",
  "ConsistencyInfo": "N4_VE11E_LATEST_20181129",
  "ConversionSoftware": "dcm2niix",
  "ConversionSoftwareVersion": "v1.0.20220720",
  "DerivedVendorReportedEchoSpacing": 0.0005,
  "DeviceSerialNumber": "66112",
  "DwellTime": 2.7e-06,
  "EchoTime": 0.03,
  "EchoTrainLength": 80,
  "EffectiveEchoSpacing": 0.0005,
  "FlipAngle": 77,
  "HeudiconvVersion": "0.13.1",
  "ImageOrientationPatientDICOM": [0.98699, 0.160612, 0.00733904, -0.155441, 0.941561, 0.298834],
  "ImageOrientationText": "Tra>Cor(17.2)>Sag(-2.4)",
  "ImageType": [
    "ORIGINAL",
    "PRIMARY",
    "M",
    "ND",
    "NORM",
    "MOSAIC"
],
  "ImagingFrequency": 123.261,
  "InPlanePhaseEncodingDirectionDICOM": "COL",
  "InstitutionAddress": "Maynard 3,Hanover,NH,US,03755",
  "InstitutionName": "Dartmouth College - PBS",
  "InstitutionalDepartmentName": "Department",
  "MRAcquisitionType": "2D",
  "MagneticFieldStrength": 3,
  "Manufacturer": "Siemens",
  "ManufacturersModelName": "Prisma",
  "MatrixCoilMode": "SENSE",
  "Modality": "MR",
  "NonlinearGradientCorrection": false,
  "PartialFourier": 1,
  "PatientPosition": "HFS",
  "PercentPhaseFOV": 100,
  "PercentSampling": 100,
  "PhaseEncodingDirection": "j-",
  "PhaseEncodingSteps": 80,
  "PhaseResolution": 1,
  "PixelBandwidth": 2315,
  "ProcedureStepDescription": "dbic^QA",
  "ProtocolName": "func-bold_fa-77",
  "PulseSequenceDetails": "%SiemensSeq%\\ep2d_bold",
  "ReceiveCoilActiveElements": "HEA;HEP",
  "ReceiveCoilName": "Head_32",
  "ReconMatrixPE": 80,
  "RepetitionTime": 2,
  "SAR": 0.0368349,
  "ScanOptions": "FS",
  "ScanningSequence": "EP",
  "SequenceName": "*epfid2d1_80",
  "SequenceVariant": "SK",
  "SeriesDescription": "func-bold_fa-77",
  "SeriesNumber": 7,
  "ShimSetting": [4247, -7746, -7494, -48, -176, -83, 38, 85],
  "SliceThickness": 3.5,
  "SliceTiming": [0.99, 0, 1.0575, 0.0675, 1.1225, 0.1325, 1.1875, 0.1975, 1.255, 0.265, 1.32, 0.33, 1.3875, 0.3975, 1.4525, 0.4625, 1.5175, 0.5275, 1.585, 0.595, 1.65, 0.66, 1.7175, 0.7275, 1.7825, 0.7925, 1.8475, 0.8575, 1.915, 0.925],
  "SoftwareVersions": "syngo MR E11",
  "SpacingBetweenSlices": 3.99,
  "StationName": "AWP66112",
  "TotalReadoutTime": 0.0395,
  "TxRefAmp": 220.071,
  "dcmmeta_affine": [
    [-2.9609711170196533, -0.4663233757019043, -0.1639336496591568, 141.7378387451172],
    [-0.48183539509773254, 2.824681520462036, 1.1813877820968628, -108.81024169921875],
    [0.022017130628228188, -0.8965022563934326, 3.8075647354125977, -23.632596969604492],
    [0.0, 0.0, 0.0, 1.0]
],
  "dcmmeta_reorient_transform": [
    [0.0, -1.0, 0.0, 79.0],
    [1.0, 0.0, 0.0, 0.0],
    [0.0, 0.0, 1.0, 0.0],
    [0.0, 0.0, 0.0, 1.0]
],
  "dcmmeta_shape": [80, 80, 30, 200],
  "dcmmeta_slice_dim": 2,
  "dcmmeta_version": 0.6,
  "global": {
    "const": {
      "AccessionNumber": "qa",
      "AcquisitionMatrix": [80, 0, 0, 80],
      "AngioFlag": "N",
      "BitsAllocated": 16,
      "BitsStored": 12,
      "BodyPartExamined": "BRAIN",
      "Columns": 480,
      "EchoNumbers": 1,
      "EchoTime": 30.0,
      "EchoTrainLength": 80,
      "FlipAngle": 77.0,
      "HighBit": 11,
      "ImageOrientationPatient": [0.98699036872886, 0.16061180054107, 0.00733904376855, -0.1554411214019, 0.94156053773511, 0.29883408700697],
      "ImagePositionPatient": [-603.82783571897, -775.64300964528, -278.1601540363],
      "ImageType": [
        "ORIGINAL",
        "PRIMARY",
        "M",
        "ND",
        "NORM",
        "MOSAIC"
],
      "ImagedNucleus": "1H",
      "ImagingFrequency": 123.261241,
      "InPlanePhaseEncodingDirection": "COL",
      "MRAcquisitionType": "2D",
      "MagneticFieldStrength": 3.0,
      "Manufacturer": "SIEMENS",
      "ManufacturerModelName": "Prisma",
      "Modality": "MR",
      "NumberOfAverages": 1.0,
      "NumberOfPhaseEncodingSteps": 80,
      "PercentPhaseFieldOfView": 100.0,
      "PercentSampling": 100.0,
      "PerformedProcedureStepStartTime": "094214.195000",
      "PhotometricInterpretation": "MONOCHROME2",
      "PixelBandwidth": 2315.0,
      "PixelRepresentation": 0,
      "PixelSpacing": [3.0, 3.0],
      "ProtocolName": "func-bold_fa-77",
      "RepetitionTime": 2000.0,
      "Rows": 480,
      "SAR": 0.0368349493626,
      "SamplesPerPixel": 1,
      "ScanOptions": "FS",
      "ScanningSequence": "EP",
      "SequenceName": "*epfid2d1_80",
      "SequenceVariant": "SK",
      "SeriesDescription": "func-bold_fa-77",
      "SeriesNumber": 7,
      "SeriesTime": "095843.781000",
      "SliceLocation": -60.592813621742,
      "SliceThickness": 3.5,
      "SmallestImagePixelValue": 0,
      "SoftwareVersions": "syngo MR E11",
      "SpacingBetweenSlices": 3.9900000232313,
      "SpecificCharacterSet": "ISO_IR 100",
      "StudyID": "46",
      "StudyTime": "094214.109000",
      "TransmitCoilName": "Body",
      "VariableFlipAngleFlag": "N",
      "WindowCenterWidthExplanation": "Algo1"
    },
    "slices": {}
  },
  "time": {
    "samples": {
      "AcquisitionNumber": [1, 2, 3, 4, 5, 6, 7, 8, 9, 10, 11, 12, 13, 14, 15, 16, 17, 18, 19, 20, 21, 22, 23, 24, 25, 26, 27, 28, 29, 30, 31, 32, 33, 34, 35, 36, 37, 38, 39, 40, 41, 42, 43, 44, 45, 46, 47, 48, 49, 50, 51, 52, 53, 54, 55, 56, 57, 58, 59, 60, 61, 62, 63, 64, 65, 66, 67, 68, 69, 70, 71, 72, 73, 74, 75, 76, 77, 78, 79, 80, 81, 82, 83, 84, 85, 86, 87, 88, 89, 90, 91, 92, 93, 94, 95, 96, 97, 98, 99, 100, 101, 102, 103, 104, 105, 106, 107, 108, 109, 110, 111, 112, 113, 114, 115, 116, 117, 118, 119, 120, 121, 122, 123, 124, 125, 126, 127, 128, 129, 130, 131, 132, 133, 134, 135, 136, 137, 138, 139, 140, 141, 142, 143, 144, 145, 146, 147, 148, 149, 150, 151, 152, 153, 154, 155, 156, 157, 158, 159, 160, 161, 162, 163, 164, 165, 166, 167, 168, 169, 170, 171, 172, 173, 174, 175, 176, 177, 178, 179, 180, 181, 182, 183, 184, 185, 186, 187, 188, 189, 190, 191, 192, 193, 194, 195, 196, 197, 198, 199, 200],
      "AcquisitionTime": ["095803.417500", "095805.417500", "095807.417500", "095809.417500", "095811.417500", "095813.417500", "095815.417500", "095817.417500", "095819.417500", "095821.417500", "095823.417500", "095825.417500", "095827.417500", "095829.417500", "095831.417500", "095833.417500", "095835.417500", "095837.417500", "095839.417500", "095841.417500", "095843.417500", "095845.417500", "095847.417500", "095849.417500", "095851.417500", "095853.417500", "095855.417500", "095857.417500", "095859.417500", "095901.417500", "095903.417500", "095905.417500", "095907.417500", "095909.417500", "095911.417500", "095913.417500", "095915.417500", "095917.417500", "095919.417500", "095921.417500", "095923.417500", "095925.417500", "095927.417500", "095929.417500", "095931.417500", "095933.417500", "095935.417500", "095937.417500", "095939.417500", "095941.417500", "095943.417500", "095945.417500", "095947.417500", "095949.417500", "095951.417500", "095953.417500", "095955.417500", "095957.417500", "095959.417500", "100001.417500", "100003.417500", "100005.417500", "100007.417500", "100009.417500", "100011.417500", "100013.417500", "100015.417500", "100017.417500", "100019.417500", "100021.417500", "100023.417500", "100025.417500", "100027.417500", "100029.417500", "100031.417500", "100033.417500", "100035.417500", "100037.417500", "100039.417500", "100041.417500", "100043.417500", "100045.417500", "100047.417500", "100049.417500", "100051.417500", "100053.417500", "100055.417500", "100057.417500", "100059.417500", "100101.417500", "100103.417500", "100105.417500", "100107.417500", "100109.417500", "100111.417500", "100113.417500", "100115.417500", "100117.417500", "100119.417500", "100121.417500", "100123.417500", "100125.417500", "100127.417500", "100129.417500", "100131.417500", "100133.417500", "100135.417500", "100137.417500", "100139.417500", "100141.417500", "100143.417500", "100145.417500", "100147.417500", "100149.417500", "100151.417500", "100153.417500", "100155.417500", "100157.417500", "100159.417500", "100201.417500", "100203.417500", "100205.417500", "100207.417500", "100209.417500", "100211.417500", "100213.417500", "100215.417500", "100217.417500", "100219.417500", "100221.417500", "100223.417500", "100225.417500", "100227.417500", "100229.417500", "100231.417500", "100233.417500", "100235.417500", "100237.417500", "100239.417500", "100241.417500", "100243.417500", "100245.417500", "100247.417500", "100249.417500", "100251.417500", "100253.417500", "100255.417500", "100257.417500", "100259.417500", "100301.417500", "100303.417500", "100305.417500", "100307.417500", "100309.417500", "100311.417500", "100313.417500", "100315.417500", "100317.417500", "100319.417500", "100321.417500", "100323.417500", "100325.417500", "100327.417500", "100329.417500", "100331.417500", "100333.417500", "100335.417500", "100337.417500", "100339.417500", "100341.417500", "100343.417500", "100345.417500", "100347.417500", "100349.417500", "100351.417500", "100353.417500", "100355.417500", "100357.417500", "100359.417500", "100401.417500", "100403.417500", "100405.417500", "100407.417500", "100409.417500", "100411.417500", "100413.417500", "100415.417500", "100417.417500", "100419.417500", "100421.417500", "100423.417500", "100425.417500", "100427.417500", "100429.417500", "100431.417500", "100433.417500", "100435.417500", "100437.417500", "100439.417500", "100441.417500"],
      "ContentTime": ["095843.785000", "095843.788000", "095843.804000", "095843.806000", "095843.808000", "095843.811000", "095843.813000", "095843.815000", "095843.818000", "095843.820000", "095843.822000", "095843.826000", "095843.828000", "095843.831000", "095843.833000", "095843.839000", "095843.841000", "095843.843000", "095843.845000", "095843.848000", "095923.743000", "095923.746000", "095923.748000", "095923.751000", "095923.753000", "095923.755000", "095923.757000", "095923.760000", "095923.762000", "095923.764000", "095923.767000", "095923.769000", "095923.771000", "095923.773000", "095923.776000", "095923.778000", "095923.780000", "095923.782000", "095923.785000", "095923.787000", "100003.743000", "100003.746000", "100003.748000", "100003.750000", "100003.753000", "100003.755000", "100003.766000", "100003.768000", "100003.770000", "100003.772000", "100003.775000", "100003.777000", "100003.779000", "100003.782000", "100003.784000", "100003.786000", "100003.788000", "100003.791000", "100003.793000", "100003.795000", "100043.743000", "100043.746000", "100043.748000", "100043.750000", "100043.753000", "100043.755000", "100043.757000", "100043.760000", "100043.762000", "100043.764000", "100043.766000", "100043.769000", "100043.771000", "100043.773000", "100043.775000", "100043.778000", "100043.780000", "100043.782000", "100043.785000", "100043.787000", "100123.743000", "100123.746000", "100123.748000", "100123.750000", "100123.753000", "100123.755000", "100123.757000", "100123.759000", "100123.762000", "100123.764000", "100123.766000", "100123.769000", "100123.771000", "100123.776000", "100123.779000", "100123.781000", "100123.783000", "100123.786000", "100123.788000", "100123.790000", "100203.743000", "100203.746000", "100203.748000", "100203.750000", "100203.753000", "100203.755000", "100203.757000", "100203.759000", "100203.762000", "100203.764000", "100203.766000", "100203.769000", "100203.771000", "100203.773000", "100203.775000", "100203.778000", "100203.780000", "100203.782000", "100203.785000", "100203.787000", "100243.742000", "100243.745000", "100243.747000", "100243.749000", "100243.752000", "100243.754000", "100243.756000", "100243.759000", "100243.761000", "100243.763000", "100243.765000", "100243.768000", "100243.770000", "100243.772000", "100243.774000", "100243.777000", "100243.779000", "100243.781000", "100243.784000", "100243.786000", "100323.743000", "100323.746000", "100323.748000", "100323.750000", "100323.753000", "100323.755000", "100323.757000", "100323.759000", "100323.762000", "100323.764000", "100323.766000", "100323.769000", "100323.771000", "100323.773000", "100323.775000", "100323.778000", "100323.781000", "100323.784000", "100323.786000", "100323.788000", "100403.743000", "100403.746000", "100403.748000", "100403.750000", "100403.753000", "100403.755000", "100403.757000", "100403.760000", "100403.762000", "100403.764000", "100403.766000", "100403.769000", "100403.771000", "100403.773000", "100403.776000", "100403.778000", "100403.780000", "100403.783000", "100403.785000", "100403.787000", "100443.227000", "100443.230000", "100443.232000", "100443.234000", "100443.237000", "100443.239000", "100443.241000", "100443.244000", "100443.246000", "100443.248000", "100443.251000", "100443.253000", "100443.255000", "100443.262000", "100443.264000", "100443.269000", "100443.271000", "100443.281000", "100443.292000", "100443.298000"],
      "InstanceCreationTime": ["095843.785000", "095843.788000", "095843.804000", "095843.806000", "095843.808000", "095843.811000", "095843.813000", "095843.815000", "095843.818000", "095843.820000", "095843.822000", "095843.826000", "095843.828000", "095843.831000", "095843.833000", "095843.839000", "095843.841000", "095843.843000", "095843.845000", "095843.848000", "095923.743000", "095923.746000", "095923.748000", "095923.751000", "095923.753000", "095923.755000", "095923.757000", "095923.760000", "095923.762000", "095923.764000", "095923.767000", "095923.769000", "095923.771000", "095923.773000", "095923.776000", "095923.778000", "095923.780000", "095923.782000", "095923.785000", "095923.787000", "100003.743000", "100003.746000", "100003.748000", "100003.750000", "100003.753000", "100003.755000", "100003.766000", "100003.768000", "100003.770000", "100003.772000", "100003.775000", "100003.777000", "100003.779000", "100003.782000", "100003.784000", "100003.786000", "100003.788000", "100003.791000", "100003.793000", "100003.795000", "100043.743000", "100043.746000", "100043.748000", "100043.750000", "100043.753000", "100043.755000", "100043.757000", "100043.760000", "100043.762000", "100043.764000", "100043.766000", "100043.769000", "100043.771000", "100043.773000", "100043.775000", "100043.778000", "100043.780000", "100043.782000", "100043.785000", "100043.787000", "100123.743000", "100123.746000", "100123.748000", "100123.750000", "100123.753000", "100123.755000", "100123.757000", "100123.759000", "100123.762000", "100123.764000", "100123.766000", "100123.769000", "100123.771000", "100123.776000", "100123.779000", "100123.781000", "100123.783000", "100123.786000", "100123.788000", "100123.790000", "100203.743000", "100203.746000", "100203.748000", "100203.750000", "100203.753000", "100203.755000", "100203.757000", "100203.759000", "100203.762000", "100203.764000", "100203.766000", "100203.769000", "100203.771000", "100203.773000", "100203.775000", "100203.778000", "100203.780000", "100203.782000", "100203.785000", "100203.787000", "100243.742000", "100243.745000", "100243.747000", "100243.749000", "100243.752000", "100243.754000", "100243.756000", "100243.759000", "100243.761000", "100243.763000", "100243.765000", "100243.768000", "100243.770000", "100243.772000", "100243.774000", "100243.777000", "100243.779000", "100243.781000", "100243.784000", "100243.786000", "100323.743000", "100323.746000", "100323.748000", "100323.750000", "100323.753000", "100323.755000", "100323.757000", "100323.759000", "100323.762000", "100323.764000", "100323.766000", "100323.769000", "100323.771000", "100323.773000", "100323.775000", "100323.778000", "100323.781000", "100323.784000", "100323.786000", "100323.788000", "100403.743000", "100403.746000", "100403.748000", "100403.750000", "100403.753000", "100403.755000", "100403.757000", "100403.760000", "100403.762000", "100403.764000", "100403.766000", "100403.769000", "100403.771000", "100403.773000", "100403.776000", "100403.778000", "100403.780000", "100403.783000", "100403.785000", "100403.787000", "100443.227000", "100443.230000", "100443.232000", "100443.234000", "100443.237000", "100443.239000", "100443.241000", "100443.244000", "100443.246000", "100443.248000", "100443.251000", "100443.253000", "100443.255000", "100443.262000", "100443.264000", "100443.269000", "100443.271000", "100443.281000", "100443.292000", "100443.298000"],
      "InstanceNumber": [1, 2, 3, 4, 5, 6, 7, 8, 9, 10, 11, 12, 13, 14, 15, 16, 17, 18, 19, 20, 21, 22, 23, 24, 25, 26, 27, 28, 29, 30, 31, 32, 33, 34, 35, 36, 37, 38, 39, 40, 41, 42, 43, 44, 45, 46, 47, 48, 49, 50, 51, 52, 53, 54, 55, 56, 57, 58, 59, 60, 61, 62, 63, 64, 65, 66, 67, 68, 69, 70, 71, 72, 73, 74, 75, 76, 77, 78, 79, 80, 81, 82, 83, 84, 85, 86, 87, 88, 89, 90, 91, 92, 93, 94, 95, 96, 97, 98, 99, 100, 101, 102, 103, 104, 105, 106, 107, 108, 109, 110, 111, 112, 113, 114, 115, 116, 117, 118, 119, 120, 121, 122, 123, 124, 125, 126, 127, 128, 129, 130, 131, 132, 133, 134, 135, 136, 137, 138, 139, 140, 141, 142, 143, 144, 145, 146, 147, 148, 149, 150, 151, 152, 153, 154, 155, 156, 157, 158, 159, 160, 161, 162, 163, 164, 165, 166, 167, 168, 169, 170, 171, 172, 173, 174, 175, 176, 177, 178, 179, 180, 181, 182, 183, 184, 185, 186, 187, 188, 189, 190, 191, 192, 193, 194, 195, 196, 197, 198, 199, 200],
      "LargestImagePixelValue": [2359, 2357, 2358, 2355, 2356, 2360, 2358, 2357, 2360, 2360, 2356, 2359, 2358, 2359, 2357, 2359, 2358, 2356, 2354, 2356, 2355, 2356, 2358, 2360, 2357, 2356, 2359, 2359, 2359, 2359, 2357, 2358, 2359, 2359, 2358, 2359, 2356, 2356, 2358, 2357, 2358, 2356, 2359, 2358, 2356, 2357, 2354, 2355, 2356, 2355, 2355, 2356, 2355, 2357, 2354, 2356, 2354, 2356, 2355, 2356, 2355, 2357, 2354, 2356, 2355, 2356, 2355, 2353, 2355, 2353, 2355, 2355, 2355, 2356, 2354, 2355, 2354, 2354, 2353, 2357, 2354, 2354, 2353, 2353, 2356, 2353, 2354, 2351, 2354, 2353, 2355, 2351, 2352, 2353, 2353, 2353, 2354, 2350, 2354, 2353, 2350, 2354, 2351, 2353, 2353, 2352, 2353, 2352, 2353, 2352, 2352, 2352, 2353, 2354, 2354, 2353, 2352, 2351, 2353, 2352, 2353, 2352, 2353, 2353, 2352, 2351, 2353, 2352, 2351, 2350, 2351, 2352, 2353, 2353, 2351, 2352, 2351, 2352, 2351, 2350, 2353, 2352, 2353, 2351, 2352, 2352, 2350, 2352, 2352, 2351, 2351, 2353, 2352, 2350, 2350, 2351, 2353, 2351, 2354, 2350, 2351, 2352, 2352, 2349, 2348, 2349, 2352, 2349, 2349, 2350, 2351, 2351, 2352, 2350, 2349, 2349, 2349, 2348, 2350, 2350, 2352, 2350, 2348, 2351, 2349, 2349, 2350, 2349, 2349, 2350, 2350, 2349, 2349, 2352, 2349, 2349, 2348, 2350, 2350, 2350],
      "WindowCenter": [1057.0, 1057.0, 1057.0, 1057.0, 1057.0, 1057.0, 1057.0, 1057.0, 1057.0, 1057.0, 1057.0, 1057.0, 1057.0, 1057.0, 1057.0, 1058.0, 1058.0, 1057.0, 1057.0, 1058.0, 1058.0, 1058.0, 1057.0, 1057.0, 1057.0, 1057.0, 1057.0, 1057.0, 1057.0, 1057.0, 1057.0, 1058.0, 1057.0, 1058.0, 1057.0, 1057.0, 1058.0, 1057.0, 1057.0, 1057.0, 1057.0, 1057.0, 1057.0, 1057.0, 1057.0, 1056.0, 1057.0, 1057.0, 1057.0, 1057.0, 1057.0, 1057.0, 1057.0, 1058.0, 1057.0, 1057.0, 1057.0, 1058.0, 1057.0, 1056.0, 1057.0, 1056.0, 1057.0, 1056.0, 1057.0, 1057.0, 1056.0, 1058.0, 1057.0, 1056.0, 1055.0, 1058.0, 1055.0, 1057.0, 1058.0, 1055.0, 1057.0, 1056.0, 1056.0, 1056.0, 1057.0, 1057.0, 1056.0, 1056.0, 1056.0, 1056.0, 1056.0, 1056.0, 1055.0, 1056.0, 1057.0, 1055.0, 1056.0, 1056.0, 1056.0, 1056.0, 1056.0, 1057.0, 1057.0, 1055.0, 1057.0, 1056.0, 1056.0, 1056.0, 1056.0, 1056.0, 1056.0, 1056.0, 1056.0, 1056.0, 1057.0, 1056.0, 1056.0, 1056.0, 1056.0, 1056.0, 1056.0, 1057.0, 1056.0, 1055.0, 1056.0, 1056.0, 1056.0, 1056.0, 1056.0, 1056.0, 1057.0, 1055.0, 1056.0, 1055.0, 1056.0, 1055.0, 1056.0, 1056.0, 1056.0, 1056.0, 1056.0, 1056.0, 1055.0, 1057.0, 1055.0, 1055.0, 1057.0, 1055.0, 1055.0, 1055.0, 1054.0, 1055.0, 1057.0, 1055.0, 1054.0, 1055.0, 1056.0, 1054.0, 1054.0, 1055.0, 1055.0, 1056.0, 1056.0, 1055.0, 1055.0, 1056.0, 1056.0, 1055.0, 1056.0, 1055.0, 1055.0, 1055.0, 1056.0, 1055.0, 1055.0, 1055.0, 1056.0, 1055.0, 1055.0, 1055.0, 1055.0, 1055.0, 1055.0, 1056.0, 1055.0, 1055.0, 1056.0, 1056.0, 1054.0, 1055.0, 1055.0, 1055.0, 1054.0, 1055.0, 1056.0, 1055.0, 1055.0, 1055.0, 1055.0, 1055.0, 1054.0, 1054.0, 1056.0, 1054.0],
      "WindowWidth": [2402.0, 2402.0, 2402.0, 2402.0, 2402.0, 2402.0, 2402.0, 2402.0, 2402.0, 2402.0, 2402.0, 2402.0, 2402.0, 2402.0, 2402.0, 2403.0, 2403.0, 2402.0, 2401.0, 2402.0, 2402.0, 2402.0, 2402.0, 2402.0, 2402.0, 2401.0, 2402.0, 2402.0, 2402.0, 2402.0, 2402.0, 2402.0, 2402.0, 2402.0, 2402.0, 2402.0, 2402.0, 2401.0, 2402.0, 2401.0, 2401.0, 2401.0, 2401.0, 2401.0, 2401.0, 2400.0, 2401.0, 2401.0, 2401.0, 2401.0, 2401.0, 2401.0, 2401.0, 2402.0, 2401.0, 2401.0, 2401.0, 2402.0, 2401.0, 2401.0, 2401.0, 2401.0, 2401.0, 2400.0, 2400.0, 2401.0, 2400.0, 2401.0, 2400.0, 2400.0, 2399.0, 2401.0, 2400.0, 2400.0, 2401.0, 2399.0, 2401.0, 2400.0, 2400.0, 2400.0, 2400.0, 2400.0, 2400.0, 2400.0, 2400.0, 2399.0, 2399.0, 2399.0, 2398.0, 2399.0, 2400.0, 2398.0, 2399.0, 2399.0, 2399.0, 2399.0, 2399.0, 2399.0, 2400.0, 2398.0, 2399.0, 2399.0, 2399.0, 2399.0, 2399.0, 2399.0, 2399.0, 2399.0, 2399.0, 2399.0, 2399.0, 2398.0, 2399.0, 2398.0, 2398.0, 2398.0, 2398.0, 2399.0, 2398.0, 2398.0, 2398.0, 2398.0, 2398.0, 2398.0, 2398.0, 2398.0, 2399.0, 2397.0, 2398.0, 2398.0, 2398.0, 2398.0, 2398.0, 2398.0, 2399.0, 2398.0, 2398.0, 2398.0, 2398.0, 2399.0, 2398.0, 2398.0, 2398.0, 2398.0, 2398.0, 2398.0, 2397.0, 2398.0, 2400.0, 2398.0, 2397.0, 2397.0, 2398.0, 2397.0, 2397.0, 2398.0, 2398.0, 2399.0, 2398.0, 2397.0, 2397.0, 2399.0, 2398.0, 2397.0, 2398.0, 2398.0, 2397.0, 2397.0, 2398.0, 2397.0, 2397.0, 2397.0, 2399.0, 2397.0, 2397.0, 2397.0, 2397.0, 2397.0, 2397.0, 2398.0, 2397.0, 2397.0, 2398.0, 2398.0, 2396.0, 2397.0, 2397.0, 2397.0, 2396.0, 2397.0, 2398.0, 2397.0, 2397.0, 2397.0, 2397.0, 2397.0, 2396.0, 2396.0, 2398.0, 2396.0]
    },
    "slices": {}
  }
}