{
  "AcquisitionMatrixPE": 80,
  "AcquisitionNumber": 1,
  "AcquisitionTime": "10:04:50.462500",
  "BandwidthPerPixelPhaseEncode": 25,
  "BaseResolution": 80,
  "BodyPartExamined": "BRAIN",
  "CoilCombinationMethod": "Sum of Squares",
  "ConsistencyInfo": "N4_VE11E_LATEST_20181129",
  "ConversionSoftware": "dcm2niix",
  "ConversionSoftwareVersion": "v1.0.20220720",
  "DerivedVendorReportedEchoSpacing": 0.0005,
  "DeviceSerialNumber": "66112",
  "DwellTime": 2.7e-06,
  "EchoTime": 0.03,
  "EchoTrainLength": 80,
  "EffectiveEchoSpacing": 0.0005,
  "FlipAngle": 10,
  "HeudiconvVersion": "0.13.1",
  "ImageOrientationPatientDICOM": [0.98699, 0.160612, 0.00733904, -0.155441, 0.941561, 0.298834],
  "ImageOrientationText": "Tra>Cor(17.2)>Sag(-2.4)",
  "ImageType": [
    "ORIGINAL",
    "PRIMARY",
    "M",
    "ND",
    "NORM",
    "MOSAIC"
],
  "ImagingFrequency": 123.261,
  "InPlanePhaseEncodingDirectionDICOM": "COL",
  "InstitutionAddress": "Maynard 3,Hanover,NH,US,03755",
  "InstitutionName": "Dartmouth College - PBS",
  "InstitutionalDepartmentName": "Department",
  "MRAcquisitionType": "2D",
  "MagneticFieldStrength": 3,
  "Manufacturer": "Siemens",
  "ManufacturersModelName": "Prisma",
  "MatrixCoilMode": "SENSE",
  "Modality": "MR",
  "NonlinearGradientCorrection": false,
  "PartialFourier": 1,
  "PatientPosition": "HFS",
  "PercentPhaseFOV": 100,
  "PercentSampling": 100,
  "PhaseEncodingDirection": "j-",
  "PhaseEncodingSteps": 80,
  "PhaseResolution": 1,
  "PixelBandwidth": 2315,
  "ProcedureStepDescription": "dbic^QA",
  "ProtocolName": "func-bold_fa-10",
  "PulseSequenceDetails": "%SiemensSeq%\\ep2d_bold",
  "ReceiveCoilActiveElements": "HEA;HEP",
  "ReceiveCoilName": "Head_32",
  "ReconMatrixPE": 80,
  "RepetitionTime": 2,
  "SAR": 0.00988094,
  "ScanOptions": "FS",
  "ScanningSequence": "EP",
  "SequenceName": "*epfid2d1_80",
  "SequenceVariant": "SK",
  "SeriesDescription": "func-bold_fa-10",
  "SeriesNumber": 8,
  "ShimSetting": [4247, -7746, -7494, -48, -176, -83, 38, 85],
  "SliceThickness": 3.5,
  "SliceTiming": [0.99, 0, 1.055, 0.065, 1.12, 0.1325, 1.1875, 0.1975, 1.2525, 0.2625, 1.32, 0.33, 1.385, 0.395, 1.45, 0.4625, 1.5175, 0.5275, 1.5825, 0.5925, 1.65, 0.66, 1.715, 0.725, 1.78, 0.79, 1.8475, 0.8575, 1.9125, 0.9225],
  "SoftwareVersions": "syngo MR E11",
  "SpacingBetweenSlices": 3.99,
  "StationName": "AWP66112",
  "TotalReadoutTime": 0.0395,
  "TxRefAmp": 220.071,
  "dcmmeta_affine": [
    [-2.9609711170196533, -0.4663233757019043, -0.1639336496591568, 141.7378387451172],
    [-0.48183539509773254, 2.824681520462036, 1.1813877820968628, -108.81024169921875],
    [0.022017130628228188, -0.8965022563934326, 3.8075647354125977, -23.632596969604492],
    [0.0, 0.0, 0.0, 1.0]
],
  "dcmmeta_reorient_transform": [
    [0.0, -1.0, 0.0, 79.0],
    [1.0, 0.0, 0.0, 0.0],
    [0.0, 0.0, 1.0, 0.0],
    [0.0, 0.0, 0.0, 1.0]
],
  "dcmmeta_shape": [80, 80, 30, 200],
  "dcmmeta_slice_dim": 2,
  "dcmmeta_version": 0.6,
  "global": {
    "const": {
      "AccessionNumber": "qa",
      "AcquisitionMatrix": [80, 0, 0, 80],
      "AngioFlag": "N",
      "BitsAllocated": 16,
      "BitsStored": 12,
      "BodyPartExamined": "BRAIN",
      "Columns": 480,
      "EchoNumbers": 1,
      "EchoTime": 30.0,
      "EchoTrainLength": 80,
      "FlipAngle": 10.0,
      "HighBit": 11,
      "ImageOrientationPatient": [0.98699036872886, 0.16061180054107, 0.00733904376855, -0.1554411214019, 0.94156053773511, 0.29883408700697],
      "ImagePositionPatient": [-603.82783571897, -775.64300964528, -278.1601540363],
      "ImageType": [
        "ORIGINAL",
        "PRIMARY",
        "M",
        "ND",
        "NORM",
        "MOSAIC"
],
      "ImagedNucleus": "1H",
      "ImagingFrequency": 123.261243,
      "InPlanePhaseEncodingDirection": "COL",
      "MRAcquisitionType": "2D",
      "MagneticFieldStrength": 3.0,
      "Manufacturer": "SIEMENS",
      "ManufacturerModelName": "Prisma",
      "Modality": "MR",
      "NumberOfAverages": 1.0,
      "NumberOfPhaseEncodingSteps": 80,
      "PercentPhaseFieldOfView": 100.0,
      "PercentSampling": 100.0,
      "PerformedProcedureStepStartTime": "094214.195000",
      "PhotometricInterpretation": "MONOCHROME2",
      "PixelBandwidth": 2315.0,
      "PixelRepresentation": 0,
      "PixelSpacing": [3.0, 3.0],
      "ProtocolName": "func-bold_fa-10",
      "RepetitionTime": 2000.0,
      "Rows": 480,
      "SAR": 0.00988094262047,
      "SamplesPerPixel": 1,
      "ScanOptions": "FS",
      "ScanningSequence": "EP",
      "SequenceName": "*epfid2d1_80",
      "SequenceVariant": "SK",
      "SeriesDescription": "func-bold_fa-10",
      "SeriesNumber": 8,
      "SeriesTime": "100543.832000",
      "SliceLocation": -60.592813621742,
      "SliceThickness": 3.5,
      "SmallestImagePixelValue": 0,
      "SoftwareVersions": "syngo MR E11",
      "SpacingBetweenSlices": 3.9900000232313,
      "SpecificCharacterSet": "ISO_IR 100",
      "StudyID": "46",
      "StudyTime": "094214.109000",
      "TransmitCoilName": "Body",
      "VariableFlipAngleFlag": "N",
      "WindowCenterWidthExplanation": "Algo1"
    },
    "slices": {}
  },
  "time": {
    "samples": {
      "AcquisitionNumber": [1, 2, 3, 4, 5, 6, 7, 8, 9, 10, 11, 12, 13, 14, 15, 16, 17, 18, 19, 20, 21, 22, 23, 24, 25, 26, 27, 28, 29, 30, 31, 32, 33, 34, 35, 36, 37, 38, 39, 40, 41, 42, 43, 44, 45, 46, 47, 48, 49, 50, 51, 52, 53, 54, 55, 56, 57, 58, 59, 60, 61, 62, 63, 64, 65, 66, 67, 68, 69, 70, 71, 72, 73, 74, 75, 76, 77, 78, 79, 80, 81, 82, 83, 84, 85, 86, 87, 88, 89, 90, 91, 92, 93, 94, 95, 96, 97, 98, 99, 100, 101, 102, 103, 104, 105, 106, 107, 108, 109, 110, 111, 112, 113, 114, 115, 116, 117, 118, 119, 120, 121, 122, 123, 124, 125, 126, 127, 128, 129, 130, 131, 132, 133, 134, 135, 136, 137, 138, 139, 140, 141, 142, 143, 144, 145, 146, 147, 148, 149, 150, 151, 152, 153, 154, 155, 156, 157, 158, 159, 160, 161, 162, 163, 164, 165, 166, 167, 168, 169, 170, 171, 172, 173, 174, 175, 176, 177, 178, 179, 180, 181, 182, 183, 184, 185, 186, 187, 188, 189, 190, 191, 192, 193, 194, 195, 196, 197, 198, 199, 200],
      "AcquisitionTime": ["100450.462500", "100452.462500", "100454.462500", "100456.462500", "100458.462500", "100500.462500", "100502.462500", "100504.462500", "100506.462500", "100508.462500", "100510.462500", "100512.462500", "100514.462500", "100516.462500", "100518.462500", "100520.462500", "100522.462500", "100524.462500", "100526.462500", "100528.462500", "100530.462500", "100532.462500", "100534.462500", "100536.462500", "100538.462500", "100540.462500", "100542.462500", "100544.462500", "100546.462500", "100548.462500", "100550.462500", "100552.462500", "100554.462500", "100556.462500", "100558.462500", "100600.462500", "100602.462500", "100604.462500", "100606.462500", "100608.462500", "100610.462500", "100612.462500", "100614.462500", "100616.462500", "100618.462500", "100620.462500", "100622.462500", "100624.462500", "100626.462500", "100628.462500", "100630.462500", "100632.462500", "100634.462500", "100636.462500", "100638.462500", "100640.462500", "100642.462500", "100644.462500", "100646.462500", "100648.462500", "100650.462500", "100652.462500", "100654.462500", "100656.462500", "100658.462500", "100700.462500", "100702.462500", "100704.462500", "100706.462500", "100708.462500", "100710.462500", "100712.462500", "100714.462500", "100716.462500", "100718.462500", "100720.462500", "100722.462500", "100724.462500", "100726.462500", "100728.462500", "100730.462500", "100732.462500", "100734.462500", "100736.462500", "100738.462500", "100740.462500", "100742.462500", "100744.462500", "100746.462500", "100748.462500", "100750.462500", "100752.462500", "100754.462500", "100756.462500", "100758.462500", "100800.462500", "100802.462500", "100804.462500", "100806.462500", "100808.462500", "100810.462500", "100812.462500", "100814.462500", "100816.462500", "100818.462500", "100820.462500", "100822.462500", "100824.462500", "100826.462500", "100828.462500", "100830.462500", "100832.462500", "100834.462500", "100836.462500", "100838.462500", "100840.462500", "100842.462500", "100844.462500", "100846.462500", "100848.462500", "100850.462500", "100852.462500", "100854.462500", "100856.462500", "100858.462500", "100900.462500", "100902.462500", "100904.462500", "100906.462500", "100908.462500", "100910.462500", "100912.462500", "100914.462500", "100916.462500", "100918.462500", "100920.462500", "100922.462500", "100924.462500", "100926.462500", "100928.462500", "100930.462500", "100932.462500", "100934.462500", "100936.462500", "100938.462500", "100940.462500", "100942.462500", "100944.462500", "100946.462500", "100948.462500", "100950.462500", "100952.462500", "100954.462500", "100956.462500", "100958.462500", "101000.462500", "101002.462500", "101004.462500", "101006.462500", "101008.462500", "101010.462500", "101012.462500", "101014.462500", "101016.462500", "101018.462500", "101020.462500", "101022.462500", "101024.462500", "101026.462500", "101028.462500", "101030.462500", "101032.462500", "101034.462500", "101036.462500", "101038.462500", "101040.462500", "101042.462500", "101044.462500", "101046.462500", "101048.462500", "101050.462500", "101052.462500", "101054.462500", "101056.462500", "101058.462500", "101100.462500", "101102.462500", "101104.462500", "101106.462500", "101108.462500", "101110.462500", "101112.462500", "101114.462500", "101116.462500", "101118.462500", "101120.462500", "101122.462500", "101124.462500", "101126.462500", "101128.462500"],
      "ContentTime": ["100543.835000", "100543.838000", "100543.840000", "100543.843000", "100543.845000", "100543.854000", "100543.856000", "100543.859000", "100543.861000", "100543.863000", "100543.866000", "100543.868000", "100543.878000", "100543.881000", "100543.883000", "100543.885000", "100543.887000", "100543.890000", "100543.892000", "100543.894000", "100543.897000", "100543.899000", "100543.939000", "100543.942000", "100543.944000", "100543.946000", "100543.949000", "100623.830000", "100623.833000", "100623.835000", "100623.837000", "100623.840000", "100623.842000", "100623.844000", "100623.847000", "100623.849000", "100623.851000", "100623.858000", "100623.861000", "100623.863000", "100623.865000", "100623.867000", "100623.870000", "100623.872000", "100623.874000", "100623.877000", "100623.879000", "100703.830000", "100703.833000", "100703.835000", "100703.837000", "100703.840000", "100703.842000", "100703.844000", "100703.846000", "100703.849000", "100703.851000", "100703.853000", "100703.855000", "100703.858000", "100703.860000", "100703.862000", "100703.864000", "100703.867000", "100703.869000", "100703.871000", "100703.873000", "100743.830000", "100743.833000", "100743.835000", "100743.837000", "100743.840000", "100743.842000", "100743.844000", "100743.846000", "100743.849000", "100743.851000", "100743.853000", "100743.856000", "100743.858000", "100743.860000", "100743.862000", "100743.865000", "100743.867000", "100743.869000", "100743.871000", "100743.874000", "100823.830000", "100823.833000", "100823.835000", "100823.838000", "100823.840000", "100823.842000", "100823.844000", "100823.847000", "100823.849000", "100823.851000", "100823.853000", "100823.856000", "100823.858000", "100823.860000", "100823.862000", "100823.865000", "100823.867000", "100823.869000", "100823.872000", "100823.874000", "100903.830000", "100903.833000", "100903.835000", "100903.837000", "100903.840000", "100903.842000", "100903.844000", "100903.846000", "100903.849000", "100903.851000", "100903.853000", "100903.856000", "100903.858000", "100903.860000", "100903.863000", "100903.865000", "100903.867000", "100903.869000", "100903.872000", "100903.874000", "100943.829000", "100943.832000", "100943.834000", "100943.836000", "100943.838000", "100943.841000", "100943.843000", "100943.845000", "100943.847000", "100943.850000", "100943.852000", "100943.854000", "100943.857000", "100943.859000", "100943.861000", "100943.864000", "100943.866000", "100943.868000", "100943.870000", "100943.873000", "101023.830000", "101023.833000", "101023.835000", "101023.837000", "101023.839000", "101023.842000", "101023.844000", "101023.846000", "101023.848000", "101023.851000", "101023.853000", "101023.855000", "101023.858000", "101023.860000", "101023.862000", "101023.864000", "101023.867000", "101023.869000", "101023.871000", "101023.873000", "101103.830000", "101103.833000", "101103.835000", "101103.837000", "101103.839000", "101103.842000", "101103.844000", "101103.852000", "101103.854000", "101103.857000", "101103.859000", "101103.861000", "101103.864000", "101103.866000", "101103.868000", "101103.871000", "101103.873000", "101103.875000", "101103.877000", "101103.880000", "101129.663000", "101129.666000", "101129.668000", "101129.671000", "101129.673000", "101129.675000", "101129.678000", "101129.680000", "101129.682000", "101129.685000", "101129.687000", "101129.689000", "101129.692000"],
      "InstanceCreationTime": ["100543.835000", "100543.838000", "100543.840000", "100543.843000", "100543.845000", "100543.854000", "100543.856000", "100543.859000", "100543.861000", "100543.863000", "100543.866000", "100543.868000", "100543.878000", "100543.881000", "100543.883000", "100543.885000", "100543.887000", "100543.890000", "100543.892000", "100543.894000", "100543.897000", "100543.899000", "100543.939000", "100543.942000", "100543.944000", "100543.946000", "100543.949000", "100623.830000", "100623.833000", "100623.835000", "100623.837000", "100623.840000", "100623.842000", "100623.844000", "100623.847000", "100623.849000", "100623.851000", "100623.858000", "100623.861000", "100623.863000", "100623.865000", "100623.867000", "100623.870000", "100623.872000", "100623.874000", "100623.877000", "100623.879000", "100703.830000", "100703.833000", "100703.835000", "100703.837000", "100703.840000", "100703.842000", "100703.844000", "100703.846000", "100703.849000", "100703.851000", "100703.853000", "100703.855000", "100703.858000", "100703.860000", "100703.862000", "100703.864000", "100703.867000", "100703.869000", "100703.871000", "100703.873000", "100743.830000", "100743.833000", "100743.835000", "100743.837000", "100743.840000", "100743.842000", "100743.844000", "100743.846000", "100743.849000", "100743.851000", "100743.853000", "100743.856000", "100743.858000", "100743.860000", "100743.862000", "100743.865000", "100743.867000", "100743.869000", "100743.871000", "100743.874000", "100823.830000", "100823.833000", "100823.835000", "100823.838000", "100823.840000", "100823.842000", "100823.844000", "100823.847000", "100823.849000", "100823.851000", "100823.853000", "100823.856000", "100823.858000", "100823.860000", "100823.862000", "100823.865000", "100823.867000", "100823.869000", "100823.872000", "100823.874000", "100903.830000", "100903.833000", "100903.835000", "100903.837000", "100903.840000", "100903.842000", "100903.844000", "100903.846000", "100903.849000", "100903.851000", "100903.853000", "100903.856000", "100903.858000", "100903.860000", "100903.863000", "100903.865000", "100903.867000", "100903.869000", "100903.872000", "100903.874000", "100943.829000", "100943.832000", "100943.834000", "100943.836000", "100943.838000", "100943.841000", "100943.843000", "100943.845000", "100943.847000", "100943.850000", "100943.852000", "100943.854000", "100943.857000", "100943.859000", "100943.861000", "100943.864000", "100943.866000", "100943.868000", "100943.870000", "100943.873000", "101023.830000", "101023.833000", "101023.835000", "101023.837000", "101023.839000", "101023.842000", "101023.844000", "101023.846000", "101023.848000", "101023.851000", "101023.853000", "101023.855000", "101023.858000", "101023.860000", "101023.862000", "101023.864000", "101023.867000", "101023.869000", "101023.871000", "101023.873000", "101103.830000", "101103.833000", "101103.835000", "101103.837000", "101103.839000", "101103.842000", "101103.844000", "101103.852000", "101103.854000", "101103.857000", "101103.859000", "101103.861000", "101103.864000", "101103.866000", "101103.868000", "101103.871000", "101103.873000", "101103.875000", "101103.877000", "101103.880000", "101129.663000", "101129.666000", "101129.668000", "101129.671000", "101129.673000", "101129.675000", "101129.678000", "101129.680000", "101129.682000", "101129.685000", "101129.687000", "101129.689000", "101129.692000"],
      "InstanceNumber": [1, 2, 3, 4, 5, 6, 7, 8, 9, 10, 11, 12, 13, 14, 15, 16, 17, 18, 19, 20, 21, 22, 23, 24, 25, 26, 27, 28, 29, 30, 31, 32, 33, 34, 35, 36, 37, 38, 39, 40, 41, 42, 43, 44, 45, 46, 47, 48, 49, 50, 51, 52, 53, 54, 55, 56, 57, 58, 59, 60, 61, 62, 63, 64, 65, 66, 67, 68, 69, 70, 71, 72, 73, 74, 75, 76, 77, 78, 79, 80, 81, 82, 83, 84, 85, 86, 87, 88, 89, 90, 91, 92, 93, 94, 95, 96, 97, 98, 99, 100, 101, 102, 103, 104, 105, 106, 107, 108, 109, 110, 111, 112, 113, 114, 115, 116, 117, 118, 119, 120, 121, 122, 123, 124, 125, 126, 127, 128, 129, 130, 131, 132, 133, 134, 135, 136, 137, 138, 139, 140, 141, 142, 143, 144, 145, 146, 147, 148, 149, 150, 151, 152, 153, 154, 155, 156, 157, 158, 159, 160, 161, 162, 163, 164, 165, 166, 167, 168, 169, 170, 171, 172, 173, 174, 175, 176, 177, 178, 179, 180, 181, 182, 183, 184, 185, 186, 187, 188, 189, 190, 191, 192, 193, 194, 195, 196, 197, 198, 199, 200],
      "LargestImagePixelValue": [395, 395, 396, 396, 396, 398, 396, 398, 398, 394, 398, 396, 396, 396, 396, 397, 396, 396, 396, 396, 393, 395, 397, 396, 394, 397, 396, 397, 396, 396, 396, 394, 395, 395, 395, 397, 396, 395, 395, 395, 396, 395, 396, 394, 395, 395, 394, 394, 395, 394, 397, 396, 395, 396, 396, 395, 396, 399, 394, 395, 395, 396, 396, 397, 395, 394, 395, 395, 396, 396, 395, 394, 397, 394, 396, 396, 395, 395, 394, 395, 394, 395, 395, 397, 395, 395, 395, 396, 396, 395, 396, 396, 395, 394, 395, 395, 394, 395, 395, 395, 395, 396, 394, 396, 394, 395, 395, 395, 395, 396, 396, 395, 394, 397, 396, 396, 395, 395, 396, 395, 395, 394, 395, 395, 396, 395, 393, 396, 397, 395, 396, 396, 397, 395, 397, 395, 396, 397, 397, 393, 396, 395, 394, 396, 395, 394, 395, 397, 395, 395, 396, 398, 396, 396, 395, 397, 397, 395, 396, 395, 395, 396, 396, 395, 395, 396, 395, 397, 394, 395, 396, 396, 395, 395, 396, 396, 396, 395, 395, 395, 395, 396, 397, 395, 395, 395, 396, 396, 395, 397, 394, 396, 396, 398, 395, 395, 399, 395, 397, 395],
      "WindowCenter": [320.0, 320.0, 321.0, 320.0, 320.0, 321.0, 320.0, 320.0, 320.0, 320.0, 320.0, 320.0, 320.0, 320.0, 320.0, 320.0, 320.0, 320.0, 320.0, 321.0, 320.0, 320.0, 320.0, 320.0, 321.0, 320.0, 320.0, 320.0, 320.0, 320.0, 320.0, 320.0, 320.0, 320.0, 320.0, 320.0, 320.0, 320.0, 320.0, 320.0, 320.0, 320.0, 320.0, 320.0, 320.0, 320.0, 320.0, 320.0, 320.0, 320.0, 320.0, 320.0, 320.0, 320.0, 320.0, 320.0, 320.0, 320.0, 320.0, 321.0, 320.0, 320.0, 320.0, 320.0, 320.0, 320.0, 321.0, 320.0, 320.0, 320.0, 320.0, 320.0, 320.0, 319.0, 320.0, 320.0, 320.0, 320.0, 320.0, 320.0, 320.0, 320.0, 320.0, 320.0, 320.0, 320.0, 320.0, 320.0, 320.0, 320.0, 319.0, 320.0, 320.0, 320.0, 320.0, 320.0, 320.0, 320.0, 320.0, 320.0, 320.0, 320.0, 319.0, 320.0, 320.0, 320.0, 320.0, 320.0, 320.0, 320.0, 320.0, 320.0, 320.0, 320.0, 320.0, 320.0, 320.0, 319.0, 320.0, 320.0, 320.0, 320.0, 320.0, 320.0, 320.0, 320.0, 320.0, 320.0, 320.0, 320.0, 320.0, 319.0, 320.0, 320.0, 320.0, 319.0, 320.0, 319.0, 319.0, 319.0, 319.0, 320.0, 320.0, 319.0, 320.0, 320.0, 319.0, 320.0, 319.0, 320.0, 320.0, 319.0, 320.0, 319.0, 320.0, 320.0, 320.0, 320.0, 319.0, 319.0, 320.0, 320.0, 320.0, 320.0, 320.0, 320.0, 320.0, 320.0, 320.0, 320.0, 319.0, 320.0, 320.0, 319.0, 320.0, 319.0, 320.0, 320.0, 319.0, 320.0, 320.0, 319.0, 319.0, 320.0, 320.0, 319.0, 320.0, 320.0, 319.0, 320.0, 320.0, 319.0, 320.0, 319.0, 319.0, 319.0, 319.0, 319.0, 319.0, 320.0],
      "WindowWidth": [689.0, 688.0, 689.0, 689.0, 689.0, 689.0, 689.0, 689.0, 689.0, 689.0, 689.0, 689.0, 689.0, 689.0, 688.0, 689.0, 689.0, 689.0, 689.0, 689.0, 689.0, 689.0, 689.0, 689.0, 689.0, 688.0, 689.0, 689.0, 689.0, 689.0, 689.0, 688.0, 688.0, 689.0, 688.0, 688.0, 689.0, 688.0, 688.0, 688.0, 689.0, 688.0, 689.0, 688.0, 689.0, 689.0, 689.0, 689.0, 688.0, 689.0, 688.0, 689.0, 688.0, 688.0, 688.0, 689.0, 689.0, 689.0, 688.0, 689.0, 688.0, 689.0, 688.0, 688.0, 688.0, 689.0, 689.0, 688.0, 689.0, 689.0, 688.0, 689.0, 689.0, 687.0, 688.0, 688.0, 689.0, 688.0, 688.0, 688.0, 689.0, 688.0, 689.0, 689.0, 688.0, 688.0, 688.0, 688.0, 689.0, 689.0, 687.0, 689.0, 688.0, 688.0, 688.0, 688.0, 688.0, 688.0, 688.0, 688.0, 688.0, 689.0, 687.0, 689.0, 688.0, 689.0, 688.0, 688.0, 688.0, 688.0, 688.0, 688.0, 689.0, 688.0, 688.0, 688.0, 689.0, 687.0, 688.0, 688.0, 688.0, 688.0, 689.0, 688.0, 688.0, 688.0, 688.0, 689.0, 688.0, 688.0, 688.0, 687.0, 688.0, 688.0, 688.0, 687.0, 688.0, 687.0, 687.0, 687.0, 687.0, 688.0, 688.0, 687.0, 688.0, 688.0, 687.0, 688.0, 687.0, 688.0, 687.0, 687.0, 688.0, 687.0, 687.0, 688.0, 687.0, 688.0, 687.0, 687.0, 687.0, 687.0, 688.0, 688.0, 688.0, 687.0, 687.0, 688.0, 688.0, 687.0, 687.0, 687.0, 688.0, 687.0, 687.0, 687.0, 687.0, 687.0, 687.0, 687.0, 687.0, 687.0, 687.0, 687.0, 687.0, 687.0, 687.0, 687.0, 687.0, 687.0, 687.0, 687.0, 687.0, 687.0, 687.0, 687.0, 687.0, 687.0, 687.0, 687.0]
    },
    "slices": {}
  }
}