{
  "AcquisitionMatrixPE": 80,
  "AcquisitionNumber": 1,
  "AcquisitionTime": "09:51:14.092500",
  "BandwidthPerPixelPhaseEncode": 46.296,
  "BaseResolution": 80,
  "BodyPartExamined": "BRAIN",
  "CoilCombinationMethod": "Sum of Squares",
  "ConsistencyInfo": "N4_VE11E_LATEST_20181129",
  "ConversionSoftware": "dcm2niix",
  "ConversionSoftwareVersion": "v1.0.20220720",
  "DerivedVendorReportedEchoSpacing": 0.000540003,
  "DeviceSerialNumber": "66112",
  "DwellTime": 2.7e-06,
  "EchoTime": 0.035,
  "EchoTrainLength": 39,
  "EffectiveEchoSpacing": 0.000270002,
  "FlipAngle": 90,
  "HeudiconvVersion": "0.13.1",
  "ImageOrientationPatientDICOM": [0.98699, 0.160612, 0.00733904, -0.155441, 0.941561, 0.298834],
  "ImageOrientationText": "Tra>Cor(17.2)>Sag(-2.4)",
  "ImageType": [
    "ORIGINAL",
    "PRIMARY",
    "M",
    "ND",
    "NORM",
    "MOSAIC"
],
  "ImagingFrequency": 123.261,
  "InPlanePhaseEncodingDirectionDICOM": "COL",
  "InstitutionAddress": "Maynard 3,Hanover,NH,US,03755",
  "InstitutionName": "Dartmouth College - PBS",
  "InstitutionalDepartmentName": "Department",
  "MRAcquisitionType": "2D",
  "MagneticFieldStrength": 3,
  "Manufacturer": "Siemens",
  "ManufacturersModelName": "Prisma",
  "Modality": "MR",
  "MultibandAccelerationFactor": 4,
  "NonlinearGradientCorrection": false,
  "ParallelReductionFactorInPlane": 2,
  "PartialFourier": 1,
  "PatientPosition": "HFS",
  "PercentPhaseFOV": 100,
  "PercentSampling": 100,
  "PhaseEncodingDirection": "j-",
  "PhaseEncodingSteps": 79,
  "PhaseResolution": 1,
  "PixelBandwidth": 2315,
  "ProcedureStepDescription": "dbic^QA",
  "ProtocolName": "func-bold_task-rest_acq-p2-s4-3.5mm",
  "PulseSequenceDetails": "%SiemensSeq%\\ep2d_bold",
  "ReceiveCoilActiveElements": "HEA;HEP",
  "ReceiveCoilName": "Head_32",
  "ReconMatrixPE": 80,
  "RefLinesPE": 24,
  "RepetitionTime": 2,
  "SAR": 0.0176267,
  "ScanOptions": "FS",
  "ScanningSequence": "EP",
  "SequenceName": "*epfid2d1_80",
  "SequenceVariant": "SK",
  "SeriesDescription": "func-bold_task-rest_acq-p2-s4-3.5mm",
  "SeriesNumber": 6,
  "ShimSetting": [4247, -7747, -7494, -44, -176, -87, 37, 86],
  "SliceThickness": 3.5,
  "SliceTiming": [1.485, 0, 0.99, 0.2475, 1.2375, 0.7425, 1.7325, 0.495, 1.485, 0, 0.99, 0.2475, 1.2375, 0.7425, 1.7325, 0.495, 1.485, 0, 0.99, 0.2475, 1.2375, 0.7425, 1.7325, 0.495, 1.485, 0, 0.99, 0.2475, 1.2375, 0.7425, 1.7325, 0.495],
  "SoftwareVersions": "syngo MR E11",
  "SpacingBetweenSlices": 3.99,
  "StationName": "AWP66112",
  "TaskName": "rest",
  "TotalReadoutTime": 0.0213301,
  "TxRefAmp": 220.071,
  "dcmmeta_affine": [
    [-2.9609711170196533, -0.4663233757019043, -0.1639336496591568, 142.95457458496094],
    [-0.48183539509773254, 2.824681520462036, 1.1813877820968628, -116.55158233642578],
    [0.022017130628228188, -0.8965022563934326, 3.8075647354125977, -29.38724708557129],
    [0.0, 0.0, 0.0, 1.0]
],
  "dcmmeta_reorient_transform": [
    [0.0, -1.0, 0.0, 79.0],
    [1.0, 0.0, 0.0, 0.0],
    [0.0, 0.0, 1.0, 0.0],
    [0.0, 0.0, 0.0, 1.0]
],
  "dcmmeta_shape": [80, 80, 32, 200],
  "dcmmeta_slice_dim": 2,
  "dcmmeta_version": 0.6,
  "global": {
    "const": {
      "AccessionNumber": "qa",
      "AcquisitionMatrix": [80, 0, 0, 80],
      "AngioFlag": "N",
      "BitsAllocated": 16,
      "BitsStored": 12,
      "BodyPartExamined": "BRAIN",
      "Columns": 480,
      "EchoNumbers": 1,
      "EchoTime": 35.0,
      "EchoTrainLength": 39,
      "FlipAngle": 90.0,
      "HighBit": 11,
      "ImageOrientationPatient": [0.98699036872886, 0.16061180054107, 0.00733904376855, -0.1554411214019, 0.94156053773511, 0.29883408700697],
      "ImagePositionPatient": [-605.04457060514, -767.90166900807, -283.91480415227],
      "ImageType": [
        "ORIGINAL",
        "PRIMARY",
        "M",
        "ND",
        "NORM",
        "MOSAIC"
],
      "ImagedNucleus": "1H",
      "ImagingFrequency": 123.261246,
      "InPlanePhaseEncodingDirection": "COL",
      "MRAcquisitionType": "2D",
      "MagneticFieldStrength": 3.0,
      "Manufacturer": "SIEMENS",
      "ManufacturerModelName": "Prisma",
      "Modality": "MR",
      "NumberOfAverages": 1.0,
      "NumberOfPhaseEncodingSteps": 79,
      "PercentPhaseFieldOfView": 100.0,
      "PercentSampling": 100.0,
      "PerformedProcedureStepStartTime": "094214.195000",
      "PhotometricInterpretation": "MONOCHROME2",
      "PixelBandwidth": 2315.0,
      "PixelRepresentation": 0,
      "PixelSpacing": [3.0, 3.0],
      "ProtocolName": "func-bold_task-rest_acq-p2-s4-3.5mm",
      "RepetitionTime": 2000.0,
      "Rows": 480,
      "SAR": 0.01762665531757,
      "SamplesPerPixel": 1,
      "ScanOptions": "FS",
      "ScanningSequence": "EP",
      "SequenceName": "*epfid2d1_80",
      "SequenceVariant": "SK",
      "SeriesDescription": "func-bold_task-rest_acq-p2-s4-3.5mm",
      "SeriesNumber": 6,
      "SeriesTime": "095203.660000",
      "SliceLocation": -68.426445517175,
      "SliceThickness": 3.5,
      "SmallestImagePixelValue": 0,
      "SoftwareVersions": "syngo MR E11",
      "SpacingBetweenSlices": 3.989999960574,
      "SpecificCharacterSet": "ISO_IR 100",
      "StudyID": "46",
      "StudyTime": "094214.109000",
      "TransmitCoilName": "Body",
      "VariableFlipAngleFlag": "N",
      "WindowCenterWidthExplanation": "Algo1"
    },
    "slices": {}
  },
  "time": {
    "samples": {
      "AcquisitionNumber": [1, 2, 3, 4, 5, 6, 7, 8, 9, 10, 11, 12, 13, 14, 15, 16, 17, 18, 19, 20, 21, 22, 23, 24, 25, 26, 27, 28, 29, 30, 31, 32, 33, 34, 35, 36, 37, 38, 39, 40, 41, 42, 43, 44, 45, 46, 47, 48, 49, 50, 51, 52, 53, 54, 55, 56, 57, 58, 59, 60, 61, 62, 63, 64, 65, 66, 67, 68, 69, 70, 71, 72, 73, 74, 75, 76, 77, 78, 79, 80, 81, 82, 83, 84, 85, 86, 87, 88, 89, 90, 91, 92, 93, 94, 95, 96, 97, 98, 99, 100, 101, 102, 103, 104, 105, 106, 107, 108, 109, 110, 111, 112, 113, 114, 115, 116, 117, 118, 119, 120, 121, 122, 123, 124, 125, 126, 127, 128, 129, 130, 131, 132, 133, 134, 135, 136, 137, 138, 139, 140, 141, 142, 143, 144, 145, 146, 147, 148, 149, 150, 151, 152, 153, 154, 155, 156, 157, 158, 159, 160, 161, 162, 163, 164, 165, 166, 167, 168, 169, 170, 171, 172, 173, 174, 175, 176, 177, 178, 179, 180, 181, 182, 183, 184, 185, 186, 187, 188, 189, 190, 191, 192, 193, 194, 195, 196, 197, 198, 199, 200],
      "AcquisitionTime": ["095114.092500", "095116.092500", "095118.092500", "095120.092500", "095122.092500", "095124.092500", "095126.092500", "095128.092500", "095130.092500", "095132.092500", "095134.092500", "095136.092500", "095138.092500", "095140.092500", "095142.092500", "095144.092500", "095146.092500", "095148.092500", "095150.092500", "095152.092500", "095154.092500", "095156.092500", "095158.092500", "095200.092500", "095202.092500", "095204.092500", "095206.092500", "095208.092500", "095210.092500", "095212.092500", "095214.092500", "095216.092500", "095218.092500", "095220.092500", "095222.092500", "095224.092500", "095226.092500", "095228.092500", "095230.092500", "095232.092500", "095234.092500", "095236.092500", "095238.092500", "095240.092500", "095242.092500", "095244.092500", "095246.092500", "095248.092500", "095250.092500", "095252.092500", "095254.092500", "095256.092500", "095258.092500", "095300.092500", "095302.092500", "095304.092500", "095306.092500", "095308.092500", "095310.092500", "095312.092500", "095314.092500", "095316.092500", "095318.092500", "095320.092500", "095322.092500", "095324.092500", "095326.092500", "095328.092500", "095330.092500", "095332.092500", "095334.092500", "095336.092500", "095338.092500", "095340.092500", "095342.092500", "095344.092500", "095346.092500", "095348.092500", "095350.092500", "095352.092500", "095354.092500", "095356.092500", "095358.092500", "095400.092500", "095402.092500", "095404.092500", "095406.092500", "095408.092500", "095410.092500", "095412.092500", "095414.092500", "095416.092500", "095418.092500", "095420.092500", "095422.092500", "095424.092500", "095426.092500", "095428.092500", "095430.092500", "095432.092500", "095434.092500", "095436.092500", "095438.092500", "095440.092500", "095442.092500", "095444.092500", "095446.092500", "095448.092500", "095450.092500", "095452.092500", "095454.092500", "095456.092500", "095458.092500", "095500.092500", "095502.092500", "095504.092500", "095506.092500", "095508.092500", "095510.092500", "095512.092500", "095514.092500", "095516.092500", "095518.092500", "095520.092500", "095522.092500", "095524.092500", "095526.092500", "095528.092500", "095530.092500", "095532.092500", "095534.092500", "095536.092500", "095538.092500", "095540.092500", "095542.092500", "095544.092500", "095546.092500", "095548.092500", "095550.092500", "095552.092500", "095554.092500", "095556.092500", "095558.092500", "095600.092500", "095602.092500", "095604.092500", "095606.092500", "095608.092500", "095610.092500", "095612.092500", "095614.092500", "095616.092500", "095618.092500", "095620.092500", "095622.092500", "095624.092500", "095626.092500", "095628.092500", "095630.092500", "095632.092500", "095634.092500", "095636.092500", "095638.092500", "095640.092500", "095642.092500", "095644.092500", "095646.092500", "095648.092500", "095650.092500", "095652.092500", "095654.092500", "095656.092500", "095658.092500", "095700.092500", "095702.092500", "095704.092500", "095706.092500", "095708.092500", "095710.092500", "095712.092500", "095714.092500", "095716.092500", "095718.092500", "095720.092500", "095722.092500", "095724.092500", "095726.092500", "095728.092500", "095730.092500", "095732.092500", "095734.092500", "095736.092500", "095738.092500", "095740.092500", "095742.092500", "095744.092500", "095746.092500", "095748.092500", "095750.092500", "095752.092500"],
      "ContentTime": ["095203.663000", "095203.666000", "095203.669000", "095203.671000", "095203.679000", "095203.682000", "095203.684000", "095203.687000", "095203.689000", "095203.691000", "095203.694000", "095203.696000", "095203.698000", "095203.701000", "095203.703000", "095203.709000", "095203.722000", "095203.724000", "095203.727000", "095203.729000", "095203.731000", "095203.734000", "095203.736000", "095203.739000", "095203.741000", "095243.658000", "095243.661000", "095243.663000", "095243.666000", "095243.668000", "095243.670000", "095243.673000", "095243.675000", "095243.677000", "095243.680000", "095243.682000", "095243.684000", "095243.686000", "095243.689000", "095243.691000", "095243.694000", "095243.696000", "095243.698000", "095243.701000", "095243.707000", "095323.657000", "095323.660000", "095323.662000", "095323.665000", "095323.667000", "095323.669000", "095323.672000", "095323.674000", "095323.676000", "095323.678000", "095323.681000", "095323.683000", "095323.686000", "095323.688000", "095323.690000", "095323.693000", "095323.695000", "095323.697000", "095323.700000", "095323.702000", "095403.658000", "095403.661000", "095403.663000", "095403.666000", "095403.668000", "095403.670000", "095403.673000", "095403.675000", "095403.677000", "095403.679000", "095403.682000", "095403.684000", "095403.686000", "095403.689000", "095403.691000", "095403.693000", "095403.696000", "095403.698000", "095403.700000", "095403.703000", "095443.659000", "095443.661000", "095443.663000", "095443.666000", "095443.668000", "095443.670000", "095443.673000", "095443.675000", "095443.677000", "095443.680000", "095443.682000", "095443.684000", "095443.687000", "095443.689000", "095443.691000", "095443.694000", "095443.696000", "095443.698000", "095443.700000", "095443.703000", "095523.658000", "095523.661000", "095523.663000", "095523.666000", "095523.668000", "095523.670000", "095523.673000", "095523.675000", "095523.677000", "095523.680000", "095523.682000", "095523.684000", "095523.687000", "095523.689000", "095523.695000", "095523.698000", "095523.700000", "095523.702000", "095523.705000", "095523.707000", "095603.658000", "095603.661000", "095603.663000", "095603.665000", "095603.668000", "095603.670000", "095603.673000", "095603.675000", "095603.677000", "095603.679000", "095603.682000", "095603.684000", "095603.686000", "095603.689000", "095603.691000", "095603.693000", "095603.696000", "095603.698000", "095603.700000", "095603.703000", "095643.658000", "095643.661000", "095643.663000", "095643.666000", "095643.668000", "095643.671000", "095643.673000", "095643.675000", "095643.677000", "095643.680000", "095643.682000", "095643.685000", "095643.687000", "095643.689000", "095643.692000", "095643.694000", "095643.697000", "095643.700000", "095643.702000", "095643.704000", "095723.658000", "095723.661000", "095723.663000", "095723.666000", "095723.668000", "095723.670000", "095723.673000", "095723.675000", "095723.677000", "095723.680000", "095723.684000", "095723.687000", "095723.689000", "095723.691000", "095723.694000", "095723.696000", "095723.698000", "095723.701000", "095723.703000", "095723.705000", "095753.290000", "095753.293000", "095753.296000", "095753.298000", "095753.300000", "095753.303000", "095753.305000", "095753.309000", "095753.311000", "095753.314000", "095753.316000", "095753.319000", "095753.321000", "095753.323000", "095753.326000"],
      "InstanceCreationTime": ["095203.663000", "095203.666000", "095203.669000", "095203.671000", "095203.679000", "095203.682000", "095203.684000", "095203.687000", "095203.689000", "095203.691000", "095203.694000", "095203.696000", "095203.698000", "095203.701000", "095203.703000", "095203.709000", "095203.722000", "095203.724000", "095203.727000", "095203.729000", "095203.731000", "095203.734000", "095203.736000", "095203.739000", "095203.741000", "095243.658000", "095243.661000", "095243.663000", "095243.666000", "095243.668000", "095243.670000", "095243.673000", "095243.675000", "095243.677000", "095243.680000", "095243.682000", "095243.684000", "095243.686000", "095243.689000", "095243.691000", "095243.694000", "095243.696000", "095243.698000", "095243.701000", "095243.707000", "095323.657000", "095323.660000", "095323.662000", "095323.665000", "095323.667000", "095323.669000", "095323.672000", "095323.674000", "095323.676000", "095323.678000", "095323.681000", "095323.683000", "095323.686000", "095323.688000", "095323.690000", "095323.693000", "095323.695000", "095323.697000", "095323.700000", "095323.702000", "095403.658000", "095403.661000", "095403.663000", "095403.666000", "095403.668000", "095403.670000", "095403.673000", "095403.675000", "095403.677000", "095403.679000", "095403.682000", "095403.684000", "095403.686000", "095403.689000", "095403.691000", "095403.693000", "095403.696000", "095403.698000", "095403.700000", "095403.703000", "095443.659000", "095443.661000", "095443.663000", "095443.666000", "095443.668000", "095443.670000", "095443.673000", "095443.675000", "095443.677000", "095443.680000", "095443.682000", "095443.684000", "095443.687000", "095443.689000", "095443.691000", "095443.694000", "095443.696000", "095443.698000", "095443.700000", "095443.703000", "095523.658000", "095523.661000", "095523.663000", "095523.666000", "095523.668000", "095523.670000", "095523.673000", "095523.675000", "095523.677000", "095523.680000", "095523.682000", "095523.684000", "095523.687000", "095523.689000", "095523.695000", "095523.698000", "095523.700000", "095523.702000", "095523.705000", "095523.707000", "095603.658000", "095603.661000", "095603.663000", "095603.665000", "095603.668000", "095603.670000", "095603.673000", "095603.675000", "095603.677000", "095603.679000", "095603.682000", "095603.684000", "095603.686000", "095603.689000", "095603.691000", "095603.693000", "095603.696000", "095603.698000", "095603.700000", "095603.703000", "095643.658000", "095643.661000", "095643.663000", "095643.666000", "095643.668000", "095643.671000", "095643.673000", "095643.675000", "095643.677000", "095643.680000", "095643.682000", "095643.685000", "095643.687000", "095643.689000", "095643.692000", "095643.694000", "095643.697000", "095643.700000", "095643.702000", "095643.704000", "095723.658000", "095723.661000", "095723.663000", "095723.666000", "095723.668000", "095723.670000", "095723.673000", "095723.675000", "095723.677000", "095723.680000", "095723.684000", "095723.687000", "095723.689000", "095723.691000", "095723.694000", "095723.696000", "095723.698000", "095723.701000", "095723.703000", "095723.705000", "095753.290000", "095753.293000", "095753.296000", "095753.298000", "095753.300000", "095753.303000", "095753.305000", "095753.309000", "095753.311000", "095753.314000", "095753.316000", "095753.319000", "095753.321000", "095753.323000", "095753.326000"],
      "InstanceNumber": [1, 2, 3, 4, 5, 6, 7, 8, 9, 10, 11, 12, 13, 14, 15, 16, 17, 18, 19, 20, 21, 22, 23, 24, 25, 26, 27, 28, 29, 30, 31, 32, 33, 34, 35, 36, 37, 38, 39, 40, 41, 42, 43, 44, 45, 46, 47, 48, 49, 50, 51, 52, 53, 54, 55, 56, 57, 58, 59, 60, 61, 62, 63, 64, 65, 66, 67, 68, 69, 70, 71, 72, 73, 74, 75, 76, 77, 78, 79, 80, 81, 82, 83, 84, 85, 86, 87, 88, 89, 90, 91, 92, 93, 94, 95, 96, 97, 98, 99, 100, 101, 102, 103, 104, 105, 106, 107, 108, 109, 110, 111, 112, 113, 114, 115, 116, 117, 118, 119, 120, 121, 122, 123, 124, 125, 126, 127, 128, 129, 130, 131, 132, 133, 134, 135, 136, 137, 138, 139, 140, 141, 142, 143, 144, 145, 146, 147, 148, 149, 150, 151, 152, 153, 154, 155, 156, 157, 158, 159, 160, 161, 162, 163, 164, 165, 166, 167, 168, 169, 170, 171, 172, 173, 174, 175, 176, 177, 178, 179, 180, 181, 182, 183, 184, 185, 186, 187, 188, 189, 190, 191, 192, 193, 194, 195, 196, 197, 198, 199, 200],
      "LargestImagePixelValue": [2455, 2458, 2456, 2459, 2457, 2456, 2461, 2457, 2457, 2450, 2457, 2455, 2458, 2457, 2458, 2456, 2456, 2458, 2455, 2460, 2455, 2455, 2453, 2456, 2457, 2456, 2453, 2451, 2455, 2455, 2456, 2458, 2455, 2450, 2454, 2458, 2456, 2451, 2452, 2453, 2455, 2457, 2453, 2452, 2457, 2456, 2457, 2458, 2456, 2460, 2454, 2450, 2455, 2451, 2454, 2455, 2455, 2456, 2456, 2454, 2452, 2454, 2452, 2449, 2452, 2454, 2452, 2457, 2454, 2453, 2451, 2450, 2453, 2452, 2453, 2452, 2454, 2457, 2453, 2447, 2456, 2454, 2452, 2455, 2456, 2455, 2450, 2455, 2450, 2447, 2450, 2453, 2457, 2454, 2456, 2452, 2450, 2453, 2453, 2453, 2453, 2455, 2448, 2445, 2452, 2450, 2447, 2449, 2452, 2451, 2452, 2452, 2449, 2457, 2450, 2454, 2451, 2448, 2454, 2453, 2451, 2452, 2448, 2451, 2448, 2448, 2452, 2455, 2456, 2450, 2446, 2450, 2452, 2450, 2449, 2453, 2452, 2452, 2448, 2451, 2446, 2443, 2454, 2453, 2451, 2454, 2452, 2452, 2442, 2448, 2449, 2449, 2452, 2451, 2453, 2454, 2449, 2447, 2449, 2448, 2452, 2452, 2446, 2452, 2449, 2448, 2450, 2449, 2445, 2446, 2453, 2450, 2453, 2448, 2447, 2451, 2451, 2448, 2448, 2452, 2446, 2450, 2446, 2448, 2451, 2448, 2446, 2450, 2446, 2450, 2452, 2447, 2447, 2448, 2447, 2442, 2450, 2446, 2454, 2447],
      "WindowCenter": [993.0, 993.0, 994.0, 994.0, 994.0, 994.0, 994.0, 993.0, 993.0, 993.0, 993.0, 994.0, 994.0, 993.0, 992.0, 994.0, 993.0, 993.0, 994.0, 992.0, 993.0, 994.0, 993.0, 993.0, 993.0, 992.0, 993.0, 994.0, 993.0, 993.0, 994.0, 993.0, 993.0, 994.0, 992.0, 993.0, 993.0, 993.0, 994.0, 992.0, 993.0, 993.0, 994.0, 993.0, 993.0, 992.0, 993.0, 994.0, 994.0, 993.0, 994.0, 994.0, 993.0, 993.0, 993.0, 994.0, 993.0, 994.0, 994.0, 993.0, 993.0, 993.0, 993.0, 994.0, 993.0, 994.0, 993.0, 994.0, 993.0, 993.0, 993.0, 993.0, 993.0, 993.0, 993.0, 994.0, 994.0, 994.0, 993.0, 994.0, 993.0, 993.0, 993.0, 994.0, 994.0, 993.0, 993.0, 993.0, 994.0, 993.0, 993.0, 994.0, 993.0, 993.0, 993.0, 993.0, 993.0, 994.0, 993.0, 993.0, 994.0, 993.0, 993.0, 994.0, 994.0, 994.0, 993.0, 993.0, 993.0, 994.0, 993.0, 993.0, 994.0, 993.0, 993.0, 993.0, 993.0, 993.0, 994.0, 993.0, 993.0, 994.0, 993.0, 993.0, 994.0, 993.0, 994.0, 993.0, 993.0, 993.0, 993.0, 993.0, 994.0, 994.0, 993.0, 994.0, 993.0, 993.0, 994.0, 993.0, 994.0, 993.0, 993.0, 993.0, 993.0, 994.0, 993.0, 993.0, 993.0, 993.0, 994.0, 993.0, 993.0, 993.0, 994.0, 993.0, 994.0, 993.0, 994.0, 994.0, 993.0, 993.0, 993.0, 994.0, 993.0, 994.0, 993.0, 993.0, 994.0, 993.0, 994.0, 994.0, 994.0, 993.0, 994.0, 994.0, 994.0, 994.0, 993.0, 994.0, 993.0, 993.0, 994.0, 994.0, 993.0, 993.0, 994.0, 993.0, 993.0, 993.0, 993.0, 993.0, 994.0, 994.0, 994.0, 993.0, 994.0, 993.0, 993.0, 993.0],
      "WindowWidth": [2412.0, 2412.0, 2412.0, 2412.0, 2412.0, 2412.0, 2412.0, 2412.0, 2411.0, 2411.0, 2411.0, 2412.0, 2412.0, 2411.0, 2411.0, 2412.0, 2411.0, 2412.0, 2413.0, 2411.0, 2411.0, 2412.0, 2411.0, 2412.0, 2412.0, 2411.0, 2412.0, 2412.0, 2411.0, 2411.0, 2412.0, 2411.0, 2411.0, 2412.0, 2411.0, 2412.0, 2412.0, 2411.0, 2412.0, 2411.0, 2411.0, 2411.0, 2412.0, 2412.0, 2411.0, 2411.0, 2411.0, 2412.0, 2412.0, 2411.0, 2412.0, 2412.0, 2411.0, 2411.0, 2412.0, 2412.0, 2411.0, 2412.0, 2412.0, 2411.0, 2411.0, 2411.0, 2411.0, 2412.0, 2411.0, 2412.0, 2411.0, 2412.0, 2411.0, 2412.0, 2411.0, 2412.0, 2411.0, 2411.0, 2411.0, 2412.0, 2412.0, 2412.0, 2411.0, 2412.0, 2411.0, 2411.0, 2411.0, 2412.0, 2412.0, 2411.0, 2411.0, 2411.0, 2412.0, 2412.0, 2411.0, 2412.0, 2411.0, 2411.0, 2411.0, 2411.0, 2411.0, 2412.0, 2411.0, 2411.0, 2412.0, 2411.0, 2410.0, 2412.0, 2412.0, 2412.0, 2411.0, 2411.0, 2411.0, 2412.0, 2411.0, 2411.0, 2412.0, 2411.0, 2411.0, 2411.0, 2411.0, 2410.0, 2412.0, 2411.0, 2411.0, 2412.0, 2411.0, 2411.0, 2412.0, 2411.0, 2412.0, 2410.0, 2410.0, 2410.0, 2410.0, 2411.0, 2412.0, 2412.0, 2410.0, 2411.0, 2411.0, 2410.0, 2412.0, 2410.0, 2411.0, 2411.0, 2410.0, 2411.0, 2410.0, 2411.0, 2411.0, 2411.0, 2410.0, 2410.0, 2412.0, 2410.0, 2410.0, 2410.0, 2411.0, 2410.0, 2411.0, 2410.0, 2411.0, 2411.0, 2410.0, 2410.0, 2410.0, 2411.0, 2410.0, 2411.0, 2410.0, 2410.0, 2411.0, 2410.0, 2411.0, 2411.0, 2411.0, 2410.0, 2411.0, 2411.0, 2411.0, 2411.0, 2410.0, 2411.0, 2410.0, 2410.0, 2411.0, 2411.0, 2410.0, 2411.0, 2411.0, 2410.0, 2410.0, 2410.0, 2410.0, 2410.0, 2411.0, 2411.0, 2411.0, 2410.0, 2411.0, 2410.0, 2410.0, 2410.0]
    },
    "slices": {}
  }
}