{
  "AcquisitionMatrixPE": 80,
  "AcquisitionNumber": 1,
  "AcquisitionTime": "10:55:0.157500",
  "BandwidthPerPixelPhaseEncode": 44.643,
  "BaseResolution": 80,
  "BodyPartExamined": "BRAIN",
  "CoilCombinationMethod": "Sum of Squares",
  "ConsistencyInfo": "N4_VE11C_LATEST_20160120",
  "ConversionSoftware": "dcm2niix",
  "ConversionSoftwareVersion": "v1.0.20220720",
  "DerivedVendorReportedEchoSpacing": 0.000559998,
  "DeviceSerialNumber": "66112",
  "DwellTime": 2.7e-06,
  "EchoTime": 0.035,
  "EchoTrainLength": 39,
  "EffectiveEchoSpacing": 0.000279999,
  "FlipAngle": 90,
  "HeudiconvVersion": "0.13.1",
  "ImageOrientationPatientDICOM": [0.999927, 0.0100431, -0.00675608, -0.00767902, 0.957812, 0.287294],
  "ImageOrientationText": "Tra>Cor(16.7)>Sag(-0.5)",
  "ImageType": [
    "ORIGINAL",
    "PRIMARY",
    "M",
    "ND",
    "NORM",
    "MOSAIC"
],
  "ImagingFrequency": 123.252,
  "InPlanePhaseEncodingDirectionDICOM": "COL",
  "InstitutionAddress": "Maynard 3,Hanover,NH,US,03755",
  "InstitutionName": "Dartmouth College - PBS",
  "InstitutionalDepartmentName": "Department",
  "MRAcquisitionType": "2D",
  "MagneticFieldStrength": 3,
  "Manufacturer": "Siemens",
  "ManufacturersModelName": "Prisma",
  "Modality": "MR",
  "MultibandAccelerationFactor": 4,
  "NonlinearGradientCorrection": false,
  "ParallelReductionFactorInPlane": 2,
  "PartialFourier": 1,
  "PatientPosition": "HFS",
  "PercentPhaseFOV": 100,
  "PercentSampling": 100,
  "PhaseEncodingDirection": "j-",
  "PhaseEncodingSteps": 79,
  "PhaseResolution": 1,
  "PixelBandwidth": 2315,
  "ProcedureStepDescription": "dbic^QA",
  "ProtocolName": "func-bold_task-rest_acq-p2-s4-3.5mm",
  "PulseSequenceDetails": "%SiemensSeq%\\ep2d_bold",
  "ReceiveCoilActiveElements": "HEA;HEP",
  "ReceiveCoilName": "Head_32",
  "ReconMatrixPE": 80,
  "RefLinesPE": 24,
  "RepetitionTime": 2,
  "SAR": 0.0208793,
  "ScanOptions": "FS",
  "ScanningSequence": "EP",
  "SequenceName": "*epfid2d1_80",
  "SequenceVariant": "SK",
  "SeriesDescription": "func-bold_task-rest_acq-p2-s4-3.5mm",
  "SeriesNumber": 7,
  "ShimSetting": [4148, -7693, -7497, 299, -78, -99, -61, 76],
  "SliceThickness": 3.5,
  "SliceTiming": [1.485, 0, 0.99, 0.2475, 1.2375, 0.7425, 1.7325, 0.495, 1.485, 0, 0.99, 0.2475, 1.2375, 0.7425, 1.7325, 0.495, 1.485, 0, 0.99, 0.2475, 1.2375, 0.7425, 1.7325, 0.495, 1.485, 0, 0.99, 0.2475, 1.2375, 0.7425, 1.7325, 0.495],
  "SoftwareVersions": "syngo MR E11",
  "SpacingBetweenSlices": 3.99,
  "StationName": "AWP66112",
  "TaskName": "rest",
  "TotalReadoutTime": 0.0221199,
  "TxRefAmp": 231.901,
  "dcmmeta_affine": [
    [-2.9997801780700684, -0.023037057369947433, -0.03733200579881668, 120.7755355834961],
    [-0.030129432678222656, 2.8734347820281982, 1.1460129022598267, -120.87955474853516],
    [-0.02026825025677681, -0.8618826270103455, 3.8216960430145264, -22.49895477294922],
    [0.0, 0.0, 0.0, 1.0]
],
  "dcmmeta_reorient_transform": [
    [0.0, -1.0, 0.0, 79.0],
    [1.0, 0.0, 0.0, 0.0],
    [0.0, 0.0, 1.0, 0.0],
    [0.0, 0.0, 0.0, 1.0]
],
  "dcmmeta_shape": [80, 80, 32, 200],
  "dcmmeta_slice_dim": 2,
  "dcmmeta_version": 0.6,
  "global": {
    "const": {
      "AccessionNumber": "qa",
      "AcquisitionMatrix": [80, 0, 0, 80],
      "AngioFlag": "N",
      "BitsAllocated": 16,
      "BitsStored": 12,
      "BodyPartExamined": "BRAIN",
      "Columns": 480,
      "EchoNumbers": 1,
      "EchoTime": 35.0,
      "EchoTrainLength": 39,
      "FlipAngle": 90.0,
      "HighBit": 11,
      "ImageOrientationPatient": [0.99992674261423, 0.01004314416687, -0.0067560831947, -0.0076790190164, 0.95781160527403, 0.28729420716286],
      "ImagePositionPatient": [-714.30424365121, -686.83464380246, -258.91055640426],
      "ImageType": [
        "ORIGINAL",
        "PRIMARY",
        "M",
        "ND",
        "NORM",
        "MOSAIC"
],
      "ImagedNucleus": "1H",
      "ImagingFrequency": 123.252468,
      "InPlanePhaseEncodingDirection": "COL",
      "MRAcquisitionType": "2D",
      "MagneticFieldStrength": 3.0,
      "Manufacturer": "SIEMENS",
      "ManufacturerModelName": "Prisma",
      "Modality": "MR",
      "NumberOfAverages": 1.0,
      "NumberOfPhaseEncodingSteps": 79,
      "PercentPhaseFieldOfView": 100.0,
      "PercentSampling": 100.0,
      "PerformedProcedureStepStartTime": "104528.550000",
      "PhotometricInterpretation": "MONOCHROME2",
      "PixelBandwidth": 2315.0,
      "PixelRepresentation": 0,
      "PixelSpacing": [3.0, 3.0],
      "ProtocolName": "func-bold_task-rest_acq-p2-s4-3.5mm",
      "RepetitionTime": 2000.0,
      "Rows": 480,
      "SAR": 0.02087927419877,
      "SamplesPerPixel": 1,
      "ScanOptions": "FS",
      "ScanningSequence": "EP",
      "SequenceName": "*epfid2d1_80",
      "SequenceVariant": "SK",
      "SeriesDescription": "func-bold_task-rest_acq-p2-s4-3.5mm",
      "SeriesNumber": 7,
      "SeriesTime": "105557.426000",
      "SliceLocation": -57.399120848545,
      "SliceThickness": 3.5,
      "SmallestImagePixelValue": 0,
      "SoftwareVersions": "syngo MR E11",
      "SpacingBetweenSlices": 3.9900000734827,
      "SpecificCharacterSet": "ISO_IR 100",
      "StudyID": "76",
      "StudyTime": "104528.434000",
      "TransmitCoilName": "Body",
      "VariableFlipAngleFlag": "N",
      "WindowCenterWidthExplanation": "Algo1",
      "dBdt": 0.0},
    "slices": {}
  },
  "time": {
    "samples": {
      "AcquisitionNumber": [1, 2, 3, 4, 5, 6, 7, 8, 9, 10, 11, 12, 13, 14, 15, 16, 17, 18, 19, 20, 21, 22, 23, 24, 25, 26, 27, 28, 29, 30, 31, 32, 33, 34, 35, 36, 37, 38, 39, 40, 41, 42, 43, 44, 45, 46, 47, 48, 49, 50, 51, 52, 53, 54, 55, 56, 57, 58, 59, 60, 61, 62, 63, 64, 65, 66, 67, 68, 69, 70, 71, 72, 73, 74, 75, 76, 77, 78, 79, 80, 81, 82, 83, 84, 85, 86, 87, 88, 89, 90, 91, 92, 93, 94, 95, 96, 97, 98, 99, 100, 101, 102, 103, 104, 105, 106, 107, 108, 109, 110, 111, 112, 113, 114, 115, 116, 117, 118, 119, 120, 121, 122, 123, 124, 125, 126, 127, 128, 129, 130, 131, 132, 133, 134, 135, 136, 137, 138, 139, 140, 141, 142, 143, 144, 145, 146, 147, 148, 149, 150, 151, 152, 153, 154, 155, 156, 157, 158, 159, 160, 161, 162, 163, 164, 165, 166, 167, 168, 169, 170, 171, 172, 173, 174, 175, 176, 177, 178, 179, 180, 181, 182, 183, 184, 185, 186, 187, 188, 189, 190, 191, 192, 193, 194, 195, 196, 197, 198, 199, 200],
      "AcquisitionTime": ["105500.157500", "105502.157500", "105504.157500", "105506.157500", "105508.157500", "105510.157500", "105512.157500", "105514.157500", "105516.157500", "105518.157500", "105520.157500", "105522.157500", "105524.157500", "105526.157500", "105528.157500", "105530.157500", "105532.157500", "105534.157500", "105536.157500", "105538.157500", "105540.157500", "105542.157500", "105544.157500", "105546.157500", "105548.157500", "105550.157500", "105552.157500", "105554.157500", "105556.157500", "105558.157500", "105600.157500", "105602.157500", "105604.157500", "105606.157500", "105608.157500", "105610.157500", "105612.157500", "105614.157500", "105616.157500", "105618.157500", "105620.157500", "105622.157500", "105624.157500", "105626.157500", "105628.157500", "105630.157500", "105632.157500", "105634.157500", "105636.157500", "105638.157500", "105640.157500", "105642.157500", "105644.157500", "105646.157500", "105648.157500", "105650.157500", "105652.157500", "105654.157500", "105656.157500", "105658.157500", "105700.157500", "105702.157500", "105704.157500", "105706.157500", "105708.157500", "105710.157500", "105712.157500", "105714.157500", "105716.157500", "105718.157500", "105720.157500", "105722.157500", "105724.157500", "105726.157500", "105728.157500", "105730.157500", "105732.157500", "105734.157500", "105736.157500", "105738.157500", "105740.157500", "105742.157500", "105744.157500", "105746.157500", "105748.157500", "105750.157500", "105752.157500", "105754.157500", "105756.157500", "105758.157500", "105800.157500", "105802.157500", "105804.157500", "105806.157500", "105808.157500", "105810.157500", "105812.157500", "105814.157500", "105816.157500", "105818.157500", "105820.157500", "105822.157500", "105824.157500", "105826.157500", "105828.157500", "105830.157500", "105832.157500", "105834.157500", "105836.157500", "105838.157500", "105840.157500", "105842.157500", "105844.157500", "105846.157500", "105848.157500", "105850.157500", "105852.157500", "105854.157500", "105856.157500", "105858.157500", "105900.157500", "105902.157500", "105904.157500", "105906.157500", "105908.157500", "105910.157500", "105912.157500", "105914.157500", "105916.157500", "105918.157500", "105920.157500", "105922.157500", "105924.157500", "105926.157500", "105928.157500", "105930.157500", "105932.157500", "105934.157500", "105936.157500", "105938.157500", "105940.157500", "105942.157500", "105944.157500", "105946.157500", "105948.157500", "105950.157500", "105952.157500", "105954.157500", "105956.157500", "105958.157500", "110000.157500", "110002.157500", "110004.157500", "110006.157500", "110008.157500", "110010.157500", "110012.157500", "110014.157500", "110016.157500", "110018.157500", "110020.157500", "110022.157500", "110024.157500", "110026.157500", "110028.157500", "110030.157500", "110032.157500", "110034.157500", "110036.157500", "110038.157500", "110040.157500", "110042.157500", "110044.157500", "110046.157500", "110048.157500", "110050.157500", "110052.157500", "110054.157500", "110056.157500", "110058.157500", "110100.157500", "110102.157500", "110104.157500", "110106.157500", "110108.157500", "110110.157500", "110112.157500", "110114.157500", "110116.157500", "110118.157500", "110120.157500", "110122.157500", "110124.157500", "110126.157500", "110128.157500", "110130.157500", "110132.157500", "110134.157500", "110136.157500", "110138.157500"],
      "ContentTime": ["105557.431000", "105557.435000", "105557.437000", "105557.440000", "105557.442000", "105557.445000", "105557.448000", "105557.455000", "105557.457000", "105557.460000", "105557.462000", "105557.465000", "105557.468000", "105557.470000", "105557.473000", "105557.475000", "105557.478000", "105557.480000", "105557.483000", "105557.486000", "105557.488000", "105557.491000", "105557.494000", "105557.496000", "105557.499000", "105557.501000", "105557.504000", "105557.506000", "105557.509000", "105637.423000", "105637.426000", "105637.429000", "105637.431000", "105637.434000", "105637.437000", "105637.447000", "105637.449000", "105637.452000", "105637.454000", "105637.457000", "105637.460000", "105637.462000", "105637.465000", "105637.467000", "105637.470000", "105637.473000", "105637.475000", "105637.478000", "105637.480000", "105717.423000", "105717.427000", "105717.429000", "105717.432000", "105717.434000", "105717.437000", "105717.446000", "105717.449000", "105717.452000", "105717.454000", "105717.457000", "105717.460000", "105717.462000", "105717.465000", "105717.467000", "105717.470000", "105717.473000", "105717.475000", "105717.478000", "105717.480000", "105757.424000", "105757.427000", "105757.430000", "105757.432000", "105757.435000", "105757.438000", "105757.440000", "105757.443000", "105757.445000", "105757.448000", "105757.450000", "105757.453000", "105757.465000", "105757.468000", "105757.470000", "105757.473000", "105757.476000", "105757.478000", "105757.481000", "105757.483000", "105817.424000", "105817.427000", "105817.430000", "105817.433000", "105817.435000", "105817.438000", "105817.440000", "105817.443000", "105817.446000", "105817.449000", "105857.423000", "105857.426000", "105857.429000", "105857.431000", "105857.434000", "105857.437000", "105857.439000", "105857.442000", "105857.444000", "105857.447000", "105857.450000", "105857.452000", "105857.455000", "105857.457000", "105857.460000", "105857.462000", "105857.465000", "105857.467000", "105857.470000", "105857.473000", "105937.423000", "105937.426000", "105937.429000", "105937.431000", "105937.434000", "105937.437000", "105937.439000", "105937.442000", "105937.444000", "105937.447000", "105937.450000", "105937.452000", "105937.455000", "105937.463000", "105937.465000", "105937.468000", "105937.470000", "105937.473000", "105937.475000", "105937.478000", "110017.424000", "110017.427000", "110017.430000", "110017.432000", "110017.435000", "110017.438000", "110017.440000", "110017.443000", "110017.445000", "110017.448000", "110017.451000", "110017.453000", "110017.456000", "110017.458000", "110017.461000", "110017.463000", "110017.466000", "110017.469000", "110017.472000", "110017.474000", "110057.424000", "110057.427000", "110057.430000", "110057.433000", "110057.443000", "110057.446000", "110057.448000", "110057.451000", "110057.453000", "110057.456000", "110057.459000", "110057.470000", "110057.473000", "110057.475000", "110057.478000", "110057.480000", "110057.483000", "110057.485000", "110057.488000", "110057.491000", "110137.423000", "110137.426000", "110137.429000", "110137.431000", "110137.434000", "110137.437000", "110137.439000", "110137.442000", "110137.444000", "110137.447000", "110137.450000", "110137.452000", "110137.455000", "110137.458000", "110137.460000", "110137.463000", "110137.465000", "110137.468000", "110137.471000", "110137.473000", "110138.818000"],
      "InstanceCreationTime": ["105557.431000", "105557.435000", "105557.437000", "105557.440000", "105557.442000", "105557.445000", "105557.448000", "105557.455000", "105557.457000", "105557.460000", "105557.462000", "105557.465000", "105557.468000", "105557.470000", "105557.473000", "105557.475000", "105557.478000", "105557.480000", "105557.483000", "105557.486000", "105557.488000", "105557.491000", "105557.494000", "105557.496000", "105557.499000", "105557.501000", "105557.504000", "105557.506000", "105557.509000", "105637.423000", "105637.426000", "105637.429000", "105637.431000", "105637.434000", "105637.437000", "105637.447000", "105637.449000", "105637.452000", "105637.454000", "105637.457000", "105637.460000", "105637.462000", "105637.465000", "105637.467000", "105637.470000", "105637.473000", "105637.475000", "105637.478000", "105637.480000", "105717.423000", "105717.427000", "105717.429000", "105717.432000", "105717.434000", "105717.437000", "105717.446000", "105717.449000", "105717.452000", "105717.454000", "105717.457000", "105717.460000", "105717.462000", "105717.465000", "105717.467000", "105717.470000", "105717.473000", "105717.475000", "105717.478000", "105717.480000", "105757.424000", "105757.427000", "105757.430000", "105757.432000", "105757.435000", "105757.438000", "105757.440000", "105757.443000", "105757.445000", "105757.448000", "105757.450000", "105757.453000", "105757.465000", "105757.468000", "105757.470000", "105757.473000", "105757.476000", "105757.478000", "105757.481000", "105757.483000", "105817.424000", "105817.427000", "105817.430000", "105817.433000", "105817.435000", "105817.438000", "105817.440000", "105817.443000", "105817.446000", "105817.449000", "105857.423000", "105857.426000", "105857.429000", "105857.431000", "105857.434000", "105857.437000", "105857.439000", "105857.442000", "105857.444000", "105857.447000", "105857.450000", "105857.452000", "105857.455000", "105857.457000", "105857.460000", "105857.462000", "105857.465000", "105857.467000", "105857.470000", "105857.473000", "105937.423000", "105937.426000", "105937.429000", "105937.431000", "105937.434000", "105937.437000", "105937.439000", "105937.442000", "105937.444000", "105937.447000", "105937.450000", "105937.452000", "105937.455000", "105937.463000", "105937.465000", "105937.468000", "105937.470000", "105937.473000", "105937.475000", "105937.478000", "110017.424000", "110017.427000", "110017.430000", "110017.432000", "110017.435000", "110017.438000", "110017.440000", "110017.443000", "110017.445000", "110017.448000", "110017.451000", "110017.453000", "110017.456000", "110017.458000", "110017.461000", "110017.463000", "110017.466000", "110017.469000", "110017.472000", "110017.474000", "110057.424000", "110057.427000", "110057.430000", "110057.433000", "110057.443000", "110057.446000", "110057.448000", "110057.451000", "110057.453000", "110057.456000", "110057.459000", "110057.470000", "110057.473000", "110057.475000", "110057.478000", "110057.480000", "110057.483000", "110057.485000", "110057.488000", "110057.491000", "110137.423000", "110137.426000", "110137.429000", "110137.431000", "110137.434000", "110137.437000", "110137.439000", "110137.442000", "110137.444000", "110137.447000", "110137.450000", "110137.452000", "110137.455000", "110137.458000", "110137.460000", "110137.463000", "110137.465000", "110137.468000", "110137.471000", "110137.473000", "110138.818000"],
      "InstanceNumber": [1, 2, 3, 4, 5, 6, 7, 8, 9, 10, 11, 12, 13, 14, 15, 16, 17, 18, 19, 20, 21, 22, 23, 24, 25, 26, 27, 28, 29, 30, 31, 32, 33, 34, 35, 36, 37, 38, 39, 40, 41, 42, 43, 44, 45, 46, 47, 48, 49, 50, 51, 52, 53, 54, 55, 56, 57, 58, 59, 60, 61, 62, 63, 64, 65, 66, 67, 68, 69, 70, 71, 72, 73, 74, 75, 76, 77, 78, 79, 80, 81, 82, 83, 84, 85, 86, 87, 88, 89, 90, 91, 92, 93, 94, 95, 96, 97, 98, 99, 100, 101, 102, 103, 104, 105, 106, 107, 108, 109, 110, 111, 112, 113, 114, 115, 116, 117, 118, 119, 120, 121, 122, 123, 124, 125, 126, 127, 128, 129, 130, 131, 132, 133, 134, 135, 136, 137, 138, 139, 140, 141, 142, 143, 144, 145, 146, 147, 148, 149, 150, 151, 152, 153, 154, 155, 156, 157, 158, 159, 160, 161, 162, 163, 164, 165, 166, 167, 168, 169, 170, 171, 172, 173, 174, 175, 176, 177, 178, 179, 180, 181, 182, 183, 184, 185, 186, 187, 188, 189, 190, 191, 192, 193, 194, 195, 196, 197, 198, 199, 200],
      "LargestImagePixelValue": [1972, 1970, 1969, 1969, 1972, 1971, 1970, 1972, 1970, 1971, 1974, 1974, 1968, 1969, 1967, 1967, 1972, 1972, 1968, 1971, 1976, 1970, 1970, 1976, 1971, 1976, 1972, 1968, 1969, 1972, 1971, 1970, 1971, 1971, 1971, 1972, 1971, 1971, 1975, 1972, 1970, 1972, 1975, 1971, 1972, 1972, 1970, 1974, 1973, 1972, 1969, 1970, 1973, 1969, 1974, 1971, 1968, 1975, 1970, 1969, 1970, 1971, 1973, 1967, 1971, 1969, 1975, 1972, 1973, 1972, 1969, 1971, 1972, 1968, 1971, 1972, 1971, 1975, 1971, 1974, 1969, 1973, 1968, 1973, 1971, 1971, 1971, 1974, 1972, 1971, 1973, 1967, 1970, 1978, 1968, 1972, 1970, 1969, 1972, 1975, 1971, 1976, 1974, 1972, 1973, 1971, 1972, 1972, 1975, 1978, 1973, 1972, 1970, 1973, 1975, 1971, 1971, 1979, 1973, 1975, 1971, 1975, 1975, 1974, 1976, 1969, 1971, 1971, 1977, 1973, 1974, 1975, 1971, 1968, 1968, 1970, 1972, 1974, 1977, 1977, 1975, 1977, 1976, 1974, 1979, 1974, 1974, 1974, 1971, 1970, 1975, 1978, 1972, 1973, 1971, 1972, 1974, 1973, 1977, 1973, 1973, 1973, 1975, 1973, 1978, 1972, 1974, 1971, 1971, 1969, 1970, 1974, 1975, 1974, 1970, 1974, 1976, 1973, 1975, 1972, 1973, 1974, 1970, 1974, 1972, 1977, 1973, 1977, 1971, 1970, 1972, 1976, 1971, 1974, 1971, 1975, 1973, 1972, 1975, 1978],
      "WindowCenter": [908.0, 907.0, 907.0, 907.0, 907.0, 907.0, 907.0, 907.0, 907.0, 907.0, 907.0, 907.0, 907.0, 907.0, 907.0, 907.0, 907.0, 907.0, 907.0, 907.0, 907.0, 907.0, 907.0, 907.0, 907.0, 907.0, 907.0, 907.0, 907.0, 907.0, 907.0, 907.0, 907.0, 907.0, 908.0, 908.0, 907.0, 907.0, 907.0, 908.0, 907.0, 907.0, 908.0, 908.0, 907.0, 908.0, 907.0, 908.0, 908.0, 908.0, 908.0, 907.0, 907.0, 907.0, 907.0, 907.0, 907.0, 907.0, 907.0, 907.0, 907.0, 907.0, 907.0, 907.0, 907.0, 907.0, 907.0, 907.0, 907.0, 907.0, 907.0, 907.0, 907.0, 907.0, 907.0, 907.0, 907.0, 907.0, 907.0, 907.0, 907.0, 907.0, 907.0, 907.0, 907.0, 907.0, 907.0, 907.0, 907.0, 907.0, 907.0, 907.0, 907.0, 908.0, 907.0, 907.0, 907.0, 907.0, 907.0, 907.0, 907.0, 907.0, 907.0, 907.0, 907.0, 907.0, 907.0, 907.0, 907.0, 907.0, 907.0, 907.0, 907.0, 907.0, 907.0, 907.0, 907.0, 907.0, 907.0, 907.0, 907.0, 907.0, 907.0, 907.0, 907.0, 907.0, 907.0, 907.0, 907.0, 907.0, 907.0, 907.0, 907.0, 907.0, 907.0, 907.0, 907.0, 907.0, 907.0, 907.0, 907.0, 907.0, 907.0, 907.0, 907.0, 907.0, 907.0, 907.0, 907.0, 907.0, 907.0, 907.0, 907.0, 907.0, 907.0, 907.0, 907.0, 907.0, 907.0, 907.0, 907.0, 907.0, 907.0, 907.0, 907.0, 907.0, 907.0, 907.0, 907.0, 907.0, 907.0, 907.0, 907.0, 907.0, 907.0, 907.0, 907.0, 907.0, 907.0, 907.0, 907.0, 907.0, 907.0, 907.0, 907.0, 907.0, 907.0, 907.0, 907.0, 907.0, 907.0, 907.0, 907.0, 907.0, 907.0, 907.0, 907.0, 907.0, 907.0, 907.0],
      "WindowWidth": [2047.0, 2047.0, 2047.0, 2047.0, 2047.0, 2047.0, 2046.0, 2046.0, 2047.0, 2047.0, 2046.0, 2047.0, 2047.0, 2046.0, 2046.0, 2047.0, 2046.0, 2047.0, 2047.0, 2047.0, 2047.0, 2047.0, 2046.0, 2047.0, 2047.0, 2046.0, 2047.0, 2047.0, 2046.0, 2047.0, 2047.0, 2046.0, 2046.0, 2047.0, 2047.0, 2047.0, 2047.0, 2047.0, 2047.0, 2047.0, 2047.0, 2046.0, 2047.0, 2047.0, 2047.0, 2047.0, 2047.0, 2047.0, 2047.0, 2047.0, 2047.0, 2047.0, 2046.0, 2046.0, 2046.0, 2046.0, 2046.0, 2046.0, 2046.0, 2046.0, 2046.0, 2046.0, 2046.0, 2046.0, 2046.0, 2046.0, 2046.0, 2046.0, 2046.0, 2046.0, 2046.0, 2046.0, 2046.0, 2046.0, 2046.0, 2046.0, 2046.0, 2046.0, 2046.0, 2046.0, 2046.0, 2046.0, 2046.0, 2046.0, 2046.0, 2046.0, 2046.0, 2046.0, 2046.0, 2046.0, 2046.0, 2046.0, 2046.0, 2047.0, 2046.0, 2046.0, 2046.0, 2046.0, 2046.0, 2046.0, 2046.0, 2046.0, 2046.0, 2046.0, 2046.0, 2046.0, 2046.0, 2046.0, 2046.0, 2046.0, 2046.0, 2046.0, 2046.0, 2046.0, 2046.0, 2046.0, 2046.0, 2046.0, 2046.0, 2046.0, 2046.0, 2046.0, 2046.0, 2046.0, 2046.0, 2046.0, 2046.0, 2046.0, 2046.0, 2046.0, 2046.0, 2046.0, 2046.0, 2046.0, 2046.0, 2046.0, 2046.0, 2046.0, 2046.0, 2046.0, 2046.0, 2046.0, 2046.0, 2046.0, 2046.0, 2046.0, 2046.0, 2046.0, 2046.0, 2046.0, 2046.0, 2046.0, 2046.0, 2046.0, 2046.0, 2046.0, 2046.0, 2046.0, 2046.0, 2046.0, 2046.0, 2046.0, 2046.0, 2046.0, 2046.0, 2046.0, 2046.0, 2046.0, 2046.0, 2046.0, 2046.0, 2046.0, 2045.0, 2046.0, 2046.0, 2046.0, 2046.0, 2046.0, 2046.0, 2046.0, 2046.0, 2046.0, 2046.0, 2046.0, 2046.0, 2045.0, 2046.0, 2046.0, 2045.0, 2045.0, 2046.0, 2046.0, 2046.0, 2046.0, 2046.0, 2046.0, 2046.0, 2046.0, 2045.0, 2046.0]
    },
    "slices": {}
  }
}