{
  "AcquisitionMatrixPE": 80,
  "AcquisitionNumber": 1,
  "AcquisitionTime": "09:28:45.462500",
  "BandwidthPerPixelPhaseEncode": 25,
  "BaseResolution": 80,
  "BodyPartExamined": "BRAIN",
  "CoilCombinationMethod": "Sum of Squares",
  "ConsistencyInfo": "N4_VE11C_LATEST_20160120",
  "ConversionSoftware": "dcm2niix",
  "ConversionSoftwareVersion": "v1.0.20220720",
  "DerivedVendorReportedEchoSpacing": 0.0005,
  "DeviceSerialNumber": "66112",
  "DwellTime": 2.7e-06,
  "EchoTime": 0.03,
  "EchoTrainLength": 80,
  "EffectiveEchoSpacing": 0.0005,
  "FlipAngle": 10,
  "HeudiconvVersion": "0.13.1",
  "ImageComments": "Reference volume for motion correction.",
  "ImageOrientationPatientDICOM": [0.983329, 0.181435, 0.0120723, -0.176397, 0.935699, 0.305536],
  "ImageOrientationText": "Tra>Cor(17.6)>Sag(-2.5)",
  "ImageType": [
    "ORIGINAL",
    "PRIMARY",
    "M",
    "ND",
    "NORM",
    "MOCO",
    "MOSAIC"
],
  "ImagingFrequency": 123.252,
  "InPlanePhaseEncodingDirectionDICOM": "COL",
  "InstitutionAddress": "Maynard 3,Hanover,NH,US,03755",
  "InstitutionName": "Dartmouth College - PBS",
  "InstitutionalDepartmentName": "Department",
  "MRAcquisitionType": "2D",
  "MagneticFieldStrength": 3,
  "Manufacturer": "Siemens",
  "ManufacturersModelName": "Prisma",
  "MatrixCoilMode": "SENSE",
  "Modality": "MR",
  "NonlinearGradientCorrection": false,
  "PartialFourier": 1,
  "PatientPosition": "HFS",
  "PercentPhaseFOV": 100,
  "PercentSampling": 100,
  "PhaseEncodingDirection": "j-",
  "PhaseEncodingSteps": 80,
  "PhaseResolution": 1,
  "PixelBandwidth": 2315,
  "ProcedureStepDescription": "dbic^QA",
  "ProtocolName": "func-bold_acq-32ch-10flip_MoCo",
  "PulseSequenceDetails": "%SiemensSeq%\\ep2d_bold",
  "ReceiveCoilActiveElements": "HEA;HEP",
  "ReceiveCoilName": "Head_32",
  "ReconMatrixPE": 80,
  "RepetitionTime": 2,
  "SAR": 0.0137944,
  "ScanOptions": "FS",
  "ScanningSequence": "EP",
  "SequenceName": "*epfid2d1_80",
  "SequenceVariant": "SK",
  "SeriesDescription": "MoCoSeries",
  "SeriesNumber": 11,
  "ShimSetting": [4145, -7697, -7502, 257, -68, -143, -79, 35],
  "SliceThickness": 3.5,
  "SliceTiming": [0.99, 0, 1.055, 0.065, 1.12, 0.1325, 1.1875, 0.1975, 1.2525, 0.2625, 1.32, 0.33, 1.385, 0.395, 1.45, 0.4625, 1.5175, 0.5275, 1.5825, 0.5925, 1.65, 0.66, 1.715, 0.725, 1.78, 0.79, 1.8475, 0.8575, 1.9125, 0.9225],
  "SoftwareVersions": "syngo MR E11",
  "SpacingBetweenSlices": 3.99,
  "StationName": "AWP66112",
  "TotalReadoutTime": 0.0395,
  "TxRefAmp": 242.251,
  "dcmmeta_affine": [
    [-2.949986696243286, -0.5291918516159058, -0.17611362040042877, 144.13803100585938],
    [-0.5443035960197449, 2.807095527648926, 1.2072618007659912, -96.87387084960938],
    [0.03621688857674599, -0.9166079759597778, 3.7988948822021484, -7.297454357147217],
    [0.0, 0.0, 0.0, 1.0]
],
  "dcmmeta_reorient_transform": [
    [0.0, -1.0, 0.0, 79.0],
    [1.0, 0.0, 0.0, 0.0],
    [0.0, 0.0, 1.0, 0.0],
    [0.0, 0.0, 0.0, 1.0]
],
  "dcmmeta_shape": [80, 80, 30, 200],
  "dcmmeta_slice_dim": 2,
  "dcmmeta_version": 0.6,
  "global": {
    "const": {
      "AccessionNumber": "qa",
      "AcquisitionMatrix": [80, 0, 0, 80],
      "AngioFlag": "N",
      "BitsAllocated": 16,
      "BitsStored": 12,
      "BodyPartExamined": "BRAIN",
      "Columns": 480,
      "EchoNumbers": 1,
      "EchoTime": 30.0,
      "EchoTrainLength": 80,
      "FlipAngle": 10.0,
      "HighBit": 11,
      "ImageOrientationPatient": [0.98332892143593, 0.18143453899672, 0.0120722958341, -0.1763972873066, 0.93569854142043, 0.30553598252014],
      "ImagePositionPatient": [-586.49084809866, -795.16652831142, -270.27444936769],
      "ImageType": [
        "ORIGINAL",
        "PRIMARY",
        "M",
        "ND",
        "NORM",
        "MOCO",
        "MOSAIC"
],
      "ImagedNucleus": "1H",
      "ImagingFrequency": 123.252448,
      "InPlanePhaseEncodingDirection": "COL",
      "MRAcquisitionType": "2D",
      "MagneticFieldStrength": 3.0,
      "Manufacturer": "SIEMENS",
      "ManufacturerModelName": "Prisma",
      "Modality": "MR",
      "NumberOfAverages": 1.0,
      "NumberOfPhaseEncodingSteps": 80,
      "PercentPhaseFieldOfView": 100.0,
      "PercentSampling": 100.0,
      "PerformedProcedureStepStartTime": "090629.955000",
      "PhotometricInterpretation": "MONOCHROME2",
      "PixelBandwidth": 2315.0,
      "PixelRepresentation": 0,
      "PixelSpacing": [3.0, 3.0],
      "ProtocolName": "func-bold_acq-32ch-10flip",
      "RepetitionTime": 2000.0,
      "Rows": 480,
      "SAR": 0.01379439884381,
      "SamplesPerPixel": 1,
      "ScanOptions": "FS",
      "ScanningSequence": "EP",
      "SequenceName": "*epfid2d1_80",
      "SequenceVariant": "SK",
      "SeriesDescription": "MoCoSeries",
      "SeriesNumber": 11,
      "SeriesTime": "092930.723000",
      "SliceLocation": -42.62131898676,
      "SliceThickness": 3.5,
      "SmallestImagePixelValue": 0,
      "SoftwareVersions": "syngo MR E11",
      "SpacingBetweenSlices": 3.9899999878261,
      "SpecificCharacterSet": "ISO_IR 100",
      "StudyID": "6",
      "StudyTime": "090629.818000",
      "TransmitCoilName": "Body",
      "VariableFlipAngleFlag": "N",
      "WindowCenterWidthExplanation": "Algo1",
      "dBdt": 0.0},
    "slices": {}
  },
  "time": {
    "samples": {
      "AcquisitionNumber": [1, 2, 3, 4, 5, 6, 7, 8, 9, 10, 11, 12, 13, 14, 15, 16, 17, 18, 19, 20, 21, 22, 23, 24, 25, 26, 27, 28, 29, 30, 31, 32, 33, 34, 35, 36, 37, 38, 39, 40, 41, 42, 43, 44, 45, 46, 47, 48, 49, 50, 51, 52, 53, 54, 55, 56, 57, 58, 59, 60, 61, 62, 63, 64, 65, 66, 67, 68, 69, 70, 71, 72, 73, 74, 75, 76, 77, 78, 79, 80, 81, 82, 83, 84, 85, 86, 87, 88, 89, 90, 91, 92, 93, 94, 95, 96, 97, 98, 99, 100, 101, 102, 103, 104, 105, 106, 107, 108, 109, 110, 111, 112, 113, 114, 115, 116, 117, 118, 119, 120, 121, 122, 123, 124, 125, 126, 127, 128, 129, 130, 131, 132, 133, 134, 135, 136, 137, 138, 139, 140, 141, 142, 143, 144, 145, 146, 147, 148, 149, 150, 151, 152, 153, 154, 155, 156, 157, 158, 159, 160, 161, 162, 163, 164, 165, 166, 167, 168, 169, 170, 171, 172, 173, 174, 175, 176, 177, 178, 179, 180, 181, 182, 183, 184, 185, 186, 187, 188, 189, 190, 191, 192, 193, 194, 195, 196, 197, 198, 199, 200],
      "AcquisitionTime": ["092845.462500", "092847.462500", "092849.462500", "092851.462500", "092853.462500", "092855.462500", "092857.462500", "092859.462500", "092901.462500", "092903.462500", "092905.462500", "092907.462500", "092909.462500", "092911.462500", "092913.462500", "092915.462500", "092917.462500", "092919.462500", "092921.462500", "092923.462500", "092925.462500", "092927.462500", "092929.462500", "092931.462500", "092933.462500", "092935.462500", "092937.462500", "092939.462500", "092941.462500", "092943.462500", "092945.462500", "092947.462500", "092949.462500", "092951.462500", "092953.462500", "092955.462500", "092957.462500", "092959.462500", "093001.462500", "093003.462500", "093005.462500", "093007.462500", "093009.462500", "093011.462500", "093013.462500", "093015.462500", "093017.462500", "093019.462500", "093021.462500", "093023.462500", "093025.462500", "093027.462500", "093029.462500", "093031.462500", "093033.462500", "093035.462500", "093037.462500", "093039.462500", "093041.462500", "093043.462500", "093045.462500", "093047.462500", "093049.462500", "093051.462500", "093053.462500", "093055.462500", "093057.462500", "093059.462500", "093101.462500", "093103.462500", "093105.462500", "093107.462500", "093109.462500", "093111.462500", "093113.462500", "093115.462500", "093117.462500", "093119.462500", "093121.462500", "093123.462500", "093125.462500", "093127.462500", "093129.462500", "093131.462500", "093133.462500", "093135.462500", "093137.462500", "093139.462500", "093141.462500", "093143.462500", "093145.462500", "093147.462500", "093149.462500", "093151.462500", "093153.462500", "093155.462500", "093157.462500", "093159.462500", "093201.462500", "093203.462500", "093205.462500", "093207.462500", "093209.462500", "093211.462500", "093213.462500", "093215.462500", "093217.462500", "093219.462500", "093221.462500", "093223.462500", "093225.462500", "093227.462500", "093229.462500", "093231.462500", "093233.462500", "093235.462500", "093237.462500", "093239.462500", "093241.462500", "093243.462500", "093245.462500", "093247.462500", "093249.462500", "093251.462500", "093253.462500", "093255.462500", "093257.462500", "093259.462500", "093301.462500", "093303.462500", "093305.462500", "093307.462500", "093309.462500", "093311.462500", "093313.462500", "093315.462500", "093317.462500", "093319.462500", "093321.462500", "093323.462500", "093325.462500", "093327.462500", "093329.462500", "093331.462500", "093333.462500", "093335.462500", "093337.462500", "093339.462500", "093341.462500", "093343.462500", "093345.462500", "093347.462500", "093349.462500", "093351.462500", "093353.462500", "093355.462500", "093357.462500", "093359.462500", "093401.462500", "093403.462500", "093405.462500", "093407.462500", "093409.462500", "093411.462500", "093413.462500", "093415.462500", "093417.462500", "093419.462500", "093421.462500", "093423.462500", "093425.462500", "093427.462500", "093429.462500", "093431.462500", "093433.462500", "093435.462500", "093437.462500", "093439.462500", "093441.462500", "093443.462500", "093445.462500", "093447.462500", "093449.462500", "093451.462500", "093453.462500", "093455.462500", "093457.462500", "093459.462500", "093501.462500", "093503.462500", "093505.462500", "093507.462500", "093509.462500", "093511.462500", "093513.462500", "093515.462500", "093517.462500", "093519.462500", "093521.462500", "093523.462500"],
      "ContentTime": ["092930.725000", "092930.728000", "092930.731000", "092930.734000", "092930.736000", "092930.739000", "092930.742000", "092930.744000", "092930.747000", "092930.749000", "092930.752000", "092930.755000", "092930.757000", "092930.760000", "092930.763000", "092930.765000", "092930.768000", "092930.771000", "092930.773000", "092930.776000", "092930.778000", "092930.781000", "093010.696000", "093010.699000", "093010.701000", "093010.704000", "093010.707000", "093010.709000", "093010.712000", "093010.714000", "093010.717000", "093010.720000", "093010.722000", "093010.725000", "093010.728000", "093010.730000", "093010.733000", "093010.736000", "093010.738000", "093010.741000", "093010.744000", "093010.746000", "093050.692000", "093050.695000", "093050.698000", "093050.700000", "093050.703000", "093050.706000", "093050.708000", "093050.711000", "093050.714000", "093050.716000", "093050.719000", "093050.722000", "093050.724000", "093050.727000", "093050.730000", "093050.732000", "093050.735000", "093050.738000", "093050.740000", "093050.743000", "093130.691000", "093130.694000", "093130.696000", "093130.699000", "093130.701000", "093130.704000", "093130.707000", "093130.709000", "093130.712000", "093130.715000", "093130.717000", "093130.720000", "093130.722000", "093130.725000", "093130.728000", "093130.730000", "093130.733000", "093130.736000", "093130.738000", "093130.741000", "093210.711000", "093210.714000", "093210.717000", "093210.719000", "093210.722000", "093210.725000", "093210.727000", "093210.730000", "093210.733000", "093210.735000", "093210.738000", "093210.740000", "093210.743000", "093210.746000", "093210.748000", "093210.751000", "093210.754000", "093210.756000", "093210.759000", "093210.762000", "093250.693000", "093250.696000", "093250.699000", "093250.701000", "093250.704000", "093250.707000", "093250.710000", "093250.712000", "093250.715000", "093250.717000", "093250.720000", "093250.723000", "093250.725000", "093250.728000", "093250.731000", "093250.733000", "093250.736000", "093250.738000", "093250.741000", "093250.744000", "093330.691000", "093330.694000", "093330.697000", "093330.700000", "093330.702000", "093330.705000", "093330.707000", "093330.710000", "093330.713000", "093330.715000", "093330.718000", "093330.721000", "093330.723000", "093330.726000", "093330.729000", "093330.731000", "093330.734000", "093330.737000", "093330.739000", "093330.742000", "093410.689000", "093410.692000", "093410.695000", "093410.697000", "093410.700000", "093410.703000", "093410.706000", "093410.708000", "093410.711000", "093410.714000", "093410.716000", "093410.719000", "093410.722000", "093410.724000", "093410.727000", "093410.729000", "093410.732000", "093410.735000", "093410.737000", "093410.740000", "093450.706000", "093450.709000", "093450.711000", "093450.714000", "093450.717000", "093450.719000", "093450.722000", "093450.724000", "093450.727000", "093450.730000", "093450.732000", "093450.735000", "093450.738000", "093450.740000", "093450.743000", "093450.746000", "093450.748000", "093450.751000", "093450.754000", "093450.756000", "093526.106000", "093526.109000", "093526.112000", "093526.115000", "093526.118000", "093526.120000", "093526.123000", "093526.126000", "093526.129000", "093526.131000", "093526.134000", "093526.137000", "093526.139000", "093526.142000", "093526.145000", "093526.147000", "093526.150000", "093526.153000"],
      "InstanceCreationTime": ["092930.725000", "092930.728000", "092930.731000", "092930.734000", "092930.736000", "092930.739000", "092930.742000", "092930.744000", "092930.747000", "092930.749000", "092930.752000", "092930.755000", "092930.757000", "092930.760000", "092930.763000", "092930.765000", "092930.768000", "092930.771000", "092930.773000", "092930.776000", "092930.778000", "092930.781000", "093010.696000", "093010.699000", "093010.701000", "093010.704000", "093010.707000", "093010.709000", "093010.712000", "093010.714000", "093010.717000", "093010.720000", "093010.722000", "093010.725000", "093010.728000", "093010.730000", "093010.733000", "093010.736000", "093010.738000", "093010.741000", "093010.744000", "093010.746000", "093050.692000", "093050.695000", "093050.698000", "093050.700000", "093050.703000", "093050.706000", "093050.708000", "093050.711000", "093050.714000", "093050.716000", "093050.719000", "093050.722000", "093050.724000", "093050.727000", "093050.730000", "093050.732000", "093050.735000", "093050.738000", "093050.740000", "093050.743000", "093130.691000", "093130.694000", "093130.696000", "093130.699000", "093130.701000", "093130.704000", "093130.707000", "093130.709000", "093130.712000", "093130.715000", "093130.717000", "093130.720000", "093130.722000", "093130.725000", "093130.728000", "093130.730000", "093130.733000", "093130.736000", "093130.738000", "093130.741000", "093210.711000", "093210.714000", "093210.717000", "093210.719000", "093210.722000", "093210.725000", "093210.727000", "093210.730000", "093210.733000", "093210.735000", "093210.738000", "093210.740000", "093210.743000", "093210.746000", "093210.748000", "093210.751000", "093210.754000", "093210.756000", "093210.759000", "093210.762000", "093250.693000", "093250.696000", "093250.699000", "093250.701000", "093250.704000", "093250.707000", "093250.710000", "093250.712000", "093250.715000", "093250.717000", "093250.720000", "093250.723000", "093250.725000", "093250.728000", "093250.731000", "093250.733000", "093250.736000", "093250.738000", "093250.741000", "093250.744000", "093330.691000", "093330.694000", "093330.697000", "093330.700000", "093330.702000", "093330.705000", "093330.707000", "093330.710000", "093330.713000", "093330.715000", "093330.718000", "093330.721000", "093330.723000", "093330.726000", "093330.729000", "093330.731000", "093330.734000", "093330.737000", "093330.739000", "093330.742000", "093410.689000", "093410.692000", "093410.695000", "093410.697000", "093410.700000", "093410.703000", "093410.706000", "093410.708000", "093410.711000", "093410.714000", "093410.716000", "093410.719000", "093410.722000", "093410.724000", "093410.727000", "093410.729000", "093410.732000", "093410.735000", "093410.737000", "093410.740000", "093450.706000", "093450.709000", "093450.711000", "093450.714000", "093450.717000", "093450.719000", "093450.722000", "093450.724000", "093450.727000", "093450.730000", "093450.732000", "093450.735000", "093450.738000", "093450.740000", "093450.743000", "093450.746000", "093450.748000", "093450.751000", "093450.754000", "093450.756000", "093526.106000", "093526.109000", "093526.112000", "093526.115000", "093526.118000", "093526.120000", "093526.123000", "093526.126000", "093526.129000", "093526.131000", "093526.134000", "093526.137000", "093526.139000", "093526.142000", "093526.145000", "093526.147000", "093526.150000", "093526.153000"],
      "InstanceNumber": [1, 2, 3, 4, 5, 6, 7, 8, 9, 10, 11, 12, 13, 14, 15, 16, 17, 18, 19, 20, 21, 22, 23, 24, 25, 26, 27, 28, 29, 30, 31, 32, 33, 34, 35, 36, 37, 38, 39, 40, 41, 42, 43, 44, 45, 46, 47, 48, 49, 50, 51, 52, 53, 54, 55, 56, 57, 58, 59, 60, 61, 62, 63, 64, 65, 66, 67, 68, 69, 70, 71, 72, 73, 74, 75, 76, 77, 78, 79, 80, 81, 82, 83, 84, 85, 86, 87, 88, 89, 90, 91, 92, 93, 94, 95, 96, 97, 98, 99, 100, 101, 102, 103, 104, 105, 106, 107, 108, 109, 110, 111, 112, 113, 114, 115, 116, 117, 118, 119, 120, 121, 122, 123, 124, 125, 126, 127, 128, 129, 130, 131, 132, 133, 134, 135, 136, 137, 138, 139, 140, 141, 142, 143, 144, 145, 146, 147, 148, 149, 150, 151, 152, 153, 154, 155, 156, 157, 158, 159, 160, 161, 162, 163, 164, 165, 166, 167, 168, 169, 170, 171, 172, 173, 174, 175, 176, 177, 178, 179, 180, 181, 182, 183, 184, 185, 186, 187, 188, 189, 190, 191, 192, 193, 194, 195, 196, 197, 198, 199, 200],
      "LargestImagePixelValue": [336, 336, 336, 336, 335, 334, 336, 336, 336, 335, 336, 338, 335, 336, 335, 336, 336, 338, 337, 336, 335, 336, 335, 335, 337, 335, 335, 335, 336, 337, 336, 336, 335, 337, 335, 335, 336, 334, 337, 336, 337, 336, 337, 335, 336, 337, 335, 337, 335, 337, 338, 337, 336, 337, 338, 336, 336, 336, 335, 336, 335, 335, 336, 336, 335, 336, 337, 337, 336, 337, 337, 336, 337, 334, 335, 336, 335, 336, 338, 335, 335, 336, 336, 337, 336, 338, 334, 335, 336, 336, 336, 337, 335, 336, 337, 334, 336, 335, 335, 334, 335, 335, 335, 336, 335, 336, 336, 337, 337, 335, 335, 336, 335, 336, 335, 336, 335, 336, 335, 336, 335, 334, 336, 336, 336, 335, 336, 336, 335, 335, 337, 336, 335, 336, 336, 335, 336, 336, 335, 335, 336, 336, 336, 335, 337, 335, 336, 335, 335, 335, 335, 336, 335, 336, 336, 336, 338, 334, 334, 336, 337, 335, 334, 335, 335, 336, 336, 337, 335, 336, 335, 336, 335, 335, 335, 336, 336, 336, 335, 336, 336, 336, 334, 336, 336, 335, 336, 335, 335, 336, 335, 335, 335, 336, 336, 336, 336, 337, 337, 336],
      "WindowCenter": [267.0, 268.0, 268.0, 268.0, 268.0, 268.0, 268.0, 268.0, 268.0, 268.0, 268.0, 268.0, 268.0, 268.0, 268.0, 268.0, 268.0, 268.0, 268.0, 267.0, 268.0, 268.0, 268.0, 268.0, 268.0, 268.0, 268.0, 268.0, 268.0, 268.0, 268.0, 268.0, 268.0, 268.0, 268.0, 268.0, 268.0, 268.0, 267.0, 268.0, 268.0, 268.0, 267.0, 268.0, 268.0, 268.0, 268.0, 268.0, 268.0, 268.0, 268.0, 268.0, 268.0, 268.0, 268.0, 268.0, 268.0, 267.0, 268.0, 268.0, 268.0, 267.0, 268.0, 268.0, 268.0, 267.0, 268.0, 267.0, 268.0, 268.0, 268.0, 268.0, 268.0, 268.0, 268.0, 268.0, 268.0, 268.0, 268.0, 267.0, 268.0, 268.0, 267.0, 267.0, 268.0, 268.0, 268.0, 267.0, 268.0, 267.0, 268.0, 268.0, 268.0, 267.0, 268.0, 268.0, 268.0, 268.0, 267.0, 268.0, 267.0, 268.0, 268.0, 268.0, 267.0, 268.0, 268.0, 268.0, 268.0, 268.0, 268.0, 268.0, 268.0, 267.0, 267.0, 267.0, 267.0, 268.0, 267.0, 268.0, 268.0, 267.0, 267.0, 268.0, 268.0, 267.0, 268.0, 268.0, 267.0, 268.0, 268.0, 267.0, 268.0, 268.0, 268.0, 268.0, 267.0, 267.0, 267.0, 268.0, 268.0, 268.0, 268.0, 268.0, 268.0, 268.0, 268.0, 268.0, 268.0, 268.0, 267.0, 267.0, 268.0, 267.0, 268.0, 268.0, 267.0, 267.0, 268.0, 268.0, 268.0, 268.0, 268.0, 267.0, 267.0, 267.0, 267.0, 268.0, 268.0, 268.0, 267.0, 267.0, 267.0, 267.0, 267.0, 268.0, 267.0, 267.0, 267.0, 267.0, 267.0, 267.0, 267.0, 268.0, 267.0, 267.0, 267.0, 267.0, 267.0, 267.0, 267.0, 267.0, 267.0, 267.0, 268.0, 267.0, 268.0, 267.0, 267.0, 267.0],
      "WindowWidth": [588.0, 589.0, 589.0, 589.0, 589.0, 589.0, 589.0, 589.0, 589.0, 589.0, 589.0, 589.0, 589.0, 589.0, 589.0, 589.0, 589.0, 589.0, 589.0, 588.0, 589.0, 589.0, 589.0, 589.0, 589.0, 589.0, 589.0, 589.0, 589.0, 589.0, 589.0, 589.0, 589.0, 589.0, 589.0, 589.0, 589.0, 589.0, 588.0, 589.0, 589.0, 589.0, 588.0, 589.0, 589.0, 589.0, 589.0, 589.0, 589.0, 589.0, 589.0, 589.0, 589.0, 589.0, 589.0, 589.0, 589.0, 588.0, 589.0, 589.0, 588.0, 588.0, 589.0, 589.0, 589.0, 588.0, 589.0, 588.0, 589.0, 589.0, 589.0, 589.0, 589.0, 589.0, 589.0, 589.0, 588.0, 589.0, 589.0, 588.0, 589.0, 589.0, 588.0, 588.0, 588.0, 588.0, 588.0, 588.0, 588.0, 588.0, 588.0, 589.0, 589.0, 588.0, 588.0, 588.0, 589.0, 589.0, 588.0, 588.0, 588.0, 589.0, 589.0, 588.0, 588.0, 588.0, 589.0, 589.0, 589.0, 588.0, 589.0, 588.0, 588.0, 588.0, 588.0, 588.0, 588.0, 589.0, 588.0, 589.0, 588.0, 587.0, 588.0, 588.0, 589.0, 588.0, 589.0, 588.0, 588.0, 588.0, 588.0, 588.0, 588.0, 589.0, 589.0, 588.0, 588.0, 588.0, 588.0, 588.0, 588.0, 589.0, 588.0, 589.0, 588.0, 589.0, 588.0, 589.0, 589.0, 588.0, 588.0, 588.0, 588.0, 587.0, 588.0, 589.0, 588.0, 588.0, 589.0, 588.0, 588.0, 588.0, 588.0, 587.0, 588.0, 588.0, 588.0, 588.0, 588.0, 588.0, 587.0, 588.0, 587.0, 587.0, 587.0, 589.0, 587.0, 587.0, 587.0, 587.0, 588.0, 588.0, 588.0, 589.0, 587.0, 588.0, 588.0, 587.0, 587.0, 587.0, 587.0, 587.0, 588.0, 588.0, 588.0, 588.0, 589.0, 588.0, 587.0, 587.0]
    },
    "slices": {}
  }
}