{
  "AcquisitionMatrixPE": 80,
  "AcquisitionNumber": 1,
  "AcquisitionTime": "09:28:45.462500",
  "BandwidthPerPixelPhaseEncode": 25,
  "BaseResolution": 80,
  "BodyPartExamined": "BRAIN",
  "CoilCombinationMethod": "Sum of Squares",
  "ConsistencyInfo": "N4_VE11C_LATEST_20160120",
  "ConversionSoftware": "dcm2niix",
  "ConversionSoftwareVersion": "v1.0.20220720",
  "DerivedVendorReportedEchoSpacing": 0.0005,
  "DeviceSerialNumber": "66112",
  "DwellTime": 2.7e-06,
  "EchoTime": 0.03,
  "EchoTrainLength": 80,
  "EffectiveEchoSpacing": 0.0005,
  "FlipAngle": 10,
  "HeudiconvVersion": "0.13.1",
  "ImageOrientationPatientDICOM": [0.983329, 0.181435, 0.0120723, -0.176397, 0.935699, 0.305536],
  "ImageOrientationText": "Tra>Cor(17.6)>Sag(-2.5)",
  "ImageType": [
    "ORIGINAL",
    "PRIMARY",
    "M",
    "ND",
    "NORM",
    "MOSAIC"
],
  "ImagingFrequency": 123.252,
  "InPlanePhaseEncodingDirectionDICOM": "COL",
  "InstitutionAddress": "Maynard 3,Hanover,NH,US,03755",
  "InstitutionName": "Dartmouth College - PBS",
  "InstitutionalDepartmentName": "Department",
  "MRAcquisitionType": "2D",
  "MagneticFieldStrength": 3,
  "Manufacturer": "Siemens",
  "ManufacturersModelName": "Prisma",
  "MatrixCoilMode": "SENSE",
  "Modality": "MR",
  "NonlinearGradientCorrection": false,
  "PartialFourier": 1,
  "PatientPosition": "HFS",
  "PercentPhaseFOV": 100,
  "PercentSampling": 100,
  "PhaseEncodingDirection": "j-",
  "PhaseEncodingSteps": 80,
  "PhaseResolution": 1,
  "PixelBandwidth": 2315,
  "ProcedureStepDescription": "dbic^QA",
  "ProtocolName": "func-bold_acq-32ch-10flip",
  "PulseSequenceDetails": "%SiemensSeq%\\ep2d_bold",
  "ReceiveCoilActiveElements": "HEA;HEP",
  "ReceiveCoilName": "Head_32",
  "ReconMatrixPE": 80,
  "RepetitionTime": 2,
  "SAR": 0.0137944,
  "ScanOptions": "FS",
  "ScanningSequence": "EP",
  "SequenceName": "*epfid2d1_80",
  "SequenceVariant": "SK",
  "SeriesDescription": "func-bold_acq-32ch-10flip",
  "SeriesNumber": 10,
  "ShimSetting": [4145, -7697, -7502, 257, -68, -143, -79, 35],
  "SliceThickness": 3.5,
  "SliceTiming": [0.99, 0, 1.055, 0.065, 1.12, 0.1325, 1.1875, 0.1975, 1.2525, 0.2625, 1.32, 0.33, 1.385, 0.395, 1.45, 0.4625, 1.5175, 0.5275, 1.5825, 0.5925, 1.65, 0.66, 1.715, 0.725, 1.78, 0.79, 1.8475, 0.8575, 1.9125, 0.9225],
  "SoftwareVersions": "syngo MR E11",
  "SpacingBetweenSlices": 3.99,
  "StationName": "AWP66112",
  "TotalReadoutTime": 0.0395,
  "TxRefAmp": 242.251,
  "dcmmeta_affine": [
    [-2.949986696243286, -0.5291918516159058, -0.17611362040042877, 144.13803100585938],
    [-0.5443035960197449, 2.807095527648926, 1.2072618007659912, -96.87387084960938],
    [0.03621688857674599, -0.9166079759597778, 3.7988948822021484, -7.297454357147217],
    [0.0, 0.0, 0.0, 1.0]
],
  "dcmmeta_reorient_transform": [
    [0.0, -1.0, 0.0, 79.0],
    [1.0, 0.0, 0.0, 0.0],
    [0.0, 0.0, 1.0, 0.0],
    [0.0, 0.0, 0.0, 1.0]
],
  "dcmmeta_shape": [80, 80, 30, 200],
  "dcmmeta_slice_dim": 2,
  "dcmmeta_version": 0.6,
  "global": {
    "const": {
      "AccessionNumber": "qa",
      "AcquisitionMatrix": [80, 0, 0, 80],
      "AngioFlag": "N",
      "BitsAllocated": 16,
      "BitsStored": 12,
      "BodyPartExamined": "BRAIN",
      "Columns": 480,
      "EchoNumbers": 1,
      "EchoTime": 30.0,
      "EchoTrainLength": 80,
      "FlipAngle": 10.0,
      "HighBit": 11,
      "ImageOrientationPatient": [0.98332892143593, 0.18143453899672, 0.0120722958341, -0.1763972873066, 0.93569854142043, 0.30553598252014],
      "ImagePositionPatient": [-586.49084809866, -795.16652831142, -270.27444936769],
      "ImageType": [
        "ORIGINAL",
        "PRIMARY",
        "M",
        "ND",
        "NORM",
        "MOSAIC"
],
      "ImagedNucleus": "1H",
      "ImagingFrequency": 123.252448,
      "InPlanePhaseEncodingDirection": "COL",
      "MRAcquisitionType": "2D",
      "MagneticFieldStrength": 3.0,
      "Manufacturer": "SIEMENS",
      "ManufacturerModelName": "Prisma",
      "Modality": "MR",
      "NumberOfAverages": 1.0,
      "NumberOfPhaseEncodingSteps": 80,
      "PercentPhaseFieldOfView": 100.0,
      "PercentSampling": 100.0,
      "PerformedProcedureStepStartTime": "090629.955000",
      "PhotometricInterpretation": "MONOCHROME2",
      "PixelBandwidth": 2315.0,
      "PixelRepresentation": 0,
      "PixelSpacing": [3.0, 3.0],
      "ProtocolName": "func-bold_acq-32ch-10flip",
      "RepetitionTime": 2000.0,
      "Rows": 480,
      "SAR": 0.01379439884381,
      "SamplesPerPixel": 1,
      "ScanOptions": "FS",
      "ScanningSequence": "EP",
      "SequenceName": "*epfid2d1_80",
      "SequenceVariant": "SK",
      "SeriesDescription": "func-bold_acq-32ch-10flip",
      "SeriesNumber": 10,
      "SeriesTime": "092930.617000",
      "SliceLocation": -42.62131898676,
      "SliceThickness": 3.5,
      "SmallestImagePixelValue": 0,
      "SoftwareVersions": "syngo MR E11",
      "SpacingBetweenSlices": 3.9899999878261,
      "SpecificCharacterSet": "ISO_IR 100",
      "StudyID": "6",
      "StudyTime": "090629.818000",
      "TransmitCoilName": "Body",
      "VariableFlipAngleFlag": "N",
      "WindowCenterWidthExplanation": "Algo1",
      "dBdt": 0.0},
    "slices": {}
  },
  "time": {
    "samples": {
      "AcquisitionNumber": [1, 2, 3, 4, 5, 6, 7, 8, 9, 10, 11, 12, 13, 14, 15, 16, 17, 18, 19, 20, 21, 22, 23, 24, 25, 26, 27, 28, 29, 30, 31, 32, 33, 34, 35, 36, 37, 38, 39, 40, 41, 42, 43, 44, 45, 46, 47, 48, 49, 50, 51, 52, 53, 54, 55, 56, 57, 58, 59, 60, 61, 62, 63, 64, 65, 66, 67, 68, 69, 70, 71, 72, 73, 74, 75, 76, 77, 78, 79, 80, 81, 82, 83, 84, 85, 86, 87, 88, 89, 90, 91, 92, 93, 94, 95, 96, 97, 98, 99, 100, 101, 102, 103, 104, 105, 106, 107, 108, 109, 110, 111, 112, 113, 114, 115, 116, 117, 118, 119, 120, 121, 122, 123, 124, 125, 126, 127, 128, 129, 130, 131, 132, 133, 134, 135, 136, 137, 138, 139, 140, 141, 142, 143, 144, 145, 146, 147, 148, 149, 150, 151, 152, 153, 154, 155, 156, 157, 158, 159, 160, 161, 162, 163, 164, 165, 166, 167, 168, 169, 170, 171, 172, 173, 174, 175, 176, 177, 178, 179, 180, 181, 182, 183, 184, 185, 186, 187, 188, 189, 190, 191, 192, 193, 194, 195, 196, 197, 198, 199, 200],
      "AcquisitionTime": ["092845.462500", "092847.462500", "092849.462500", "092851.462500", "092853.462500", "092855.462500", "092857.462500", "092859.462500", "092901.462500", "092903.462500", "092905.462500", "092907.462500", "092909.462500", "092911.462500", "092913.462500", "092915.462500", "092917.462500", "092919.462500", "092921.462500", "092923.462500", "092925.462500", "092927.462500", "092929.462500", "092931.462500", "092933.462500", "092935.462500", "092937.462500", "092939.462500", "092941.462500", "092943.462500", "092945.462500", "092947.462500", "092949.462500", "092951.462500", "092953.462500", "092955.462500", "092957.462500", "092959.462500", "093001.462500", "093003.462500", "093005.462500", "093007.462500", "093009.462500", "093011.462500", "093013.462500", "093015.462500", "093017.462500", "093019.462500", "093021.462500", "093023.462500", "093025.462500", "093027.462500", "093029.462500", "093031.462500", "093033.462500", "093035.462500", "093037.462500", "093039.462500", "093041.462500", "093043.462500", "093045.462500", "093047.462500", "093049.462500", "093051.462500", "093053.462500", "093055.462500", "093057.462500", "093059.462500", "093101.462500", "093103.462500", "093105.462500", "093107.462500", "093109.462500", "093111.462500", "093113.462500", "093115.462500", "093117.462500", "093119.462500", "093121.462500", "093123.462500", "093125.462500", "093127.462500", "093129.462500", "093131.462500", "093133.462500", "093135.462500", "093137.462500", "093139.462500", "093141.462500", "093143.462500", "093145.462500", "093147.462500", "093149.462500", "093151.462500", "093153.462500", "093155.462500", "093157.462500", "093159.462500", "093201.462500", "093203.462500", "093205.462500", "093207.462500", "093209.462500", "093211.462500", "093213.462500", "093215.462500", "093217.462500", "093219.462500", "093221.462500", "093223.462500", "093225.462500", "093227.462500", "093229.462500", "093231.462500", "093233.462500", "093235.462500", "093237.462500", "093239.462500", "093241.462500", "093243.462500", "093245.462500", "093247.462500", "093249.462500", "093251.462500", "093253.462500", "093255.462500", "093257.462500", "093259.462500", "093301.462500", "093303.462500", "093305.462500", "093307.462500", "093309.462500", "093311.462500", "093313.462500", "093315.462500", "093317.462500", "093319.462500", "093321.462500", "093323.462500", "093325.462500", "093327.462500", "093329.462500", "093331.462500", "093333.462500", "093335.462500", "093337.462500", "093339.462500", "093341.462500", "093343.462500", "093345.462500", "093347.462500", "093349.462500", "093351.462500", "093353.462500", "093355.462500", "093357.462500", "093359.462500", "093401.462500", "093403.462500", "093405.462500", "093407.462500", "093409.462500", "093411.462500", "093413.462500", "093415.462500", "093417.462500", "093419.462500", "093421.462500", "093423.462500", "093425.462500", "093427.462500", "093429.462500", "093431.462500", "093433.462500", "093435.462500", "093437.462500", "093439.462500", "093441.462500", "093443.462500", "093445.462500", "093447.462500", "093449.462500", "093451.462500", "093453.462500", "093455.462500", "093457.462500", "093459.462500", "093501.462500", "093503.462500", "093505.462500", "093507.462500", "093509.462500", "093511.462500", "093513.462500", "093515.462500", "093517.462500", "093519.462500", "093521.462500", "093523.462500"],
      "ContentTime": ["092930.620000", "092930.624000", "092930.626000", "092930.629000", "092930.632000", "092930.634000", "092930.637000", "092930.639000", "092930.642000", "092930.644000", "092930.656000", "092930.659000", "092930.661000", "092930.664000", "092930.666000", "092930.669000", "092930.671000", "092930.674000", "092930.677000", "092930.679000", "092930.682000", "092930.684000", "093010.616000", "093010.619000", "093010.622000", "093010.624000", "093010.627000", "093010.630000", "093010.632000", "093010.635000", "093010.637000", "093010.640000", "093010.642000", "093010.645000", "093010.647000", "093010.650000", "093010.652000", "093010.655000", "093010.658000", "093010.660000", "093010.663000", "093010.665000", "093050.615000", "093050.618000", "093050.621000", "093050.623000", "093050.626000", "093050.629000", "093050.631000", "093050.634000", "093050.636000", "093050.639000", "093050.641000", "093050.644000", "093050.646000", "093050.649000", "093050.652000", "093050.654000", "093050.657000", "093050.659000", "093050.662000", "093050.664000", "093130.616000", "093130.618000", "093130.621000", "093130.624000", "093130.626000", "093130.629000", "093130.631000", "093130.634000", "093130.636000", "093130.639000", "093130.641000", "093130.644000", "093130.647000", "093130.649000", "093130.652000", "093130.654000", "093130.657000", "093130.659000", "093130.662000", "093130.665000", "093210.616000", "093210.618000", "093210.621000", "093210.624000", "093210.626000", "093210.629000", "093210.631000", "093210.634000", "093210.636000", "093210.639000", "093210.641000", "093210.644000", "093210.646000", "093210.664000", "093210.666000", "093210.669000", "093210.671000", "093210.674000", "093210.677000", "093210.679000", "093250.617000", "093250.619000", "093250.622000", "093250.625000", "093250.627000", "093250.630000", "093250.632000", "093250.635000", "093250.637000", "093250.640000", "093250.643000", "093250.645000", "093250.648000", "093250.650000", "093250.653000", "093250.655000", "093250.658000", "093250.660000", "093250.663000", "093250.666000", "093330.616000", "093330.618000", "093330.621000", "093330.624000", "093330.626000", "093330.629000", "093330.631000", "093330.634000", "093330.636000", "093330.639000", "093330.642000", "093330.644000", "093330.647000", "093330.649000", "093330.652000", "093330.654000", "093330.657000", "093330.660000", "093330.662000", "093330.665000", "093410.616000", "093410.618000", "093410.621000", "093410.623000", "093410.626000", "093410.629000", "093410.631000", "093410.634000", "093410.636000", "093410.639000", "093410.642000", "093410.644000", "093410.647000", "093410.649000", "093410.652000", "093410.654000", "093410.657000", "093410.660000", "093410.662000", "093410.665000", "093450.616000", "093450.619000", "093450.622000", "093450.625000", "093450.627000", "093450.630000", "093450.632000", "093450.635000", "093450.647000", "093450.649000", "093450.652000", "093450.654000", "093450.657000", "093450.659000", "093450.662000", "093450.664000", "093450.667000", "093450.670000", "093450.672000", "093450.675000", "093526.006000", "093526.009000", "093526.011000", "093526.014000", "093526.017000", "093526.019000", "093526.022000", "093526.024000", "093526.027000", "093526.029000", "093526.032000", "093526.035000", "093526.044000", "093526.051000", "093526.054000", "093526.056000", "093526.060000", "093526.064000"],
      "InstanceCreationTime": ["092930.620000", "092930.624000", "092930.626000", "092930.629000", "092930.632000", "092930.634000", "092930.637000", "092930.639000", "092930.642000", "092930.644000", "092930.656000", "092930.659000", "092930.661000", "092930.664000", "092930.666000", "092930.669000", "092930.671000", "092930.674000", "092930.677000", "092930.679000", "092930.682000", "092930.684000", "093010.616000", "093010.619000", "093010.622000", "093010.624000", "093010.627000", "093010.630000", "093010.632000", "093010.635000", "093010.637000", "093010.640000", "093010.642000", "093010.645000", "093010.647000", "093010.650000", "093010.652000", "093010.655000", "093010.658000", "093010.660000", "093010.663000", "093010.665000", "093050.615000", "093050.618000", "093050.621000", "093050.623000", "093050.626000", "093050.629000", "093050.631000", "093050.634000", "093050.636000", "093050.639000", "093050.641000", "093050.644000", "093050.646000", "093050.649000", "093050.652000", "093050.654000", "093050.657000", "093050.659000", "093050.662000", "093050.664000", "093130.616000", "093130.618000", "093130.621000", "093130.624000", "093130.626000", "093130.629000", "093130.631000", "093130.634000", "093130.636000", "093130.639000", "093130.641000", "093130.644000", "093130.647000", "093130.649000", "093130.652000", "093130.654000", "093130.657000", "093130.659000", "093130.662000", "093130.665000", "093210.616000", "093210.618000", "093210.621000", "093210.624000", "093210.626000", "093210.629000", "093210.631000", "093210.634000", "093210.636000", "093210.639000", "093210.641000", "093210.644000", "093210.646000", "093210.664000", "093210.666000", "093210.669000", "093210.671000", "093210.674000", "093210.677000", "093210.679000", "093250.617000", "093250.619000", "093250.622000", "093250.625000", "093250.627000", "093250.630000", "093250.632000", "093250.635000", "093250.637000", "093250.640000", "093250.643000", "093250.645000", "093250.648000", "093250.650000", "093250.653000", "093250.655000", "093250.658000", "093250.660000", "093250.663000", "093250.666000", "093330.616000", "093330.618000", "093330.621000", "093330.624000", "093330.626000", "093330.629000", "093330.631000", "093330.634000", "093330.636000", "093330.639000", "093330.642000", "093330.644000", "093330.647000", "093330.649000", "093330.652000", "093330.654000", "093330.657000", "093330.660000", "093330.662000", "093330.665000", "093410.616000", "093410.618000", "093410.621000", "093410.623000", "093410.626000", "093410.629000", "093410.631000", "093410.634000", "093410.636000", "093410.639000", "093410.642000", "093410.644000", "093410.647000", "093410.649000", "093410.652000", "093410.654000", "093410.657000", "093410.660000", "093410.662000", "093410.665000", "093450.616000", "093450.619000", "093450.622000", "093450.625000", "093450.627000", "093450.630000", "093450.632000", "093450.635000", "093450.647000", "093450.649000", "093450.652000", "093450.654000", "093450.657000", "093450.659000", "093450.662000", "093450.664000", "093450.667000", "093450.670000", "093450.672000", "093450.675000", "093526.006000", "093526.009000", "093526.011000", "093526.014000", "093526.017000", "093526.019000", "093526.022000", "093526.024000", "093526.027000", "093526.029000", "093526.032000", "093526.035000", "093526.044000", "093526.051000", "093526.054000", "093526.056000", "093526.060000", "093526.064000"],
      "InstanceNumber": [1, 2, 3, 4, 5, 6, 7, 8, 9, 10, 11, 12, 13, 14, 15, 16, 17, 18, 19, 20, 21, 22, 23, 24, 25, 26, 27, 28, 29, 30, 31, 32, 33, 34, 35, 36, 37, 38, 39, 40, 41, 42, 43, 44, 45, 46, 47, 48, 49, 50, 51, 52, 53, 54, 55, 56, 57, 58, 59, 60, 61, 62, 63, 64, 65, 66, 67, 68, 69, 70, 71, 72, 73, 74, 75, 76, 77, 78, 79, 80, 81, 82, 83, 84, 85, 86, 87, 88, 89, 90, 91, 92, 93, 94, 95, 96, 97, 98, 99, 100, 101, 102, 103, 104, 105, 106, 107, 108, 109, 110, 111, 112, 113, 114, 115, 116, 117, 118, 119, 120, 121, 122, 123, 124, 125, 126, 127, 128, 129, 130, 131, 132, 133, 134, 135, 136, 137, 138, 139, 140, 141, 142, 143, 144, 145, 146, 147, 148, 149, 150, 151, 152, 153, 154, 155, 156, 157, 158, 159, 160, 161, 162, 163, 164, 165, 166, 167, 168, 169, 170, 171, 172, 173, 174, 175, 176, 177, 178, 179, 180, 181, 182, 183, 184, 185, 186, 187, 188, 189, 190, 191, 192, 193, 194, 195, 196, 197, 198, 199, 200],
      "LargestImagePixelValue": [336, 336, 337, 336, 335, 334, 336, 337, 336, 336, 336, 338, 336, 336, 335, 336, 336, 338, 337, 336, 336, 336, 336, 336, 337, 336, 336, 335, 336, 338, 336, 336, 335, 337, 336, 335, 336, 335, 337, 336, 337, 336, 337, 335, 336, 337, 335, 337, 335, 337, 338, 337, 336, 337, 338, 336, 336, 337, 335, 336, 336, 335, 337, 336, 335, 336, 337, 337, 336, 337, 337, 336, 337, 334, 336, 336, 335, 336, 338, 335, 335, 336, 336, 337, 336, 338, 334, 335, 336, 336, 336, 337, 335, 337, 337, 334, 336, 335, 335, 334, 335, 335, 336, 336, 336, 336, 336, 337, 337, 335, 335, 336, 335, 336, 335, 336, 335, 336, 335, 336, 335, 334, 336, 336, 336, 335, 336, 336, 335, 335, 337, 336, 335, 336, 336, 335, 336, 336, 335, 335, 336, 336, 336, 335, 337, 335, 336, 335, 335, 335, 335, 336, 335, 336, 336, 336, 338, 334, 334, 336, 337, 335, 334, 335, 335, 336, 336, 337, 335, 336, 335, 336, 335, 335, 335, 336, 336, 336, 335, 336, 336, 336, 334, 336, 336, 335, 336, 335, 335, 336, 335, 335, 335, 336, 336, 336, 336, 337, 337, 336],
      "WindowCenter": [267.0, 268.0, 268.0, 268.0, 268.0, 268.0, 268.0, 268.0, 268.0, 268.0, 268.0, 268.0, 268.0, 268.0, 268.0, 268.0, 268.0, 268.0, 268.0, 267.0, 268.0, 268.0, 268.0, 268.0, 268.0, 268.0, 268.0, 268.0, 268.0, 268.0, 268.0, 268.0, 268.0, 268.0, 268.0, 268.0, 268.0, 268.0, 267.0, 268.0, 268.0, 268.0, 267.0, 268.0, 268.0, 268.0, 268.0, 268.0, 268.0, 268.0, 268.0, 268.0, 268.0, 268.0, 268.0, 268.0, 268.0, 267.0, 268.0, 268.0, 268.0, 267.0, 268.0, 268.0, 268.0, 267.0, 268.0, 267.0, 268.0, 268.0, 268.0, 268.0, 268.0, 268.0, 268.0, 268.0, 268.0, 268.0, 268.0, 267.0, 268.0, 268.0, 267.0, 267.0, 268.0, 268.0, 268.0, 267.0, 268.0, 267.0, 268.0, 268.0, 268.0, 267.0, 268.0, 268.0, 268.0, 268.0, 267.0, 268.0, 267.0, 268.0, 268.0, 268.0, 267.0, 268.0, 268.0, 268.0, 268.0, 268.0, 268.0, 268.0, 268.0, 267.0, 267.0, 267.0, 267.0, 268.0, 267.0, 268.0, 268.0, 267.0, 267.0, 268.0, 268.0, 267.0, 268.0, 268.0, 267.0, 268.0, 268.0, 267.0, 268.0, 268.0, 268.0, 268.0, 267.0, 267.0, 267.0, 268.0, 268.0, 268.0, 268.0, 268.0, 268.0, 268.0, 268.0, 268.0, 268.0, 268.0, 267.0, 267.0, 268.0, 267.0, 268.0, 268.0, 267.0, 267.0, 268.0, 268.0, 268.0, 268.0, 268.0, 267.0, 267.0, 267.0, 267.0, 268.0, 268.0, 268.0, 267.0, 267.0, 267.0, 267.0, 267.0, 268.0, 267.0, 267.0, 267.0, 267.0, 267.0, 267.0, 267.0, 268.0, 267.0, 267.0, 267.0, 267.0, 267.0, 267.0, 267.0, 267.0, 267.0, 267.0, 268.0, 267.0, 268.0, 267.0, 267.0, 267.0],
      "WindowWidth": [588.0, 589.0, 589.0, 589.0, 589.0, 589.0, 589.0, 589.0, 589.0, 589.0, 589.0, 589.0, 589.0, 589.0, 589.0, 589.0, 589.0, 589.0, 589.0, 588.0, 589.0, 589.0, 589.0, 589.0, 589.0, 589.0, 589.0, 589.0, 589.0, 589.0, 589.0, 589.0, 589.0, 589.0, 589.0, 589.0, 589.0, 589.0, 588.0, 589.0, 588.0, 589.0, 588.0, 589.0, 589.0, 589.0, 589.0, 589.0, 589.0, 589.0, 589.0, 589.0, 589.0, 589.0, 589.0, 589.0, 589.0, 588.0, 589.0, 589.0, 588.0, 588.0, 589.0, 589.0, 589.0, 588.0, 589.0, 588.0, 589.0, 589.0, 589.0, 589.0, 589.0, 589.0, 589.0, 589.0, 588.0, 589.0, 589.0, 588.0, 589.0, 589.0, 588.0, 588.0, 588.0, 588.0, 588.0, 588.0, 588.0, 588.0, 588.0, 589.0, 589.0, 588.0, 588.0, 588.0, 589.0, 589.0, 588.0, 588.0, 588.0, 589.0, 589.0, 588.0, 588.0, 588.0, 589.0, 589.0, 589.0, 588.0, 589.0, 588.0, 588.0, 588.0, 588.0, 588.0, 588.0, 589.0, 588.0, 589.0, 588.0, 587.0, 587.0, 588.0, 589.0, 588.0, 589.0, 588.0, 588.0, 588.0, 588.0, 588.0, 588.0, 589.0, 589.0, 588.0, 588.0, 588.0, 588.0, 588.0, 588.0, 589.0, 588.0, 589.0, 588.0, 589.0, 588.0, 589.0, 589.0, 588.0, 588.0, 588.0, 588.0, 587.0, 588.0, 589.0, 588.0, 588.0, 589.0, 588.0, 588.0, 588.0, 588.0, 587.0, 588.0, 588.0, 588.0, 588.0, 588.0, 588.0, 587.0, 588.0, 587.0, 587.0, 587.0, 589.0, 587.0, 587.0, 587.0, 587.0, 588.0, 588.0, 588.0, 589.0, 587.0, 588.0, 588.0, 587.0, 587.0, 587.0, 587.0, 587.0, 588.0, 588.0, 588.0, 588.0, 589.0, 588.0, 587.0, 587.0]
    },
    "slices": {}
  }
}