{
  "AcquisitionMatrixPE": 80,
  "AcquisitionNumber": 1,
  "AcquisitionTime": "09:08:15.222500",
  "BandwidthPerPixelPhaseEncode": 48.077,
  "BaseResolution": 80,
  "BodyPartExamined": "BRAIN",
  "CoilCombinationMethod": "Sum of Squares",
  "ConsistencyInfo": "N4_VE11C_LATEST_20160120",
  "ConversionSoftware": "dcm2niix",
  "ConversionSoftwareVersion": "v1.0.20220720",
  "DerivedVendorReportedEchoSpacing": 0.000519999,
  "DeviceSerialNumber": "66112",
  "DwellTime": 2.7e-06,
  "EchoTime": 0.035,
  "EchoTrainLength": 39,
  "EffectiveEchoSpacing": 0.00026,
  "FlipAngle": 90,
  "HeudiconvVersion": "0.13.1",
  "ImageComments": "Reference volume for motion correction.",
  "ImageOrientationPatientDICOM": [0.983329, 0.181435, 0.0120723, -0.176397, 0.935699, 0.305536],
  "ImageOrientationText": "Tra>Cor(17.6)>Sag(-2.5)",
  "ImageType": [
    "ORIGINAL",
    "PRIMARY",
    "M",
    "ND",
    "NORM",
    "MOCO",
    "MOSAIC"
],
  "ImagingFrequency": 123.252,
  "InPlanePhaseEncodingDirectionDICOM": "COL",
  "InstitutionAddress": "Maynard 3,Hanover,NH,US,03755",
  "InstitutionName": "Dartmouth College - PBS",
  "InstitutionalDepartmentName": "Department",
  "MRAcquisitionType": "2D",
  "MagneticFieldStrength": 3,
  "Manufacturer": "Siemens",
  "ManufacturersModelName": "Prisma",
  "MatrixCoilMode": "GRAPPA",
  "Modality": "MR",
  "NonlinearGradientCorrection": false,
  "ParallelReductionFactorInPlane": 2,
  "PartialFourier": 1,
  "PatientPosition": "HFS",
  "PercentPhaseFOV": 100,
  "PercentSampling": 100,
  "PhaseEncodingDirection": "j-",
  "PhaseEncodingSteps": 79,
  "PhaseResolution": 1,
  "PixelBandwidth": 2315,
  "ProcedureStepDescription": "dbic^QA",
  "ProtocolName": "func-bold_task-rest_acq-p2_MoCo",
  "PulseSequenceDetails": "%SiemensSeq%\\ep2d_bold",
  "ReceiveCoilActiveElements": "HEA;HEP",
  "ReceiveCoilName": "Head_32",
  "ReconMatrixPE": 80,
  "RefLinesPE": 24,
  "RepetitionTime": 2,
  "SAR": 0.0654372,
  "ScanOptions": "FS",
  "ScanningSequence": "EP",
  "SequenceName": "*epfid2d1_80",
  "SequenceVariant": "SK",
  "SeriesDescription": "MoCoSeries",
  "SeriesNumber": 6,
  "ShimSetting": [4145, -7697, -7502, 256, -68, -142, -80, 36],
  "SliceThickness": 3.5,
  "SliceTiming": [0.99, 0, 1.055, 0.065, 1.1225, 0.1325, 1.1875, 0.1975, 1.2525, 0.2625, 1.32, 0.33, 1.385, 0.395, 1.4525, 0.4625, 1.5175, 0.5275, 1.5825, 0.5925, 1.65, 0.66, 1.715, 0.725, 1.7825, 0.7925, 1.8475, 0.8575, 1.9125, 0.9225],
  "SoftwareVersions": "syngo MR E11",
  "SpacingBetweenSlices": 3.99,
  "StationName": "AWP66112",
  "TaskName": "rest",
  "TotalReadoutTime": 0.02054,
  "TxRefAmp": 242.251,
  "dcmmeta_affine": [
    [-2.949986696243286, -0.5291918516159058, -0.17611362040042877, 145.00314331054688],
    [-0.5443035960197449, 2.807095527648926, 1.2072618007659912, -101.60350799560547],
    [0.03621688857674599, -0.9166079759597778, 3.7988948822021484, -7.901069164276123],
    [0.0, 0.0, 0.0, 1.0]
],
  "dcmmeta_reorient_transform": [
    [0.0, -1.0, 0.0, 79.0],
    [1.0, 0.0, 0.0, 0.0],
    [0.0, 0.0, 1.0, 0.0],
    [0.0, 0.0, 0.0, 1.0]
],
  "dcmmeta_shape": [80, 80, 30, 200],
  "dcmmeta_slice_dim": 2,
  "dcmmeta_version": 0.6,
  "global": {
    "const": {
      "AccessionNumber": "qa",
      "AcquisitionMatrix": [80, 0, 0, 80],
      "AngioFlag": "N",
      "BitsAllocated": 16,
      "BitsStored": 12,
      "BodyPartExamined": "BRAIN",
      "Columns": 480,
      "EchoNumbers": 1,
      "EchoTime": 35.0,
      "EchoTrainLength": 39,
      "FlipAngle": 90.0,
      "HighBit": 11,
      "ImageOrientationPatient": [0.98332892143593, 0.18143453899672, 0.0120722958341, -0.1763972873066, 0.93569854142043, 0.30553598252014],
      "ImagePositionPatient": [-587.35596469488, -790.43689498012, -270.87806417482],
      "ImageType": [
        "ORIGINAL",
        "PRIMARY",
        "M",
        "ND",
        "NORM",
        "MOCO",
        "MOSAIC"
],
      "ImagedNucleus": "1H",
      "ImagingFrequency": 123.252456,
      "InPlanePhaseEncodingDirection": "COL",
      "MRAcquisitionType": "2D",
      "MagneticFieldStrength": 3.0,
      "Manufacturer": "SIEMENS",
      "ManufacturerModelName": "Prisma",
      "Modality": "MR",
      "NumberOfAverages": 1.0,
      "NumberOfPhaseEncodingSteps": 79,
      "PercentPhaseFieldOfView": 100.0,
      "PercentSampling": 100.0,
      "PerformedProcedureStepStartTime": "090629.955000",
      "PhotometricInterpretation": "MONOCHROME2",
      "PixelBandwidth": 2315.0,
      "PixelRepresentation": 0,
      "PixelSpacing": [3.0, 3.0],
      "ProtocolName": "func-bold_task-rest_acq-p2",
      "RepetitionTime": 2000.0,
      "Rows": 480,
      "SAR": 0.06543722794937,
      "SamplesPerPixel": 1,
      "ScanOptions": "FS",
      "ScanningSequence": "EP",
      "SequenceName": "*epfid2d1_80",
      "SequenceVariant": "SK",
      "SeriesDescription": "MoCoSeries",
      "SeriesNumber": 6,
      "SeriesTime": "090910.741000",
      "SliceLocation": -44.665262311952,
      "SliceThickness": 3.5,
      "SmallestImagePixelValue": 0,
      "SoftwareVersions": "syngo MR E11",
      "SpacingBetweenSlices": 3.9899999878715,
      "SpecificCharacterSet": "ISO_IR 100",
      "StudyID": "6",
      "StudyTime": "090629.818000",
      "TransmitCoilName": "Body",
      "VariableFlipAngleFlag": "N",
      "WindowCenterWidthExplanation": "Algo1",
      "dBdt": 0.0},
    "slices": {}
  },
  "time": {
    "samples": {
      "AcquisitionNumber": [1, 2, 3, 4, 5, 6, 7, 8, 9, 10, 11, 12, 13, 14, 15, 16, 17, 18, 19, 20, 21, 22, 23, 24, 25, 26, 27, 28, 29, 30, 31, 32, 33, 34, 35, 36, 37, 38, 39, 40, 41, 42, 43, 44, 45, 46, 47, 48, 49, 50, 51, 52, 53, 54, 55, 56, 57, 58, 59, 60, 61, 62, 63, 64, 65, 66, 67, 68, 69, 70, 71, 72, 73, 74, 75, 76, 77, 78, 79, 80, 81, 82, 83, 84, 85, 86, 87, 88, 89, 90, 91, 92, 93, 94, 95, 96, 97, 98, 99, 100, 101, 102, 103, 104, 105, 106, 107, 108, 109, 110, 111, 112, 113, 114, 115, 116, 117, 118, 119, 120, 121, 122, 123, 124, 125, 126, 127, 128, 129, 130, 131, 132, 133, 134, 135, 136, 137, 138, 139, 140, 141, 142, 143, 144, 145, 146, 147, 148, 149, 150, 151, 152, 153, 154, 155, 156, 157, 158, 159, 160, 161, 162, 163, 164, 165, 166, 167, 168, 169, 170, 171, 172, 173, 174, 175, 176, 177, 178, 179, 180, 181, 182, 183, 184, 185, 186, 187, 188, 189, 190, 191, 192, 193, 194, 195, 196, 197, 198, 199, 200],
      "AcquisitionTime": ["090815.222500", "090817.222500", "090819.222500", "090821.222500", "090823.222500", "090825.222500", "090827.222500", "090829.222500", "090831.222500", "090833.222500", "090835.222500", "090837.222500", "090839.222500", "090841.222500", "090843.222500", "090845.222500", "090847.222500", "090849.222500", "090851.222500", "090853.222500", "090855.222500", "090857.222500", "090859.222500", "090901.222500", "090903.222500", "090905.222500", "090907.222500", "090909.222500", "090911.222500", "090913.222500", "090915.222500", "090917.222500", "090919.222500", "090921.222500", "090923.222500", "090925.222500", "090927.222500", "090929.222500", "090931.222500", "090933.222500", "090935.222500", "090937.222500", "090939.222500", "090941.222500", "090943.222500", "090945.222500", "090947.222500", "090949.222500", "090951.222500", "090953.222500", "090955.222500", "090957.222500", "090959.222500", "091001.222500", "091003.222500", "091005.222500", "091007.222500", "091009.222500", "091011.222500", "091013.222500", "091015.222500", "091017.222500", "091019.222500", "091021.222500", "091023.222500", "091025.222500", "091027.222500", "091029.222500", "091031.222500", "091033.222500", "091035.222500", "091037.222500", "091039.222500", "091041.222500", "091043.222500", "091045.222500", "091047.222500", "091049.222500", "091051.222500", "091053.222500", "091055.222500", "091057.222500", "091059.222500", "091101.222500", "091103.222500", "091105.222500", "091107.222500", "091109.222500", "091111.222500", "091113.222500", "091115.222500", "091117.222500", "091119.222500", "091121.222500", "091123.222500", "091125.222500", "091127.222500", "091129.222500", "091131.222500", "091133.222500", "091135.222500", "091137.222500", "091139.222500", "091141.222500", "091143.222500", "091145.222500", "091147.222500", "091149.222500", "091151.222500", "091153.222500", "091155.222500", "091157.222500", "091159.222500", "091201.222500", "091203.222500", "091205.222500", "091207.222500", "091209.222500", "091211.222500", "091213.222500", "091215.222500", "091217.222500", "091219.222500", "091221.222500", "091223.222500", "091225.222500", "091227.222500", "091229.222500", "091231.222500", "091233.222500", "091235.222500", "091237.222500", "091239.222500", "091241.222500", "091243.222500", "091245.222500", "091247.222500", "091249.222500", "091251.222500", "091253.222500", "091255.222500", "091257.222500", "091259.222500", "091301.222500", "091303.222500", "091305.222500", "091307.222500", "091309.222500", "091311.222500", "091313.222500", "091315.222500", "091317.222500", "091319.222500", "091321.222500", "091323.222500", "091325.222500", "091327.222500", "091329.222500", "091331.222500", "091333.222500", "091335.222500", "091337.222500", "091339.222500", "091341.222500", "091343.222500", "091345.222500", "091347.222500", "091349.222500", "091351.222500", "091353.222500", "091355.222500", "091357.222500", "091359.222500", "091401.222500", "091403.222500", "091405.222500", "091407.222500", "091409.222500", "091411.222500", "091413.222500", "091415.222500", "091417.222500", "091419.222500", "091421.222500", "091423.222500", "091425.222500", "091427.222500", "091429.222500", "091431.222500", "091433.222500", "091435.222500", "091437.222500", "091439.222500", "091441.222500", "091443.222500", "091445.222500", "091447.222500", "091449.222500", "091451.222500", "091453.222500"],
      "ContentTime": ["090910.743000", "090910.746000", "090910.749000", "090910.751000", "090910.754000", "090910.757000", "090910.759000", "090910.762000", "090910.765000", "090910.767000", "090910.770000", "090910.773000", "090910.775000", "090910.778000", "090910.781000", "090910.783000", "090910.786000", "090910.789000", "090910.792000", "090910.794000", "090910.797000", "090910.800000", "090910.802000", "090910.805000", "090910.808000", "090910.810000", "090910.813000", "090950.710000", "090950.713000", "090950.724000", "090950.727000", "090950.729000", "090950.732000", "090950.735000", "090950.737000", "090950.740000", "090950.743000", "090950.745000", "090950.748000", "090950.751000", "090950.754000", "090950.756000", "090950.759000", "090950.762000", "090950.764000", "090950.767000", "090950.770000", "091030.697000", "091030.700000", "091030.703000", "091030.705000", "091030.708000", "091030.711000", "091030.714000", "091030.716000", "091030.719000", "091030.722000", "091030.724000", "091030.727000", "091030.730000", "091031.182000", "091031.185000", "091031.187000", "091031.190000", "091031.193000", "091031.196000", "091031.198000", "091110.786000", "091110.789000", "091110.792000", "091110.795000", "091110.797000", "091110.800000", "091110.803000", "091110.805000", "091110.808000", "091110.811000", "091110.814000", "091110.816000", "091110.819000", "091110.822000", "091110.831000", "091110.834000", "091110.836000", "091110.839000", "091110.842000", "091110.845000", "091150.705000", "091150.708000", "091150.711000", "091150.714000", "091150.716000", "091150.719000", "091150.722000", "091150.725000", "091150.727000", "091150.730000", "091150.733000", "091150.735000", "091150.738000", "091150.741000", "091150.743000", "091150.746000", "091150.749000", "091150.751000", "091150.754000", "091150.757000", "091230.709000", "091230.712000", "091230.715000", "091230.717000", "091230.720000", "091230.723000", "091230.725000", "091230.728000", "091230.731000", "091230.733000", "091230.736000", "091230.739000", "091230.742000", "091230.744000", "091230.747000", "091230.750000", "091230.752000", "091230.755000", "091230.758000", "091230.760000", "091310.701000", "091310.704000", "091310.707000", "091310.710000", "091310.712000", "091310.715000", "091310.718000", "091310.720000", "091310.723000", "091310.726000", "091310.729000", "091310.731000", "091310.734000", "091310.737000", "091310.739000", "091310.742000", "091310.745000", "091310.747000", "091310.750000", "091310.753000", "091350.763000", "091350.766000", "091350.768000", "091350.771000", "091350.774000", "091350.777000", "091350.779000", "091350.782000", "091350.785000", "091350.788000", "091350.790000", "091350.793000", "091350.796000", "091350.798000", "091350.801000", "091350.804000", "091350.806000", "091350.809000", "091350.812000", "091350.815000", "091430.710000", "091430.713000", "091430.716000", "091430.718000", "091430.721000", "091430.724000", "091430.726000", "091430.729000", "091430.732000", "091430.734000", "091430.737000", "091430.740000", "091430.743000", "091430.745000", "091430.748000", "091430.751000", "091430.753000", "091430.756000", "091430.759000", "091430.761000", "091455.723000", "091455.726000", "091455.729000", "091455.732000", "091455.735000", "091455.737000", "091455.740000", "091455.743000", "091455.746000", "091455.749000", "091455.752000", "091455.755000", "091455.758000"],
      "InstanceCreationTime": ["090910.743000", "090910.746000", "090910.749000", "090910.751000", "090910.754000", "090910.757000", "090910.759000", "090910.762000", "090910.765000", "090910.767000", "090910.770000", "090910.773000", "090910.775000", "090910.778000", "090910.781000", "090910.783000", "090910.786000", "090910.789000", "090910.792000", "090910.794000", "090910.797000", "090910.800000", "090910.802000", "090910.805000", "090910.808000", "090910.810000", "090910.813000", "090950.710000", "090950.713000", "090950.724000", "090950.727000", "090950.729000", "090950.732000", "090950.735000", "090950.737000", "090950.740000", "090950.743000", "090950.745000", "090950.748000", "090950.751000", "090950.754000", "090950.756000", "090950.759000", "090950.762000", "090950.764000", "090950.767000", "090950.770000", "091030.697000", "091030.700000", "091030.703000", "091030.705000", "091030.708000", "091030.711000", "091030.714000", "091030.716000", "091030.719000", "091030.722000", "091030.724000", "091030.727000", "091030.730000", "091031.182000", "091031.185000", "091031.187000", "091031.190000", "091031.193000", "091031.196000", "091031.198000", "091110.786000", "091110.789000", "091110.792000", "091110.795000", "091110.797000", "091110.800000", "091110.803000", "091110.805000", "091110.808000", "091110.811000", "091110.814000", "091110.816000", "091110.819000", "091110.822000", "091110.831000", "091110.834000", "091110.836000", "091110.839000", "091110.842000", "091110.845000", "091150.705000", "091150.708000", "091150.711000", "091150.714000", "091150.716000", "091150.719000", "091150.722000", "091150.725000", "091150.727000", "091150.730000", "091150.733000", "091150.735000", "091150.738000", "091150.741000", "091150.743000", "091150.746000", "091150.749000", "091150.751000", "091150.754000", "091150.757000", "091230.709000", "091230.712000", "091230.715000", "091230.717000", "091230.720000", "091230.723000", "091230.725000", "091230.728000", "091230.731000", "091230.733000", "091230.736000", "091230.739000", "091230.742000", "091230.744000", "091230.747000", "091230.750000", "091230.752000", "091230.755000", "091230.758000", "091230.760000", "091310.701000", "091310.704000", "091310.707000", "091310.710000", "091310.712000", "091310.715000", "091310.718000", "091310.720000", "091310.723000", "091310.726000", "091310.729000", "091310.731000", "091310.734000", "091310.737000", "091310.739000", "091310.742000", "091310.745000", "091310.747000", "091310.750000", "091310.753000", "091350.763000", "091350.766000", "091350.768000", "091350.771000", "091350.774000", "091350.777000", "091350.779000", "091350.782000", "091350.785000", "091350.788000", "091350.790000", "091350.793000", "091350.796000", "091350.798000", "091350.801000", "091350.804000", "091350.806000", "091350.809000", "091350.812000", "091350.815000", "091430.710000", "091430.713000", "091430.716000", "091430.718000", "091430.721000", "091430.724000", "091430.726000", "091430.729000", "091430.732000", "091430.734000", "091430.737000", "091430.740000", "091430.743000", "091430.745000", "091430.748000", "091430.751000", "091430.753000", "091430.756000", "091430.759000", "091430.761000", "091455.723000", "091455.726000", "091455.729000", "091455.732000", "091455.735000", "091455.737000", "091455.740000", "091455.743000", "091455.746000", "091455.749000", "091455.752000", "091455.755000", "091455.758000"],
      "InstanceNumber": [1, 2, 3, 4, 5, 6, 7, 8, 9, 10, 11, 12, 13, 14, 15, 16, 17, 18, 19, 20, 21, 22, 23, 24, 25, 26, 27, 28, 29, 30, 31, 32, 33, 34, 35, 36, 37, 38, 39, 40, 41, 42, 43, 44, 45, 46, 47, 48, 49, 50, 51, 52, 53, 54, 55, 56, 57, 58, 59, 60, 61, 62, 63, 64, 65, 66, 67, 68, 69, 70, 71, 72, 73, 74, 75, 76, 77, 78, 79, 80, 81, 82, 83, 84, 85, 86, 87, 88, 89, 90, 91, 92, 93, 94, 95, 96, 97, 98, 99, 100, 101, 102, 103, 104, 105, 106, 107, 108, 109, 110, 111, 112, 113, 114, 115, 116, 117, 118, 119, 120, 121, 122, 123, 124, 125, 126, 127, 128, 129, 130, 131, 132, 133, 134, 135, 136, 137, 138, 139, 140, 141, 142, 143, 144, 145, 146, 147, 148, 149, 150, 151, 152, 153, 154, 155, 156, 157, 158, 159, 160, 161, 162, 163, 164, 165, 166, 167, 168, 169, 170, 171, 172, 173, 174, 175, 176, 177, 178, 179, 180, 181, 182, 183, 184, 185, 186, 187, 188, 189, 190, 191, 192, 193, 194, 195, 196, 197, 198, 199, 200],
      "LargestImagePixelValue": [1984, 1982, 1989, 1983, 1987, 1987, 1991, 1992, 1988, 1987, 1989, 1988, 1985, 1992, 1985, 1988, 1987, 1981, 1996, 1982, 1988, 1988, 1991, 1988, 1990, 1980, 1988, 1985, 1987, 1986, 1985, 1981, 1985, 1983, 1985, 1982, 1991, 1986, 1994, 1984, 1985, 1987, 1986, 1987, 1992, 1991, 1988, 1984, 1990, 1980, 1982, 1982, 1990, 1986, 1985, 1984, 1988, 1984, 1994, 1984, 1986, 1984, 1984, 1984, 1987, 1990, 1992, 1979, 1982, 1984, 1987, 1994, 1987, 1983, 1983, 1982, 1987, 1980, 1988, 1977, 1984, 1985, 1984, 1983, 1982, 1986, 1985, 1988, 1982, 1984, 1987, 1992, 1995, 1991, 1992, 1983, 1983, 1989, 1982, 1985, 1984, 1992, 1979, 1982, 1983, 1989, 1977, 1991, 1990, 1982, 1985, 1985, 1986, 1983, 1984, 1986, 1988, 1989, 1990, 1991, 1983, 1985, 1990, 1990, 1989, 1984, 1986, 1990, 1988, 1980, 1981, 1984, 1983, 1981, 1986, 1976, 1985, 1987, 1983, 1990, 1992, 1982, 1988, 1984, 1984, 1987, 1984, 1990, 1986, 1987, 1990, 1986, 1986, 1978, 1987, 1988, 1983, 1979, 1984, 1983, 1982, 1987, 1983, 1986, 1982, 1988, 1992, 1979, 1978, 1981, 1985, 1984, 1984, 1986, 1992, 1976, 1992, 1982, 1979, 1978, 1982, 1984, 1981, 1977, 1990, 1986, 1991, 1984, 1985, 1986, 1985, 1990, 1983, 1991, 1993, 1983, 1982, 1979, 1985, 1987],
      "WindowCenter": [960.0, 959.0, 959.0, 959.0, 960.0, 959.0, 959.0, 960.0, 960.0, 959.0, 960.0, 959.0, 959.0, 959.0, 959.0, 960.0, 959.0, 959.0, 960.0, 959.0, 959.0, 959.0, 959.0, 960.0, 960.0, 959.0, 960.0, 961.0, 959.0, 959.0, 959.0, 960.0, 959.0, 959.0, 960.0, 959.0, 959.0, 959.0, 960.0, 959.0, 959.0, 960.0, 960.0, 959.0, 960.0, 959.0, 959.0, 960.0, 959.0, 959.0, 959.0, 959.0, 959.0, 959.0, 960.0, 959.0, 959.0, 959.0, 960.0, 959.0, 960.0, 959.0, 959.0, 960.0, 960.0, 959.0, 959.0, 959.0, 959.0, 960.0, 959.0, 960.0, 959.0, 959.0, 959.0, 959.0, 960.0, 959.0, 959.0, 959.0, 960.0, 959.0, 959.0, 960.0, 959.0, 959.0, 959.0, 960.0, 959.0, 959.0, 959.0, 959.0, 960.0, 959.0, 959.0, 959.0, 959.0, 960.0, 960.0, 959.0, 960.0, 959.0, 960.0, 959.0, 961.0, 959.0, 960.0, 960.0, 959.0, 959.0, 960.0, 959.0, 960.0, 959.0, 959.0, 959.0, 960.0, 960.0, 960.0, 959.0, 960.0, 959.0, 959.0, 959.0, 960.0, 959.0, 959.0, 959.0, 959.0, 959.0, 959.0, 959.0, 959.0, 959.0, 959.0, 959.0, 959.0, 959.0, 959.0, 959.0, 959.0, 959.0, 960.0, 959.0, 959.0, 959.0, 959.0, 959.0, 959.0, 960.0, 959.0, 959.0, 959.0, 959.0, 959.0, 959.0, 959.0, 959.0, 959.0, 959.0, 959.0, 959.0, 959.0, 959.0, 959.0, 959.0, 959.0, 960.0, 960.0, 960.0, 959.0, 960.0, 959.0, 959.0, 959.0, 959.0, 959.0, 960.0, 959.0, 960.0, 959.0, 959.0, 959.0, 959.0, 959.0, 959.0, 960.0, 959.0, 959.0, 959.0, 959.0, 959.0, 959.0, 959.0, 959.0, 958.0, 959.0, 960.0, 959.0, 959.0],
      "WindowWidth": [2076.0, 2076.0, 2076.0, 2076.0, 2077.0, 2076.0, 2076.0, 2076.0, 2076.0, 2075.0, 2076.0, 2076.0, 2076.0, 2076.0, 2076.0, 2076.0, 2075.0, 2075.0, 2077.0, 2076.0, 2076.0, 2076.0, 2076.0, 2076.0, 2077.0, 2076.0, 2076.0, 2077.0, 2076.0, 2076.0, 2076.0, 2076.0, 2075.0, 2076.0, 2076.0, 2076.0, 2076.0, 2076.0, 2076.0, 2076.0, 2075.0, 2076.0, 2076.0, 2076.0, 2076.0, 2075.0, 2075.0, 2076.0, 2076.0, 2075.0, 2075.0, 2075.0, 2076.0, 2075.0, 2076.0, 2075.0, 2075.0, 2075.0, 2075.0, 2075.0, 2075.0, 2075.0, 2075.0, 2075.0, 2075.0, 2075.0, 2075.0, 2075.0, 2075.0, 2075.0, 2075.0, 2075.0, 2074.0, 2075.0, 2075.0, 2075.0, 2075.0, 2075.0, 2075.0, 2075.0, 2075.0, 2074.0, 2075.0, 2075.0, 2075.0, 2074.0, 2074.0, 2075.0, 2074.0, 2074.0, 2075.0, 2074.0, 2075.0, 2075.0, 2075.0, 2074.0, 2074.0, 2075.0, 2075.0, 2075.0, 2075.0, 2075.0, 2075.0, 2075.0, 2076.0, 2075.0, 2075.0, 2075.0, 2075.0, 2074.0, 2075.0, 2074.0, 2075.0, 2074.0, 2074.0, 2074.0, 2075.0, 2075.0, 2075.0, 2074.0, 2075.0, 2074.0, 2074.0, 2074.0, 2075.0, 2074.0, 2074.0, 2074.0, 2074.0, 2074.0, 2074.0, 2075.0, 2074.0, 2074.0, 2074.0, 2074.0, 2074.0, 2075.0, 2074.0, 2075.0, 2074.0, 2075.0, 2075.0, 2074.0, 2074.0, 2074.0, 2074.0, 2074.0, 2074.0, 2075.0, 2075.0, 2074.0, 2074.0, 2074.0, 2074.0, 2074.0, 2074.0, 2074.0, 2074.0, 2073.0, 2074.0, 2074.0, 2074.0, 2074.0, 2074.0, 2074.0, 2074.0, 2075.0, 2075.0, 2075.0, 2074.0, 2075.0, 2075.0, 2074.0, 2074.0, 2074.0, 2074.0, 2075.0, 2074.0, 2075.0, 2075.0, 2074.0, 2073.0, 2074.0, 2074.0, 2073.0, 2074.0, 2073.0, 2074.0, 2073.0, 2073.0, 2073.0, 2074.0, 2074.0, 2074.0, 2073.0, 2074.0, 2075.0, 2074.0, 2074.0]
    },
    "slices": {}
  }
}