{
  "AcquisitionMatrixPE": 80,
  "AcquisitionNumber": 1,
  "AcquisitionTime": "09:21:59.517500",
  "BandwidthPerPixelPhaseEncode": 25,
  "BaseResolution": 80,
  "BodyPartExamined": "BRAIN",
  "CoilCombinationMethod": "Sum of Squares",
  "ConsistencyInfo": "N4_VE11C_LATEST_20160120",
  "ConversionSoftware": "dcm2niix",
  "ConversionSoftwareVersion": "v1.0.20220720",
  "DerivedVendorReportedEchoSpacing": 0.0005,
  "DeviceSerialNumber": "66112",
  "DwellTime": 2.7e-06,
  "EchoTime": 0.03,
  "EchoTrainLength": 80,
  "EffectiveEchoSpacing": 0.0005,
  "FlipAngle": 77,
  "HeudiconvVersion": "0.13.1",
  "ImageComments": "Reference volume for motion correction.",
  "ImageOrientationPatientDICOM": [0.983329, 0.181435, 0.0120723, -0.176397, 0.935699, 0.305536],
  "ImageOrientationText": "Tra>Cor(17.6)>Sag(-2.5)",
  "ImageType": [
    "ORIGINAL",
    "PRIMARY",
    "M",
    "ND",
    "NORM",
    "MOCO",
    "MOSAIC"
],
  "ImagingFrequency": 123.252,
  "InPlanePhaseEncodingDirectionDICOM": "COL",
  "InstitutionAddress": "Maynard 3,Hanover,NH,US,03755",
  "InstitutionName": "Dartmouth College - PBS",
  "InstitutionalDepartmentName": "Department",
  "MRAcquisitionType": "2D",
  "MagneticFieldStrength": 3,
  "Manufacturer": "Siemens",
  "ManufacturersModelName": "Prisma",
  "MatrixCoilMode": "SENSE",
  "Modality": "MR",
  "NonlinearGradientCorrection": false,
  "PartialFourier": 1,
  "PatientPosition": "HFS",
  "PercentPhaseFOV": 100,
  "PercentSampling": 100,
  "PhaseEncodingDirection": "j-",
  "PhaseEncodingSteps": 80,
  "PhaseResolution": 1,
  "PixelBandwidth": 2315,
  "ProcedureStepDescription": "dbic^QA",
  "ProtocolName": "func-bold_acq-32ch-77flip_MoCo",
  "PulseSequenceDetails": "%SiemensSeq%\\ep2d_bold",
  "ReceiveCoilActiveElements": "HEA;HEP",
  "ReceiveCoilName": "Head_32",
  "ReconMatrixPE": 80,
  "RepetitionTime": 2,
  "SAR": 0.0514238,
  "ScanOptions": "FS",
  "ScanningSequence": "EP",
  "SequenceName": "*epfid2d1_80",
  "SequenceVariant": "SK",
  "SeriesDescription": "MoCoSeries",
  "SeriesNumber": 9,
  "ShimSetting": [4145, -7697, -7502, 257, -68, -143, -79, 35],
  "SliceThickness": 3.5,
  "SliceTiming": [0.99, 0, 1.055, 0.065, 1.12, 0.13, 1.1875, 0.1975, 1.2525, 0.2625, 1.32, 0.33, 1.385, 0.395, 1.45, 0.46, 1.5175, 0.5275, 1.5825, 0.5925, 1.65, 0.66, 1.715, 0.725, 1.78, 0.79, 1.8475, 0.8575, 1.9125, 0.9225],
  "SoftwareVersions": "syngo MR E11",
  "SpacingBetweenSlices": 3.99,
  "StationName": "AWP66112",
  "TotalReadoutTime": 0.0395,
  "TxRefAmp": 242.251,
  "dcmmeta_affine": [
    [-2.949986696243286, -0.5291918516159058, -0.17611362040042877, 144.13803100585938],
    [-0.5443035960197449, 2.807095527648926, 1.2072618007659912, -96.87387084960938],
    [0.03621688857674599, -0.9166079759597778, 3.7988948822021484, -7.297454357147217],
    [0.0, 0.0, 0.0, 1.0]
],
  "dcmmeta_reorient_transform": [
    [0.0, -1.0, 0.0, 79.0],
    [1.0, 0.0, 0.0, 0.0],
    [0.0, 0.0, 1.0, 0.0],
    [0.0, 0.0, 0.0, 1.0]
],
  "dcmmeta_shape": [80, 80, 30, 200],
  "dcmmeta_slice_dim": 2,
  "dcmmeta_version": 0.6,
  "global": {
    "const": {
      "AccessionNumber": "qa",
      "AcquisitionMatrix": [80, 0, 0, 80],
      "AngioFlag": "N",
      "BitsAllocated": 16,
      "BitsStored": 12,
      "BodyPartExamined": "BRAIN",
      "Columns": 480,
      "EchoNumbers": 1,
      "EchoTime": 30.0,
      "EchoTrainLength": 80,
      "FlipAngle": 77.0,
      "HighBit": 11,
      "ImageOrientationPatient": [0.98332892143593, 0.18143453899672, 0.0120722958341, -0.1763972873066, 0.93569854142043, 0.30553598252014],
      "ImagePositionPatient": [-586.49084809866, -795.16652831142, -270.27444936769],
      "ImageType": [
        "ORIGINAL",
        "PRIMARY",
        "M",
        "ND",
        "NORM",
        "MOCO",
        "MOSAIC"
],
      "ImagedNucleus": "1H",
      "ImagingFrequency": 123.252448,
      "InPlanePhaseEncodingDirection": "COL",
      "MRAcquisitionType": "2D",
      "MagneticFieldStrength": 3.0,
      "Manufacturer": "SIEMENS",
      "ManufacturerModelName": "Prisma",
      "Modality": "MR",
      "NumberOfAverages": 1.0,
      "NumberOfPhaseEncodingSteps": 80,
      "PercentPhaseFieldOfView": 100.0,
      "PercentSampling": 100.0,
      "PerformedProcedureStepStartTime": "090629.955000",
      "PhotometricInterpretation": "MONOCHROME2",
      "PixelBandwidth": 2315.0,
      "PixelRepresentation": 0,
      "PixelSpacing": [3.0, 3.0],
      "ProtocolName": "func-bold_acq-32ch-77flip",
      "RepetitionTime": 2000.0,
      "Rows": 480,
      "SAR": 0.05142383831056,
      "SamplesPerPixel": 1,
      "ScanOptions": "FS",
      "ScanningSequence": "EP",
      "SequenceName": "*epfid2d1_80",
      "SequenceVariant": "SK",
      "SeriesDescription": "MoCoSeries",
      "SeriesNumber": 9,
      "SeriesTime": "092250.860000",
      "SliceLocation": -42.62131898676,
      "SliceThickness": 3.5,
      "SmallestImagePixelValue": 0,
      "SoftwareVersions": "syngo MR E11",
      "SpacingBetweenSlices": 3.9899999878261,
      "SpecificCharacterSet": "ISO_IR 100",
      "StudyID": "6",
      "StudyTime": "090629.818000",
      "TransmitCoilName": "Body",
      "VariableFlipAngleFlag": "N",
      "WindowCenterWidthExplanation": "Algo1",
      "dBdt": 0.0},
    "slices": {}
  },
  "time": {
    "samples": {
      "AcquisitionNumber": [1, 2, 3, 4, 5, 6, 7, 8, 9, 10, 11, 12, 13, 14, 15, 16, 17, 18, 19, 20, 21, 22, 23, 24, 25, 26, 27, 28, 29, 30, 31, 32, 33, 34, 35, 36, 37, 38, 39, 40, 41, 42, 43, 44, 45, 46, 47, 48, 49, 50, 51, 52, 53, 54, 55, 56, 57, 58, 59, 60, 61, 62, 63, 64, 65, 66, 67, 68, 69, 70, 71, 72, 73, 74, 75, 76, 77, 78, 79, 80, 81, 82, 83, 84, 85, 86, 87, 88, 89, 90, 91, 92, 93, 94, 95, 96, 97, 98, 99, 100, 101, 102, 103, 104, 105, 106, 107, 108, 109, 110, 111, 112, 113, 114, 115, 116, 117, 118, 119, 120, 121, 122, 123, 124, 125, 126, 127, 128, 129, 130, 131, 132, 133, 134, 135, 136, 137, 138, 139, 140, 141, 142, 143, 144, 145, 146, 147, 148, 149, 150, 151, 152, 153, 154, 155, 156, 157, 158, 159, 160, 161, 162, 163, 164, 165, 166, 167, 168, 169, 170, 171, 172, 173, 174, 175, 176, 177, 178, 179, 180, 181, 182, 183, 184, 185, 186, 187, 188, 189, 190, 191, 192, 193, 194, 195, 196, 197, 198, 199, 200],
      "AcquisitionTime": ["092159.517500", "092201.517500", "092203.517500", "092205.517500", "092207.517500", "092209.517500", "092211.517500", "092213.517500", "092215.517500", "092217.517500", "092219.517500", "092221.517500", "092223.517500", "092225.517500", "092227.517500", "092229.517500", "092231.517500", "092233.517500", "092235.517500", "092237.517500", "092239.517500", "092241.517500", "092243.517500", "092245.517500", "092247.517500", "092249.517500", "092251.517500", "092253.517500", "092255.517500", "092257.517500", "092259.517500", "092301.517500", "092303.517500", "092305.517500", "092307.517500", "092309.517500", "092311.517500", "092313.517500", "092315.517500", "092317.517500", "092319.517500", "092321.517500", "092323.517500", "092325.517500", "092327.517500", "092329.517500", "092331.517500", "092333.517500", "092335.517500", "092337.517500", "092339.517500", "092341.517500", "092343.517500", "092345.517500", "092347.517500", "092349.517500", "092351.517500", "092353.517500", "092355.517500", "092357.517500", "092359.517500", "092401.517500", "092403.517500", "092405.517500", "092407.517500", "092409.517500", "092411.517500", "092413.517500", "092415.517500", "092417.517500", "092419.517500", "092421.517500", "092423.517500", "092425.517500", "092427.517500", "092429.517500", "092431.517500", "092433.517500", "092435.517500", "092437.517500", "092439.517500", "092441.517500", "092443.517500", "092445.517500", "092447.517500", "092449.517500", "092451.517500", "092453.517500", "092455.517500", "092457.517500", "092459.517500", "092501.517500", "092503.517500", "092505.517500", "092507.517500", "092509.517500", "092511.517500", "092513.517500", "092515.517500", "092517.517500", "092519.517500", "092521.517500", "092523.517500", "092525.517500", "092527.517500", "092529.517500", "092531.517500", "092533.517500", "092535.517500", "092537.517500", "092539.517500", "092541.517500", "092543.517500", "092545.517500", "092547.517500", "092549.517500", "092551.517500", "092553.517500", "092555.517500", "092557.517500", "092559.517500", "092601.517500", "092603.517500", "092605.517500", "092607.517500", "092609.517500", "092611.517500", "092613.517500", "092615.517500", "092617.517500", "092619.517500", "092621.517500", "092623.517500", "092625.517500", "092627.517500", "092629.517500", "092631.517500", "092633.517500", "092635.517500", "092637.517500", "092639.517500", "092641.517500", "092643.517500", "092645.517500", "092647.517500", "092649.517500", "092651.517500", "092653.517500", "092655.517500", "092657.517500", "092659.517500", "092701.517500", "092703.517500", "092705.517500", "092707.517500", "092709.517500", "092711.517500", "092713.517500", "092715.517500", "092717.517500", "092719.517500", "092721.517500", "092723.517500", "092725.517500", "092727.517500", "092729.517500", "092731.517500", "092733.517500", "092735.517500", "092737.517500", "092739.517500", "092741.517500", "092743.517500", "092745.517500", "092747.517500", "092749.517500", "092751.517500", "092753.517500", "092755.517500", "092757.517500", "092759.517500", "092801.517500", "092803.517500", "092805.517500", "092807.517500", "092809.517500", "092811.517500", "092813.517500", "092815.517500", "092817.517500", "092819.517500", "092821.517500", "092823.517500", "092825.517500", "092827.517500", "092829.517500", "092831.517500", "092833.517500", "092835.517500", "092837.517500"],
      "ContentTime": ["092250.862000", "092250.865000", "092250.868000", "092250.870000", "092250.873000", "092250.876000", "092250.882000", "092250.885000", "092250.888000", "092250.890000", "092250.893000", "092250.896000", "092250.898000", "092250.901000", "092250.904000", "092250.906000", "092250.909000", "092250.911000", "092250.914000", "092250.917000", "092250.919000", "092250.922000", "092250.925000", "092250.927000", "092250.930000", "092330.842000", "092330.845000", "092330.848000", "092330.850000", "092330.853000", "092330.856000", "092330.858000", "092330.861000", "092330.864000", "092330.866000", "092330.869000", "092330.872000", "092330.874000", "092330.877000", "092330.901000", "092330.904000", "092330.907000", "092330.909000", "092330.912000", "092330.915000", "092410.857000", "092410.860000", "092410.863000", "092410.865000", "092410.868000", "092410.871000", "092410.873000", "092410.876000", "092410.879000", "092410.881000", "092410.884000", "092410.887000", "092410.889000", "092410.892000", "092410.895000", "092410.897000", "092410.900000", "092410.902000", "092410.905000", "092410.908000", "092450.832000", "092450.835000", "092450.838000", "092450.841000", "092450.843000", "092450.846000", "092450.849000", "092450.851000", "092450.854000", "092450.856000", "092450.859000", "092450.862000", "092450.864000", "092450.867000", "092450.870000", "092450.872000", "092450.875000", "092450.878000", "092450.880000", "092450.883000", "092530.843000", "092530.846000", "092530.849000", "092530.851000", "092530.854000", "092530.857000", "092530.859000", "092530.862000", "092530.864000", "092530.867000", "092530.870000", "092530.872000", "092530.875000", "092530.878000", "092530.880000", "092530.883000", "092530.886000", "092530.888000", "092530.891000", "092530.894000", "092610.835000", "092610.838000", "092610.841000", "092610.844000", "092610.846000", "092610.849000", "092610.852000", "092610.854000", "092610.857000", "092610.859000", "092610.862000", "092610.865000", "092610.867000", "092610.870000", "092610.873000", "092610.875000", "092610.878000", "092610.881000", "092610.883000", "092610.886000", "092650.839000", "092650.842000", "092650.845000", "092650.847000", "092650.850000", "092650.853000", "092650.855000", "092650.858000", "092650.861000", "092650.863000", "092650.866000", "092650.869000", "092650.871000", "092650.874000", "092650.877000", "092650.879000", "092650.882000", "092650.885000", "092650.887000", "092650.890000", "092730.838000", "092730.840000", "092730.843000", "092730.846000", "092730.848000", "092730.851000", "092730.854000", "092730.856000", "092730.859000", "092730.862000", "092730.864000", "092730.867000", "092730.870000", "092730.872000", "092730.875000", "092730.878000", "092730.880000", "092730.883000", "092730.885000", "092730.888000", "092810.848000", "092810.851000", "092810.853000", "092810.856000", "092810.859000", "092810.861000", "092810.864000", "092810.866000", "092810.869000", "092810.872000", "092810.874000", "092810.877000", "092810.880000", "092810.882000", "092810.885000", "092810.888000", "092810.890000", "092810.893000", "092810.896000", "092810.898000", "092839.773000", "092839.777000", "092839.779000", "092839.782000", "092839.785000", "092839.787000", "092839.790000", "092839.793000", "092839.796000", "092839.799000", "092839.802000", "092839.804000", "092839.807000", "092839.810000", "092839.812000"],
      "InstanceCreationTime": ["092250.862000", "092250.865000", "092250.868000", "092250.870000", "092250.873000", "092250.876000", "092250.882000", "092250.885000", "092250.888000", "092250.890000", "092250.893000", "092250.896000", "092250.898000", "092250.901000", "092250.904000", "092250.906000", "092250.909000", "092250.911000", "092250.914000", "092250.917000", "092250.919000", "092250.922000", "092250.925000", "092250.927000", "092250.930000", "092330.842000", "092330.845000", "092330.848000", "092330.850000", "092330.853000", "092330.856000", "092330.858000", "092330.861000", "092330.864000", "092330.866000", "092330.869000", "092330.872000", "092330.874000", "092330.877000", "092330.901000", "092330.904000", "092330.907000", "092330.909000", "092330.912000", "092330.915000", "092410.857000", "092410.860000", "092410.863000", "092410.865000", "092410.868000", "092410.871000", "092410.873000", "092410.876000", "092410.879000", "092410.881000", "092410.884000", "092410.887000", "092410.889000", "092410.892000", "092410.895000", "092410.897000", "092410.900000", "092410.902000", "092410.905000", "092410.908000", "092450.832000", "092450.835000", "092450.838000", "092450.841000", "092450.843000", "092450.846000", "092450.849000", "092450.851000", "092450.854000", "092450.856000", "092450.859000", "092450.862000", "092450.864000", "092450.867000", "092450.870000", "092450.872000", "092450.875000", "092450.878000", "092450.880000", "092450.883000", "092530.843000", "092530.846000", "092530.849000", "092530.851000", "092530.854000", "092530.857000", "092530.859000", "092530.862000", "092530.864000", "092530.867000", "092530.870000", "092530.872000", "092530.875000", "092530.878000", "092530.880000", "092530.883000", "092530.886000", "092530.888000", "092530.891000", "092530.894000", "092610.835000", "092610.838000", "092610.841000", "092610.844000", "092610.846000", "092610.849000", "092610.852000", "092610.854000", "092610.857000", "092610.859000", "092610.862000", "092610.865000", "092610.867000", "092610.870000", "092610.873000", "092610.875000", "092610.878000", "092610.881000", "092610.883000", "092610.886000", "092650.839000", "092650.842000", "092650.845000", "092650.847000", "092650.850000", "092650.853000", "092650.855000", "092650.858000", "092650.861000", "092650.863000", "092650.866000", "092650.869000", "092650.871000", "092650.874000", "092650.877000", "092650.879000", "092650.882000", "092650.885000", "092650.887000", "092650.890000", "092730.838000", "092730.840000", "092730.843000", "092730.846000", "092730.848000", "092730.851000", "092730.854000", "092730.856000", "092730.859000", "092730.862000", "092730.864000", "092730.867000", "092730.870000", "092730.872000", "092730.875000", "092730.878000", "092730.880000", "092730.883000", "092730.885000", "092730.888000", "092810.848000", "092810.851000", "092810.853000", "092810.856000", "092810.859000", "092810.861000", "092810.864000", "092810.866000", "092810.869000", "092810.872000", "092810.874000", "092810.877000", "092810.880000", "092810.882000", "092810.885000", "092810.888000", "092810.890000", "092810.893000", "092810.896000", "092810.898000", "092839.773000", "092839.777000", "092839.779000", "092839.782000", "092839.785000", "092839.787000", "092839.790000", "092839.793000", "092839.796000", "092839.799000", "092839.802000", "092839.804000", "092839.807000", "092839.810000", "092839.812000"],
      "InstanceNumber": [1, 2, 3, 4, 5, 6, 7, 8, 9, 10, 11, 12, 13, 14, 15, 16, 17, 18, 19, 20, 21, 22, 23, 24, 25, 26, 27, 28, 29, 30, 31, 32, 33, 34, 35, 36, 37, 38, 39, 40, 41, 42, 43, 44, 45, 46, 47, 48, 49, 50, 51, 52, 53, 54, 55, 56, 57, 58, 59, 60, 61, 62, 63, 64, 65, 66, 67, 68, 69, 70, 71, 72, 73, 74, 75, 76, 77, 78, 79, 80, 81, 82, 83, 84, 85, 86, 87, 88, 89, 90, 91, 92, 93, 94, 95, 96, 97, 98, 99, 100, 101, 102, 103, 104, 105, 106, 107, 108, 109, 110, 111, 112, 113, 114, 115, 116, 117, 118, 119, 120, 121, 122, 123, 124, 125, 126, 127, 128, 129, 130, 131, 132, 133, 134, 135, 136, 137, 138, 139, 140, 141, 142, 143, 144, 145, 146, 147, 148, 149, 150, 151, 152, 153, 154, 155, 156, 157, 158, 159, 160, 161, 162, 163, 164, 165, 166, 167, 168, 169, 170, 171, 172, 173, 174, 175, 176, 177, 178, 179, 180, 181, 182, 183, 184, 185, 186, 187, 188, 189, 190, 191, 192, 193, 194, 195, 196, 197, 198, 199, 200],
      "LargestImagePixelValue": [1950, 1947, 1946, 1948, 1946, 1946, 1950, 1949, 1949, 1948, 1949, 1948, 1945, 1947, 1945, 1943, 1945, 1943, 1945, 1945, 1945, 1945, 1946, 1947, 1947, 1945, 1946, 1946, 1948, 1944, 1944, 1947, 1943, 1943, 1947, 1947, 1946, 1947, 1947, 1941, 1943, 1942, 1943, 1942, 1945, 1943, 1943, 1941, 1941, 1943, 1941, 1942, 1941, 1942, 1942, 1942, 1945, 1942, 1941, 1942, 1941, 1942, 1942, 1941, 1942, 1943, 1942, 1941, 1945, 1941, 1944, 1942, 1941, 1944, 1942, 1943, 1941, 1942, 1941, 1942, 1942, 1941, 1942, 1942, 1943, 1943, 1940, 1940, 1942, 1940, 1943, 1941, 1942, 1942, 1943, 1944, 1943, 1944, 1945, 1945, 1944, 1945, 1944, 1944, 1942, 1942, 1942, 1942, 1943, 1944, 1945, 1941, 1942, 1942, 1943, 1942, 1943, 1944, 1942, 1944, 1943, 1944, 1942, 1942, 1944, 1945, 1942, 1938, 1941, 1944, 1946, 1945, 1943, 1943, 1943, 1944, 1943, 1944, 1943, 1943, 1944, 1943, 1941, 1941, 1942, 1942, 1941, 1942, 1940, 1943, 1940, 1942, 1941, 1941, 1943, 1939, 1940, 1942, 1941, 1941, 1939, 1940, 1939, 1939, 1942, 1941, 1942, 1939, 1939, 1941, 1940, 1943, 1940, 1942, 1942, 1942, 1941, 1939, 1944, 1944, 1941, 1942, 1943, 1943, 1942, 1943, 1944, 1944, 1943, 1943, 1944, 1943, 1943, 1943, 1941, 1941, 1941, 1943, 1945, 1943],
      "WindowCenter": [950.0, 950.0, 951.0, 950.0, 951.0, 951.0, 951.0, 951.0, 950.0, 950.0, 950.0, 951.0, 950.0, 950.0, 951.0, 949.0, 949.0, 949.0, 951.0, 950.0, 950.0, 949.0, 950.0, 949.0, 949.0, 951.0, 950.0, 950.0, 950.0, 950.0, 950.0, 950.0, 950.0, 950.0, 951.0, 950.0, 951.0, 951.0, 950.0, 950.0, 949.0, 949.0, 948.0, 949.0, 949.0, 949.0, 949.0, 950.0, 949.0, 949.0, 950.0, 949.0, 950.0, 950.0, 949.0, 950.0, 950.0, 949.0, 949.0, 950.0, 950.0, 950.0, 949.0, 949.0, 950.0, 950.0, 950.0, 950.0, 949.0, 950.0, 950.0, 948.0, 949.0, 949.0, 948.0, 949.0, 950.0, 949.0, 950.0, 949.0, 949.0, 949.0, 949.0, 948.0, 950.0, 949.0, 950.0, 949.0, 949.0, 949.0, 949.0, 949.0, 950.0, 949.0, 950.0, 949.0, 949.0, 949.0, 949.0, 950.0, 950.0, 949.0, 950.0, 949.0, 949.0, 949.0, 949.0, 949.0, 948.0, 949.0, 949.0, 949.0, 949.0, 948.0, 949.0, 949.0, 950.0, 950.0, 950.0, 949.0, 948.0, 950.0, 950.0, 950.0, 949.0, 949.0, 949.0, 950.0, 948.0, 949.0, 950.0, 948.0, 950.0, 949.0, 949.0, 948.0, 949.0, 948.0, 949.0, 949.0, 950.0, 949.0, 949.0, 949.0, 950.0, 950.0, 950.0, 949.0, 949.0, 949.0, 948.0, 950.0, 950.0, 950.0, 948.0, 950.0, 949.0, 949.0, 948.0, 947.0, 949.0, 950.0, 950.0, 950.0, 949.0, 948.0, 948.0, 949.0, 949.0, 947.0, 950.0, 950.0, 949.0, 949.0, 949.0, 949.0, 949.0, 948.0, 949.0, 949.0, 949.0, 950.0, 949.0, 949.0, 948.0, 949.0, 949.0, 949.0, 949.0, 949.0, 949.0, 949.0, 949.0, 949.0, 948.0, 949.0, 949.0, 949.0, 949.0, 949.0],
      "WindowWidth": [2057.0, 2057.0, 2057.0, 2057.0, 2057.0, 2057.0, 2057.0, 2057.0, 2057.0, 2057.0, 2056.0, 2057.0, 2057.0, 2056.0, 2057.0, 2056.0, 2055.0, 2055.0, 2057.0, 2055.0, 2055.0, 2054.0, 2056.0, 2056.0, 2056.0, 2057.0, 2056.0, 2056.0, 2056.0, 2056.0, 2056.0, 2056.0, 2055.0, 2056.0, 2057.0, 2056.0, 2057.0, 2057.0, 2056.0, 2056.0, 2054.0, 2054.0, 2053.0, 2054.0, 2055.0, 2054.0, 2055.0, 2055.0, 2054.0, 2054.0, 2055.0, 2054.0, 2055.0, 2055.0, 2053.0, 2055.0, 2055.0, 2053.0, 2054.0, 2055.0, 2055.0, 2055.0, 2054.0, 2054.0, 2055.0, 2055.0, 2055.0, 2056.0, 2055.0, 2056.0, 2055.0, 2054.0, 2054.0, 2054.0, 2054.0, 2054.0, 2056.0, 2054.0, 2056.0, 2055.0, 2055.0, 2055.0, 2055.0, 2053.0, 2055.0, 2054.0, 2055.0, 2054.0, 2054.0, 2055.0, 2054.0, 2055.0, 2056.0, 2055.0, 2055.0, 2055.0, 2054.0, 2054.0, 2054.0, 2055.0, 2055.0, 2054.0, 2056.0, 2055.0, 2055.0, 2055.0, 2054.0, 2054.0, 2053.0, 2054.0, 2054.0, 2054.0, 2054.0, 2053.0, 2055.0, 2054.0, 2055.0, 2055.0, 2055.0, 2054.0, 2053.0, 2055.0, 2055.0, 2055.0, 2054.0, 2054.0, 2054.0, 2055.0, 2053.0, 2055.0, 2055.0, 2053.0, 2055.0, 2054.0, 2054.0, 2053.0, 2054.0, 2053.0, 2054.0, 2054.0, 2055.0, 2054.0, 2054.0, 2054.0, 2055.0, 2055.0, 2055.0, 2054.0, 2054.0, 2054.0, 2053.0, 2054.0, 2054.0, 2054.0, 2053.0, 2054.0, 2054.0, 2054.0, 2053.0, 2052.0, 2054.0, 2054.0, 2054.0, 2054.0, 2054.0, 2053.0, 2053.0, 2054.0, 2053.0, 2052.0, 2054.0, 2054.0, 2054.0, 2054.0, 2054.0, 2054.0, 2053.0, 2053.0, 2054.0, 2054.0, 2054.0, 2054.0, 2054.0, 2054.0, 2053.0, 2054.0, 2054.0, 2054.0, 2053.0, 2054.0, 2053.0, 2053.0, 2053.0, 2054.0, 2053.0, 2053.0, 2053.0, 2054.0, 2054.0, 2054.0]
    },
    "slices": {}
  }
}