{
  "AcquisitionMatrixPE": 122,
  "AcquisitionNumber": 1,
  "AcquisitionTime": "09:23:56.122500",
  "BandwidthPerPixelPhaseEncode": 27.785,
  "BaseResolution": 122,
  "BodyPartExamined": "BRAIN",
  "CoilCombinationMethod": "Adaptive Combine",
  "ConsistencyInfo": "N4_VE11C_LATEST_20160120",
  "ConversionSoftware": "dcm2niix",
  "ConversionSoftwareVersion": "v1.0.20220720",
  "DerivedVendorReportedEchoSpacing": 0.000590011,
  "DeviceSerialNumber": "66112",
  "DiffusionScheme": "Monopolar",
  "DwellTime": 2e-06,
  "EchoTime": 0.068,
  "EchoTrainLength": 61,
  "EffectiveEchoSpacing": 0.000295005,
  "FlipAngle": 90,
  "HeudiconvVersion": "0.13.1",
  "ImageOrientationPatientDICOM": [0.975473, -0.22012, -0.000566052, 0.210548, 0.932299, 0.29409],
  "ImageOrientationText": "Tra>Cor(16.7)>Sag(3.7)",
  "ImageType": [
    "ORIGINAL",
    "PRIMARY",
    "DIFFUSION",
    "NONE",
    "ND",
    "NORM"
],
  "ImagingFrequency": 123.253,
  "InPlanePhaseEncodingDirectionDICOM": "COL",
  "InstitutionAddress": "Maynard 3,Hanover,NH,US,03755",
  "InstitutionName": "Dartmouth College - PBS",
  "InstitutionalDepartmentName": "Department",
  "MRAcquisitionType": "2D",
  "MagneticFieldStrength": 3,
  "Manufacturer": "Siemens",
  "ManufacturersModelName": "Prisma",
  "Modality": "MR",
  "MultibandAccelerationFactor": 4,
  "NonlinearGradientCorrection": false,
  "ParallelReductionFactorInPlane": 2,
  "PartialFourier": 1,
  "PatientPosition": "HFS",
  "PercentPhaseFOV": 100,
  "PercentSampling": 100,
  "PhaseEncodingDirection": "j-",
  "PhaseEncodingSteps": 122,
  "PhaseResolution": 1,
  "PixelBandwidth": 2050,
  "ProcedureStepDescription": "dbic^QA",
  "ProtocolName": "DTI_30_p2_s4",
  "PulseSequenceDetails": "%SiemensSeq%\\ep2d_diff",
  "ReceiveCoilActiveElements": "HEA;HEP",
  "ReceiveCoilName": "Head_32",
  "ReconMatrixPE": 122,
  "RefLinesPE": 38,
  "RepetitionTime": 3.6,
  "SAR": 0.161833,
  "ScanOptions": "FS",
  "ScanningSequence": "EP",
  "SequenceName": "*ep_b0",
  "SequenceVariant": "SK\\SP",
  "SeriesDescription": "DTI_30_p2_s4",
  "SeriesNumber": 9,
  "ShimSetting": [4143, -7683, -7504, 280, -101, -86, 5, 76],
  "SliceThickness": 2,
  "SliceTiming": [2.58594, 0, 1.78906, 0.19531, 1.99219, 0.39844, 2.1875, 0.59375, 2.38281, 0.99219, 2.78125, 1.19531, 2.98438, 1.39062, 3.17969, 1.59375, 3.38281, 0.79688, 2.58594, 0, 1.78906, 0.19531, 1.99219, 0.39844, 2.1875, 0.59375, 2.38281, 0.99219, 2.78125, 1.19531, 2.98438, 1.39062, 3.17969, 1.59375, 3.38281, 0.79688, 2.58594, 0, 1.78906, 0.19531, 1.99219, 0.39844, 2.1875, 0.59375, 2.38281, 0.99219, 2.78125, 1.19531, 2.98438, 1.39062, 3.17969, 1.59375, 3.38281, 0.79688, 2.58594, 0, 1.78906, 0.19531, 1.99219, 0.39844, 2.1875, 0.59375, 2.38281, 0.99219, 2.78125, 1.19531, 2.98438, 1.39062, 3.17969, 1.59375, 3.38281, 0.79688],
  "SoftwareVersions": "syngo MR E11",
  "SpacingBetweenSlices": 2,
  "SpoilingState": true,
  "StationName": "AWP66112",
  "TotalReadoutTime": 0.0356956,
  "TxRefAmp": 232.744,
  "dcmmeta_affine": [
    [-1.9189625978469849, 0.4141932725906372, 0.12841463088989258, 82.05725860595703],
    [0.43302300572395325, 1.834030032157898, 0.5739917755126953, -146.009033203125],
    [-0.0011135457316413522, -0.5785372853279114, 1.9115524291992188, -34.00052261352539],
    [0.0, 0.0, 0.0, 1.0]
],
  "dcmmeta_reorient_transform": [
    [0.0, -1.0, 0.0, 121.0],
    [1.0, 0.0, 0.0, 0.0],
    [0.0, 0.0, -1.0, 71.0],
    [0.0, 0.0, 0.0, 1.0]
],
  "dcmmeta_shape": [122, 122, 72, 31],
  "dcmmeta_slice_dim": 2,
  "dcmmeta_version": 0.6,
  "global": {
    "const": {
      "AccessionNumber": "qa",
      "AcquisitionMatrix": [122, 0, 0, 122],
      "AngioFlag": "N",
      "BitsAllocated": 16,
      "BitsStored": 12,
      "BodyPartExamined": "BRAIN",
      "Columns": 122,
      "EchoNumbers": 1,
      "EchoTime": 68.0,
      "EchoTrainLength": 61,
      "FlipAngle": 90.0,
      "HighBit": 11,
      "ImageOrientationPatient": [0.97547263141977, -0.2201200239316, -0.0005660524048, 0.21054824895593, 0.93229857307246, 0.29408979157503],
      "ImageType": [
        "ORIGINAL",
        "PRIMARY",
        "DIFFUSION",
        "NONE",
        "ND",
        "NORM"
],
      "ImagedNucleus": "1H",
      "ImagingFrequency": 123.252563,
      "InPlanePhaseEncodingDirection": "COL",
      "MRAcquisitionType": "2D",
      "MagneticFieldStrength": 3.0,
      "Manufacturer": "SIEMENS",
      "ManufacturerModelName": "Prisma",
      "Modality": "MR",
      "NumberOfAverages": 1.0,
      "NumberOfPhaseEncodingSteps": 122,
      "PercentPhaseFieldOfView": 100.0,
      "PercentSampling": 100.0,
      "PerformedProcedureStepStartTime": "085712.888000",
      "PhotometricInterpretation": "MONOCHROME2",
      "PixelBandwidth": 2050.0,
      "PixelRepresentation": 0,
      "PixelSpacing": [1.9672131538391, 1.9672131538391],
      "ProtocolName": "DTI_30_p2_s4",
      "RepetitionTime": 3600.0,
      "Rows": 122,
      "SAR": 0.16183264444378,
      "SamplesPerPixel": 1,
      "ScanOptions": "FS",
      "ScanningSequence": "EP",
      "SequenceVariant": [
        "SK",
        "SP"
],
      "SeriesDescription": "DTI_30_p2_s4",
      "SeriesNumber": 9,
      "SeriesTime": "092405.028000",
      "SliceThickness": 2.0,
      "SmallestImagePixelValue": 0,
      "SoftwareVersions": "syngo MR E11",
      "SpacingBetweenSlices": 2.0,
      "SpecificCharacterSet": "ISO_IR 100",
      "StudyID": "22",
      "StudyTime": "085712.799000",
      "TransmitCoilName": "Body",
      "VariableFlipAngleFlag": "N",
      "WindowCenterWidthExplanation": "Algo1",
      "dBdt": 0.0},
    "slices": {
      "AcquisitionTime": ["092356.122500", "092353.537500", "092355.327500", "092353.737500", "092355.527500", "092353.935000", "092355.725000", "092354.135000", "092355.925000", "092354.532500", "092356.322500", "092354.732500", "092356.522500", "092354.930000", "092356.720000", "092355.130000", "092356.920000", "092354.332500", "092356.122500", "092353.537500", "092355.327500", "092353.737500", "092355.527500", "092353.935000", "092355.725000", "092354.135000", "092355.925000", "092354.532500", "092356.322500", "092354.732500", "092356.522500", "092354.930000", "092356.720000", "092355.130000", "092356.920000", "092354.332500", "092356.122500", "092353.537500", "092355.327500", "092353.737500", "092355.527500", "092353.935000", "092355.725000", "092354.135000", "092355.925000", "092354.532500", "092356.322500", "092354.732500", "092356.522500", "092354.930000", "092356.720000", "092355.130000", "092356.920000", "092354.332500", "092356.122500", "092353.537500", "092355.327500", "092353.737500", "092355.527500", "092353.935000", "092355.725000", "092354.135000", "092355.925000", "092354.532500", "092356.322500", "092354.732500", "092356.522500", "092354.930000", "092356.720000", "092355.130000", "092356.920000", "092354.332500", "092359.722500", "092357.137500", "092358.927500", "092357.337500", "092359.127500", "092357.535000", "092359.325000", "092357.735000", "092359.525000", "092358.132500", "092359.922500", "092358.332500", "092400.122500", "092358.530000", "092400.320000", "092358.730000", "092400.520000", "092357.932500", "092359.722500", "092357.137500", "092358.927500", "092357.337500", "092359.127500", "092357.535000", "092359.325000", "092357.735000", "092359.525000", "092358.132500", "092359.922500", "092358.332500", "092400.122500", "092358.530000", "092400.320000", "092358.730000", "092400.520000", "092357.932500", "092359.722500", "092357.137500", "092358.927500", "092357.337500", "092359.127500", "092357.535000", "092359.325000", "092357.735000", "092359.525000", "092358.132500", "092359.922500", "092358.332500", "092400.122500", "092358.530000", "092400.320000", "092358.730000", "092400.520000", "092357.932500", "092359.722500", "092357.137500", "092358.927500", "092357.337500", "092359.127500", "092357.535000", "092359.325000", "092357.735000", "092359.525000", "092358.132500", "092359.922500", "092358.332500", "092400.122500", "092358.530000", "092400.320000", "092358.730000", "092400.520000", "092357.932500", "092403.322500", "092400.737500", "092402.527500", "092400.937500", "092402.727500", "092401.135000", "092402.925000", "092401.335000", "092403.125000", "092401.732500", "092403.522500", "092401.932500", "092403.722500", "092402.130000", "092403.920000", "092402.330000", "092404.120000", "092401.532500", "092403.322500", "092400.737500", "092402.527500", "092400.937500", "092402.727500", "092401.135000", "092402.925000", "092401.335000", "092403.125000", "092401.732500", "092403.522500", "092401.932500", "092403.722500", "092402.130000", "092403.920000", "092402.330000", "092404.120000", "092401.532500", "092403.322500", "092400.737500", "092402.527500", "092400.937500", "092402.727500", "092401.135000", "092402.925000", "092401.335000", "092403.125000", "092401.732500", "092403.522500", "092401.932500", "092403.722500", "092402.130000", "092403.920000", "092402.330000", "092404.120000", "092401.532500", "092403.322500", "092400.737500", "092402.527500", "092400.937500", "092402.727500", "092401.135000", "092402.925000", "092401.335000", "092403.125000", "092401.732500", "092403.522500", "092401.932500", "092403.722500", "092402.130000", "092403.920000", "092402.330000", "092404.120000", "092401.532500", "092406.922500", "092404.337500", "092406.127500", "092404.537500", "092406.327500", "092404.735000", "092406.525000", "092404.935000", "092406.725000", "092405.332500", "092407.122500", "092405.532500", "092407.322500", "092405.730000", "092407.520000", "092405.930000", "092407.720000", "092405.132500", "092406.922500", "092404.337500", "092406.127500", "092404.537500", "092406.327500", "092404.735000", "092406.525000", "092404.935000", "092406.725000", "092405.332500", "092407.122500", "092405.532500", "092407.322500", "092405.730000", "092407.520000", "092405.930000", "092407.720000", "092405.132500", "092406.922500", "092404.337500", "092406.127500", "092404.537500", "092406.327500", "092404.735000", "092406.525000", "092404.935000", "092406.725000", "092405.332500", "092407.122500", "092405.532500", "092407.322500", "092405.730000", "092407.520000", "092405.930000", "092407.720000", "092405.132500", "092406.922500", "092404.337500", "092406.127500", "092404.537500", "092406.327500", "092404.735000", "092406.525000", "092404.935000", "092406.725000", "092405.332500", "092407.122500", "092405.532500", "092407.322500", "092405.730000", "092407.520000", "092405.930000", "092407.720000", "092405.132500", "092410.522500", "092407.937500", "092409.727500", "092408.137500", "092409.927500", "092408.335000", "092410.125000", "092408.535000", "092410.325000", "092408.932500", "092410.722500", "092409.132500", "092410.922500", "092409.330000", "092411.120000", "092409.530000", "092411.320000", "092408.732500", "092410.522500", "092407.937500", "092409.727500", "092408.137500", "092409.927500", "092408.335000", "092410.125000", "092408.535000", "092410.325000", "092408.932500", "092410.722500", "092409.132500", "092410.922500", "092409.330000", "092411.120000", "092409.530000", "092411.320000", "092408.732500", "092410.522500", "092407.937500", "092409.727500", "092408.137500", "092409.927500", "092408.335000", "092410.125000", "092408.535000", "092410.325000", "092408.932500", "092410.722500", "092409.132500", "092410.922500", "092409.330000", "092411.120000", "092409.530000", "092411.320000", "092408.732500", "092410.522500", "092407.937500", "092409.727500", "092408.137500", "092409.927500", "092408.335000", "092410.125000", "092408.535000", "092410.325000", "092408.932500", "092410.722500", "092409.132500", "092410.922500", "092409.330000", "092411.120000", "092409.530000", "092411.320000", "092408.732500", "092414.122500", "092411.537500", "092413.327500", "092411.737500", "092413.527500", "092411.935000", "092413.725000", "092412.135000", "092413.925000", "092412.532500", "092414.322500", "092412.732500", "092414.522500", "092412.930000", "092414.720000", "092413.130000", "092414.920000", "092412.332500", "092414.122500", "092411.537500", "092413.327500", "092411.737500", "092413.527500", "092411.935000", "092413.725000", "092412.135000", "092413.925000", "092412.532500", "092414.322500", "092412.732500", "092414.522500", "092412.930000", "092414.720000", "092413.130000", "092414.920000", "092412.332500", "092414.122500", "092411.537500", "092413.327500", "092411.737500", "092413.527500", "092411.935000", "092413.725000", "092412.135000", "092413.925000", "092412.532500", "092414.322500", "092412.732500", "092414.522500", "092412.930000", "092414.720000", "092413.130000", "092414.920000", "092412.332500", "092414.122500", "092411.537500", "092413.327500", "092411.737500", "092413.527500", "092411.935000", "092413.725000", "092412.135000", "092413.925000", "092412.532500", "092414.322500", "092412.732500", "092414.522500", "092412.930000", "092414.720000", "092413.130000", "092414.920000", "092412.332500", "092417.722500", "092415.137500", "092416.927500", "092415.337500", "092417.127500", "092415.535000", "092417.325000", "092415.735000", "092417.525000", "092416.132500", "092417.922500", "092416.332500", "092418.122500", "092416.530000", "092418.320000", "092416.730000", "092418.520000", "092415.932500", "092417.722500", "092415.137500", "092416.927500", "092415.337500", "092417.127500", "092415.535000", "092417.325000", "092415.735000", "092417.525000", "092416.132500", "092417.922500", "092416.332500", "092418.122500", "092416.530000", "092418.320000", "092416.730000", "092418.520000", "092415.932500", "092417.722500", "092415.137500", "092416.927500", "092415.337500", "092417.127500", "092415.535000", "092417.325000", "092415.735000", "092417.525000", "092416.132500", "092417.922500", "092416.332500", "092418.122500", "092416.530000", "092418.320000", "092416.730000", "092418.520000", "092415.932500", "092417.722500", "092415.137500", "092416.927500", "092415.337500", "092417.127500", "092415.535000", "092417.325000", "092415.735000", "092417.525000", "092416.132500", "092417.922500", "092416.332500", "092418.122500", "092416.530000", "092418.320000", "092416.730000", "092418.520000", "092415.932500", "092421.322500", "092418.737500", "092420.527500", "092418.937500", "092420.727500", "092419.135000", "092420.925000", "092419.335000", "092421.125000", "092419.732500", "092421.522500", "092419.932500", "092421.722500", "092420.130000", "092421.920000", "092420.330000", "092422.120000", "092419.532500", "092421.322500", "092418.737500", "092420.527500", "092418.937500", "092420.727500", "092419.135000", "092420.925000", "092419.335000", "092421.125000", "092419.732500", "092421.522500", "092419.932500", "092421.722500", "092420.130000", "092421.920000", "092420.330000", "092422.120000", "092419.532500", "092421.322500", "092418.737500", "092420.527500", "092418.937500", "092420.727500", "092419.135000", "092420.925000", "092419.335000", "092421.125000", "092419.732500", "092421.522500", "092419.932500", "092421.722500", "092420.130000", "092421.920000", "092420.330000", "092422.120000", "092419.532500", "092421.322500", "092418.737500", "092420.527500", "092418.937500", "092420.727500", "092419.135000", "092420.925000", "092419.335000", "092421.125000", "092419.732500", "092421.522500", "092419.932500", "092421.722500", "092420.130000", "092421.920000", "092420.330000", "092422.120000", "092419.532500", "092424.922500", "092422.337500", "092424.127500", "092422.537500", "092424.327500", "092422.735000", "092424.525000", "092422.935000", "092424.725000", "092423.332500", "092425.122500", "092423.532500", "092425.322500", "092423.730000", "092425.520000", "092423.930000", "092425.720000", "092423.132500", "092424.922500", "092422.337500", "092424.127500", "092422.537500", "092424.327500", "092422.735000", "092424.525000", "092422.935000", "092424.725000", "092423.332500", "092425.122500", "092423.532500", "092425.322500", "092423.730000", "092425.520000", "092423.930000", "092425.720000", "092423.132500", "092424.922500", "092422.337500", "092424.127500", "092422.537500", "092424.327500", "092422.735000", "092424.525000", "092422.935000", "092424.725000", "092423.332500", "092425.122500", "092423.532500", "092425.322500", "092423.730000", "092425.520000", "092423.930000", "092425.720000", "092423.132500", "092424.922500", "092422.337500", "092424.127500", "092422.537500", "092424.327500", "092422.735000", "092424.525000", "092422.935000", "092424.725000", "092423.332500", "092425.122500", "092423.532500", "092425.322500", "092423.730000", "092425.520000", "092423.930000", "092425.720000", "092423.132500", "092428.522500", "092425.937500", "092427.727500", "092426.137500", "092427.927500", "092426.335000", "092428.125000", "092426.535000", "092428.325000", "092426.932500", "092428.722500", "092427.132500", "092428.922500", "092427.330000", "092429.120000", "092427.530000", "092429.320000", "092426.732500", "092428.522500", "092425.937500", "092427.727500", "092426.137500", "092427.927500", "092426.335000", "092428.125000", "092426.535000", "092428.325000", "092426.932500", "092428.722500", "092427.132500", "092428.922500", "092427.330000", "092429.120000", "092427.530000", "092429.320000", "092426.732500", "092428.522500", "092425.937500", "092427.727500", "092426.137500", "092427.927500", "092426.335000", "092428.125000", "092426.535000", "092428.325000", "092426.932500", "092428.722500", "092427.132500", "092428.922500", "092427.330000", "092429.120000", "092427.530000", "092429.320000", "092426.732500", "092428.522500", "092425.937500", "092427.727500", "092426.137500", "092427.927500", "092426.335000", "092428.125000", "092426.535000", "092428.325000", "092426.932500", "092428.722500", "092427.132500", "092428.922500", "092427.330000", "092429.120000", "092427.530000", "092429.320000", "092426.732500", "092432.122500", "092429.537500", "092431.327500", "092429.737500", "092431.527500", "092429.935000", "092431.725000", "092430.135000", "092431.925000", "092430.532500", "092432.322500", "092430.732500", "092432.522500", "092430.930000", "092432.720000", "092431.130000", "092432.920000", "092430.332500", "092432.122500", "092429.537500", "092431.327500", "092429.737500", "092431.527500", "092429.935000", "092431.725000", "092430.135000", "092431.925000", "092430.532500", "092432.322500", "092430.732500", "092432.522500", "092430.930000", "092432.720000", "092431.130000", "092432.920000", "092430.332500", "092432.122500", "092429.537500", "092431.327500", "092429.737500", "092431.527500", "092429.935000", "092431.725000", "092430.135000", "092431.925000", "092430.532500", "092432.322500", "092430.732500", "092432.522500", "092430.930000", "092432.720000", "092431.130000", "092432.920000", "092430.332500", "092432.122500", "092429.537500", "092431.327500", "092429.737500", "092431.527500", "092429.935000", "092431.725000", "092430.135000", "092431.925000", "092430.532500", "092432.322500", "092430.732500", "092432.522500", "092430.930000", "092432.720000", "092431.130000", "092432.920000", "092430.332500", "092435.722500", "092433.137500", "092434.927500", "092433.337500", "092435.127500", "092433.535000", "092435.325000", "092433.735000", "092435.525000", "092434.132500", "092435.922500", "092434.332500", "092436.122500", "092434.530000", "092436.320000", "092434.730000", "092436.520000", "092433.932500", "092435.722500", "092433.137500", "092434.927500", "092433.337500", "092435.127500", "092433.535000", "092435.325000", "092433.735000", "092435.525000", "092434.132500", "092435.922500", "092434.332500", "092436.122500", "092434.530000", "092436.320000", "092434.730000", "092436.520000", "092433.932500", "092435.722500", "092433.137500", "092434.927500", "092433.337500", "092435.127500", "092433.535000", "092435.325000", "092433.735000", "092435.525000", "092434.132500", "092435.922500", "092434.332500", "092436.122500", "092434.530000", "092436.320000", "092434.730000", "092436.520000", "092433.932500", "092435.722500", "092433.137500", "092434.927500", "092433.337500", "092435.127500", "092433.535000", "092435.325000", "092433.735000", "092435.525000", "092434.132500", "092435.922500", "092434.332500", "092436.122500", "092434.530000", "092436.320000", "092434.730000", "092436.520000", "092433.932500", "092439.322500", "092436.737500", "092438.527500", "092436.937500", "092438.727500", "092437.135000", "092438.925000", "092437.335000", "092439.125000", "092437.732500", "092439.522500", "092437.932500", "092439.722500", "092438.130000", "092439.920000", "092438.330000", "092440.120000", "092437.532500", "092439.322500", "092436.737500", "092438.527500", "092436.937500", "092438.727500", "092437.135000", "092438.925000", "092437.335000", "092439.125000", "092437.732500", "092439.522500", "092437.932500", "092439.722500", "092438.130000", "092439.920000", "092438.330000", "092440.120000", "092437.532500", "092439.322500", "092436.737500", "092438.527500", "092436.937500", "092438.727500", "092437.135000", "092438.925000", "092437.335000", "092439.125000", "092437.732500", "092439.522500", "092437.932500", "092439.722500", "092438.130000", "092439.920000", "092438.330000", "092440.120000", "092437.532500", "092439.322500", "092436.737500", "092438.527500", "092436.937500", "092438.727500", "092437.135000", "092438.925000", "092437.335000", "092439.125000", "092437.732500", "092439.522500", "092437.932500", "092439.722500", "092438.130000", "092439.920000", "092438.330000", "092440.120000", "092437.532500", "092442.922500", "092440.337500", "092442.127500", "092440.537500", "092442.327500", "092440.735000", "092442.525000", "092440.935000", "092442.725000", "092441.332500", "092443.122500", "092441.532500", "092443.322500", "092441.730000", "092443.520000", "092441.930000", "092443.720000", "092441.132500", "092442.922500", "092440.337500", "092442.127500", "092440.537500", "092442.327500", "092440.735000", "092442.525000", "092440.935000", "092442.725000", "092441.332500", "092443.122500", "092441.532500", "092443.322500", "092441.730000", "092443.520000", "092441.930000", "092443.720000", "092441.132500", "092442.922500", "092440.337500", "092442.127500", "092440.537500", "092442.327500", "092440.735000", "092442.525000", "092440.935000", "092442.725000", "092441.332500", "092443.122500", "092441.532500", "092443.322500", "092441.730000", "092443.520000", "092441.930000", "092443.720000", "092441.132500", "092442.922500", "092440.337500", "092442.127500", "092440.537500", "092442.327500", "092440.735000", "092442.525000", "092440.935000", "092442.725000", "092441.332500", "092443.122500", "092441.532500", "092443.322500", "092441.730000", "092443.520000", "092441.930000", "092443.720000", "092441.132500", "092446.522500", "092443.937500", "092445.727500", "092444.137500", "092445.927500", "092444.335000", "092446.125000", "092444.535000", "092446.325000", "092444.932500", "092446.722500", "092445.132500", "092446.922500", "092445.330000", "092447.120000", "092445.530000", "092447.320000", "092444.732500", "092446.522500", "092443.937500", "092445.727500", "092444.137500", "092445.927500", "092444.335000", "092446.125000", "092444.535000", "092446.325000", "092444.932500", "092446.722500", "092445.132500", "092446.922500", "092445.330000", "092447.120000", "092445.530000", "092447.320000", "092444.732500", "092446.522500", "092443.937500", "092445.727500", "092444.137500", "092445.927500", "092444.335000", "092446.125000", "092444.535000", "092446.325000", "092444.932500", "092446.722500", "092445.132500", "092446.922500", "092445.330000", "092447.120000", "092445.530000", "092447.320000", "092444.732500", "092446.522500", "092443.937500", "092445.727500", "092444.137500", "092445.927500", "092444.335000", "092446.125000", "092444.535000", "092446.325000", "092444.932500", "092446.722500", "092445.132500", "092446.922500", "092445.330000", "092447.120000", "092445.530000", "092447.320000", "092444.732500", "092450.122500", "092447.537500", "092449.327500", "092447.737500", "092449.527500", "092447.935000", "092449.725000", "092448.135000", "092449.925000", "092448.532500", "092450.322500", "092448.732500", "092450.522500", "092448.930000", "092450.720000", "092449.130000", "092450.920000", "092448.332500", "092450.122500", "092447.537500", "092449.327500", "092447.737500", "092449.527500", "092447.935000", "092449.725000", "092448.135000", "092449.925000", "092448.532500", "092450.322500", "092448.732500", "092450.522500", "092448.930000", "092450.720000", "092449.130000", "092450.920000", "092448.332500", "092450.122500", "092447.537500", "092449.327500", "092447.737500", "092449.527500", "092447.935000", "092449.725000", "092448.135000", "092449.925000", "092448.532500", "092450.322500", "092448.732500", "092450.522500", "092448.930000", "092450.720000", "092449.130000", "092450.920000", "092448.332500", "092450.122500", "092447.537500", "092449.327500", "092447.737500", "092449.527500", "092447.935000", "092449.725000", "092448.135000", "092449.925000", "092448.532500", "092450.322500", "092448.732500", "092450.522500", "092448.930000", "092450.720000", "092449.130000", "092450.920000", "092448.332500", "092453.722500", "092451.137500", "092452.927500", "092451.337500", "092453.127500", "092451.535000", "092453.325000", "092451.735000", "092453.525000", "092452.132500", "092453.922500", "092452.332500", "092454.122500", "092452.530000", "092454.320000", "092452.730000", "092454.520000", "092451.932500", "092453.722500", "092451.137500", "092452.927500", "092451.337500", "092453.127500", "092451.535000", "092453.325000", "092451.735000", "092453.525000", "092452.132500", "092453.922500", "092452.332500", "092454.122500", "092452.530000", "092454.320000", "092452.730000", "092454.520000", "092451.932500", "092453.722500", "092451.137500", "092452.927500", "092451.337500", "092453.127500", "092451.535000", "092453.325000", "092451.735000", "092453.525000", "092452.132500", "092453.922500", "092452.332500", "092454.122500", "092452.530000", "092454.320000", "092452.730000", "092454.520000", "092451.932500", "092453.722500", "092451.137500", "092452.927500", "092451.337500", "092453.127500", "092451.535000", "092453.325000", "092451.735000", "092453.525000", "092452.132500", "092453.922500", "092452.332500", "092454.122500", "092452.530000", "092454.320000", "092452.730000", "092454.520000", "092451.932500", "092457.322500", "092454.737500", "092456.527500", "092454.937500", "092456.727500", "092455.135000", "092456.925000", "092455.335000", "092457.125000", "092455.732500", "092457.522500", "092455.932500", "092457.722500", "092456.130000", "092457.920000", "092456.330000", "092458.120000", "092455.532500", "092457.322500", "092454.737500", "092456.527500", "092454.937500", "092456.727500", "092455.135000", "092456.925000", "092455.335000", "092457.125000", "092455.732500", "092457.522500", "092455.932500", "092457.722500", "092456.130000", "092457.920000", "092456.330000", "092458.120000", "092455.532500", "092457.322500", "092454.737500", "092456.527500", "092454.937500", "092456.727500", "092455.135000", "092456.925000", "092455.335000", "092457.125000", "092455.732500", "092457.522500", "092455.932500", "092457.722500", "092456.130000", "092457.920000", "092456.330000", "092458.120000", "092455.532500", "092457.322500", "092454.737500", "092456.527500", "092454.937500", "092456.727500", "092455.135000", "092456.925000", "092455.335000", "092457.125000", "092455.732500", "092457.522500", "092455.932500", "092457.722500", "092456.130000", "092457.920000", "092456.330000", "092458.120000", "092455.532500", "092500.922500", "092458.337500", "092500.127500", "092458.537500", "092500.327500", "092458.735000", "092500.525000", "092458.935000", "092500.725000", "092459.332500", "092501.122500", "092459.532500", "092501.322500", "092459.730000", "092501.520000", "092459.930000", "092501.720000", "092459.132500", "092500.922500", "092458.337500", "092500.127500", "092458.537500", "092500.327500", "092458.735000", "092500.525000", "092458.935000", "092500.725000", "092459.332500", "092501.122500", "092459.532500", "092501.322500", "092459.730000", "092501.520000", "092459.930000", "092501.720000", "092459.132500", "092500.922500", "092458.337500", "092500.127500", "092458.537500", "092500.327500", "092458.735000", "092500.525000", "092458.935000", "092500.725000", "092459.332500", "092501.122500", "092459.532500", "092501.322500", "092459.730000", "092501.520000", "092459.930000", "092501.720000", "092459.132500", "092500.922500", "092458.337500", "092500.127500", "092458.537500", "092500.327500", "092458.735000", "092500.525000", "092458.935000", "092500.725000", "092459.332500", "092501.122500", "092459.532500", "092501.322500", "092459.730000", "092501.520000", "092459.930000", "092501.720000", "092459.132500", "092504.522500", "092501.937500", "092503.727500", "092502.137500", "092503.927500", "092502.335000", "092504.125000", "092502.535000", "092504.325000", "092502.932500", "092504.722500", "092503.132500", "092504.922500", "092503.330000", "092505.120000", "092503.530000", "092505.320000", "092502.732500", "092504.522500", "092501.937500", "092503.727500", "092502.137500", "092503.927500", "092502.335000", "092504.125000", "092502.535000", "092504.325000", "092502.932500", "092504.722500", "092503.132500", "092504.922500", "092503.330000", "092505.120000", "092503.530000", "092505.320000", "092502.732500", "092504.522500", "092501.937500", "092503.727500", "092502.137500", "092503.927500", "092502.335000", "092504.125000", "092502.535000", "092504.325000", "092502.932500", "092504.722500", "092503.132500", "092504.922500", "092503.330000", "092505.120000", "092503.530000", "092505.320000", "092502.732500", "092504.522500", "092501.937500", "092503.727500", "092502.137500", "092503.927500", "092502.335000", "092504.125000", "092502.535000", "092504.325000", "092502.932500", "092504.722500", "092503.132500", "092504.922500", "0925