{
  "AcquisitionMatrixPE": 80,
  "AcquisitionNumber": 1,
  "AcquisitionTime": "09:06:1.190000",
  "BandwidthPerPixelPhaseEncode": 48.077,
  "BaseResolution": 80,
  "BodyPartExamined": "BRAIN",
  "CoilCombinationMethod": "Sum of Squares",
  "ConsistencyInfo": "N4_VE11C_LATEST_20160120",
  "ConversionSoftware": "dcm2niix",
  "ConversionSoftwareVersion": "v1.0.20220720",
  "DerivedVendorReportedEchoSpacing": 0.000519999,
  "DeviceSerialNumber": "66112",
  "DwellTime": 2.7e-06,
  "EchoTime": 0.035,
  "EchoTrainLength": 39,
  "EffectiveEchoSpacing": 0.00026,
  "FlipAngle": 90,
  "HeudiconvVersion": "0.13.1",
  "ImageOrientationPatientDICOM": [0.986259, 0.164682, 0.0131559, -0.160623, 0.937222, 0.309541],
  "ImageOrientationText": "Tra>Cor(17.9)>Sag(-2.2)",
  "ImageType": [
    "ORIGINAL",
    "PRIMARY",
    "M",
    "ND",
    "NORM",
    "MOSAIC"
],
  "ImagingFrequency": 123.252,
  "InPlanePhaseEncodingDirectionDICOM": "COL",
  "InstitutionAddress": "Maynard 3,Hanover,NH,US,03755",
  "InstitutionName": "Dartmouth College - PBS",
  "InstitutionalDepartmentName": "Department",
  "MRAcquisitionType": "2D",
  "MagneticFieldStrength": 3,
  "Manufacturer": "Siemens",
  "ManufacturersModelName": "Prisma",
  "MatrixCoilMode": "GRAPPA",
  "Modality": "MR",
  "NonlinearGradientCorrection": false,
  "ParallelReductionFactorInPlane": 2,
  "PartialFourier": 1,
  "PatientPosition": "HFS",
  "PercentPhaseFOV": 100,
  "PercentSampling": 100,
  "PhaseEncodingDirection": "j-",
  "PhaseEncodingSteps": 79,
  "PhaseResolution": 1,
  "PixelBandwidth": 2315,
  "ProcedureStepDescription": "dbic^QA",
  "ProtocolName": "func-bold_task-rest_acq-p2",
  "PulseSequenceDetails": "%SiemensSeq%\\ep2d_bold",
  "ReceiveCoilActiveElements": "HEA;HEP",
  "ReceiveCoilName": "Head_32",
  "ReconMatrixPE": 80,
  "RefLinesPE": 24,
  "RepetitionTime": 2,
  "SAR": 0.0555963,
  "ScanOptions": "FS",
  "ScanningSequence": "EP",
  "SequenceName": "*epfid2d1_80",
  "SequenceVariant": "SK",
  "SeriesDescription": "func-bold_task-rest_acq-p2",
  "SeriesNumber": 5,
  "ShimSetting": [4155, -7687, -7512, 299, 8, -128, -24, 120],
  "SliceThickness": 3.5,
  "SliceTiming": [0.99, 0, 1.055, 0.065, 1.12, 0.13, 1.1875, 0.1975, 1.2525, 0.2625, 1.32, 0.33, 1.385, 0.395, 1.45, 0.46, 1.5175, 0.5275, 1.5825, 0.5925, 1.65, 0.66, 1.715, 0.725, 1.78, 0.79, 1.8475, 0.8575, 1.9125, 0.9225],
  "SoftwareVersions": "syngo MR E11",
  "SpacingBetweenSlices": 3.99,
  "StationName": "AWP66112",
  "TaskName": "rest",
  "TotalReadoutTime": 0.02054,
  "TxRefAmp": 227.176,
  "dcmmeta_affine": [
    [-2.9587771892547607, -0.48186764121055603, -0.15419647097587585, 141.9632568359375],
    [-0.494044691324234, 2.8116650581359863, 1.2265304327011108, -102.40653228759766],
    [0.03946780040860176, -0.928624153137207, 3.7936718463897705, -31.491262435913086],
    [0.0, 0.0, 0.0, 1.0]
],
  "dcmmeta_reorient_transform": [
    [0.0, -1.0, 0.0, 79.0],
    [1.0, 0.0, 0.0, 0.0],
    [0.0, 0.0, 1.0, 0.0],
    [0.0, 0.0, 0.0, 1.0]
],
  "dcmmeta_shape": [80, 80, 30, 200],
  "dcmmeta_slice_dim": 2,
  "dcmmeta_version": 0.6,
  "global": {
    "const": {
      "AccessionNumber": "qa",
      "AcquisitionMatrix": [80, 0, 0, 80],
      "AngioFlag": "N",
      "BitsAllocated": 16,
      "BitsStored": 12,
      "BodyPartExamined": "BRAIN",
      "Columns": 480,
      "EchoNumbers": 1,
      "EchoTime": 35.0,
      "EchoTrainLength": 39,
      "FlipAngle": 90.0,
      "HighBit": 11,
      "ImageOrientationPatient": [0.98625904553161, 0.1646815610052, 0.01315593295704, -0.1606225469876, 0.93722171061498, 0.30954137453841],
      "ImagePositionPatient": [-599.27761393548, -780.85697837689, -298.47095238793],
      "ImageType": [
        "ORIGINAL",
        "PRIMARY",
        "M",
        "ND",
        "NORM",
        "MOSAIC"
],
      "ImagedNucleus": "1H",
      "ImagingFrequency": 123.252441,
      "InPlanePhaseEncodingDirection": "COL",
      "MRAcquisitionType": "2D",
      "MagneticFieldStrength": 3.0,
      "Manufacturer": "SIEMENS",
      "ManufacturerModelName": "Prisma",
      "Modality": "MR",
      "NumberOfAverages": 1.0,
      "NumberOfPhaseEncodingSteps": 79,
      "PercentPhaseFieldOfView": 100.0,
      "PercentSampling": 100.0,
      "PerformedProcedureStepStartTime": "090433.633000",
      "PhotometricInterpretation": "MONOCHROME2",
      "PixelBandwidth": 2315.0,
      "PixelRepresentation": 0,
      "PixelSpacing": [3.0, 3.0],
      "ProtocolName": "func-bold_task-rest_acq-p2",
      "RepetitionTime": 2000.0,
      "Rows": 480,
      "SAR": 0.05559628182822,
      "SamplesPerPixel": 1,
      "ScanOptions": "FS",
      "ScanningSequence": "EP",
      "SequenceName": "*epfid2d1_80",
      "SequenceVariant": "SK",
      "SeriesDescription": "func-bold_task-rest_acq-p2",
      "SeriesNumber": 5,
      "SeriesTime": "090647.060000",
      "SliceLocation": -66.907889252349,
      "SliceThickness": 3.5,
      "SmallestImagePixelValue": 0,
      "SoftwareVersions": "syngo MR E11",
      "SpacingBetweenSlices": 3.9899999524485,
      "SpecificCharacterSet": "ISO_IR 100",
      "StudyID": "97",
      "StudyTime": "090433.547000",
      "TransmitCoilName": "Body",
      "VariableFlipAngleFlag": "N",
      "WindowCenterWidthExplanation": "Algo1",
      "dBdt": 0.0},
    "slices": {}
  },
  "time": {
    "samples": {
      "AcquisitionNumber": [1, 2, 3, 4, 5, 6, 7, 8, 9, 10, 11, 12, 13, 14, 15, 16, 17, 18, 19, 20, 21, 22, 23, 24, 25, 26, 27, 28, 29, 30, 31, 32, 33, 34, 35, 36, 37, 38, 39, 40, 41, 42, 43, 44, 45, 46, 47, 48, 49, 50, 51, 52, 53, 54, 55, 56, 57, 58, 59, 60, 61, 62, 63, 64, 65, 66, 67, 68, 69, 70, 71, 72, 73, 74, 75, 76, 77, 78, 79, 80, 81, 82, 83, 84, 85, 86, 87, 88, 89, 90, 91, 92, 93, 94, 95, 96, 97, 98, 99, 100, 101, 102, 103, 104, 105, 106, 107, 108, 109, 110, 111, 112, 113, 114, 115, 116, 117, 118, 119, 120, 121, 122, 123, 124, 125, 126, 127, 128, 129, 130, 131, 132, 133, 134, 135, 136, 137, 138, 139, 140, 141, 142, 143, 144, 145, 146, 147, 148, 149, 150, 151, 152, 153, 154, 155, 156, 157, 158, 159, 160, 161, 162, 163, 164, 165, 166, 167, 168, 169, 170, 171, 172, 173, 174, 175, 176, 177, 178, 179, 180, 181, 182, 183, 184, 185, 186, 187, 188, 189, 190, 191, 192, 193, 194, 195, 196, 197, 198, 199, 200],
      "AcquisitionTime": ["090601.190000", "090603.190000", "090605.190000", "090607.190000", "090609.190000", "090611.190000", "090613.190000", "090615.190000", "090617.190000", "090619.190000", "090621.190000", "090623.190000", "090625.190000", "090627.190000", "090629.190000", "090631.190000", "090633.190000", "090635.190000", "090637.190000", "090639.190000", "090641.190000", "090643.190000", "090645.190000", "090647.190000", "090649.190000", "090651.190000", "090653.190000", "090655.190000", "090657.190000", "090659.190000", "090701.190000", "090703.190000", "090705.190000", "090707.190000", "090709.190000", "090711.190000", "090713.190000", "090715.190000", "090717.190000", "090719.190000", "090721.190000", "090723.190000", "090725.190000", "090727.190000", "090729.190000", "090731.190000", "090733.190000", "090735.190000", "090737.190000", "090739.190000", "090741.190000", "090743.190000", "090745.190000", "090747.190000", "090749.190000", "090751.190000", "090753.190000", "090755.190000", "090757.190000", "090759.190000", "090801.190000", "090803.190000", "090805.190000", "090807.190000", "090809.190000", "090811.190000", "090813.190000", "090815.190000", "090817.190000", "090819.190000", "090821.190000", "090823.190000", "090825.190000", "090827.190000", "090829.190000", "090831.190000", "090833.190000", "090835.190000", "090837.190000", "090839.190000", "090841.190000", "090843.190000", "090845.190000", "090847.190000", "090849.190000", "090851.190000", "090853.190000", "090855.190000", "090857.190000", "090859.190000", "090901.190000", "090903.190000", "090905.190000", "090907.190000", "090909.190000", "090911.190000", "090913.190000", "090915.190000", "090917.190000", "090919.190000", "090921.190000", "090923.190000", "090925.190000", "090927.190000", "090929.190000", "090931.190000", "090933.190000", "090935.190000", "090937.190000", "090939.190000", "090941.190000", "090943.190000", "090945.190000", "090947.190000", "090949.190000", "090951.190000", "090953.190000", "090955.190000", "090957.190000", "090959.190000", "091001.190000", "091003.190000", "091005.190000", "091007.190000", "091009.190000", "091011.190000", "091013.190000", "091015.190000", "091017.190000", "091019.190000", "091021.190000", "091023.190000", "091025.190000", "091027.190000", "091029.190000", "091031.190000", "091033.190000", "091035.190000", "091037.190000", "091039.190000", "091041.190000", "091043.190000", "091045.190000", "091047.190000", "091049.190000", "091051.190000", "091053.190000", "091055.190000", "091057.190000", "091059.190000", "091101.190000", "091103.190000", "091105.190000", "091107.190000", "091109.190000", "091111.190000", "091113.190000", "091115.190000", "091117.190000", "091119.190000", "091121.190000", "091123.190000", "091125.190000", "091127.190000", "091129.190000", "091131.190000", "091133.190000", "091135.190000", "091137.190000", "091139.190000", "091141.190000", "091143.190000", "091145.190000", "091147.190000", "091149.190000", "091151.190000", "091153.190000", "091155.190000", "091157.190000", "091159.190000", "091201.190000", "091203.190000", "091205.190000", "091207.190000", "091209.190000", "091211.190000", "091213.190000", "091215.190000", "091217.190000", "091219.190000", "091221.190000", "091223.190000", "091225.190000", "091227.190000", "091229.190000", "091231.190000", "091233.190000", "091235.190000", "091237.190000", "091239.190000"],
      "ContentTime": ["090647.063000", "090647.067000", "090647.069000", "090647.072000", "090647.074000", "090647.077000", "090647.079000", "090647.082000", "090647.084000", "090647.087000", "090647.090000", "090647.092000", "090647.095000", "090647.097000", "090647.100000", "090647.106000", "090647.108000", "090647.111000", "090647.113000", "090647.116000", "090647.118000", "090647.121000", "090727.059000", "090727.062000", "090727.065000", "090727.067000", "090727.070000", "090727.072000", "090727.075000", "090727.078000", "090727.080000", "090727.083000", "090727.085000", "090727.088000", "090727.090000", "090727.093000", "090727.095000", "090727.098000", "090727.102000", "090727.105000", "090727.107000", "090727.110000", "090807.060000", "090807.062000", "090807.065000", "090807.067000", "090807.070000", "090807.072000", "090807.075000", "090807.078000", "090807.080000", "090807.083000", "090807.085000", "090807.088000", "090807.090000", "090807.093000", "090807.095000", "090807.098000", "090807.102000", "090807.105000", "090807.107000", "090807.110000", "090847.058000", "090847.061000", "090847.064000", "090847.066000", "090847.069000", "090847.071000", "090847.074000", "090847.076000", "090847.079000", "090847.081000", "090847.084000", "090847.086000", "090847.089000", "090847.091000", "090847.094000", "090847.097000", "090847.101000", "090847.103000", "090847.106000", "090847.108000", "090927.058000", "090927.061000", "090927.064000", "090927.066000", "090927.069000", "090927.071000", "090927.074000", "090927.076000", "090927.079000", "090927.081000", "090927.084000", "090927.087000", "090927.089000", "090927.092000", "090927.095000", "090927.097000", "090927.101000", "090927.104000", "090927.106000", "090927.109000", "091007.059000", "091007.062000", "091007.065000", "091007.068000", "091007.070000", "091007.073000", "091007.076000", "091007.078000", "091007.081000", "091007.084000", "091007.086000", "091007.089000", "091007.091000", "091007.094000", "091007.096000", "091007.100000", "091007.103000", "091007.106000", "091007.108000", "091007.111000", "091047.058000", "091047.061000", "091047.064000", "091047.066000", "091047.069000", "091047.071000", "091047.074000", "091047.076000", "091047.079000", "091047.081000", "091047.084000", "091047.086000", "091047.089000", "091047.092000", "091047.094000", "091047.098000", "091047.101000", "091047.104000", "091047.106000", "091047.109000", "091127.058000", "091127.061000", "091127.064000", "091127.066000", "091127.069000", "091127.071000", "091127.074000", "091127.076000", "091127.079000", "091127.081000", "091127.084000", "091127.087000", "091127.091000", "091127.094000", "091127.098000", "091127.100000", "091127.103000", "091127.105000", "091127.108000", "091127.111000", "091207.059000", "091207.062000", "091207.065000", "091207.067000", "091207.070000", "091207.072000", "091207.075000", "091207.078000", "091207.080000", "091207.083000", "091207.085000", "091207.088000", "091207.090000", "091207.093000", "091207.097000", "091207.100000", "091207.115000", "091207.118000", "091207.122000", "091207.125000", "091241.139000", "091241.142000", "091241.144000", "091241.147000", "091241.149000", "091241.152000", "091241.155000", "091241.157000", "091241.160000", "091241.162000", "091241.165000", "091241.169000", "091241.175000", "091241.180000", "091241.183000", "091241.189000", "091241.192000", "091241.196000"],
      "InstanceCreationTime": ["090647.063000", "090647.067000", "090647.069000", "090647.072000", "090647.074000", "090647.077000", "090647.079000", "090647.082000", "090647.084000", "090647.087000", "090647.090000", "090647.092000", "090647.095000", "090647.097000", "090647.100000", "090647.106000", "090647.108000", "090647.111000", "090647.113000", "090647.116000", "090647.118000", "090647.121000", "090727.059000", "090727.062000", "090727.065000", "090727.067000", "090727.070000", "090727.072000", "090727.075000", "090727.078000", "090727.080000", "090727.083000", "090727.085000", "090727.088000", "090727.090000", "090727.093000", "090727.095000", "090727.098000", "090727.102000", "090727.105000", "090727.107000", "090727.110000", "090807.060000", "090807.062000", "090807.065000", "090807.067000", "090807.070000", "090807.072000", "090807.075000", "090807.078000", "090807.080000", "090807.083000", "090807.085000", "090807.088000", "090807.090000", "090807.093000", "090807.095000", "090807.098000", "090807.102000", "090807.105000", "090807.107000", "090807.110000", "090847.058000", "090847.061000", "090847.064000", "090847.066000", "090847.069000", "090847.071000", "090847.074000", "090847.076000", "090847.079000", "090847.081000", "090847.084000", "090847.086000", "090847.089000", "090847.091000", "090847.094000", "090847.097000", "090847.101000", "090847.103000", "090847.106000", "090847.108000", "090927.058000", "090927.061000", "090927.064000", "090927.066000", "090927.069000", "090927.071000", "090927.074000", "090927.076000", "090927.079000", "090927.081000", "090927.084000", "090927.087000", "090927.089000", "090927.092000", "090927.095000", "090927.097000", "090927.101000", "090927.104000", "090927.106000", "090927.109000", "091007.059000", "091007.062000", "091007.065000", "091007.068000", "091007.070000", "091007.073000", "091007.076000", "091007.078000", "091007.081000", "091007.084000", "091007.086000", "091007.089000", "091007.091000", "091007.094000", "091007.096000", "091007.100000", "091007.103000", "091007.106000", "091007.108000", "091007.111000", "091047.058000", "091047.061000", "091047.064000", "091047.066000", "091047.069000", "091047.071000", "091047.074000", "091047.076000", "091047.079000", "091047.081000", "091047.084000", "091047.086000", "091047.089000", "091047.092000", "091047.094000", "091047.098000", "091047.101000", "091047.104000", "091047.106000", "091047.109000", "091127.058000", "091127.061000", "091127.064000", "091127.066000", "091127.069000", "091127.071000", "091127.074000", "091127.076000", "091127.079000", "091127.081000", "091127.084000", "091127.087000", "091127.091000", "091127.094000", "091127.098000", "091127.100000", "091127.103000", "091127.105000", "091127.108000", "091127.111000", "091207.059000", "091207.062000", "091207.065000", "091207.067000", "091207.070000", "091207.072000", "091207.075000", "091207.078000", "091207.080000", "091207.083000", "091207.085000", "091207.088000", "091207.090000", "091207.093000", "091207.097000", "091207.100000", "091207.115000", "091207.118000", "091207.122000", "091207.125000", "091241.139000", "091241.142000", "091241.144000", "091241.147000", "091241.149000", "091241.152000", "091241.155000", "091241.157000", "091241.160000", "091241.162000", "091241.165000", "091241.169000", "091241.175000", "091241.180000", "091241.183000", "091241.189000", "091241.192000", "091241.196000"],
      "InstanceNumber": [1, 2, 3, 4, 5, 6, 7, 8, 9, 10, 11, 12, 13, 14, 15, 16, 17, 18, 19, 20, 21, 22, 23, 24, 25, 26, 27, 28, 29, 30, 31, 32, 33, 34, 35, 36, 37, 38, 39, 40, 41, 42, 43, 44, 45, 46, 47, 48, 49, 50, 51, 52, 53, 54, 55, 56, 57, 58, 59, 60, 61, 62, 63, 64, 65, 66, 67, 68, 69, 70, 71, 72, 73, 74, 75, 76, 77, 78, 79, 80, 81, 82, 83, 84, 85, 86, 87, 88, 89, 90, 91, 92, 93, 94, 95, 96, 97, 98, 99, 100, 101, 102, 103, 104, 105, 106, 107, 108, 109, 110, 111, 112, 113, 114, 115, 116, 117, 118, 119, 120, 121, 122, 123, 124, 125, 126, 127, 128, 129, 130, 131, 132, 133, 134, 135, 136, 137, 138, 139, 140, 141, 142, 143, 144, 145, 146, 147, 148, 149, 150, 151, 152, 153, 154, 155, 156, 157, 158, 159, 160, 161, 162, 163, 164, 165, 166, 167, 168, 169, 170, 171, 172, 173, 174, 175, 176, 177, 178, 179, 180, 181, 182, 183, 184, 185, 186, 187, 188, 189, 190, 191, 192, 193, 194, 195, 196, 197, 198, 199, 200],
      "LargestImagePixelValue": [1984, 1981, 1978, 1988, 1982, 1991, 1984, 1992, 1989, 1985, 1989, 1985, 1984, 1994, 1989, 1993, 1982, 1983, 1987, 1985, 1989, 1992, 1991, 1989, 1989, 1989, 1982, 1987, 1987, 1980, 1981, 1997, 1991, 1989, 1981, 1995, 1989, 1991, 1983, 1992, 1985, 1985, 1992, 1999, 1985, 1988, 1983, 1998, 1994, 1988, 1997, 1987, 1989, 1995, 1996, 1991, 1992, 1988, 1993, 1994, 1989, 1989, 1986, 1989, 1989, 1992, 1985, 1993, 1998, 1993, 1995, 1994, 1989, 1995, 1985, 1993, 1991, 1999, 1989, 1992, 1985, 1980, 1996, 1984, 1979, 1987, 1992, 1986, 1990, 1993, 1990, 1983, 1987, 1993, 1989, 1987, 1987, 1985, 1990, 1984, 1990, 1995, 1992, 1983, 1997, 1993, 1997, 1986, 1985, 1994, 1987, 1993, 1981, 1981, 1987, 1982, 1992, 1984, 1987, 1991, 1999, 1993, 1990, 1995, 1981, 1994, 1982, 1990, 1994, 1990, 1991, 1987, 1983, 1988, 1990, 1993, 1990, 1983, 1993, 1992, 1988, 1987, 1985, 1988, 1992, 1987, 1992, 1988, 1988, 1985, 1988, 1987, 1985, 1990, 1989, 1986, 1993, 1996, 1990, 1985, 1986, 1989, 1994, 1984, 1980, 1998, 1988, 1997, 1986, 1995, 1987, 1998, 1987, 1990, 1988, 1991, 1978, 1983, 1986, 1985, 1994, 1988, 1984, 1992, 1994, 1985, 1987, 1996, 1984, 1988, 1995, 1991, 1990, 1985, 1988, 1992, 1983, 1987, 1981, 1988],
      "WindowCenter": [974.0, 973.0, 975.0, 973.0, 973.0, 974.0, 974.0, 973.0, 974.0, 973.0, 973.0, 974.0, 974.0, 973.0, 973.0, 973.0, 973.0, 973.0, 973.0, 973.0, 973.0, 973.0, 974.0, 973.0, 974.0, 973.0, 974.0, 974.0, 973.0, 974.0, 973.0, 973.0, 973.0, 974.0, 973.0, 973.0, 973.0, 973.0, 973.0, 973.0, 973.0, 973.0, 973.0, 973.0, 973.0, 973.0, 973.0, 973.0, 973.0, 973.0, 972.0, 973.0, 972.0, 972.0, 973.0, 973.0, 972.0, 972.0, 972.0, 972.0, 973.0, 972.0, 972.0, 972.0, 972.0, 973.0, 973.0, 973.0, 972.0, 972.0, 973.0, 972.0, 972.0, 973.0, 972.0, 972.0, 972.0, 972.0, 973.0, 974.0, 973.0, 972.0, 972.0, 972.0, 972.0, 972.0, 973.0, 972.0, 972.0, 973.0, 972.0, 973.0, 972.0, 972.0, 972.0, 973.0, 972.0, 972.0, 974.0, 972.0, 972.0, 972.0, 973.0, 974.0, 972.0, 972.0, 972.0, 972.0, 972.0, 972.0, 972.0, 972.0, 972.0, 973.0, 973.0, 972.0, 972.0, 972.0, 972.0, 972.0, 972.0, 973.0, 972.0, 972.0, 972.0, 971.0, 971.0, 972.0, 972.0, 972.0, 971.0, 972.0, 971.0, 973.0, 972.0, 971.0, 971.0, 972.0, 971.0, 971.0, 972.0, 971.0, 972.0, 971.0, 972.0, 972.0, 971.0, 972.0, 971.0, 972.0, 972.0, 972.0, 971.0, 971.0, 971.0, 971.0, 971.0, 971.0, 971.0, 972.0, 971.0, 971.0, 972.0, 971.0, 971.0, 971.0, 971.0, 971.0, 971.0, 971.0, 971.0, 971.0, 972.0, 971.0, 971.0, 971.0, 971.0, 971.0, 971.0, 971.0, 971.0, 971.0, 972.0, 971.0, 972.0, 971.0, 972.0, 972.0, 971.0, 971.0, 971.0, 971.0, 971.0, 971.0, 971.0, 971.0, 972.0, 971.0, 971.0, 971.0],
      "WindowWidth": [2125.0, 2125.0, 2126.0, 2125.0, 2125.0, 2125.0, 2125.0, 2124.0, 2125.0, 2125.0, 2124.0, 2125.0, 2125.0, 2124.0, 2124.0, 2124.0, 2124.0, 2124.0, 2124.0, 2124.0, 2124.0, 2124.0, 2124.0, 2124.0, 2125.0, 2124.0, 2125.0, 2124.0, 2124.0, 2125.0, 2124.0, 2124.0, 2124.0, 2125.0, 2124.0, 2124.0, 2124.0, 2124.0, 2124.0, 2124.0, 2124.0, 2123.0, 2123.0, 2124.0, 2123.0, 2124.0, 2124.0, 2123.0, 2123.0, 2124.0, 2123.0, 2123.0, 2123.0, 2123.0, 2124.0, 2124.0, 2123.0, 2123.0, 2123.0, 2123.0, 2124.0, 2123.0, 2123.0, 2123.0, 2123.0, 2124.0, 2123.0, 2123.0, 2123.0, 2123.0, 2123.0, 2122.0, 2123.0, 2124.0, 2123.0, 2123.0, 2123.0, 2122.0, 2123.0, 2124.0, 2123.0, 2122.0, 2122.0, 2122.0, 2122.0, 2122.0, 2123.0, 2122.0, 2122.0, 2123.0, 2122.0, 2123.0, 2122.0, 2122.0, 2122.0, 2123.0, 2122.0, 2122.0, 2124.0, 2122.0, 2122.0, 2122.0, 2122.0, 2123.0, 2121.0, 2122.0, 2122.0, 2121.0, 2122.0, 2122.0, 2121.0, 2121.0, 2121.0, 2122.0, 2122.0, 2121.0, 2121.0, 2121.0, 2121.0, 2121.0, 2122.0, 2122.0, 2121.0, 2121.0, 2121.0, 2121.0, 2121.0, 2121.0, 2121.0, 2121.0, 2121.0, 2121.0, 2121.0, 2121.0, 2121.0, 2121.0, 2120.0, 2121.0, 2120.0, 2121.0, 2121.0, 2120.0, 2121.0, 2120.0, 2121.0, 2121.0, 2120.0, 2121.0, 2120.0, 2120.0, 2120.0, 2120.0, 2120.0, 2120.0, 2119.0, 2119.0, 2120.0, 2120.0, 2120.0, 2120.0, 2119.0, 2120.0, 2120.0, 2119.0, 2119.0, 2119.0, 2120.0, 2119.0, 2119.0, 2119.0, 2119.0, 2119.0, 2120.0, 2119.0, 2119.0, 2119.0, 2119.0, 2119.0, 2119.0, 2119.0, 2119.0, 2119.0, 2120.0, 2119.0, 2120.0, 2119.0, 2120.0, 2120.0, 2118.0, 2119.0, 2119.0, 2118.0, 2119.0, 2119.0, 2119.0, 2119.0, 2119.0, 2118.0, 2119.0, 2119.0]
    },
    "slices": {}
  }
}