{
  "AcquisitionMatrixPE": 80,
  "AcquisitionNumber": 1,
  "AcquisitionTime": "08:39:51.520000",
  "BandwidthPerPixelPhaseEncode": 25,
  "BaseResolution": 80,
  "BodyPartExamined": "BRAIN",
  "CoilCombinationMethod": "Sum of Squares",
  "ConsistencyInfo": "N4_VE11C_LATEST_20160120",
  "ConversionSoftware": "dcm2niix",
  "ConversionSoftwareVersion": "v1.0.20220720",
  "DerivedVendorReportedEchoSpacing": 0.0005,
  "DeviceSerialNumber": "66112",
  "DwellTime": 2.7e-06,
  "EchoTime": 0.03,
  "EchoTrainLength": 80,
  "EffectiveEchoSpacing": 0.0005,
  "FlipAngle": 77,
  "HeudiconvVersion": "0.13.1",
  "ImageOrientationPatientDICOM": [0.995434, -0.0929069, -0.0218807, 0.0953234, 0.955911, 0.277756],
  "ImageOrientationText": "Tra>Cor(16.2)>Sag(0.3)",
  "ImageType": [
    "ORIGINAL",
    "PRIMARY",
    "M",
    "ND",
    "NORM",
    "MOSAIC"
],
  "ImagingFrequency": 123.252,
  "InPlanePhaseEncodingDirectionDICOM": "COL",
  "InstitutionAddress": "Maynard 3,Hanover,NH,US,03755",
  "InstitutionName": "Dartmouth College - PBS",
  "InstitutionalDepartmentName": "Department",
  "MRAcquisitionType": "2D",
  "MagneticFieldStrength": 3,
  "Manufacturer": "Siemens",
  "ManufacturersModelName": "Prisma",
  "MatrixCoilMode": "SENSE",
  "Modality": "MR",
  "NonlinearGradientCorrection": false,
  "PartialFourier": 1,
  "PatientPosition": "HFS",
  "PercentPhaseFOV": 100,
  "PercentSampling": 100,
  "PhaseEncodingDirection": "j-",
  "PhaseEncodingSteps": 80,
  "PhaseResolution": 1,
  "PixelBandwidth": 2315,
  "ProcedureStepDescription": "dbic^QA",
  "ProtocolName": "func-bold_fa-77",
  "PulseSequenceDetails": "%SiemensSeq%\\ep2d_bold",
  "ReceiveCoilActiveElements": "HC1-7;NC1,2",
  "ReceiveCoilName": "HeadNeck_64",
  "ReconMatrixPE": 80,
  "RepetitionTime": 2,
  "SAR": 0.0282321,
  "ScanOptions": "FS",
  "ScanningSequence": "EP",
  "SequenceName": "*epfid2d1_80",
  "SequenceVariant": "SK",
  "SeriesDescription": "func-bold_fa-77",
  "SeriesNumber": 7,
  "ShimSetting": [4141, -7710, -7521, 187, -98, -269, -144, 146],
  "SliceThickness": 3.5,
  "SliceTiming": [0.99, 0, 1.055, 0.065, 1.12, 0.1325, 1.1875, 0.1975, 1.2525, 0.2625, 1.32, 0.33, 1.385, 0.395, 1.45, 0.4625, 1.5175, 0.5275, 1.5825, 0.5925, 1.65, 0.66, 1.715, 0.725, 1.78, 0.7925, 1.8475, 0.8575, 1.9125, 0.9225],
  "SoftwareVersions": "syngo MR E11",
  "SpacingBetweenSlices": 3.99,
  "StationName": "AWP66112",
  "TotalReadoutTime": 0.0395,
  "TxRefAmp": 208.362,
  "dcmmeta_affine": [
    [-2.9863030910491943, 0.28597015142440796, 0.019508875906467438, 107.703369140625],
    [0.2787206768989563, 2.867732048034668, 1.111507534980774, -140.03036499023438],
    [-0.06564204394817352, -0.8332671523094177, 3.8320059776306152, -17.973663330078125],
    [0.0, 0.0, 0.0, 1.0]
],
  "dcmmeta_reorient_transform": [
    [0.0, -1.0, 0.0, 79.0],
    [1.0, 0.0, 0.0, 0.0],
    [0.0, 0.0, 1.0, 0.0],
    [0.0, 0.0, 0.0, 1.0]
],
  "dcmmeta_shape": [80, 80, 30, 200],
  "dcmmeta_slice_dim": 2,
  "dcmmeta_version": 0.6,
  "global": {
    "const": {
      "AccessionNumber": "qa64",
      "AcquisitionMatrix": [80, 0, 0, 80],
      "AngioFlag": "N",
      "BitsAllocated": 16,
      "BitsStored": 12,
      "BodyPartExamined": "BRAIN",
      "Columns": 480,
      "EchoNumbers": 1,
      "EchoTime": 30.0,
      "EchoTrainLength": 80,
      "FlipAngle": 77.0,
      "HighBit": 11,
      "ImageOrientationPatient": [0.99543435044952, -0.092906887623, -0.0218806804591, 0.09532338274256, 0.95591067496341, 0.27775570956061],
      "ImagePositionPatient": [-784.7496517463, -604.32273169165, -237.32678456393],
      "ImageType": [
        "ORIGINAL",
        "PRIMARY",
        "M",
        "ND",
        "NORM",
        "MOSAIC"
],
      "ImagedNucleus": "1H",
      "ImagingFrequency": 123.252356,
      "InPlanePhaseEncodingDirection": "COL",
      "LargestImagePixelValue": 4095,
      "MRAcquisitionType": "2D",
      "MagneticFieldStrength": 3.0,
      "Manufacturer": "SIEMENS",
      "ManufacturerModelName": "Prisma",
      "Modality": "MR",
      "NumberOfAverages": 1.0,
      "NumberOfPhaseEncodingSteps": 80,
      "PercentPhaseFieldOfView": 100.0,
      "PercentSampling": 100.0,
      "PerformedProcedureStepStartTime": "083042.958000",
      "PhotometricInterpretation": "MONOCHROME2",
      "PixelBandwidth": 2315.0,
      "PixelRepresentation": 0,
      "PixelSpacing": [3.0, 3.0],
      "ProtocolName": "func-bold_fa-77",
      "RepetitionTime": 2000.0,
      "Rows": 480,
      "SAR": 0.02823206923292,
      "SamplesPerPixel": 1,
      "ScanOptions": "FS",
      "ScanningSequence": "EP",
      "SequenceName": "*epfid2d1_80",
      "SequenceVariant": "SK",
      "SeriesDescription": "func-bold_fa-77",
      "SeriesNumber": 7,
      "SeriesTime": "084045.342000",
      "SliceLocation": -55.744067252159,
      "SliceThickness": 3.5,
      "SmallestImagePixelValue": 0,
      "SoftwareVersions": "syngo MR E11",
      "SpacingBetweenSlices": 3.9899999359919,
      "SpecificCharacterSet": "ISO_IR 100",
      "StudyID": "37",
      "StudyTime": "083042.877000",
      "TransmitCoilName": "Body",
      "VariableFlipAngleFlag": "N",
      "WindowCenterWidthExplanation": "Algo1",
      "dBdt": 0.0},
    "slices": {}
  },
  "time": {
    "samples": {
      "AcquisitionNumber": [1, 2, 3, 4, 5, 6, 7, 8, 9, 10, 11, 12, 13, 14, 15, 16, 17, 18, 19, 20, 21, 22, 23, 24, 25, 26, 27, 28, 29, 30, 31, 32, 33, 34, 35, 36, 37, 38, 39, 40, 41, 42, 43, 44, 45, 46, 47, 48, 49, 50, 51, 52, 53, 54, 55, 56, 57, 58, 59, 60, 61, 62, 63, 64, 65, 66, 67, 68, 69, 70, 71, 72, 73, 74, 75, 76, 77, 78, 79, 80, 81, 82, 83, 84, 85, 86, 87, 88, 89, 90, 91, 92, 93, 94, 95, 96, 97, 98, 99, 100, 101, 102, 103, 104, 105, 106, 107, 108, 109, 110, 111, 112, 113, 114, 115, 116, 117, 118, 119, 120, 121, 122, 123, 124, 125, 126, 127, 128, 129, 130, 131, 132, 133, 134, 135, 136, 137, 138, 139, 140, 141, 142, 143, 144, 145, 146, 147, 148, 149, 150, 151, 152, 153, 154, 155, 156, 157, 158, 159, 160, 161, 162, 163, 164, 165, 166, 167, 168, 169, 170, 171, 172, 173, 174, 175, 176, 177, 178, 179, 180, 181, 182, 183, 184, 185, 186, 187, 188, 189, 190, 191, 192, 193, 194, 195, 196, 197, 198, 199, 200],
      "AcquisitionTime": ["083951.520000", "083953.520000", "083955.520000", "083957.520000", "083959.520000", "084001.520000", "084003.520000", "084005.520000", "084007.520000", "084009.520000", "084011.520000", "084013.520000", "084015.520000", "084017.520000", "084019.520000", "084021.520000", "084023.520000", "084025.520000", "084027.520000", "084029.520000", "084031.520000", "084033.520000", "084035.520000", "084037.520000", "084039.520000", "084041.520000", "084043.520000", "084045.520000", "084047.520000", "084049.520000", "084051.520000", "084053.520000", "084055.520000", "084057.520000", "084059.520000", "084101.520000", "084103.520000", "084105.520000", "084107.520000", "084109.520000", "084111.520000", "084113.520000", "084115.520000", "084117.520000", "084119.520000", "084121.520000", "084123.520000", "084125.520000", "084127.520000", "084129.520000", "084131.520000", "084133.520000", "084135.520000", "084137.520000", "084139.520000", "084141.520000", "084143.520000", "084145.520000", "084147.520000", "084149.520000", "084151.520000", "084153.520000", "084155.520000", "084157.520000", "084159.520000", "084201.520000", "084203.520000", "084205.520000", "084207.520000", "084209.520000", "084211.520000", "084213.520000", "084215.520000", "084217.520000", "084219.520000", "084221.520000", "084223.520000", "084225.520000", "084227.520000", "084229.520000", "084231.520000", "084233.520000", "084235.520000", "084237.520000", "084239.520000", "084241.520000", "084243.520000", "084245.520000", "084247.520000", "084249.520000", "084251.520000", "084253.520000", "084255.520000", "084257.520000", "084259.520000", "084301.520000", "084303.520000", "084305.520000", "084307.520000", "084309.520000", "084311.520000", "084313.520000", "084315.520000", "084317.520000", "084319.520000", "084321.520000", "084323.520000", "084325.520000", "084327.520000", "084329.520000", "084331.520000", "084333.520000", "084335.520000", "084337.520000", "084339.520000", "084341.520000", "084343.520000", "084345.520000", "084347.520000", "084349.520000", "084351.520000", "084353.520000", "084355.520000", "084357.520000", "084359.520000", "084401.520000", "084403.520000", "084405.520000", "084407.520000", "084409.520000", "084411.520000", "084413.520000", "084415.520000", "084417.520000", "084419.520000", "084421.520000", "084423.520000", "084425.520000", "084427.520000", "084429.520000", "084431.520000", "084433.520000", "084435.520000", "084437.520000", "084439.520000", "084441.520000", "084443.520000", "084445.520000", "084447.520000", "084449.520000", "084451.520000", "084453.520000", "084455.520000", "084457.520000", "084459.520000", "084501.520000", "084503.520000", "084505.520000", "084507.520000", "084509.520000", "084511.520000", "084513.520000", "084515.520000", "084517.520000", "084519.520000", "084521.520000", "084523.520000", "084525.520000", "084527.520000", "084529.520000", "084531.520000", "084533.520000", "084535.520000", "084537.520000", "084539.520000", "084541.520000", "084543.520000", "084545.520000", "084547.520000", "084549.520000", "084551.520000", "084553.520000", "084555.520000", "084557.520000", "084559.520000", "084601.520000", "084603.520000", "084605.520000", "084607.520000", "084609.520000", "084611.520000", "084613.520000", "084615.520000", "084617.520000", "084619.520000", "084621.520000", "084623.520000", "084625.520000", "084627.520000", "084629.520000"],
      "ContentTime": ["084045.350000", "084045.354000", "084045.357000", "084045.359000", "084045.362000", "084045.364000", "084045.367000", "084045.369000", "084045.372000", "084045.374000", "084045.377000", "084045.379000", "084045.382000", "084045.384000", "084045.387000", "084045.389000", "084045.392000", "084045.394000", "084045.397000", "084045.399000", "084045.402000", "084045.405000", "084045.407000", "084045.410000", "084045.412000", "084045.415000", "084045.417000", "084125.333000", "084125.336000", "084125.338000", "084125.341000", "084125.343000", "084125.346000", "084125.348000", "084125.351000", "084125.353000", "084125.356000", "084125.358000", "084125.361000", "084125.363000", "084125.366000", "084125.368000", "084125.371000", "084125.373000", "084125.376000", "084125.378000", "084125.381000", "084205.333000", "084205.335000", "084205.338000", "084205.341000", "084205.343000", "084205.346000", "084205.348000", "084205.351000", "084205.353000", "084205.356000", "084205.358000", "084205.361000", "084205.363000", "084205.366000", "084205.369000", "084205.371000", "084205.374000", "084205.376000", "084205.379000", "084205.381000", "084245.332000", "084245.335000", "084245.338000", "084245.340000", "084245.343000", "084245.346000", "084245.348000", "084245.351000", "084245.353000", "084245.356000", "084245.358000", "084245.361000", "084245.363000", "084245.366000", "084245.368000", "084245.371000", "084245.374000", "084245.376000", "084245.379000", "084245.381000", "084325.334000", "084325.336000", "084325.339000", "084325.342000", "084325.344000", "084325.347000", "084325.349000", "084325.352000", "084325.354000", "084325.357000", "084325.359000", "084325.362000", "084325.364000", "084325.367000", "084325.369000", "084325.372000", "084325.374000", "084325.377000", "084325.380000", "084325.382000", "084405.333000", "084405.335000", "084405.338000", "084405.341000", "084405.343000", "084405.346000", "084405.348000", "084405.351000", "084405.353000", "084405.356000", "084405.358000", "084405.361000", "084405.363000", "084405.366000", "084405.368000", "084405.371000", "084405.374000", "084405.376000", "084405.379000", "084405.381000", "084445.333000", "084445.335000", "084445.338000", "084445.345000", "084445.347000", "084445.350000", "084445.353000", "084445.355000", "084445.358000", "084445.360000", "084445.363000", "084445.366000", "084445.368000", "084445.371000", "084445.373000", "084445.376000", "084445.378000", "084445.381000", "084445.383000", "084445.386000", "084525.333000", "084525.335000", "084525.338000", "084525.341000", "084525.343000", "084525.346000", "084525.348000", "084525.351000", "084525.353000", "084525.356000", "084525.358000", "084525.361000", "084525.363000", "084525.366000", "084525.368000", "084525.371000", "084525.373000", "084525.376000", "084525.378000", "084525.381000", "084605.333000", "084605.335000", "084605.338000", "084605.341000", "084605.343000", "084605.346000", "084605.348000", "084605.351000", "084605.353000", "084605.356000", "084605.358000", "084605.361000", "084605.363000", "084605.366000", "084605.368000", "084605.371000", "084605.374000", "084605.376000", "084605.379000", "084605.381000", "084631.185000", "084631.188000", "084631.191000", "084631.193000", "084631.196000", "084631.198000", "084631.201000", "084631.204000", "084631.206000", "084631.209000", "084631.211000", "084631.214000", "084631.221000"],
      "InstanceCreationTime": ["084045.350000", "084045.354000", "084045.357000", "084045.359000", "084045.362000", "084045.364000", "084045.367000", "084045.369000", "084045.372000", "084045.374000", "084045.377000", "084045.379000", "084045.382000", "084045.384000", "084045.387000", "084045.389000", "084045.392000", "084045.394000", "084045.397000", "084045.399000", "084045.402000", "084045.405000", "084045.407000", "084045.410000", "084045.412000", "084045.415000", "084045.417000", "084125.333000", "084125.336000", "084125.338000", "084125.341000", "084125.343000", "084125.346000", "084125.348000", "084125.351000", "084125.353000", "084125.356000", "084125.358000", "084125.361000", "084125.363000", "084125.366000", "084125.368000", "084125.371000", "084125.373000", "084125.376000", "084125.378000", "084125.381000", "084205.333000", "084205.335000", "084205.338000", "084205.341000", "084205.343000", "084205.346000", "084205.348000", "084205.351000", "084205.353000", "084205.356000", "084205.358000", "084205.361000", "084205.363000", "084205.366000", "084205.369000", "084205.371000", "084205.374000", "084205.376000", "084205.379000", "084205.381000", "084245.332000", "084245.335000", "084245.338000", "084245.340000", "084245.343000", "084245.346000", "084245.348000", "084245.351000", "084245.353000", "084245.356000", "084245.358000", "084245.361000", "084245.363000", "084245.366000", "084245.368000", "084245.371000", "084245.374000", "084245.376000", "084245.379000", "084245.381000", "084325.334000", "084325.336000", "084325.339000", "084325.342000", "084325.344000", "084325.347000", "084325.349000", "084325.352000", "084325.354000", "084325.357000", "084325.359000", "084325.362000", "084325.364000", "084325.367000", "084325.369000", "084325.372000", "084325.374000", "084325.377000", "084325.380000", "084325.382000", "084405.333000", "084405.335000", "084405.338000", "084405.341000", "084405.343000", "084405.346000", "084405.348000", "084405.351000", "084405.353000", "084405.356000", "084405.358000", "084405.361000", "084405.363000", "084405.366000", "084405.368000", "084405.371000", "084405.374000", "084405.376000", "084405.379000", "084405.381000", "084445.333000", "084445.335000", "084445.338000", "084445.345000", "084445.347000", "084445.350000", "084445.353000", "084445.355000", "084445.358000", "084445.360000", "084445.363000", "084445.366000", "084445.368000", "084445.371000", "084445.373000", "084445.376000", "084445.378000", "084445.381000", "084445.383000", "084445.386000", "084525.333000", "084525.335000", "084525.338000", "084525.341000", "084525.343000", "084525.346000", "084525.348000", "084525.351000", "084525.353000", "084525.356000", "084525.358000", "084525.361000", "084525.363000", "084525.366000", "084525.368000", "084525.371000", "084525.373000", "084525.376000", "084525.378000", "084525.381000", "084605.333000", "084605.335000", "084605.338000", "084605.341000", "084605.343000", "084605.346000", "084605.348000", "084605.351000", "084605.353000", "084605.356000", "084605.358000", "084605.361000", "084605.363000", "084605.366000", "084605.368000", "084605.371000", "084605.374000", "084605.376000", "084605.379000", "084605.381000", "084631.185000", "084631.188000", "084631.191000", "084631.193000", "084631.196000", "084631.198000", "084631.201000", "084631.204000", "084631.206000", "084631.209000", "084631.211000", "084631.214000", "084631.221000"],
      "InstanceNumber": [1, 2, 3, 4, 5, 6, 7, 8, 9, 10, 11, 12, 13, 14, 15, 16, 17, 18, 19, 20, 21, 22, 23, 24, 25, 26, 27, 28, 29, 30, 31, 32, 33, 34, 35, 36, 37, 38, 39, 40, 41, 42, 43, 44, 45, 46, 47, 48, 49, 50, 51, 52, 53, 54, 55, 56, 57, 58, 59, 60, 61, 62, 63, 64, 65, 66, 67, 68, 69, 70, 71, 72, 73, 74, 75, 76, 77, 78, 79, 80, 81, 82, 83, 84, 85, 86, 87, 88, 89, 90, 91, 92, 93, 94, 95, 96, 97, 98, 99, 100, 101, 102, 103, 104, 105, 106, 107, 108, 109, 110, 111, 112, 113, 114, 115, 116, 117, 118, 119, 120, 121, 122, 123, 124, 125, 126, 127, 128, 129, 130, 131, 132, 133, 134, 135, 136, 137, 138, 139, 140, 141, 142, 143, 144, 145, 146, 147, 148, 149, 150, 151, 152, 153, 154, 155, 156, 157, 158, 159, 160, 161, 162, 163, 164, 165, 166, 167, 168, 169, 170, 171, 172, 173, 174, 175, 176, 177, 178, 179, 180, 181, 182, 183, 184, 185, 186, 187, 188, 189, 190, 191, 192, 193, 194, 195, 196, 197, 198, 199, 200],
      "WindowCenter": [1484.0, 1484.0, 1484.0, 1484.0, 1485.0, 1484.0, 1484.0, 1484.0, 1485.0, 1484.0, 1483.0, 1484.0, 1483.0, 1484.0, 1483.0, 1482.0, 1482.0, 1483.0, 1483.0, 1482.0, 1483.0, 1483.0, 1482.0, 1482.0, 1482.0, 1483.0, 1483.0, 1482.0, 1483.0, 1483.0, 1482.0, 1483.0, 1483.0, 1483.0, 1482.0, 1482.0, 1483.0, 1482.0, 1482.0, 1482.0, 1482.0, 1482.0, 1482.0, 1482.0, 1481.0, 1481.0, 1482.0, 1480.0, 1479.0, 1480.0, 1481.0, 1480.0, 1479.0, 1480.0, 1480.0, 1480.0, 1480.0, 1480.0, 1480.0, 1479.0, 1480.0, 1479.0, 1480.0, 1480.0, 1479.0, 1480.0, 1479.0, 1479.0, 1478.0, 1479.0, 1479.0, 1479.0, 1478.0, 1479.0, 1479.0, 1479.0, 1479.0, 1479.0, 1479.0, 1479.0, 1479.0, 1479.0, 1479.0, 1479.0, 1478.0, 1478.0, 1479.0, 1478.0, 1478.0, 1478.0, 1478.0, 1478.0, 1478.0, 1478.0, 1479.0, 1478.0, 1479.0, 1479.0, 1478.0, 1478.0, 1478.0, 1479.0, 1478.0, 1477.0, 1477.0, 1477.0, 1478.0, 1478.0, 1477.0, 1477.0, 1478.0, 1477.0, 1477.0, 1478.0, 1478.0, 1477.0, 1477.0, 1477.0, 1477.0, 1477.0, 1478.0, 1476.0, 1477.0, 1477.0, 1477.0, 1477.0, 1477.0, 1477.0, 1477.0, 1478.0, 1477.0, 1477.0, 1477.0, 1476.0, 1477.0, 1477.0, 1477.0, 1477.0, 1477.0, 1477.0, 1476.0, 1476.0, 1477.0, 1476.0, 1477.0, 1476.0, 1476.0, 1476.0, 1477.0, 1476.0, 1476.0, 1476.0, 1476.0, 1476.0, 1476.0, 1477.0, 1476.0, 1475.0, 1476.0, 1475.0, 1475.0, 1476.0, 1476.0, 1476.0, 1476.0, 1476.0, 1476.0, 1475.0, 1475.0, 1476.0, 1475.0, 1475.0, 1476.0, 1476.0, 1476.0, 1475.0, 1476.0, 1475.0, 1476.0, 1475.0, 1476.0, 1475.0, 1476.0, 1475.0, 1476.0, 1475.0, 1475.0, 1475.0, 1475.0, 1475.0, 1475.0, 1475.0, 1475.0, 1475.0, 1474.0, 1475.0, 1475.0, 1475.0, 1475.0, 1475.0],
      "WindowWidth": [3452.0, 3452.0, 3452.0, 3452.0, 3452.0, 3452.0, 3452.0, 3452.0, 3451.0, 3451.0, 3451.0, 3450.0, 3451.0, 3451.0, 3451.0, 3451.0, 3451.0, 3451.0, 3451.0, 3451.0, 3451.0, 3451.0, 3451.0, 3451.0, 3451.0, 3451.0, 3451.0, 3451.0, 3451.0, 3451.0, 3451.0, 3451.0, 3451.0, 3450.0, 3451.0, 3451.0, 3450.0, 3451.0, 3451.0, 3451.0, 3450.0, 3449.0, 3450.0, 3450.0, 3449.0, 3450.0, 3450.0, 3449.0, 3449.0, 3449.0, 3448.0, 3449.0, 3449.0, 3448.0, 3448.0, 3449.0, 3449.0, 3448.0, 3448.0, 3448.0, 3448.0, 3449.0, 3448.0, 3448.0, 3448.0, 3448.0, 3448.0, 3448.0, 3448.0, 3448.0, 3448.0, 3448.0, 3448.0, 3448.0, 3448.0, 3448.0, 3448.0, 3448.0, 3448.0, 3447.0, 3447.0, 3447.0, 3447.0, 3447.0, 3448.0, 3448.0, 3447.0, 3448.0, 3448.0, 3448.0, 3448.0, 3448.0, 3448.0, 3447.0, 3448.0, 3448.0, 3448.0, 3448.0, 3447.0, 3447.0, 3447.0, 3447.0, 3447.0, 3447.0, 3447.0, 3447.0, 3447.0, 3447.0, 3447.0, 3447.0, 3446.0, 3447.0, 3447.0, 3446.0, 3446.0, 3447.0, 3447.0, 3447.0, 3446.0, 3447.0, 3446.0, 3447.0, 3446.0, 3446.0, 3446.0, 3447.0, 3447.0, 3447.0, 3447.0, 3446.0, 3446.0, 3446.0, 3446.0, 3447.0, 3446.0, 3446.0, 3446.0, 3446.0, 3446.0, 3446.0, 3446.0, 3446.0, 3446.0, 3446.0, 3446.0, 3446.0, 3446.0, 3446.0, 3446.0, 3446.0, 3446.0, 3446.0, 3446.0, 3446.0, 3446.0, 3446.0, 3445.0, 3446.0, 3445.0, 3446.0, 3446.0, 3445.0, 3445.0, 3445.0, 3445.0, 3445.0, 3445.0, 3445.0, 3445.0, 3445.0, 3445.0, 3445.0, 3445.0, 3445.0, 3445.0, 3445.0, 3445.0, 3445.0, 3445.0, 3445.0, 3445.0, 3445.0, 3445.0, 3445.0, 3445.0, 3445.0, 3445.0, 3445.0, 3444.0, 3444.0, 3444.0, 3445.0, 3444.0, 3445.0, 3445.0, 3444.0, 3444.0, 3445.0, 3444.0, 3444.0]
    },
    "slices": {}
  }
}