{
  "AcquisitionMatrixPE": 80,
  "AcquisitionNumber": 1,
  "AcquisitionTime": "08:33:3.835000",
  "BandwidthPerPixelPhaseEncode": 48.077,
  "BaseResolution": 80,
  "BodyPartExamined": "BRAIN",
  "CoilCombinationMethod": "Sum of Squares",
  "ConsistencyInfo": "N4_VE11C_LATEST_20160120",
  "ConversionSoftware": "dcm2niix",
  "ConversionSoftwareVersion": "v1.0.20220720",
  "DerivedVendorReportedEchoSpacing": 0.000519999,
  "DeviceSerialNumber": "66112",
  "DwellTime": 2.7e-06,
  "EchoTime": 0.035,
  "EchoTrainLength": 39,
  "EffectiveEchoSpacing": 0.00026,
  "FlipAngle": 90,
  "HeudiconvVersion": "0.13.1",
  "ImageOrientationPatientDICOM": [0.995434, -0.0929069, -0.0218807, 0.0953234, 0.955911, 0.277756],
  "ImageOrientationText": "Tra>Cor(16.2)>Sag(0.3)",
  "ImageType": [
    "ORIGINAL",
    "PRIMARY",
    "M",
    "ND",
    "NORM",
    "MOSAIC"
],
  "ImagingFrequency": 123.252,
  "InPlanePhaseEncodingDirectionDICOM": "COL",
  "InstitutionAddress": "Maynard 3,Hanover,NH,US,03755",
  "InstitutionName": "Dartmouth College - PBS",
  "InstitutionalDepartmentName": "Department",
  "MRAcquisitionType": "2D",
  "MagneticFieldStrength": 3,
  "Manufacturer": "Siemens",
  "ManufacturersModelName": "Prisma",
  "MatrixCoilMode": "GRAPPA",
  "Modality": "MR",
  "NonlinearGradientCorrection": false,
  "ParallelReductionFactorInPlane": 2,
  "PartialFourier": 1,
  "PatientPosition": "HFS",
  "PercentPhaseFOV": 100,
  "PercentSampling": 100,
  "PhaseEncodingDirection": "j-",
  "PhaseEncodingSteps": 79,
  "PhaseResolution": 1,
  "PixelBandwidth": 2315,
  "ProcedureStepDescription": "dbic^QA",
  "ProtocolName": "func-bold_task-rest_acq-p2",
  "PulseSequenceDetails": "%SiemensSeq%\\ep2d_bold",
  "ReceiveCoilActiveElements": "HC1-7;NC1,2",
  "ReceiveCoilName": "HeadNeck_64",
  "ReconMatrixPE": 80,
  "RefLinesPE": 24,
  "RepetitionTime": 2,
  "SAR": 0.0359255,
  "ScanOptions": "FS",
  "ScanningSequence": "EP",
  "SequenceName": "*epfid2d1_80",
  "SequenceVariant": "SK",
  "SeriesDescription": "func-bold_task-rest_acq-p2",
  "SeriesNumber": 5,
  "ShimSetting": [4141, -7710, -7520, 188, -97, -268, -145, 145],
  "SliceThickness": 3.5,
  "SliceTiming": [0.99, 0, 1.055, 0.0675, 1.1225, 0.1325, 1.1875, 0.1975, 1.255, 0.265, 1.32, 0.33, 1.385, 0.3975, 1.4525, 0.4625, 1.5175, 0.5275, 1.585, 0.595, 1.65, 0.66, 1.715, 0.725, 1.7825, 0.7925, 1.8475, 0.8575, 1.915, 0.925],
  "SoftwareVersions": "syngo MR E11",
  "SpacingBetweenSlices": 3.99,
  "StationName": "AWP66112",
  "TaskName": "rest",
  "TotalReadoutTime": 0.02054,
  "TxRefAmp": 208.362,
  "dcmmeta_affine": [
    [-2.9863030910491943, 0.28597015142440796, 0.019508875906467438, 109.42530059814453],
    [0.2787206768989563, 2.867732048034668, 1.111507534980774, -142.40098571777344],
    [-0.06564204394817352, -0.8332671523094177, 3.8320059776306152, -18.625751495361328],
    [0.0, 0.0, 0.0, 1.0]
],
  "dcmmeta_reorient_transform": [
    [0.0, -1.0, 0.0, 79.0],
    [1.0, 0.0, 0.0, 0.0],
    [0.0, 0.0, 1.0, 0.0],
    [0.0, 0.0, 0.0, 1.0]
],
  "dcmmeta_shape": [80, 80, 30, 200],
  "dcmmeta_slice_dim": 2,
  "dcmmeta_version": 0.6,
  "global": {
    "const": {
      "AccessionNumber": "qa64",
      "AcquisitionMatrix": [80, 0, 0, 80],
      "AngioFlag": "N",
      "BitsAllocated": 16,
      "BitsStored": 12,
      "BodyPartExamined": "BRAIN",
      "Columns": 480,
      "EchoNumbers": 1,
      "EchoTime": 35.0,
      "EchoTrainLength": 39,
      "FlipAngle": 90.0,
      "HighBit": 11,
      "ImageOrientationPatient": [0.99543435044952, -0.092906887623, -0.0218806804591, 0.09532338274256, 0.95591067496341, 0.27775570956061],
      "ImagePositionPatient": [-786.47157962754, -601.95211287146, -237.97887272921],
      "ImageType": [
        "ORIGINAL",
        "PRIMARY",
        "M",
        "ND",
        "NORM",
        "MOSAIC"
],
      "ImagedNucleus": "1H",
      "ImagingFrequency": 123.252356,
      "InPlanePhaseEncodingDirection": "COL",
      "LargestImagePixelValue": 4095,
      "MRAcquisitionType": "2D",
      "MagneticFieldStrength": 3.0,
      "Manufacturer": "SIEMENS",
      "ManufacturerModelName": "Prisma",
      "Modality": "MR",
      "NumberOfAverages": 1.0,
      "NumberOfPhaseEncodingSteps": 79,
      "PercentPhaseFieldOfView": 100.0,
      "PercentSampling": 100.0,
      "PerformedProcedureStepStartTime": "083042.958000",
      "PhotometricInterpretation": "MONOCHROME2",
      "PixelBandwidth": 2315.0,
      "PixelRepresentation": 0,
      "PixelSpacing": [3.0, 3.0],
      "ProtocolName": "func-bold_task-rest_acq-p2",
      "RepetitionTime": 2000.0,
      "Rows": 480,
      "SAR": 0.03592552745428,
      "SamplesPerPixel": 1,
      "ScanOptions": "FS",
      "ScanningSequence": "EP",
      "SequenceName": "*epfid2d1_80",
      "SequenceVariant": "SK",
      "SeriesDescription": "func-bold_task-rest_acq-p2",
      "SeriesNumber": 5,
      "SeriesTime": "083345.258000",
      "SliceLocation": -57.022306245345,
      "SliceThickness": 3.5,
      "SmallestImagePixelValue": 0,
      "SoftwareVersions": "syngo MR E11",
      "SpacingBetweenSlices": 3.9899999359838,
      "SpecificCharacterSet": "ISO_IR 100",
      "StudyID": "37",
      "StudyTime": "083042.877000",
      "TransmitCoilName": "Body",
      "VariableFlipAngleFlag": "N",
      "WindowCenterWidthExplanation": "Algo1",
      "dBdt": 0.0},
    "slices": {}
  },
  "time": {
    "samples": {
      "AcquisitionNumber": [1, 2, 3, 4, 5, 6, 7, 8, 9, 10, 11, 12, 13, 14, 15, 16, 17, 18, 19, 20, 21, 22, 23, 24, 25, 26, 27, 28, 29, 30, 31, 32, 33, 34, 35, 36, 37, 38, 39, 40, 41, 42, 43, 44, 45, 46, 47, 48, 49, 50, 51, 52, 53, 54, 55, 56, 57, 58, 59, 60, 61, 62, 63, 64, 65, 66, 67, 68, 69, 70, 71, 72, 73, 74, 75, 76, 77, 78, 79, 80, 81, 82, 83, 84, 85, 86, 87, 88, 89, 90, 91, 92, 93, 94, 95, 96, 97, 98, 99, 100, 101, 102, 103, 104, 105, 106, 107, 108, 109, 110, 111, 112, 113, 114, 115, 116, 117, 118, 119, 120, 121, 122, 123, 124, 125, 126, 127, 128, 129, 130, 131, 132, 133, 134, 135, 136, 137, 138, 139, 140, 141, 142, 143, 144, 145, 146, 147, 148, 149, 150, 151, 152, 153, 154, 155, 156, 157, 158, 159, 160, 161, 162, 163, 164, 165, 166, 167, 168, 169, 170, 171, 172, 173, 174, 175, 176, 177, 178, 179, 180, 181, 182, 183, 184, 185, 186, 187, 188, 189, 190, 191, 192, 193, 194, 195, 196, 197, 198, 199, 200],
      "AcquisitionTime": ["083303.835000", "083305.835000", "083307.835000", "083309.835000", "083311.835000", "083313.835000", "083315.835000", "083317.835000", "083319.835000", "083321.835000", "083323.835000", "083325.835000", "083327.835000", "083329.835000", "083331.835000", "083333.835000", "083335.835000", "083337.835000", "083339.835000", "083341.835000", "083343.835000", "083345.835000", "083347.835000", "083349.835000", "083351.835000", "083353.835000", "083355.835000", "083357.835000", "083359.835000", "083401.835000", "083403.835000", "083405.835000", "083407.835000", "083409.835000", "083411.835000", "083413.835000", "083415.835000", "083417.835000", "083419.835000", "083421.835000", "083423.835000", "083425.835000", "083427.835000", "083429.835000", "083431.835000", "083433.835000", "083435.835000", "083437.835000", "083439.835000", "083441.835000", "083443.835000", "083445.835000", "083447.835000", "083449.835000", "083451.835000", "083453.835000", "083455.835000", "083457.835000", "083459.835000", "083501.835000", "083503.835000", "083505.835000", "083507.835000", "083509.835000", "083511.835000", "083513.835000", "083515.835000", "083517.835000", "083519.835000", "083521.835000", "083523.835000", "083525.835000", "083527.835000", "083529.835000", "083531.835000", "083533.835000", "083535.835000", "083537.835000", "083539.835000", "083541.835000", "083543.835000", "083545.835000", "083547.835000", "083549.835000", "083551.835000", "083553.835000", "083555.835000", "083557.835000", "083559.835000", "083601.835000", "083603.835000", "083605.835000", "083607.835000", "083609.835000", "083611.835000", "083613.835000", "083615.835000", "083617.835000", "083619.835000", "083621.835000", "083623.835000", "083625.835000", "083627.835000", "083629.835000", "083631.835000", "083633.835000", "083635.835000", "083637.835000", "083639.835000", "083641.835000", "083643.835000", "083645.835000", "083647.835000", "083649.835000", "083651.835000", "083653.835000", "083655.835000", "083657.835000", "083659.835000", "083701.835000", "083703.835000", "083705.835000", "083707.835000", "083709.835000", "083711.835000", "083713.835000", "083715.835000", "083717.835000", "083719.835000", "083721.835000", "083723.835000", "083725.835000", "083727.835000", "083729.835000", "083731.835000", "083733.835000", "083735.835000", "083737.835000", "083739.835000", "083741.835000", "083743.835000", "083745.835000", "083747.835000", "083749.835000", "083751.835000", "083753.835000", "083755.835000", "083757.835000", "083759.835000", "083801.835000", "083803.835000", "083805.835000", "083807.835000", "083809.835000", "083811.835000", "083813.835000", "083815.835000", "083817.835000", "083819.835000", "083821.835000", "083823.835000", "083825.835000", "083827.835000", "083829.835000", "083831.835000", "083833.835000", "083835.835000", "083837.835000", "083839.835000", "083841.835000", "083843.835000", "083845.835000", "083847.835000", "083849.835000", "083851.835000", "083853.835000", "083855.835000", "083857.835000", "083859.835000", "083901.835000", "083903.835000", "083905.835000", "083907.835000", "083909.835000", "083911.835000", "083913.835000", "083915.835000", "083917.835000", "083919.835000", "083921.835000", "083923.835000", "083925.835000", "083927.835000", "083929.835000", "083931.835000", "083933.835000", "083935.835000", "083937.835000", "083939.835000", "083941.835000"],
      "ContentTime": ["083345.262000", "083345.265000", "083345.268000", "083345.270000", "083345.273000", "083345.275000", "083345.278000", "083345.284000", "083345.287000", "083345.289000", "083345.292000", "083345.294000", "083345.297000", "083345.299000", "083345.302000", "083345.305000", "083345.307000", "083345.313000", "083345.315000", "083345.318000", "083345.320000", "083425.256000", "083425.259000", "083425.262000", "083425.264000", "083425.267000", "083425.269000", "083425.272000", "083425.275000", "083425.288000", "083425.298000", "083425.301000", "083425.304000", "083425.306000", "083425.309000", "083425.311000", "083425.314000", "083425.317000", "083425.319000", "083425.322000", "083425.325000", "083505.256000", "083505.259000", "083505.262000", "083505.265000", "083505.267000", "083505.270000", "083505.272000", "083505.275000", "083505.277000", "083505.280000", "083505.283000", "083505.285000", "083505.288000", "083505.290000", "083505.293000", "083505.295000", "083505.298000", "083505.300000", "083505.303000", "083505.306000", "083545.256000", "083545.259000", "083545.262000", "083545.265000", "083545.267000", "083545.270000", "083545.273000", "083545.275000", "083545.278000", "083545.280000", "083545.283000", "083545.285000", "083545.288000", "083545.291000", "083545.300000", "083545.303000", "083545.306000", "083545.308000", "083545.311000", "083545.313000", "083625.257000", "083625.260000", "083625.263000", "083625.265000", "083625.268000", "083625.271000", "083625.273000", "083625.276000", "083625.278000", "083625.281000", "083625.283000", "083625.286000", "083625.288000", "083625.291000", "083625.294000", "083625.296000", "083625.299000", "083625.301000", "083625.304000", "083625.306000", "083645.257000", "083645.259000", "083645.262000", "083645.264000", "083645.267000", "083645.270000", "083645.272000", "083645.275000", "083645.277000", "083645.280000", "083725.256000", "083725.259000", "083725.262000", "083725.265000", "083725.267000", "083725.270000", "083725.272000", "083725.275000", "083725.277000", "083725.280000", "083725.282000", "083725.285000", "083725.287000", "083725.290000", "083725.293000", "083725.295000", "083725.298000", "083725.300000", "083725.303000", "083725.305000", "083805.256000", "083805.259000", "083805.262000", "083805.264000", "083805.267000", "083805.269000", "083805.272000", "083805.274000", "083805.277000", "083805.280000", "083805.282000", "083805.285000", "083805.287000", "083805.290000", "083805.292000", "083805.295000", "083805.298000", "083805.300000", "083805.303000", "083805.305000", "083845.258000", "083845.260000", "083845.263000", "083845.266000", "083845.268000", "083845.271000", "083845.273000", "083845.276000", "083845.278000", "083845.281000", "083845.283000", "083845.286000", "083845.289000", "083845.291000", "083845.294000", "083845.296000", "083845.299000", "083845.302000", "083845.304000", "083845.307000", "083925.257000", "083925.259000", "083925.262000", "083925.265000", "083925.267000", "083925.270000", "083925.272000", "083925.275000", "083925.277000", "083925.280000", "083925.282000", "083925.285000", "083925.287000", "083925.290000", "083925.293000", "083925.295000", "083925.298000", "083925.300000", "083925.305000", "083925.307000", "083942.861000", "083942.864000", "083942.867000", "083942.869000", "083942.872000", "083942.875000", "083942.877000", "083942.880000", "083942.883000"],
      "InstanceCreationTime": ["083345.262000", "083345.265000", "083345.268000", "083345.270000", "083345.273000", "083345.275000", "083345.278000", "083345.284000", "083345.287000", "083345.289000", "083345.292000", "083345.294000", "083345.297000", "083345.299000", "083345.302000", "083345.305000", "083345.307000", "083345.313000", "083345.315000", "083345.318000", "083345.320000", "083425.256000", "083425.259000", "083425.262000", "083425.264000", "083425.267000", "083425.269000", "083425.272000", "083425.275000", "083425.288000", "083425.298000", "083425.301000", "083425.304000", "083425.306000", "083425.309000", "083425.311000", "083425.314000", "083425.317000", "083425.319000", "083425.322000", "083425.325000", "083505.256000", "083505.259000", "083505.262000", "083505.265000", "083505.267000", "083505.270000", "083505.272000", "083505.275000", "083505.277000", "083505.280000", "083505.283000", "083505.285000", "083505.288000", "083505.290000", "083505.293000", "083505.295000", "083505.298000", "083505.300000", "083505.303000", "083505.306000", "083545.256000", "083545.259000", "083545.262000", "083545.265000", "083545.267000", "083545.270000", "083545.273000", "083545.275000", "083545.278000", "083545.280000", "083545.283000", "083545.285000", "083545.288000", "083545.291000", "083545.300000", "083545.303000", "083545.306000", "083545.308000", "083545.311000", "083545.313000", "083625.257000", "083625.260000", "083625.263000", "083625.265000", "083625.268000", "083625.271000", "083625.273000", "083625.276000", "083625.278000", "083625.281000", "083625.283000", "083625.286000", "083625.288000", "083625.291000", "083625.294000", "083625.296000", "083625.299000", "083625.301000", "083625.304000", "083625.306000", "083645.257000", "083645.259000", "083645.262000", "083645.264000", "083645.267000", "083645.270000", "083645.272000", "083645.275000", "083645.277000", "083645.280000", "083725.256000", "083725.259000", "083725.262000", "083725.265000", "083725.267000", "083725.270000", "083725.272000", "083725.275000", "083725.277000", "083725.280000", "083725.282000", "083725.285000", "083725.287000", "083725.290000", "083725.293000", "083725.295000", "083725.298000", "083725.300000", "083725.303000", "083725.305000", "083805.256000", "083805.259000", "083805.262000", "083805.264000", "083805.267000", "083805.269000", "083805.272000", "083805.274000", "083805.277000", "083805.280000", "083805.282000", "083805.285000", "083805.287000", "083805.290000", "083805.292000", "083805.295000", "083805.298000", "083805.300000", "083805.303000", "083805.305000", "083845.258000", "083845.260000", "083845.263000", "083845.266000", "083845.268000", "083845.271000", "083845.273000", "083845.276000", "083845.278000", "083845.281000", "083845.283000", "083845.286000", "083845.289000", "083845.291000", "083845.294000", "083845.296000", "083845.299000", "083845.302000", "083845.304000", "083845.307000", "083925.257000", "083925.259000", "083925.262000", "083925.265000", "083925.267000", "083925.270000", "083925.272000", "083925.275000", "083925.277000", "083925.280000", "083925.282000", "083925.285000", "083925.287000", "083925.290000", "083925.293000", "083925.295000", "083925.298000", "083925.300000", "083925.305000", "083925.307000", "083942.861000", "083942.864000", "083942.867000", "083942.869000", "083942.872000", "083942.875000", "083942.877000", "083942.880000", "083942.883000"],
      "InstanceNumber": [1, 2, 3, 4, 5, 6, 7, 8, 9, 10, 11, 12, 13, 14, 15, 16, 17, 18, 19, 20, 21, 22, 23, 24, 25, 26, 27, 28, 29, 30, 31, 32, 33, 34, 35, 36, 37, 38, 39, 40, 41, 42, 43, 44, 45, 46, 47, 48, 49, 50, 51, 52, 53, 54, 55, 56, 57, 58, 59, 60, 61, 62, 63, 64, 65, 66, 67, 68, 69, 70, 71, 72, 73, 74, 75, 76, 77, 78, 79, 80, 81, 82, 83, 84, 85, 86, 87, 88, 89, 90, 91, 92, 93, 94, 95, 96, 97, 98, 99, 100, 101, 102, 103, 104, 105, 106, 107, 108, 109, 110, 111, 112, 113, 114, 115, 116, 117, 118, 119, 120, 121, 122, 123, 124, 125, 126, 127, 128, 129, 130, 131, 132, 133, 134, 135, 136, 137, 138, 139, 140, 141, 142, 143, 144, 145, 146, 147, 148, 149, 150, 151, 152, 153, 154, 155, 156, 157, 158, 159, 160, 161, 162, 163, 164, 165, 166, 167, 168, 169, 170, 171, 172, 173, 174, 175, 176, 177, 178, 179, 180, 181, 182, 183, 184, 185, 186, 187, 188, 189, 190, 191, 192, 193, 194, 195, 196, 197, 198, 199, 200],
      "WindowCenter": [1597.0, 1596.0, 1595.0, 1594.0, 1596.0, 1595.0, 1596.0, 1595.0, 1594.0, 1596.0, 1595.0, 1595.0, 1595.0, 1595.0, 1595.0, 1594.0, 1594.0, 1594.0, 1594.0, 1594.0, 1595.0, 1595.0, 1594.0, 1593.0, 1594.0, 1593.0, 1594.0, 1593.0, 1594.0, 1593.0, 1594.0, 1593.0, 1593.0, 1594.0, 1593.0, 1593.0, 1593.0, 1593.0, 1593.0, 1594.0, 1593.0, 1592.0, 1593.0, 1592.0, 1593.0, 1592.0, 1592.0, 1592.0, 1592.0, 1593.0, 1592.0, 1592.0, 1592.0, 1593.0, 1592.0, 1592.0, 1592.0, 1592.0, 1592.0, 1592.0, 1592.0, 1592.0, 1592.0, 1591.0, 1591.0, 1591.0, 1591.0, 1591.0, 1591.0, 1591.0, 1592.0, 1591.0, 1591.0, 1591.0, 1591.0, 1590.0, 1591.0, 1591.0, 1590.0, 1590.0, 1590.0, 1591.0, 1591.0, 1590.0, 1590.0, 1590.0, 1591.0, 1590.0, 1591.0, 1590.0, 1590.0, 1590.0, 1589.0, 1589.0, 1590.0, 1590.0, 1590.0, 1590.0, 1590.0, 1590.0, 1590.0, 1589.0, 1589.0, 1589.0, 1591.0, 1589.0, 1590.0, 1589.0, 1589.0, 1589.0, 1590.0, 1590.0, 1590.0, 1590.0, 1589.0, 1589.0, 1589.0, 1588.0, 1589.0, 1589.0, 1588.0, 1588.0, 1589.0, 1588.0, 1589.0, 1588.0, 1589.0, 1588.0, 1589.0, 1588.0, 1588.0, 1588.0, 1588.0, 1588.0, 1588.0, 1588.0, 1588.0, 1588.0, 1588.0, 1587.0, 1588.0, 1587.0, 1589.0, 1587.0, 1588.0, 1587.0, 1588.0, 1587.0, 1588.0, 1587.0, 1588.0, 1588.0, 1587.0, 1588.0, 1588.0, 1587.0, 1588.0, 1587.0, 1587.0, 1588.0, 1587.0, 1587.0, 1588.0, 1587.0, 1588.0, 1588.0, 1587.0, 1587.0, 1588.0, 1586.0, 1587.0, 1587.0, 1587.0, 1587.0, 1587.0, 1587.0, 1587.0, 1588.0, 1586.0, 1587.0, 1587.0, 1587.0, 1586.0, 1587.0, 1586.0, 1588.0, 1587.0, 1587.0, 1586.0, 1587.0, 1587.0, 1586.0, 1586.0, 1587.0, 1586.0, 1587.0, 1586.0, 1586.0, 1586.0, 1585.0],
      "WindowWidth": [3504.0, 3503.0, 3503.0, 3503.0, 3502.0, 3503.0, 3502.0, 3502.0, 3502.0, 3502.0, 3502.0, 3502.0, 3502.0, 3502.0, 3502.0, 3502.0, 3502.0, 3502.0, 3502.0, 3502.0, 3501.0, 3501.0, 3501.0, 3502.0, 3501.0, 3502.0, 3501.0, 3501.0, 3501.0, 3501.0, 3501.0, 3501.0, 3501.0, 3501.0, 3501.0, 3501.0, 3500.0, 3501.0, 3501.0, 3500.0, 3501.0, 3501.0, 3500.0, 3501.0, 3500.0, 3500.0, 3500.0, 3500.0, 3500.0, 3500.0, 3500.0, 3500.0, 3500.0, 3500.0, 3499.0, 3500.0, 3500.0, 3500.0, 3500.0, 3500.0, 3500.0, 3499.0, 3499.0, 3499.0, 3500.0, 3499.0, 3499.0, 3499.0, 3499.0, 3499.0, 3499.0, 3499.0, 3499.0, 3499.0, 3499.0, 3499.0, 3499.0, 3499.0, 3499.0, 3499.0, 3499.0, 3499.0, 3499.0, 3499.0, 3499.0, 3499.0, 3499.0, 3499.0, 3499.0, 3498.0, 3499.0, 3499.0, 3499.0, 3499.0, 3498.0, 3498.0, 3499.0, 3498.0, 3498.0, 3498.0, 3498.0, 3498.0, 3498.0, 3498.0, 3498.0, 3498.0, 3498.0, 3498.0, 3498.0, 3498.0, 3498.0, 3498.0, 3498.0, 3498.0, 3498.0, 3498.0, 3498.0, 3498.0, 3498.0, 3498.0, 3497.0, 3497.0, 3497.0, 3497.0, 3497.0, 3497.0, 3497.0, 3497.0, 3497.0, 3497.0, 3497.0, 3497.0, 3497.0, 3497.0, 3497.0, 3497.0, 3497.0, 3497.0, 3497.0, 3497.0, 3496.0, 3497.0, 3496.0, 3497.0, 3496.0, 3497.0, 3496.0, 3497.0, 3496.0, 3497.0, 3496.0, 3496.0, 3496.0, 3496.0, 3496.0, 3496.0, 3496.0, 3496.0, 3496.0, 3496.0, 3496.0, 3496.0, 3496.0, 3496.0, 3496.0, 3496.0, 3496.0, 3496.0, 3495.0, 3496.0, 3495.0, 3495.0, 3495.0, 3495.0, 3495.0, 3495.0, 3495.0, 3495.0, 3495.0, 3495.0, 3495.0, 3495.0, 3495.0, 3495.0, 3495.0, 3494.0, 3495.0, 3495.0, 3495.0, 3495.0, 3495.0, 3495.0, 3495.0, 3495.0, 3495.0, 3495.0, 3494.0, 3495.0, 3495.0, 3495.0]
    },
    "slices": {}
  }
}