{
  "AcquisitionMatrixPE": 80,
  "AcquisitionNumber": 1,
  "AcquisitionTime": "08:46:38.542500",
  "BandwidthPerPixelPhaseEncode": 25,
  "BaseResolution": 80,
  "BodyPartExamined": "BRAIN",
  "CoilCombinationMethod": "Sum of Squares",
  "ConsistencyInfo": "N4_VE11C_LATEST_20160120",
  "ConversionSoftware": "dcm2niix",
  "ConversionSoftwareVersion": "v1.0.20220720",
  "DerivedVendorReportedEchoSpacing": 0.0005,
  "DeviceSerialNumber": "66112",
  "DwellTime": 2.7e-06,
  "EchoTime": 0.03,
  "EchoTrainLength": 80,
  "EffectiveEchoSpacing": 0.0005,
  "FlipAngle": 10,
  "HeudiconvVersion": "0.13.1",
  "ImageOrientationPatientDICOM": [0.995434, -0.0929069, -0.0218807, 0.0953234, 0.955911, 0.277756],
  "ImageOrientationText": "Tra>Cor(16.2)>Sag(0.3)",
  "ImageType": [
    "ORIGINAL",
    "PRIMARY",
    "M",
    "ND",
    "NORM",
    "MOSAIC"
],
  "ImagingFrequency": 123.252,
  "InPlanePhaseEncodingDirectionDICOM": "COL",
  "InstitutionAddress": "Maynard 3,Hanover,NH,US,03755",
  "InstitutionName": "Dartmouth College - PBS",
  "InstitutionalDepartmentName": "Department",
  "MRAcquisitionType": "2D",
  "MagneticFieldStrength": 3,
  "Manufacturer": "Siemens",
  "ManufacturersModelName": "Prisma",
  "MatrixCoilMode": "SENSE",
  "Modality": "MR",
  "NonlinearGradientCorrection": false,
  "PartialFourier": 1,
  "PatientPosition": "HFS",
  "PercentPhaseFOV": 100,
  "PercentSampling": 100,
  "PhaseEncodingDirection": "j-",
  "PhaseEncodingSteps": 80,
  "PhaseResolution": 1,
  "PixelBandwidth": 2315,
  "ProcedureStepDescription": "dbic^QA",
  "ProtocolName": "func-bold_fa-10",
  "PulseSequenceDetails": "%SiemensSeq%\\ep2d_bold",
  "ReceiveCoilActiveElements": "HC1-7;NC1,2",
  "ReceiveCoilName": "HeadNeck_64",
  "ReconMatrixPE": 80,
  "RepetitionTime": 2,
  "SAR": 0.00757323,
  "ScanOptions": "FS",
  "ScanningSequence": "EP",
  "SequenceName": "*epfid2d1_80",
  "SequenceVariant": "SK",
  "SeriesDescription": "func-bold_fa-10",
  "SeriesNumber": 9,
  "ShimSetting": [4141, -7710, -7521, 187, -98, -269, -144, 146],
  "SliceThickness": 3.5,
  "SliceTiming": [0.99, 0, 1.055, 0.065, 1.12, 0.13, 1.1875, 0.1975, 1.2525, 0.2625, 1.3175, 0.33, 1.385, 0.395, 1.45, 0.46, 1.5175, 0.5275, 1.5825, 0.5925, 1.6475, 0.66, 1.715, 0.725, 1.78, 0.79, 1.8475, 0.8575, 1.9125, 0.9225],
  "SoftwareVersions": "syngo MR E11",
  "SpacingBetweenSlices": 3.99,
  "StationName": "AWP66112",
  "TotalReadoutTime": 0.0395,
  "TxRefAmp": 208.362,
  "dcmmeta_affine": [
    [-2.9863030910491943, 0.28597015142440796, 0.019508875906467438, 107.703369140625],
    [0.2787206768989563, 2.867732048034668, 1.111507534980774, -140.03036499023438],
    [-0.06564204394817352, -0.8332671523094177, 3.8320059776306152, -17.973663330078125],
    [0.0, 0.0, 0.0, 1.0]
],
  "dcmmeta_reorient_transform": [
    [0.0, -1.0, 0.0, 79.0],
    [1.0, 0.0, 0.0, 0.0],
    [0.0, 0.0, 1.0, 0.0],
    [0.0, 0.0, 0.0, 1.0]
],
  "dcmmeta_shape": [80, 80, 30, 200],
  "dcmmeta_slice_dim": 2,
  "dcmmeta_version": 0.6,
  "global": {
    "const": {
      "AccessionNumber": "qa64",
      "AcquisitionMatrix": [80, 0, 0, 80],
      "AngioFlag": "N",
      "BitsAllocated": 16,
      "BitsStored": 12,
      "BodyPartExamined": "BRAIN",
      "Columns": 480,
      "EchoNumbers": 1,
      "EchoTime": 30.0,
      "EchoTrainLength": 80,
      "FlipAngle": 10.0,
      "HighBit": 11,
      "ImageOrientationPatient": [0.99543435044952, -0.092906887623, -0.0218806804591, 0.09532338274256, 0.95591067496341, 0.27775570956061],
      "ImagePositionPatient": [-784.7496517463, -604.32273169165, -237.32678456393],
      "ImageType": [
        "ORIGINAL",
        "PRIMARY",
        "M",
        "ND",
        "NORM",
        "MOSAIC"
],
      "ImagedNucleus": "1H",
      "ImagingFrequency": 123.252359,
      "InPlanePhaseEncodingDirection": "COL",
      "MRAcquisitionType": "2D",
      "MagneticFieldStrength": 3.0,
      "Manufacturer": "SIEMENS",
      "ManufacturerModelName": "Prisma",
      "Modality": "MR",
      "NumberOfAverages": 1.0,
      "NumberOfPhaseEncodingSteps": 80,
      "PercentPhaseFieldOfView": 100.0,
      "PercentSampling": 100.0,
      "PerformedProcedureStepStartTime": "083042.958000",
      "PhotometricInterpretation": "MONOCHROME2",
      "PixelBandwidth": 2315.0,
      "PixelRepresentation": 0,
      "PixelSpacing": [3.0, 3.0],
      "ProtocolName": "func-bold_fa-10",
      "RepetitionTime": 2000.0,
      "Rows": 480,
      "SAR": 0.00757322772974,
      "SamplesPerPixel": 1,
      "ScanOptions": "FS",
      "ScanningSequence": "EP",
      "SequenceName": "*epfid2d1_80",
      "SequenceVariant": "SK",
      "SeriesDescription": "func-bold_fa-10",
      "SeriesNumber": 9,
      "SeriesTime": "084725.184000",
      "SliceLocation": -55.744067252159,
      "SliceThickness": 3.5,
      "SmallestImagePixelValue": 0,
      "SoftwareVersions": "syngo MR E11",
      "SpacingBetweenSlices": 3.9899999359919,
      "SpecificCharacterSet": "ISO_IR 100",
      "StudyID": "37",
      "StudyTime": "083042.877000",
      "TransmitCoilName": "Body",
      "VariableFlipAngleFlag": "N",
      "WindowCenterWidthExplanation": "Algo1",
      "dBdt": 0.0},
    "slices": {}
  },
  "time": {
    "samples": {
      "AcquisitionNumber": [1, 2, 3, 4, 5, 6, 7, 8, 9, 10, 11, 12, 13, 14, 15, 16, 17, 18, 19, 20, 21, 22, 23, 24, 25, 26, 27, 28, 29, 30, 31, 32, 33, 34, 35, 36, 37, 38, 39, 40, 41, 42, 43, 44, 45, 46, 47, 48, 49, 50, 51, 52, 53, 54, 55, 56, 57, 58, 59, 60, 61, 62, 63, 64, 65, 66, 67, 68, 69, 70, 71, 72, 73, 74, 75, 76, 77, 78, 79, 80, 81, 82, 83, 84, 85, 86, 87, 88, 89, 90, 91, 92, 93, 94, 95, 96, 97, 98, 99, 100, 101, 102, 103, 104, 105, 106, 107, 108, 109, 110, 111, 112, 113, 114, 115, 116, 117, 118, 119, 120, 121, 122, 123, 124, 125, 126, 127, 128, 129, 130, 131, 132, 133, 134, 135, 136, 137, 138, 139, 140, 141, 142, 143, 144, 145, 146, 147, 148, 149, 150, 151, 152, 153, 154, 155, 156, 157, 158, 159, 160, 161, 162, 163, 164, 165, 166, 167, 168, 169, 170, 171, 172, 173, 174, 175, 176, 177, 178, 179, 180, 181, 182, 183, 184, 185, 186, 187, 188, 189, 190, 191, 192, 193, 194, 195, 196, 197, 198, 199, 200],
      "AcquisitionTime": ["084638.542500", "084640.542500", "084642.542500", "084644.542500", "084646.542500", "084648.542500", "084650.542500", "084652.542500", "084654.542500", "084656.542500", "084658.542500", "084700.542500", "084702.542500", "084704.542500", "084706.542500", "084708.542500", "084710.542500", "084712.542500", "084714.542500", "084716.542500", "084718.542500", "084720.542500", "084722.542500", "084724.542500", "084726.542500", "084728.542500", "084730.542500", "084732.542500", "084734.542500", "084736.542500", "084738.542500", "084740.542500", "084742.542500", "084744.542500", "084746.542500", "084748.542500", "084750.542500", "084752.542500", "084754.542500", "084756.542500", "084758.542500", "084800.542500", "084802.542500", "084804.542500", "084806.542500", "084808.542500", "084810.542500", "084812.542500", "084814.542500", "084816.542500", "084818.542500", "084820.542500", "084822.542500", "084824.542500", "084826.542500", "084828.542500", "084830.542500", "084832.542500", "084834.542500", "084836.542500", "084838.542500", "084840.542500", "084842.542500", "084844.542500", "084846.542500", "084848.542500", "084850.542500", "084852.542500", "084854.542500", "084856.542500", "084858.542500", "084900.542500", "084902.542500", "084904.542500", "084906.542500", "084908.542500", "084910.542500", "084912.542500", "084914.542500", "084916.542500", "084918.542500", "084920.542500", "084922.542500", "084924.542500", "084926.542500", "084928.542500", "084930.542500", "084932.542500", "084934.542500", "084936.542500", "084938.542500", "084940.542500", "084942.542500", "084944.542500", "084946.542500", "084948.542500", "084950.542500", "084952.542500", "084954.542500", "084956.542500", "084958.542500", "085000.542500", "085002.542500", "085004.542500", "085006.542500", "085008.542500", "085010.542500", "085012.542500", "085014.542500", "085016.542500", "085018.542500", "085020.542500", "085022.542500", "085024.542500", "085026.542500", "085028.542500", "085030.542500", "085032.542500", "085034.542500", "085036.542500", "085038.542500", "085040.542500", "085042.542500", "085044.542500", "085046.542500", "085048.542500", "085050.542500", "085052.542500", "085054.542500", "085056.542500", "085058.542500", "085100.542500", "085102.542500", "085104.542500", "085106.542500", "085108.542500", "085110.542500", "085112.542500", "085114.542500", "085116.542500", "085118.542500", "085120.542500", "085122.542500", "085124.542500", "085126.542500", "085128.542500", "085130.542500", "085132.542500", "085134.542500", "085136.542500", "085138.542500", "085140.542500", "085142.542500", "085144.542500", "085146.542500", "085148.542500", "085150.542500", "085152.542500", "085154.542500", "085156.542500", "085158.542500", "085200.542500", "085202.542500", "085204.542500", "085206.542500", "085208.542500", "085210.542500", "085212.542500", "085214.542500", "085216.542500", "085218.542500", "085220.542500", "085222.542500", "085224.542500", "085226.542500", "085228.542500", "085230.542500", "085232.542500", "085234.542500", "085236.542500", "085238.542500", "085240.542500", "085242.542500", "085244.542500", "085246.542500", "085248.542500", "085250.542500", "085252.542500", "085254.542500", "085256.542500", "085258.542500", "085300.542500", "085302.542500", "085304.542500", "085306.542500", "085308.542500", "085310.542500", "085312.542500", "085314.542500", "085316.542500"],
      "ContentTime": ["084725.191000", "084725.194000", "084725.203000", "084725.205000", "084725.208000", "084725.211000", "084725.213000", "084725.216000", "084725.218000", "084725.221000", "084725.223000", "084725.226000", "084725.228000", "084725.231000", "084725.233000", "084725.236000", "084725.238000", "084725.247000", "084725.249000", "084725.252000", "084725.254000", "084725.257000", "084725.259000", "084805.183000", "084805.186000", "084805.189000", "084805.191000", "084805.194000", "084805.196000", "084805.199000", "084805.201000", "084805.204000", "084805.206000", "084805.209000", "084805.211000", "084805.214000", "084805.216000", "084805.219000", "084805.221000", "084805.224000", "084805.226000", "084805.229000", "084805.231000", "084845.182000", "084845.185000", "084845.188000", "084845.190000", "084845.193000", "084845.195000", "084845.198000", "084845.200000", "084845.203000", "084845.205000", "084845.208000", "084845.210000", "084845.213000", "084845.215000", "084845.218000", "084845.220000", "084845.223000", "084845.225000", "084845.228000", "084845.230000", "084925.182000", "084925.185000", "084925.188000", "084925.190000", "084925.193000", "084925.195000", "084925.198000", "084925.201000", "084925.203000", "084925.206000", "084925.208000", "084925.210000", "084925.213000", "084925.216000", "084925.218000", "084925.221000", "084925.223000", "084925.226000", "084925.228000", "084925.231000", "085005.182000", "085005.185000", "085005.188000", "085005.190000", "085005.193000", "085005.195000", "085005.198000", "085005.200000", "085005.203000", "085005.205000", "085005.208000", "085005.210000", "085005.213000", "085005.215000", "085005.218000", "085005.221000", "085005.223000", "085005.226000", "085005.228000", "085005.231000", "085045.182000", "085045.185000", "085045.188000", "085045.190000", "085045.193000", "085045.195000", "085045.198000", "085045.200000", "085045.203000", "085045.205000", "085045.208000", "085045.210000", "085045.213000", "085045.215000", "085045.218000", "085045.221000", "085045.223000", "085045.226000", "085045.228000", "085045.231000", "085125.183000", "085125.185000", "085125.188000", "085125.190000", "085125.193000", "085125.195000", "085125.198000", "085125.201000", "085125.203000", "085125.206000", "085125.208000", "085125.211000", "085125.213000", "085125.216000", "085125.218000", "085125.221000", "085125.223000", "085125.226000", "085125.228000", "085125.231000", "085205.182000", "085205.185000", "085205.188000", "085205.190000", "085205.193000", "085205.195000", "085205.198000", "085205.200000", "085205.203000", "085205.206000", "085205.208000", "085205.211000", "085205.213000", "085205.215000", "085205.218000", "085205.220000", "085205.223000", "085205.225000", "085205.228000", "085205.230000", "085245.183000", "085245.186000", "085245.189000", "085245.191000", "085245.194000", "085245.196000", "085245.199000", "085245.201000", "085245.204000", "085245.206000", "085245.209000", "085245.211000", "085245.214000", "085245.216000", "085245.219000", "085245.221000", "085245.224000", "085245.226000", "085245.229000", "085245.231000", "085317.730000", "085317.733000", "085317.736000", "085317.738000", "085317.741000", "085317.743000", "085317.746000", "085317.749000", "085317.751000", "085317.754000", "085317.756000", "085317.759000", "085317.762000", "085317.771000", "085317.775000", "085317.779000", "085317.782000"],
      "InstanceCreationTime": ["084725.191000", "084725.194000", "084725.203000", "084725.205000", "084725.208000", "084725.211000", "084725.213000", "084725.216000", "084725.218000", "084725.221000", "084725.223000", "084725.226000", "084725.228000", "084725.231000", "084725.233000", "084725.236000", "084725.238000", "084725.247000", "084725.249000", "084725.252000", "084725.254000", "084725.257000", "084725.259000", "084805.183000", "084805.186000", "084805.189000", "084805.191000", "084805.194000", "084805.196000", "084805.199000", "084805.201000", "084805.204000", "084805.206000", "084805.209000", "084805.211000", "084805.214000", "084805.216000", "084805.219000", "084805.221000", "084805.224000", "084805.226000", "084805.229000", "084805.231000", "084845.182000", "084845.185000", "084845.188000", "084845.190000", "084845.193000", "084845.195000", "084845.198000", "084845.200000", "084845.203000", "084845.205000", "084845.208000", "084845.210000", "084845.213000", "084845.215000", "084845.218000", "084845.220000", "084845.223000", "084845.225000", "084845.228000", "084845.230000", "084925.182000", "084925.185000", "084925.188000", "084925.190000", "084925.193000", "084925.195000", "084925.198000", "084925.201000", "084925.203000", "084925.206000", "084925.208000", "084925.210000", "084925.213000", "084925.216000", "084925.218000", "084925.221000", "084925.223000", "084925.226000", "084925.228000", "084925.231000", "085005.182000", "085005.185000", "085005.188000", "085005.190000", "085005.193000", "085005.195000", "085005.198000", "085005.200000", "085005.203000", "085005.205000", "085005.208000", "085005.210000", "085005.213000", "085005.215000", "085005.218000", "085005.221000", "085005.223000", "085005.226000", "085005.228000", "085005.231000", "085045.182000", "085045.185000", "085045.188000", "085045.190000", "085045.193000", "085045.195000", "085045.198000", "085045.200000", "085045.203000", "085045.205000", "085045.208000", "085045.210000", "085045.213000", "085045.215000", "085045.218000", "085045.221000", "085045.223000", "085045.226000", "085045.228000", "085045.231000", "085125.183000", "085125.185000", "085125.188000", "085125.190000", "085125.193000", "085125.195000", "085125.198000", "085125.201000", "085125.203000", "085125.206000", "085125.208000", "085125.211000", "085125.213000", "085125.216000", "085125.218000", "085125.221000", "085125.223000", "085125.226000", "085125.228000", "085125.231000", "085205.182000", "085205.185000", "085205.188000", "085205.190000", "085205.193000", "085205.195000", "085205.198000", "085205.200000", "085205.203000", "085205.206000", "085205.208000", "085205.211000", "085205.213000", "085205.215000", "085205.218000", "085205.220000", "085205.223000", "085205.225000", "085205.228000", "085205.230000", "085245.183000", "085245.186000", "085245.189000", "085245.191000", "085245.194000", "085245.196000", "085245.199000", "085245.201000", "085245.204000", "085245.206000", "085245.209000", "085245.211000", "085245.214000", "085245.216000", "085245.219000", "085245.221000", "085245.224000", "085245.226000", "085245.229000", "085245.231000", "085317.730000", "085317.733000", "085317.736000", "085317.738000", "085317.741000", "085317.743000", "085317.746000", "085317.749000", "085317.751000", "085317.754000", "085317.756000", "085317.759000", "085317.762000", "085317.771000", "085317.775000", "085317.779000", "085317.782000"],
      "InstanceNumber": [1, 2, 3, 4, 5, 6, 7, 8, 9, 10, 11, 12, 13, 14, 15, 16, 17, 18, 19, 20, 21, 22, 23, 24, 25, 26, 27, 28, 29, 30, 31, 32, 33, 34, 35, 36, 37, 38, 39, 40, 41, 42, 43, 44, 45, 46, 47, 48, 49, 50, 51, 52, 53, 54, 55, 56, 57, 58, 59, 60, 61, 62, 63, 64, 65, 66, 67, 68, 69, 70, 71, 72, 73, 74, 75, 76, 77, 78, 79, 80, 81, 82, 83, 84, 85, 86, 87, 88, 89, 90, 91, 92, 93, 94, 95, 96, 97, 98, 99, 100, 101, 102, 103, 104, 105, 106, 107, 108, 109, 110, 111, 112, 113, 114, 115, 116, 117, 118, 119, 120, 121, 122, 123, 124, 125, 126, 127, 128, 129, 130, 131, 132, 133, 134, 135, 136, 137, 138, 139, 140, 141, 142, 143, 144, 145, 146, 147, 148, 149, 150, 151, 152, 153, 154, 155, 156, 157, 158, 159, 160, 161, 162, 163, 164, 165, 166, 167, 168, 169, 170, 171, 172, 173, 174, 175, 176, 177, 178, 179, 180, 181, 182, 183, 184, 185, 186, 187, 188, 189, 190, 191, 192, 193, 194, 195, 196, 197, 198, 199, 200],
      "LargestImagePixelValue": [818, 816, 819, 815, 815, 818, 818, 819, 819, 819, 817, 820, 816, 814, 818, 817, 823, 818, 818, 815, 819, 820, 819, 817, 817, 818, 822, 819, 817, 817, 817, 820, 818, 817, 817, 817, 818, 818, 825, 819, 818, 816, 818, 817, 818, 820, 816, 816, 813, 816, 820, 817, 819, 813, 816, 816, 824, 815, 819, 817, 820, 817, 817, 816, 818, 817, 817, 815, 815, 817, 817, 818, 817, 815, 816, 812, 824, 817, 819, 816, 816, 816, 823, 821, 821, 822, 822, 819, 824, 823, 825, 823, 824, 821, 822, 824, 823, 822, 821, 824, 818, 824, 824, 824, 823, 824, 822, 821, 822, 826, 817, 820, 819, 822, 825, 824, 823, 821, 820, 821, 818, 823, 820, 821, 823, 824, 823, 819, 823, 824, 824, 822, 826, 821, 822, 823, 822, 821, 818, 820, 821, 822, 821, 822, 825, 819, 821, 822, 822, 824, 819, 819, 823, 823, 821, 819, 820, 823, 822, 820, 822, 825, 820, 820, 819, 820, 822, 822, 818, 819, 823, 820, 824, 821, 821, 822, 818, 821, 819, 826, 819, 821, 820, 820, 820, 821, 822, 821, 818, 821, 821, 820, 823, 819, 821, 821, 820, 819, 822, 821],
      "WindowCenter": [479.0, 479.0, 479.0, 479.0, 479.0, 478.0, 478.0, 478.0, 478.0, 478.0, 478.0, 478.0, 478.0, 478.0, 478.0, 478.0, 479.0, 478.0, 478.0, 478.0, 478.0, 478.0, 478.0, 478.0, 478.0, 478.0, 482.0, 481.0, 480.0, 478.0, 478.0, 478.0, 479.0, 478.0, 479.0, 478.0, 478.0, 480.0, 482.0, 481.0, 479.0, 478.0, 479.0, 478.0, 478.0, 478.0, 478.0, 478.0, 478.0, 478.0, 478.0, 478.0, 478.0, 478.0, 478.0, 478.0, 480.0, 478.0, 478.0, 479.0, 478.0, 478.0, 478.0, 479.0, 478.0, 478.0, 478.0, 478.0, 478.0, 478.0, 478.0, 478.0, 478.0, 478.0, 478.0, 478.0, 481.0, 478.0, 478.0, 478.0, 479.0, 481.0, 482.0, 481.0, 482.0, 481.0, 481.0, 481.0, 481.0, 481.0, 481.0, 481.0, 481.0, 481.0, 481.0, 481.0, 481.0, 481.0, 481.0, 481.0, 481.0, 481.0, 481.0, 481.0, 481.0, 481.0, 481.0, 481.0, 481.0, 481.0, 481.0, 481.0, 481.0, 481.0, 481.0, 481.0, 481.0, 481.0, 481.0, 481.0, 481.0, 481.0, 481.0, 481.0, 481.0, 481.0, 481.0, 481.0, 481.0, 481.0, 481.0, 481.0, 481.0, 481.0, 481.0, 481.0, 481.0, 481.0, 481.0, 481.0, 481.0, 481.0, 481.0, 481.0, 481.0, 481.0, 481.0, 481.0, 481.0, 481.0, 481.0, 481.0, 481.0, 481.0, 481.0, 481.0, 481.0, 481.0, 481.0, 481.0, 481.0, 481.0, 481.0, 481.0, 481.0, 481.0, 481.0, 481.0, 481.0, 481.0, 481.0, 481.0, 481.0, 481.0, 481.0, 480.0, 480.0, 481.0, 481.0, 481.0, 481.0, 480.0, 480.0, 480.0, 481.0, 481.0, 481.0, 481.0, 481.0, 481.0, 481.0, 481.0, 480.0, 481.0, 480.0, 480.0, 480.0, 481.0, 481.0, 481.0],
      "WindowWidth": [990.0, 990.0, 990.0, 990.0, 990.0, 990.0, 990.0, 990.0, 990.0, 990.0, 990.0, 989.0, 989.0, 989.0, 989.0, 989.0, 990.0, 990.0, 989.0, 990.0, 989.0, 989.0, 989.0, 989.0, 989.0, 989.0, 996.0, 994.0, 992.0, 989.0, 990.0, 989.0, 991.0, 990.0, 992.0, 989.0, 989.0, 993.0, 996.0, 994.0, 990.0, 988.0, 990.0, 989.0, 989.0, 989.0, 989.0, 989.0, 989.0, 989.0, 989.0, 989.0, 989.0, 989.0, 989.0, 989.0, 992.0, 989.0, 989.0, 991.0, 989.0, 989.0, 989.0, 990.0, 990.0, 989.0, 989.0, 989.0, 989.0, 989.0, 988.0, 989.0, 989.0, 989.0, 989.0, 989.0, 994.0, 989.0, 988.0, 989.0, 991.0, 994.0, 995.0, 995.0, 995.0, 994.0, 995.0, 995.0, 995.0, 995.0, 995.0, 995.0, 995.0, 995.0, 995.0, 995.0, 995.0, 995.0, 995.0, 995.0, 995.0, 995.0, 995.0, 995.0, 995.0, 995.0, 995.0, 995.0, 995.0, 995.0, 994.0, 994.0, 995.0, 994.0, 995.0, 995.0, 994.0, 994.0, 994.0, 994.0, 995.0, 994.0, 994.0, 994.0, 994.0, 994.0, 994.0, 994.0, 994.0, 994.0, 994.0, 994.0, 994.0, 994.0, 994.0, 994.0, 994.0, 994.0, 994.0, 994.0, 994.0, 994.0, 994.0, 994.0, 994.0, 994.0, 994.0, 994.0, 994.0, 994.0, 994.0, 994.0, 994.0, 994.0, 994.0, 994.0, 994.0, 994.0, 994.0, 994.0, 994.0, 994.0, 994.0, 994.0, 994.0, 994.0, 994.0, 994.0, 994.0, 994.0, 994.0, 994.0, 994.0, 994.0, 994.0, 993.0, 993.0, 994.0, 994.0, 994.0, 994.0, 993.0, 993.0, 993.0, 994.0, 994.0, 994.0, 994.0, 994.0, 994.0, 994.0, 994.0, 993.0, 994.0, 993.0, 993.0, 993.0, 994.0, 994.0, 994.0]
    },
    "slices": {}
  }
}