{
  "AcquisitionMatrixPE": 80,
  "AcquisitionNumber": 1,
  "AcquisitionTime": "08:49:31.147500",
  "BandwidthPerPixelPhaseEncode": 44.643,
  "BaseResolution": 80,
  "BodyPartExamined": "BRAIN",
  "CoilCombinationMethod": "Sum of Squares",
  "ConsistencyInfo": "N4_VE11C_LATEST_20160120",
  "ConversionSoftware": "dcm2niix",
  "ConversionSoftwareVersion": "v1.0.20220720",
  "DerivedVendorReportedEchoSpacing": 0.000559998,
  "DeviceSerialNumber": "66112",
  "DwellTime": 2.7e-06,
  "EchoTime": 0.035,
  "EchoTrainLength": 39,
  "EffectiveEchoSpacing": 0.000279999,
  "FlipAngle": 90,
  "HeudiconvVersion": "0.13.1",
  "ImageOrientationPatientDICOM": [0.987903, -0.155006, 0.00463575, 0.146233, 0.941105, 0.304857],
  "ImageOrientationText": "Tra>Cor(17.5)>Sag(3.0)",
  "ImageType": [
    "ORIGINAL",
    "PRIMARY",
    "M",
    "ND",
    "NORM",
    "MOSAIC"
],
  "ImagingFrequency": 123.252,
  "InPlanePhaseEncodingDirectionDICOM": "COL",
  "InstitutionAddress": "Maynard 3,Hanover,NH,US,03755",
  "InstitutionName": "Dartmouth College - PBS",
  "InstitutionalDepartmentName": "Department",
  "MRAcquisitionType": "2D",
  "MagneticFieldStrength": 3,
  "Manufacturer": "Siemens",
  "ManufacturersModelName": "Prisma",
  "Modality": "MR",
  "MultibandAccelerationFactor": 4,
  "NonlinearGradientCorrection": false,
  "ParallelReductionFactorInPlane": 2,
  "PartialFourier": 1,
  "PatientPosition": "HFS",
  "PercentPhaseFOV": 100,
  "PercentSampling": 100,
  "PhaseEncodingDirection": "j-",
  "PhaseEncodingSteps": 79,
  "PhaseResolution": 1,
  "PixelBandwidth": 2315,
  "ProcedureStepDescription": "dbic^QA",
  "ProtocolName": "func-bold_task-rest_acq-p2-s4-3.5mm",
  "PulseSequenceDetails": "%SiemensSeq%\\ep2d_bold",
  "ReceiveCoilActiveElements": "HEA;HEP",
  "ReceiveCoilName": "Head_32",
  "ReconMatrixPE": 80,
  "RefLinesPE": 24,
  "RepetitionTime": 2,
  "SAR": 0.0209072,
  "ScanOptions": "FS",
  "ScanningSequence": "EP",
  "SequenceName": "*epfid2d1_80",
  "SequenceVariant": "SK",
  "SeriesDescription": "func-bold_task-rest_acq-p2-s4-3.5mm",
  "SeriesNumber": 7,
  "ShimSetting": [4147, -7697, -7513, 288, -63, -202, -6, 63],
  "SliceThickness": 3.5,
  "SliceTiming": [1.485, 0, 0.99, 0.2475, 1.2375, 0.7425, 1.7325, 0.495, 1.485, 0, 0.99, 0.2475, 1.2375, 0.7425, 1.7325, 0.495, 1.485, 0, 0.99, 0.2475, 1.2375, 0.7425, 1.7325, 0.495, 1.485, 0, 0.99, 0.2475, 1.2375, 0.7425, 1.7325, 0.495],
  "SoftwareVersions": "syngo MR E11",
  "SpacingBetweenSlices": 3.99,
  "StationName": "AWP66112",
  "TaskName": "rest",
  "TotalReadoutTime": 0.0221199,
  "TxRefAmp": 230.86,
  "dcmmeta_affine": [
    [-2.963707685470581, 0.43869921565055847, 0.20595383644104004, 98.53112030029297],
    [0.46501922607421875, 2.8233141899108887, 1.198959231376648, -139.49127197265625],
    [0.013907242566347122, -0.9145707488059998, 3.8000237941741943, -23.675830841064453],
    [0.0, 0.0, 0.0, 1.0]
],
  "dcmmeta_reorient_transform": [
    [0.0, -1.0, 0.0, 79.0],
    [1.0, 0.0, 0.0, 0.0],
    [0.0, 0.0, 1.0, 0.0],
    [0.0, 0.0, 0.0, 1.0]
],
  "dcmmeta_shape": [80, 80, 32, 200],
  "dcmmeta_slice_dim": 2,
  "dcmmeta_version": 0.6,
  "global": {
    "const": {
      "AccessionNumber": "qa",
      "AcquisitionMatrix": [80, 0, 0, 80],
      "AngioFlag": "N",
      "BitsAllocated": 16,
      "BitsStored": 12,
      "BodyPartExamined": "BRAIN",
      "Columns": 480,
      "EchoNumbers": 1,
      "EchoTime": 35.0,
      "EchoTrainLength": 39,
      "FlipAngle": 90.0,
      "HighBit": 11,
      "ImageOrientationPatient": [0.987902587351, -0.1550064119657, 0.00463574748073, 0.1462330724497, 0.94110474834187, 0.30485691917737],
      "ImagePositionPatient": [-813.66975612645, -555.20954837611, -281.62251982904],
      "ImageType": [
        "ORIGINAL",
        "PRIMARY",
        "M",
        "ND",
        "NORM",
        "MOSAIC"
],
      "ImagedNucleus": "1H",
      "ImagingFrequency": 123.252418,
      "InPlanePhaseEncodingDirection": "COL",
      "MRAcquisitionType": "2D",
      "MagneticFieldStrength": 3.0,
      "Manufacturer": "SIEMENS",
      "ManufacturerModelName": "Prisma",
      "Modality": "MR",
      "NumberOfAverages": 1.0,
      "NumberOfPhaseEncodingSteps": 79,
      "PercentPhaseFieldOfView": 100.0,
      "PercentSampling": 100.0,
      "PerformedProcedureStepStartTime": "084050.347000",
      "PhotometricInterpretation": "MONOCHROME2",
      "PixelBandwidth": 2315.0,
      "PixelRepresentation": 0,
      "PixelSpacing": [3.0, 3.0],
      "ProtocolName": "func-bold_task-rest_acq-p2-s4-3.5mm",
      "RepetitionTime": 2000.0,
      "Rows": 480,
      "SAR": 0.02090721880378,
      "SamplesPerPixel": 1,
      "ScanOptions": "FS",
      "ScanningSequence": "EP",
      "SequenceName": "*epfid2d1_80",
      "SequenceVariant": "SK",
      "SeriesDescription": "func-bold_task-rest_acq-p2-s4-3.5mm",
      "SeriesNumber": 7,
      "SeriesTime": "085020.247000",
      "SliceLocation": -59.378498927101,
      "SliceThickness": 3.5,
      "SmallestImagePixelValue": 0,
      "SoftwareVersions": "syngo MR E11",
      "SpacingBetweenSlices": 3.9900000670334,
      "SpecificCharacterSet": "ISO_IR 100",
      "StudyID": "21",
      "StudyTime": "084050.266000",
      "TransmitCoilName": "Body",
      "VariableFlipAngleFlag": "N",
      "WindowCenterWidthExplanation": "Algo1",
      "dBdt": 0.0},
    "slices": {}
  },
  "time": {
    "samples": {
      "AcquisitionNumber": [1, 2, 3, 4, 5, 6, 7, 8, 9, 10, 11, 12, 13, 14, 15, 16, 17, 18, 19, 20, 21, 22, 23, 24, 25, 26, 27, 28, 29, 30, 31, 32, 33, 34, 35, 36, 37, 38, 39, 40, 41, 42, 43, 44, 45, 46, 47, 48, 49, 50, 51, 52, 53, 54, 55, 56, 57, 58, 59, 60, 61, 62, 63, 64, 65, 66, 67, 68, 69, 70, 71, 72, 73, 74, 75, 76, 77, 78, 79, 80, 81, 82, 83, 84, 85, 86, 87, 88, 89, 90, 91, 92, 93, 94, 95, 96, 97, 98, 99, 100, 101, 102, 103, 104, 105, 106, 107, 108, 109, 110, 111, 112, 113, 114, 115, 116, 117, 118, 119, 120, 121, 122, 123, 124, 125, 126, 127, 128, 129, 130, 131, 132, 133, 134, 135, 136, 137, 138, 139, 140, 141, 142, 143, 144, 145, 146, 147, 148, 149, 150, 151, 152, 153, 154, 155, 156, 157, 158, 159, 160, 161, 162, 163, 164, 165, 166, 167, 168, 169, 170, 171, 172, 173, 174, 175, 176, 177, 178, 179, 180, 181, 182, 183, 184, 185, 186, 187, 188, 189, 190, 191, 192, 193, 194, 195, 196, 197, 198, 199, 200],
      "AcquisitionTime": ["084931.147500", "084933.147500", "084935.147500", "084937.147500", "084939.147500", "084941.147500", "084943.147500", "084945.147500", "084947.147500", "084949.147500", "084951.147500", "084953.147500", "084955.147500", "084957.147500", "084959.147500", "085001.147500", "085003.147500", "085005.147500", "085007.147500", "085009.147500", "085011.147500", "085013.147500", "085015.147500", "085017.147500", "085019.147500", "085021.147500", "085023.147500", "085025.147500", "085027.147500", "085029.147500", "085031.147500", "085033.147500", "085035.147500", "085037.147500", "085039.147500", "085041.147500", "085043.147500", "085045.147500", "085047.147500", "085049.147500", "085051.147500", "085053.147500", "085055.147500", "085057.147500", "085059.147500", "085101.147500", "085103.147500", "085105.147500", "085107.147500", "085109.147500", "085111.147500", "085113.147500", "085115.147500", "085117.147500", "085119.147500", "085121.147500", "085123.147500", "085125.147500", "085127.147500", "085129.147500", "085131.147500", "085133.147500", "085135.147500", "085137.147500", "085139.147500", "085141.147500", "085143.147500", "085145.147500", "085147.147500", "085149.147500", "085151.147500", "085153.147500", "085155.147500", "085157.147500", "085159.147500", "085201.147500", "085203.147500", "085205.147500", "085207.147500", "085209.147500", "085211.147500", "085213.147500", "085215.147500", "085217.147500", "085219.147500", "085221.147500", "085223.147500", "085225.147500", "085227.147500", "085229.147500", "085231.147500", "085233.147500", "085235.147500", "085237.147500", "085239.147500", "085241.147500", "085243.147500", "085245.147500", "085247.147500", "085249.147500", "085251.147500", "085253.147500", "085255.147500", "085257.147500", "085259.147500", "085301.147500", "085303.147500", "085305.147500", "085307.147500", "085309.147500", "085311.147500", "085313.147500", "085315.147500", "085317.147500", "085319.147500", "085321.147500", "085323.147500", "085325.147500", "085327.147500", "085329.147500", "085331.147500", "085333.147500", "085335.147500", "085337.147500", "085339.147500", "085341.147500", "085343.147500", "085345.147500", "085347.147500", "085349.147500", "085351.147500", "085353.147500", "085355.147500", "085357.147500", "085359.147500", "085401.147500", "085403.147500", "085405.147500", "085407.147500", "085409.147500", "085411.147500", "085413.147500", "085415.147500", "085417.147500", "085419.147500", "085421.147500", "085423.147500", "085425.147500", "085427.147500", "085429.147500", "085431.147500", "085433.147500", "085435.147500", "085437.147500", "085439.147500", "085441.147500", "085443.147500", "085445.147500", "085447.147500", "085449.147500", "085451.147500", "085453.147500", "085455.147500", "085457.147500", "085459.147500", "085501.147500", "085503.147500", "085505.147500", "085507.147500", "085509.147500", "085511.147500", "085513.147500", "085515.147500", "085517.147500", "085519.147500", "085521.147500", "085523.147500", "085525.147500", "085527.147500", "085529.147500", "085531.147500", "085533.147500", "085535.147500", "085537.147500", "085539.147500", "085541.147500", "085543.147500", "085545.147500", "085547.147500", "085549.147500", "085551.147500", "085553.147500", "085555.147500", "085557.147500", "085559.147500", "085601.147500", "085603.147500", "085605.147500", "085607.147500", "085609.147500"],
      "ContentTime": ["085020.250000", "085020.254000", "085020.256000", "085020.259000", "085020.261000", "085020.264000", "085020.266000", "085020.274000", "085020.277000", "085020.279000", "085020.282000", "085020.286000", "085020.288000", "085020.291000", "085020.298000", "085020.300000", "085020.303000", "085020.305000", "085020.308000", "085020.311000", "085020.315000", "085020.317000", "085020.320000", "085020.323000", "085100.245000", "085100.248000", "085100.257000", "085100.260000", "085100.262000", "085100.265000", "085100.268000", "085100.270000", "085100.273000", "085100.275000", "085100.278000", "085100.280000", "085100.283000", "085100.285000", "085100.288000", "085100.291000", "085100.293000", "085100.296000", "085100.299000", "085100.301000", "085120.245000", "085120.248000", "085120.251000", "085120.254000", "085120.256000", "085120.259000", "085120.261000", "085120.264000", "085120.266000", "085120.269000", "085200.245000", "085200.248000", "085200.251000", "085200.259000", "085200.262000", "085200.264000", "085200.267000", "085200.269000", "085200.272000", "085200.275000", "085200.277000", "085200.280000", "085200.283000", "085200.285000", "085200.288000", "085200.290000", "085200.293000", "085200.296000", "085200.298000", "085200.301000", "085240.245000", "085240.248000", "085240.251000", "085240.253000", "085240.256000", "085240.258000", "085240.267000", "085240.270000", "085240.272000", "085240.275000", "085240.278000", "085240.280000", "085240.283000", "085240.285000", "085240.288000", "085240.290000", "085240.293000", "085240.296000", "085240.298000", "085240.301000", "085320.245000", "085320.248000", "085320.251000", "085320.253000", "085320.256000", "085320.258000", "085320.261000", "085320.263000", "085320.266000", "085320.269000", "085320.271000", "085320.274000", "085320.276000", "085320.279000", "085320.282000", "085320.284000", "085320.287000", "085320.289000", "085320.292000", "085320.294000", "085400.245000", "085400.248000", "085400.251000", "085400.253000", "085400.256000", "085400.259000", "085400.261000", "085400.264000", "085400.266000", "085400.269000", "085400.271000", "085400.274000", "085400.277000", "085400.279000", "085400.282000", "085400.284000", "085400.293000", "085400.295000", "085400.298000", "085400.300000", "085440.245000", "085440.248000", "085440.251000", "085440.253000", "085440.256000", "085440.259000", "085440.261000", "085440.264000", "085440.266000", "085440.269000", "085440.271000", "085440.274000", "085440.277000", "085440.279000", "085440.282000", "085440.284000", "085440.287000", "085440.290000", "085440.292000", "085440.295000", "085520.244000", "085520.247000", "085520.250000", "085520.252000", "085520.255000", "085520.257000", "085520.260000", "085520.262000", "085520.265000", "085520.268000", "085520.271000", "085520.273000", "085520.276000", "085520.278000", "085520.281000", "085520.284000", "085520.286000", "085520.289000", "085520.291000", "085520.294000", "085600.246000", "085600.248000", "085600.251000", "085600.253000", "085600.256000", "085600.259000", "085600.261000", "085600.264000", "085600.267000", "085600.269000", "085600.272000", "085600.274000", "085600.277000", "085600.279000", "085600.282000", "085600.284000", "085600.287000", "085600.290000", "085600.292000", "085600.295000", "085610.442000", "085610.444000", "085610.447000", "085610.450000", "085610.453000", "085610.455000"],
      "InstanceCreationTime": ["085020.250000", "085020.254000", "085020.256000", "085020.259000", "085020.261000", "085020.264000", "085020.266000", "085020.274000", "085020.277000", "085020.279000", "085020.282000", "085020.286000", "085020.288000", "085020.291000", "085020.298000", "085020.300000", "085020.303000", "085020.305000", "085020.308000", "085020.311000", "085020.315000", "085020.317000", "085020.320000", "085020.323000", "085100.245000", "085100.248000", "085100.257000", "085100.260000", "085100.262000", "085100.265000", "085100.268000", "085100.270000", "085100.273000", "085100.275000", "085100.278000", "085100.280000", "085100.283000", "085100.285000", "085100.288000", "085100.291000", "085100.293000", "085100.296000", "085100.299000", "085100.301000", "085120.245000", "085120.248000", "085120.251000", "085120.254000", "085120.256000", "085120.259000", "085120.261000", "085120.264000", "085120.266000", "085120.269000", "085200.245000", "085200.248000", "085200.251000", "085200.259000", "085200.262000", "085200.264000", "085200.267000", "085200.269000", "085200.272000", "085200.275000", "085200.277000", "085200.280000", "085200.283000", "085200.285000", "085200.288000", "085200.290000", "085200.293000", "085200.296000", "085200.298000", "085200.301000", "085240.245000", "085240.248000", "085240.251000", "085240.253000", "085240.256000", "085240.258000", "085240.267000", "085240.270000", "085240.272000", "085240.275000", "085240.278000", "085240.280000", "085240.283000", "085240.285000", "085240.288000", "085240.290000", "085240.293000", "085240.296000", "085240.298000", "085240.301000", "085320.245000", "085320.248000", "085320.251000", "085320.253000", "085320.256000", "085320.258000", "085320.261000", "085320.263000", "085320.266000", "085320.269000", "085320.271000", "085320.274000", "085320.276000", "085320.279000", "085320.282000", "085320.284000", "085320.287000", "085320.289000", "085320.292000", "085320.294000", "085400.245000", "085400.248000", "085400.251000", "085400.253000", "085400.256000", "085400.259000", "085400.261000", "085400.264000", "085400.266000", "085400.269000", "085400.271000", "085400.274000", "085400.277000", "085400.279000", "085400.282000", "085400.284000", "085400.293000", "085400.295000", "085400.298000", "085400.300000", "085440.245000", "085440.248000", "085440.251000", "085440.253000", "085440.256000", "085440.259000", "085440.261000", "085440.264000", "085440.266000", "085440.269000", "085440.271000", "085440.274000", "085440.277000", "085440.279000", "085440.282000", "085440.284000", "085440.287000", "085440.290000", "085440.292000", "085440.295000", "085520.244000", "085520.247000", "085520.250000", "085520.252000", "085520.255000", "085520.257000", "085520.260000", "085520.262000", "085520.265000", "085520.268000", "085520.271000", "085520.273000", "085520.276000", "085520.278000", "085520.281000", "085520.284000", "085520.286000", "085520.289000", "085520.291000", "085520.294000", "085600.246000", "085600.248000", "085600.251000", "085600.253000", "085600.256000", "085600.259000", "085600.261000", "085600.264000", "085600.267000", "085600.269000", "085600.272000", "085600.274000", "085600.277000", "085600.279000", "085600.282000", "085600.284000", "085600.287000", "085600.290000", "085600.292000", "085600.295000", "085610.442000", "085610.444000", "085610.447000", "085610.450000", "085610.453000", "085610.455000"],
      "InstanceNumber": [1, 2, 3, 4, 5, 6, 7, 8, 9, 10, 11, 12, 13, 14, 15, 16, 17, 18, 19, 20, 21, 22, 23, 24, 25, 26, 27, 28, 29, 30, 31, 32, 33, 34, 35, 36, 37, 38, 39, 40, 41, 42, 43, 44, 45, 46, 47, 48, 49, 50, 51, 52, 53, 54, 55, 56, 57, 58, 59, 60, 61, 62, 63, 64, 65, 66, 67, 68, 69, 70, 71, 72, 73, 74, 75, 76, 77, 78, 79, 80, 81, 82, 83, 84, 85, 86, 87, 88, 89, 90, 91, 92, 93, 94, 95, 96, 97, 98, 99, 100, 101, 102, 103, 104, 105, 106, 107, 108, 109, 110, 111, 112, 113, 114, 115, 116, 117, 118, 119, 120, 121, 122, 123, 124, 125, 126, 127, 128, 129, 130, 131, 132, 133, 134, 135, 136, 137, 138, 139, 140, 141, 142, 143, 144, 145, 146, 147, 148, 149, 150, 151, 152, 153, 154, 155, 156, 157, 158, 159, 160, 161, 162, 163, 164, 165, 166, 167, 168, 169, 170, 171, 172, 173, 174, 175, 176, 177, 178, 179, 180, 181, 182, 183, 184, 185, 186, 187, 188, 189, 190, 191, 192, 193, 194, 195, 196, 197, 198, 199, 200],
      "LargestImagePixelValue": [2003, 1996, 2000, 2002, 1998, 2000, 2005, 2006, 1999, 2000, 1997, 2000, 1995, 2003, 2001, 1993, 1996, 2005, 2007, 2009, 1994, 2003, 1999, 1997, 2000, 1996, 1999, 2002, 1998, 1991, 1998, 1997, 1998, 2000, 1998, 2002, 2002, 2004, 2000, 2001, 1998, 1999, 2001, 2003, 2001, 2001, 2007, 1999, 1998, 1999, 1999, 2001, 1998, 1997, 2000, 1999, 1998, 2002, 1996, 2000, 2000, 1995, 2004, 2001, 2004, 2000, 2003, 1996, 1999, 1999, 2010, 2000, 2002, 1997, 2003, 1998, 1995, 2002, 2005, 1999, 1998, 2001, 1998, 1999, 2007, 2003, 1999, 1997, 1993, 2000, 1996, 2004, 2002, 2001, 2001, 1994, 1997, 1998, 2001, 2004, 2000, 2000, 1998, 2002, 1998, 1994, 1995, 1999, 1996, 2001, 2000, 1997, 2001, 1997, 2000, 2004, 1999, 2001, 2002, 2002, 1998, 1997, 1999, 2006, 2001, 2001, 1997, 2000, 1995, 2000, 1998, 1995, 2001, 2000, 1997, 2002, 2002, 1995, 1999, 2001, 1998, 2003, 2000, 1997, 1993, 1997, 1997, 1997, 1999, 1999, 2002, 2003, 2003, 2000, 1996, 2009, 1997, 2002, 2003, 2007, 1995, 1997, 2001, 2000, 2001, 1996, 2002, 1998, 1999, 1996, 1994, 2002, 1995, 2000, 2001, 1998, 2002, 2000, 1999, 1994, 2002, 2000, 1998, 1999, 2001, 1999, 2001, 1992, 1997, 1995, 1998, 1998, 1999, 1999, 2005, 2002, 2000, 1997, 1996, 1996],
      "WindowCenter": [922.0, 922.0, 922.0, 922.0, 922.0, 922.0, 922.0, 922.0, 922.0, 922.0, 922.0, 922.0, 922.0, 922.0, 922.0, 922.0, 922.0, 922.0, 922.0, 922.0, 922.0, 923.0, 922.0, 922.0, 922.0, 922.0, 923.0, 922.0, 922.0, 922.0, 922.0, 922.0, 922.0, 922.0, 922.0, 922.0, 922.0, 922.0, 922.0, 922.0, 922.0, 922.0, 922.0, 922.0, 922.0, 922.0, 922.0, 922.0, 922.0, 922.0, 922.0, 922.0, 922.0, 922.0, 922.0, 922.0, 922.0, 922.0, 922.0, 922.0, 922.0, 922.0, 922.0, 922.0, 922.0, 922.0, 922.0, 922.0, 922.0, 922.0, 922.0, 922.0, 922.0, 922.0, 922.0, 922.0, 922.0, 922.0, 922.0, 922.0, 922.0, 922.0, 922.0, 922.0, 922.0, 922.0, 922.0, 922.0, 922.0, 922.0, 922.0, 922.0, 922.0, 922.0, 922.0, 922.0, 922.0, 922.0, 922.0, 922.0, 922.0, 922.0, 922.0, 922.0, 922.0, 922.0, 922.0, 922.0, 922.0, 922.0, 922.0, 922.0, 922.0, 922.0, 922.0, 922.0, 922.0, 922.0, 922.0, 922.0, 922.0, 922.0, 922.0, 922.0, 922.0, 922.0, 922.0, 922.0, 922.0, 922.0, 922.0, 922.0, 922.0, 922.0, 922.0, 922.0, 922.0, 922.0, 922.0, 922.0, 922.0, 922.0, 922.0, 922.0, 922.0, 922.0, 922.0, 922.0, 922.0, 922.0, 922.0, 922.0, 922.0, 922.0, 922.0, 922.0, 922.0, 922.0, 922.0, 922.0, 922.0, 922.0, 922.0, 922.0, 922.0, 922.0, 922.0, 922.0, 922.0, 922.0, 922.0, 922.0, 922.0, 922.0, 922.0, 922.0, 922.0, 922.0, 922.0, 922.0, 922.0, 922.0, 922.0, 922.0, 922.0, 922.0, 922.0, 922.0, 922.0, 922.0, 922.0, 922.0, 922.0, 922.0, 922.0, 922.0, 922.0, 922.0, 922.0, 922.0],
      "WindowWidth": [2100.0, 2100.0, 2100.0, 2100.0, 2100.0, 2100.0, 2100.0, 2100.0, 2101.0, 2100.0, 2100.0, 2100.0, 2100.0, 2100.0, 2101.0, 2100.0, 2100.0, 2100.0, 2100.0, 2100.0, 2100.0, 2101.0, 2100.0, 2101.0, 2100.0, 2100.0, 2100.0, 2100.0, 2100.0, 2100.0, 2100.0, 2100.0, 2100.0, 2100.0, 2101.0, 2100.0, 2100.0, 2100.0, 2100.0, 2100.0, 2100.0, 2100.0, 2100.0, 2100.0, 2100.0, 2100.0, 2100.0, 2100.0, 2100.0, 2100.0, 2100.0, 2100.0, 2100.0, 2100.0, 2100.0, 2100.0, 2100.0, 2100.0, 2100.0, 2100.0, 2100.0, 2100.0, 2100.0, 2100.0, 2100.0, 2100.0, 2100.0, 2100.0, 2100.0, 2100.0, 2100.0, 2100.0, 2100.0, 2100.0, 2100.0, 2100.0, 2100.0, 2100.0, 2100.0, 2100.0, 2100.0, 2100.0, 2100.0, 2100.0, 2100.0, 2100.0, 2100.0, 2100.0, 2100.0, 2100.0, 2100.0, 2100.0, 2100.0, 2100.0, 2100.0, 2100.0, 2100.0, 2100.0, 2100.0, 2100.0, 2100.0, 2100.0, 2100.0, 2100.0, 2100.0, 2100.0, 2100.0, 2100.0, 2100.0, 2100.0, 2100.0, 2100.0, 2100.0, 2100.0, 2100.0, 2100.0, 2100.0, 2100.0, 2100.0, 2100.0, 2100.0, 2100.0, 2100.0, 2100.0, 2100.0, 2100.0, 2100.0, 2100.0, 2100.0, 2100.0, 2100.0, 2100.0, 2100.0, 2100.0, 2100.0, 2100.0, 2100.0, 2100.0, 2100.0, 2100.0, 2100.0, 2100.0, 2100.0, 2100.0, 2100.0, 2100.0, 2100.0, 2100.0, 2100.0, 2100.0, 2100.0, 2100.0, 2100.0, 2100.0, 2100.0, 2100.0, 2100.0, 2100.0, 2100.0, 2100.0, 2100.0, 2100.0, 2100.0, 2100.0, 2100.0, 2100.0, 2099.0, 2100.0, 2100.0, 2100.0, 2100.0, 2100.0, 2100.0, 2100.0, 2100.0, 2100.0, 2100.0, 2100.0, 2100.0, 2100.0, 2100.0, 2100.0, 2100.0, 2100.0, 2100.0, 2100.0, 2100.0, 2100.0, 2100.0, 2100.0, 2100.0, 2100.0, 2100.0, 2100.0, 2100.0, 2100.0, 2100.0, 2100.0, 2100.0, 2100.0]
    },
    "slices": {}
  }
}