{
  "AcquisitionMatrixPE": 80,
  "AcquisitionNumber": 1,
  "AcquisitionTime": "08:42:36.795000",
  "BandwidthPerPixelPhaseEncode": 48.077,
  "BaseResolution": 80,
  "BodyPartExamined": "BRAIN",
  "CoilCombinationMethod": "Sum of Squares",
  "ConsistencyInfo": "N4_VE11C_LATEST_20160120",
  "ConversionSoftware": "dcm2niix",
  "ConversionSoftwareVersion": "v1.0.20220720",
  "DerivedVendorReportedEchoSpacing": 0.000519999,
  "DeviceSerialNumber": "66112",
  "DwellTime": 2.7e-06,
  "EchoTime": 0.035,
  "EchoTrainLength": 39,
  "EffectiveEchoSpacing": 0.00026,
  "FlipAngle": 90,
  "HeudiconvVersion": "0.13.1",
  "ImageOrientationPatientDICOM": [0.987903, -0.155006, 0.00463575, 0.146233, 0.941105, 0.304857],
  "ImageOrientationText": "Tra>Cor(17.5)>Sag(3.0)",
  "ImageType": [
    "ORIGINAL",
    "PRIMARY",
    "M",
    "ND",
    "NORM",
    "MOSAIC"
],
  "ImagingFrequency": 123.252,
  "InPlanePhaseEncodingDirectionDICOM": "COL",
  "InstitutionAddress": "Maynard 3,Hanover,NH,US,03755",
  "InstitutionName": "Dartmouth College - PBS",
  "InstitutionalDepartmentName": "Department",
  "MRAcquisitionType": "2D",
  "MagneticFieldStrength": 3,
  "Manufacturer": "Siemens",
  "ManufacturersModelName": "Prisma",
  "MatrixCoilMode": "GRAPPA",
  "Modality": "MR",
  "NonlinearGradientCorrection": false,
  "ParallelReductionFactorInPlane": 2,
  "PartialFourier": 1,
  "PatientPosition": "HFS",
  "PercentPhaseFOV": 100,
  "PercentSampling": 100,
  "PhaseEncodingDirection": "j-",
  "PhaseEncodingSteps": 79,
  "PhaseResolution": 1,
  "PixelBandwidth": 2315,
  "ProcedureStepDescription": "dbic^QA",
  "ProtocolName": "func-bold_task-rest_acq-p2",
  "PulseSequenceDetails": "%SiemensSeq%\\ep2d_bold",
  "ReceiveCoilActiveElements": "HEA;HEP",
  "ReceiveCoilName": "Head_32",
  "ReconMatrixPE": 80,
  "RefLinesPE": 24,
  "RepetitionTime": 2,
  "SAR": 0.0556,
  "ScanOptions": "FS",
  "ScanningSequence": "EP",
  "SequenceName": "*epfid2d1_80",
  "SequenceVariant": "SK",
  "SeriesDescription": "func-bold_task-rest_acq-p2",
  "SeriesNumber": 5,
  "ShimSetting": [4147, -7696, -7514, 288, -64, -200, -7, 65],
  "SliceThickness": 3.5,
  "SliceTiming": [0.99, 0, 1.055, 0.065, 1.1225, 0.1325, 1.1875, 0.1975, 1.2525, 0.2625, 1.32, 0.33, 1.385, 0.395, 1.4525, 0.4625, 1.5175, 0.5275, 1.5825, 0.5925, 1.65, 0.66, 1.715, 0.725, 1.7825, 0.7925, 1.8475, 0.8575, 1.9125, 0.9225],
  "SoftwareVersions": "syngo MR E11",
  "SpacingBetweenSlices": 3.99,
  "StationName": "AWP66112",
  "TaskName": "rest",
  "TotalReadoutTime": 0.02054,
  "TxRefAmp": 230.86,
  "dcmmeta_affine": [
    [-2.963707685470581, 0.43869921565055847, 0.20595382153987885, 98.73707580566406],
    [0.46501922607421875, 2.8233141899108887, 1.198959231376648, -138.2923126220703],
    [0.013907242566347122, -0.9145707488059998, 3.8000235557556152, -19.875804901123047],
    [0.0, 0.0, 0.0, 1.0]
],
  "dcmmeta_reorient_transform": [
    [0.0, -1.0, 0.0, 79.0],
    [1.0, 0.0, 0.0, 0.0],
    [0.0, 0.0, 1.0, 0.0],
    [0.0, 0.0, 0.0, 1.0]
],
  "dcmmeta_shape": [80, 80, 30, 200],
  "dcmmeta_slice_dim": 2,
  "dcmmeta_version": 0.6,
  "global": {
    "const": {
      "AccessionNumber": "qa",
      "AcquisitionMatrix": [80, 0, 0, 80],
      "AngioFlag": "N",
      "BitsAllocated": 16,
      "BitsStored": 12,
      "BodyPartExamined": "BRAIN",
      "Columns": 480,
      "EchoNumbers": 1,
      "EchoTime": 35.0,
      "EchoTrainLength": 39,
      "FlipAngle": 90.0,
      "HighBit": 11,
      "ImageOrientationPatient": [0.987902587351, -0.1550064119657, 0.00463574748073, 0.1462330724497, 0.94110474834187, 0.30485691917737],
      "ImagePositionPatient": [-813.87570996289, -556.4085077267, -277.8224938891],
      "ImageType": [
        "ORIGINAL",
        "PRIMARY",
        "M",
        "ND",
        "NORM",
        "MOSAIC"
],
      "ImagedNucleus": "1H",
      "ImagingFrequency": 123.252419,
      "InPlanePhaseEncodingDirection": "COL",
      "MRAcquisitionType": "2D",
      "MagneticFieldStrength": 3.0,
      "Manufacturer": "SIEMENS",
      "ManufacturerModelName": "Prisma",
      "Modality": "MR",
      "NumberOfAverages": 1.0,
      "NumberOfPhaseEncodingSteps": 79,
      "PercentPhaseFieldOfView": 100.0,
      "PercentSampling": 100.0,
      "PerformedProcedureStepStartTime": "084050.347000",
      "PhotometricInterpretation": "MONOCHROME2",
      "PixelBandwidth": 2315.0,
      "PixelRepresentation": 0,
      "PixelSpacing": [3.0, 3.0],
      "ProtocolName": "func-bold_task-rest_acq-p2",
      "RepetitionTime": 2000.0,
      "Rows": 480,
      "SAR": 0.05559999689579,
      "SamplesPerPixel": 1,
      "ScanOptions": "FS",
      "ScanningSequence": "EP",
      "SequenceName": "*epfid2d1_80",
      "SequenceVariant": "SK",
      "SeriesDescription": "func-bold_task-rest_acq-p2",
      "SeriesNumber": 5,
      "SeriesTime": "084320.162000",
      "SliceLocation": -55.388496715155,
      "SliceThickness": 3.5,
      "SmallestImagePixelValue": 0,
      "SoftwareVersions": "syngo MR E11",
      "SpacingBetweenSlices": 3.9899999191084,
      "SpecificCharacterSet": "ISO_IR 100",
      "StudyID": "21",
      "StudyTime": "084050.266000",
      "TransmitCoilName": "Body",
      "VariableFlipAngleFlag": "N",
      "WindowCenterWidthExplanation": "Algo1",
      "dBdt": 0.0},
    "slices": {}
  },
  "time": {
    "samples": {
      "AcquisitionNumber": [1, 2, 3, 4, 5, 6, 7, 8, 9, 10, 11, 12, 13, 14, 15, 16, 17, 18, 19, 20, 21, 22, 23, 24, 25, 26, 27, 28, 29, 30, 31, 32, 33, 34, 35, 36, 37, 38, 39, 40, 41, 42, 43, 44, 45, 46, 47, 48, 49, 50, 51, 52, 53, 54, 55, 56, 57, 58, 59, 60, 61, 62, 63, 64, 65, 66, 67, 68, 69, 70, 71, 72, 73, 74, 75, 76, 77, 78, 79, 80, 81, 82, 83, 84, 85, 86, 87, 88, 89, 90, 91, 92, 93, 94, 95, 96, 97, 98, 99, 100, 101, 102, 103, 104, 105, 106, 107, 108, 109, 110, 111, 112, 113, 114, 115, 116, 117, 118, 119, 120, 121, 122, 123, 124, 125, 126, 127, 128, 129, 130, 131, 132, 133, 134, 135, 136, 137, 138, 139, 140, 141, 142, 143, 144, 145, 146, 147, 148, 149, 150, 151, 152, 153, 154, 155, 156, 157, 158, 159, 160, 161, 162, 163, 164, 165, 166, 167, 168, 169, 170, 171, 172, 173, 174, 175, 176, 177, 178, 179, 180, 181, 182, 183, 184, 185, 186, 187, 188, 189, 190, 191, 192, 193, 194, 195, 196, 197, 198, 199, 200],
      "AcquisitionTime": ["084236.795000", "084238.795000", "084240.795000", "084242.795000", "084244.795000", "084246.795000", "084248.795000", "084250.795000", "084252.795000", "084254.795000", "084256.795000", "084258.795000", "084300.795000", "084302.795000", "084304.795000", "084306.795000", "084308.795000", "084310.795000", "084312.795000", "084314.795000", "084316.795000", "084318.795000", "084320.795000", "084322.795000", "084324.795000", "084326.795000", "084328.795000", "084330.795000", "084332.795000", "084334.795000", "084336.795000", "084338.795000", "084340.795000", "084342.795000", "084344.795000", "084346.795000", "084348.795000", "084350.795000", "084352.795000", "084354.795000", "084356.795000", "084358.795000", "084400.795000", "084402.795000", "084404.795000", "084406.795000", "084408.795000", "084410.795000", "084412.795000", "084414.795000", "084416.795000", "084418.795000", "084420.795000", "084422.795000", "084424.795000", "084426.795000", "084428.795000", "084430.795000", "084432.795000", "084434.795000", "084436.795000", "084438.795000", "084440.795000", "084442.795000", "084444.795000", "084446.795000", "084448.795000", "084450.795000", "084452.795000", "084454.795000", "084456.795000", "084458.795000", "084500.795000", "084502.795000", "084504.795000", "084506.795000", "084508.795000", "084510.795000", "084512.795000", "084514.795000", "084516.795000", "084518.795000", "084520.795000", "084522.795000", "084524.795000", "084526.795000", "084528.795000", "084530.795000", "084532.795000", "084534.795000", "084536.795000", "084538.795000", "084540.795000", "084542.795000", "084544.795000", "084546.795000", "084548.795000", "084550.795000", "084552.795000", "084554.795000", "084556.795000", "084558.795000", "084600.795000", "084602.795000", "084604.795000", "084606.795000", "084608.795000", "084610.795000", "084612.795000", "084614.795000", "084616.795000", "084618.795000", "084620.795000", "084622.795000", "084624.795000", "084626.795000", "084628.795000", "084630.795000", "084632.795000", "084634.795000", "084636.795000", "084638.795000", "084640.795000", "084642.795000", "084644.795000", "084646.795000", "084648.795000", "084650.795000", "084652.795000", "084654.795000", "084656.795000", "084658.795000", "084700.795000", "084702.795000", "084704.795000", "084706.795000", "084708.795000", "084710.795000", "084712.795000", "084714.795000", "084716.795000", "084718.795000", "084720.795000", "084722.795000", "084724.795000", "084726.795000", "084728.795000", "084730.795000", "084732.795000", "084734.795000", "084736.795000", "084738.795000", "084740.795000", "084742.795000", "084744.795000", "084746.795000", "084748.795000", "084750.795000", "084752.795000", "084754.795000", "084756.795000", "084758.795000", "084800.795000", "084802.795000", "084804.795000", "084806.795000", "084808.795000", "084810.795000", "084812.795000", "084814.795000", "084816.795000", "084818.795000", "084820.795000", "084822.795000", "084824.795000", "084826.795000", "084828.795000", "084830.795000", "084832.795000", "084834.795000", "084836.795000", "084838.795000", "084840.795000", "084842.795000", "084844.795000", "084846.795000", "084848.795000", "084850.795000", "084852.795000", "084854.795000", "084856.795000", "084858.795000", "084900.795000", "084902.795000", "084904.795000", "084906.795000", "084908.795000", "084910.795000", "084912.795000", "084914.795000"],
      "ContentTime": ["084320.165000", "084320.177000", "084320.180000", "084320.182000", "084320.185000", "084320.187000", "084320.190000", "084320.193000", "084320.195000", "084320.198000", "084320.201000", "084320.203000", "084320.206000", "084320.208000", "084320.211000", "084320.213000", "084320.216000", "084320.218000", "084320.221000", "084320.224000", "084320.226000", "084400.160000", "084400.165000", "084400.168000", "084400.171000", "084400.173000", "084400.176000", "084400.179000", "084400.181000", "084400.184000", "084400.186000", "084400.189000", "084400.192000", "084400.194000", "084400.197000", "084400.199000", "084400.202000", "084400.204000", "084400.207000", "084400.210000", "084400.212000", "084440.160000", "084440.163000", "084440.166000", "084440.169000", "084440.172000", "084440.174000", "084440.177000", "084440.179000", "084440.182000", "084440.184000", "084440.187000", "084440.189000", "084440.192000", "084440.194000", "084440.197000", "084440.200000", "084440.202000", "084440.205000", "084440.207000", "084440.210000", "084520.160000", "084520.163000", "084520.166000", "084520.169000", "084520.171000", "084520.174000", "084520.176000", "084520.179000", "084520.182000", "084520.184000", "084520.187000", "084520.189000", "084520.192000", "084520.194000", "084520.197000", "084520.199000", "084520.202000", "084520.204000", "084520.207000", "084520.210000", "084600.160000", "084600.162000", "084600.165000", "084600.168000", "084600.170000", "084600.173000", "084600.176000", "084600.178000", "084600.181000", "084600.183000", "084600.186000", "084600.189000", "084600.191000", "084600.194000", "084600.196000", "084600.199000", "084600.201000", "084600.204000", "084600.207000", "084600.209000", "084640.160000", "084640.163000", "084640.166000", "084640.169000", "084640.171000", "084640.174000", "084640.177000", "084640.179000", "084640.182000", "084640.184000", "084640.187000", "084640.189000", "084640.199000", "084640.201000", "084640.204000", "084640.207000", "084640.209000", "084640.212000", "084640.215000", "084640.217000", "084720.161000", "084720.163000", "084720.166000", "084720.169000", "084720.171000", "084720.174000", "084720.176000", "084720.179000", "084720.191000", "084720.193000", "084720.196000", "084720.199000", "084720.201000", "084720.204000", "084720.206000", "084720.209000", "084720.212000", "084720.214000", "084720.217000", "084720.219000", "084800.161000", "084800.163000", "084800.166000", "084800.169000", "084800.171000", "084800.174000", "084800.177000", "084800.179000", "084800.182000", "084800.184000", "084800.187000", "084800.190000", "084800.192000", "084800.195000", "084800.197000", "084800.200000", "084800.202000", "084800.205000", "084800.208000", "084800.210000", "084840.160000", "084840.163000", "084840.166000", "084840.169000", "084840.171000", "084840.174000", "084840.176000", "084840.179000", "084840.181000", "084840.184000", "084840.186000", "084840.189000", "084840.191000", "084840.194000", "084840.197000", "084840.199000", "084840.211000", "084840.214000", "084840.216000", "084840.219000", "084916.429000", "084916.432000", "084916.434000", "084916.437000", "084916.440000", "084916.442000", "084916.445000", "084916.448000", "084916.450000", "084916.453000", "084916.456000", "084916.464000", "084916.469000", "084916.472000", "084916.475000", "084916.479000", "084916.483000", "084916.486000", "084916.489000"],
      "InstanceCreationTime": ["084320.165000", "084320.177000", "084320.180000", "084320.182000", "084320.185000", "084320.187000", "084320.190000", "084320.193000", "084320.195000", "084320.198000", "084320.201000", "084320.203000", "084320.206000", "084320.208000", "084320.211000", "084320.213000", "084320.216000", "084320.218000", "084320.221000", "084320.224000", "084320.226000", "084400.160000", "084400.165000", "084400.168000", "084400.171000", "084400.173000", "084400.176000", "084400.179000", "084400.181000", "084400.184000", "084400.186000", "084400.189000", "084400.192000", "084400.194000", "084400.197000", "084400.199000", "084400.202000", "084400.204000", "084400.207000", "084400.210000", "084400.212000", "084440.160000", "084440.163000", "084440.166000", "084440.169000", "084440.172000", "084440.174000", "084440.177000", "084440.179000", "084440.182000", "084440.184000", "084440.187000", "084440.189000", "084440.192000", "084440.194000", "084440.197000", "084440.200000", "084440.202000", "084440.205000", "084440.207000", "084440.210000", "084520.160000", "084520.163000", "084520.166000", "084520.169000", "084520.171000", "084520.174000", "084520.176000", "084520.179000", "084520.182000", "084520.184000", "084520.187000", "084520.189000", "084520.192000", "084520.194000", "084520.197000", "084520.199000", "084520.202000", "084520.204000", "084520.207000", "084520.210000", "084600.160000", "084600.162000", "084600.165000", "084600.168000", "084600.170000", "084600.173000", "084600.176000", "084600.178000", "084600.181000", "084600.183000", "084600.186000", "084600.189000", "084600.191000", "084600.194000", "084600.196000", "084600.199000", "084600.201000", "084600.204000", "084600.207000", "084600.209000", "084640.160000", "084640.163000", "084640.166000", "084640.169000", "084640.171000", "084640.174000", "084640.177000", "084640.179000", "084640.182000", "084640.184000", "084640.187000", "084640.189000", "084640.199000", "084640.201000", "084640.204000", "084640.207000", "084640.209000", "084640.212000", "084640.215000", "084640.217000", "084720.161000", "084720.163000", "084720.166000", "084720.169000", "084720.171000", "084720.174000", "084720.176000", "084720.179000", "084720.191000", "084720.193000", "084720.196000", "084720.199000", "084720.201000", "084720.204000", "084720.206000", "084720.209000", "084720.212000", "084720.214000", "084720.217000", "084720.219000", "084800.161000", "084800.163000", "084800.166000", "084800.169000", "084800.171000", "084800.174000", "084800.177000", "084800.179000", "084800.182000", "084800.184000", "084800.187000", "084800.190000", "084800.192000", "084800.195000", "084800.197000", "084800.200000", "084800.202000", "084800.205000", "084800.208000", "084800.210000", "084840.160000", "084840.163000", "084840.166000", "084840.169000", "084840.171000", "084840.174000", "084840.176000", "084840.179000", "084840.181000", "084840.184000", "084840.186000", "084840.189000", "084840.191000", "084840.194000", "084840.197000", "084840.199000", "084840.211000", "084840.214000", "084840.216000", "084840.219000", "084916.429000", "084916.432000", "084916.434000", "084916.437000", "084916.440000", "084916.442000", "084916.445000", "084916.448000", "084916.450000", "084916.453000", "084916.456000", "084916.464000", "084916.469000", "084916.472000", "084916.475000", "084916.479000", "084916.483000", "084916.486000", "084916.489000"],
      "InstanceNumber": [1, 2, 3, 4, 5, 6, 7, 8, 9, 10, 11, 12, 13, 14, 15, 16, 17, 18, 19, 20, 21, 22, 23, 24, 25, 26, 27, 28, 29, 30, 31, 32, 33, 34, 35, 36, 37, 38, 39, 40, 41, 42, 43, 44, 45, 46, 47, 48, 49, 50, 51, 52, 53, 54, 55, 56, 57, 58, 59, 60, 61, 62, 63, 64, 65, 66, 67, 68, 69, 70, 71, 72, 73, 74, 75, 76, 77, 78, 79, 80, 81, 82, 83, 84, 85, 86, 87, 88, 89, 90, 91, 92, 93, 94, 95, 96, 97, 98, 99, 100, 101, 102, 103, 104, 105, 106, 107, 108, 109, 110, 111, 112, 113, 114, 115, 116, 117, 118, 119, 120, 121, 122, 123, 124, 125, 126, 127, 128, 129, 130, 131, 132, 133, 134, 135, 136, 137, 138, 139, 140, 141, 142, 143, 144, 145, 146, 147, 148, 149, 150, 151, 152, 153, 154, 155, 156, 157, 158, 159, 160, 161, 162, 163, 164, 165, 166, 167, 168, 169, 170, 171, 172, 173, 174, 175, 176, 177, 178, 179, 180, 181, 182, 183, 184, 185, 186, 187, 188, 189, 190, 191, 192, 193, 194, 195, 196, 197, 198, 199, 200],
      "LargestImagePixelValue": [2024, 2026, 2021, 2021, 2013, 2013, 2020, 2017, 2021, 2011, 2019, 2013, 2017, 2016, 2016, 2026, 2012, 2022, 2022, 2015, 2017, 2021, 2018, 2022, 2016, 2019, 2019, 2020, 2020, 2017, 2016, 2020, 2014, 2015, 2026, 2019, 2022, 2023, 2018, 2021, 2019, 2022, 2023, 2017, 2016, 2012, 2013, 2017, 2016, 2012, 2009, 2017, 2018, 2031, 2017, 2024, 2023, 2019, 2024, 2017, 2018, 2023, 2016, 2018, 2014, 2012, 2023, 2016, 2017, 2017, 2019, 2010, 2023, 2017, 2019, 2020, 2024, 2023, 2015, 2022, 2021, 2019, 2019, 2012, 2019, 2018, 2021, 2019, 2018, 2013, 2021, 2011, 2017, 2017, 2016, 2018, 2020, 2014, 2013, 2021, 2016, 2022, 2014, 2019, 2019, 2017, 2010, 2015, 2022, 2018, 2022, 2025, 2021, 2014, 2013, 2020, 2021, 2012, 2015, 2013, 2022, 2028, 2017, 2021, 2015, 2019, 2025, 2017, 2018, 2017, 2015, 2016, 2018, 2013, 2021, 2015, 2025, 2013, 2019, 2010, 2016, 2019, 2020, 2025, 2019, 2014, 2014, 2017, 2012, 2014, 2025, 2020, 2016, 2017, 2014, 2019, 2016, 2022, 2019, 2015, 2011, 2014, 2015, 2017, 2018, 2023, 2018, 2011, 2019, 2014, 2014, 2016, 2015, 2017, 2016, 2016, 2012, 2023, 2012, 2018, 2016, 2020, 2025, 2022, 2024, 2017, 2019, 2022, 2018, 2008, 2017, 2018, 2008, 2014, 2019, 2014, 2018, 2014, 2015, 2015],
      "WindowCenter": [989.0, 988.0, 988.0, 988.0, 988.0, 988.0, 988.0, 989.0, 989.0, 988.0, 989.0, 989.0, 988.0, 989.0, 988.0, 989.0, 988.0, 988.0, 988.0, 988.0, 988.0, 988.0, 988.0, 988.0, 989.0, 988.0, 988.0, 989.0, 989.0, 988.0, 988.0, 989.0, 988.0, 989.0, 989.0, 988.0, 988.0, 988.0, 988.0, 988.0, 988.0, 988.0, 988.0, 989.0, 988.0, 988.0, 988.0, 988.0, 988.0, 989.0, 988.0, 989.0, 988.0, 988.0, 988.0, 988.0, 988.0, 988.0, 989.0, 988.0, 988.0, 988.0, 988.0, 988.0, 988.0, 988.0, 988.0, 988.0, 988.0, 988.0, 988.0, 988.0, 988.0, 988.0, 988.0, 988.0, 988.0, 988.0, 988.0, 988.0, 988.0, 988.0, 988.0, 988.0, 988.0, 989.0, 988.0, 988.0, 988.0, 988.0, 988.0, 988.0, 988.0, 988.0, 988.0, 989.0, 988.0, 989.0, 988.0, 988.0, 988.0, 988.0, 988.0, 988.0, 988.0, 988.0, 988.0, 988.0, 988.0, 988.0, 988.0, 989.0, 988.0, 988.0, 988.0, 988.0, 988.0, 988.0, 988.0, 988.0, 988.0, 988.0, 988.0, 988.0, 988.0, 988.0, 988.0, 988.0, 988.0, 988.0, 988.0, 990.0, 988.0, 988.0, 990.0, 988.0, 988.0, 989.0, 988.0, 988.0, 989.0, 988.0, 988.0, 988.0, 988.0, 988.0, 988.0, 988.0, 988.0, 988.0, 988.0, 988.0, 989.0, 988.0, 988.0, 988.0, 989.0, 988.0, 988.0, 989.0, 988.0, 988.0, 988.0, 988.0, 988.0, 989.0, 988.0, 988.0, 988.0, 989.0, 989.0, 988.0, 989.0, 988.0, 989.0, 989.0, 988.0, 988.0, 988.0, 988.0, 989.0, 988.0, 989.0, 988.0, 988.0, 988.0, 988.0, 989.0, 988.0, 988.0, 988.0, 989.0, 988.0, 988.0, 988.0, 989.0, 988.0, 988.0, 988.0, 989.0],
      "WindowWidth": [2168.0, 2167.0, 2167.0, 2166.0, 2167.0, 2167.0, 2167.0, 2166.0, 2168.0, 2167.0, 2168.0, 2168.0, 2167.0, 2167.0, 2167.0, 2167.0, 2167.0, 2167.0, 2167.0, 2167.0, 2167.0, 2167.0, 2167.0, 2167.0, 2168.0, 2167.0, 2167.0, 2167.0, 2167.0, 2167.0, 2167.0, 2168.0, 2167.0, 2167.0, 2167.0, 2167.0, 2167.0, 2167.0, 2167.0, 2167.0, 2167.0, 2167.0, 2167.0, 2167.0, 2167.0, 2167.0, 2167.0, 2167.0, 2167.0, 2167.0, 2167.0, 2168.0, 2167.0, 2167.0, 2167.0, 2167.0, 2167.0, 2167.0, 2168.0, 2167.0, 2167.0, 2167.0, 2167.0, 2167.0, 2167.0, 2167.0, 2167.0, 2167.0, 2167.0, 2167.0, 2167.0, 2167.0, 2167.0, 2167.0, 2167.0, 2167.0, 2167.0, 2167.0, 2167.0, 2167.0, 2167.0, 2167.0, 2167.0, 2167.0, 2167.0, 2168.0, 2167.0, 2167.0, 2167.0, 2167.0, 2167.0, 2167.0, 2167.0, 2167.0, 2167.0, 2168.0, 2167.0, 2168.0, 2167.0, 2167.0, 2167.0, 2167.0, 2167.0, 2167.0, 2167.0, 2167.0, 2167.0, 2167.0, 2167.0, 2167.0, 2167.0, 2168.0, 2167.0, 2167.0, 2167.0, 2167.0, 2167.0, 2167.0, 2167.0, 2167.0, 2167.0, 2167.0, 2167.0, 2167.0, 2167.0, 2167.0, 2167.0, 2167.0, 2167.0, 2167.0, 2167.0, 2169.0, 2167.0, 2167.0, 2169.0, 2167.0, 2167.0, 2168.0, 2166.0, 2167.0, 2168.0, 2167.0, 2167.0, 2167.0, 2167.0, 2167.0, 2167.0, 2167.0, 2167.0, 2167.0, 2167.0, 2167.0, 2168.0, 2167.0, 2167.0, 2167.0, 2168.0, 2167.0, 2167.0, 2168.0, 2167.0, 2167.0, 2167.0, 2167.0, 2167.0, 2168.0, 2167.0, 2167.0, 2167.0, 2167.0, 2168.0, 2167.0, 2168.0, 2167.0, 2168.0, 2168.0, 2167.0, 2167.0, 2167.0, 2167.0, 2168.0, 2167.0, 2168.0, 2167.0, 2167.0, 2167.0, 2167.0, 2168.0, 2167.0, 2167.0, 2167.0, 2168.0, 2167.0, 2167.0, 2167.0, 2167.0, 2167.0, 2167.0, 2167.0, 2168.0]
    },
    "slices": {}
  }
}