{
  "AcquisitionMatrixPE": 80,
  "AcquisitionNumber": 1,
  "AcquisitionTime": "09:03:7.487500",
  "BandwidthPerPixelPhaseEncode": 25,
  "BaseResolution": 80,
  "BodyPartExamined": "BRAIN",
  "CoilCombinationMethod": "Sum of Squares",
  "ConsistencyInfo": "N4_VE11C_LATEST_20160120",
  "ConversionSoftware": "dcm2niix",
  "ConversionSoftwareVersion": "v1.0.20220720",
  "DerivedVendorReportedEchoSpacing": 0.0005,
  "DeviceSerialNumber": "66112",
  "DwellTime": 2.7e-06,
  "EchoTime": 0.03,
  "EchoTrainLength": 80,
  "EffectiveEchoSpacing": 0.0005,
  "FlipAngle": 10,
  "HeudiconvVersion": "0.13.1",
  "ImageOrientationPatientDICOM": [0.987903, -0.155006, 0.00463575, 0.146233, 0.941105, 0.304857],
  "ImageOrientationText": "Tra>Cor(17.5)>Sag(3.0)",
  "ImageType": [
    "ORIGINAL",
    "PRIMARY",
    "M",
    "ND",
    "NORM",
    "MOSAIC"
],
  "ImagingFrequency": 123.252,
  "InPlanePhaseEncodingDirectionDICOM": "COL",
  "InstitutionAddress": "Maynard 3,Hanover,NH,US,03755",
  "InstitutionName": "Dartmouth College - PBS",
  "InstitutionalDepartmentName": "Department",
  "MRAcquisitionType": "2D",
  "MagneticFieldStrength": 3,
  "Manufacturer": "Siemens",
  "ManufacturersModelName": "Prisma",
  "MatrixCoilMode": "SENSE",
  "Modality": "MR",
  "NonlinearGradientCorrection": false,
  "PartialFourier": 1,
  "PatientPosition": "HFS",
  "PercentPhaseFOV": 100,
  "PercentSampling": 100,
  "PhaseEncodingDirection": "j-",
  "PhaseEncodingSteps": 80,
  "PhaseResolution": 1,
  "PixelBandwidth": 2315,
  "ProcedureStepDescription": "dbic^QA",
  "ProtocolName": "func-bold_fa-10",
  "PulseSequenceDetails": "%SiemensSeq%\\ep2d_bold",
  "ReceiveCoilActiveElements": "HEA;HEP",
  "ReceiveCoilName": "Head_32",
  "ReconMatrixPE": 80,
  "RepetitionTime": 2,
  "SAR": 0.0117207,
  "ScanOptions": "FS",
  "ScanningSequence": "EP",
  "SequenceName": "*epfid2d1_80",
  "SequenceVariant": "SK",
  "SeriesDescription": "func-bold_fa-10",
  "SeriesNumber": 10,
  "ShimSetting": [4147, -7696, -7514, 287, -64, -199, -6, 64],
  "SliceThickness": 3.5,
  "SliceTiming": [0.99, 0, 1.055, 0.065, 1.1225, 0.1325, 1.1875, 0.1975, 1.2525, 0.2625, 1.32, 0.33, 1.385, 0.395, 1.4525, 0.4625, 1.5175, 0.5275, 1.5825, 0.5925, 1.65, 0.66, 1.715, 0.725, 1.7825, 0.7925, 1.8475, 0.8575, 1.9125, 0.9225],
  "SoftwareVersions": "syngo MR E11",
  "SpacingBetweenSlices": 3.99,
  "StationName": "AWP66112",
  "TotalReadoutTime": 0.0395,
  "TxRefAmp": 230.86,
  "dcmmeta_affine": [
    [-2.963707685470581, 0.43869921565055847, 0.20595382153987885, 98.95723724365234],
    [0.46501922607421875, 2.8233141899108887, 1.198959231376648, -136.89608764648438],
    [0.013907242566347122, -0.9145707488059998, 3.8000235557556152, -19.65005111694336],
    [0.0, 0.0, 0.0, 1.0]
],
  "dcmmeta_reorient_transform": [
    [0.0, -1.0, 0.0, 79.0],
    [1.0, 0.0, 0.0, 0.0],
    [0.0, 0.0, 1.0, 0.0],
    [0.0, 0.0, 0.0, 1.0]
],
  "dcmmeta_shape": [80, 80, 30, 200],
  "dcmmeta_slice_dim": 2,
  "dcmmeta_version": 0.6,
  "global": {
    "const": {
      "AccessionNumber": "qa",
      "AcquisitionMatrix": [80, 0, 0, 80],
      "AngioFlag": "N",
      "BitsAllocated": 16,
      "BitsStored": 12,
      "BodyPartExamined": "BRAIN",
      "Columns": 480,
      "EchoNumbers": 1,
      "EchoTime": 30.0,
      "EchoTrainLength": 80,
      "FlipAngle": 10.0,
      "HighBit": 11,
      "ImageOrientationPatient": [0.987902587351, -0.1550064119657, 0.00463574748073, 0.1462330724497, 0.94110474834187, 0.30485691917737],
      "ImagePositionPatient": [-814.09587068562, -557.80473460963, -277.59674010492],
      "ImageType": [
        "ORIGINAL",
        "PRIMARY",
        "M",
        "ND",
        "NORM",
        "MOSAIC"
],
      "ImagedNucleus": "1H",
      "ImagingFrequency": 123.252415,
      "InPlanePhaseEncodingDirection": "COL",
      "MRAcquisitionType": "2D",
      "MagneticFieldStrength": 3.0,
      "Manufacturer": "SIEMENS",
      "ManufacturerModelName": "Prisma",
      "Modality": "MR",
      "NumberOfAverages": 1.0,
      "NumberOfPhaseEncodingSteps": 80,
      "PercentPhaseFieldOfView": 100.0,
      "PercentSampling": 100.0,
      "PerformedProcedureStepStartTime": "084050.347000",
      "PhotometricInterpretation": "MONOCHROME2",
      "PixelBandwidth": 2315.0,
      "PixelRepresentation": 0,
      "PixelSpacing": [3.0, 3.0],
      "ProtocolName": "func-bold_fa-10",
      "RepetitionTime": 2000.0,
      "Rows": 480,
      "SAR": 0.01172067563658,
      "SamplesPerPixel": 1,
      "ScanOptions": "FS",
      "ScanningSequence": "EP",
      "SequenceName": "*epfid2d1_80",
      "SequenceVariant": "SK",
      "SeriesDescription": "func-bold_fa-10",
      "SeriesNumber": 10,
      "SeriesTime": "090400.162000",
      "SliceLocation": -54.742573959078,
      "SliceThickness": 3.5,
      "SmallestImagePixelValue": 0,
      "SoftwareVersions": "syngo MR E11",
      "SpacingBetweenSlices": 3.9899999186841,
      "SpecificCharacterSet": "ISO_IR 100",
      "StudyID": "21",
      "StudyTime": "084050.266000",
      "TransmitCoilName": "Body",
      "VariableFlipAngleFlag": "N",
      "WindowCenterWidthExplanation": "Algo1",
      "dBdt": 0.0},
    "slices": {}
  },
  "time": {
    "samples": {
      "AcquisitionNumber": [1, 2, 3, 4, 5, 6, 7, 8, 9, 10, 11, 12, 13, 14, 15, 16, 17, 18, 19, 20, 21, 22, 23, 24, 25, 26, 27, 28, 29, 30, 31, 32, 33, 34, 35, 36, 37, 38, 39, 40, 41, 42, 43, 44, 45, 46, 47, 48, 49, 50, 51, 52, 53, 54, 55, 56, 57, 58, 59, 60, 61, 62, 63, 64, 65, 66, 67, 68, 69, 70, 71, 72, 73, 74, 75, 76, 77, 78, 79, 80, 81, 82, 83, 84, 85, 86, 87, 88, 89, 90, 91, 92, 93, 94, 95, 96, 97, 98, 99, 100, 101, 102, 103, 104, 105, 106, 107, 108, 109, 110, 111, 112, 113, 114, 115, 116, 117, 118, 119, 120, 121, 122, 123, 124, 125, 126, 127, 128, 129, 130, 131, 132, 133, 134, 135, 136, 137, 138, 139, 140, 141, 142, 143, 144, 145, 146, 147, 148, 149, 150, 151, 152, 153, 154, 155, 156, 157, 158, 159, 160, 161, 162, 163, 164, 165, 166, 167, 168, 169, 170, 171, 172, 173, 174, 175, 176, 177, 178, 179, 180, 181, 182, 183, 184, 185, 186, 187, 188, 189, 190, 191, 192, 193, 194, 195, 196, 197, 198, 199, 200],
      "AcquisitionTime": ["090307.487500", "090309.487500", "090311.487500", "090313.487500", "090315.487500", "090317.487500", "090319.487500", "090321.487500", "090323.487500", "090325.487500", "090327.487500", "090329.487500", "090331.487500", "090333.487500", "090335.487500", "090337.487500", "090339.487500", "090341.487500", "090343.487500", "090345.487500", "090347.487500", "090349.487500", "090351.487500", "090353.487500", "090355.487500", "090357.487500", "090359.487500", "090401.487500", "090403.487500", "090405.487500", "090407.487500", "090409.487500", "090411.487500", "090413.487500", "090415.487500", "090417.487500", "090419.487500", "090421.487500", "090423.487500", "090425.487500", "090427.487500", "090429.487500", "090431.487500", "090433.487500", "090435.487500", "090437.487500", "090439.487500", "090441.487500", "090443.487500", "090445.487500", "090447.487500", "090449.487500", "090451.487500", "090453.487500", "090455.487500", "090457.487500", "090459.487500", "090501.487500", "090503.487500", "090505.487500", "090507.487500", "090509.487500", "090511.487500", "090513.487500", "090515.487500", "090517.487500", "090519.487500", "090521.487500", "090523.487500", "090525.487500", "090527.487500", "090529.487500", "090531.487500", "090533.487500", "090535.487500", "090537.487500", "090539.487500", "090541.487500", "090543.487500", "090545.487500", "090547.487500", "090549.487500", "090551.487500", "090553.487500", "090555.487500", "090557.487500", "090559.487500", "090601.487500", "090603.487500", "090605.487500", "090607.487500", "090609.487500", "090611.487500", "090613.487500", "090615.487500", "090617.487500", "090619.487500", "090621.487500", "090623.487500", "090625.487500", "090627.487500", "090629.487500", "090631.487500", "090633.487500", "090635.487500", "090637.487500", "090639.487500", "090641.487500", "090643.487500", "090645.487500", "090647.487500", "090649.487500", "090651.487500", "090653.487500", "090655.487500", "090657.487500", "090659.487500", "090701.487500", "090703.487500", "090705.487500", "090707.487500", "090709.487500", "090711.487500", "090713.487500", "090715.487500", "090717.487500", "090719.487500", "090721.487500", "090723.487500", "090725.487500", "090727.487500", "090729.487500", "090731.487500", "090733.487500", "090735.487500", "090737.487500", "090739.487500", "090741.487500", "090743.487500", "090745.487500", "090747.487500", "090749.487500", "090751.487500", "090753.487500", "090755.487500", "090757.487500", "090759.487500", "090801.487500", "090803.487500", "090805.487500", "090807.487500", "090809.487500", "090811.487500", "090813.487500", "090815.487500", "090817.487500", "090819.487500", "090821.487500", "090823.487500", "090825.487500", "090827.487500", "090829.487500", "090831.487500", "090833.487500", "090835.487500", "090837.487500", "090839.487500", "090841.487500", "090843.487500", "090845.487500", "090847.487500", "090849.487500", "090851.487500", "090853.487500", "090855.487500", "090857.487500", "090859.487500", "090901.487500", "090903.487500", "090905.487500", "090907.487500", "090909.487500", "090911.487500", "090913.487500", "090915.487500", "090917.487500", "090919.487500", "090921.487500", "090923.487500", "090925.487500", "090927.487500", "090929.487500", "090931.487500", "090933.487500", "090935.487500", "090937.487500", "090939.487500", "090941.487500", "090943.487500", "090945.487500"],
      "ContentTime": ["090400.165000", "090400.168000", "090400.171000", "090400.174000", "090400.176000", "090400.179000", "090400.182000", "090400.184000", "090400.186000", "090400.199000", "090400.202000", "090400.204000", "090400.207000", "090400.209000", "090400.212000", "090400.214000", "090400.217000", "090400.219000", "090400.222000", "090400.224000", "090400.227000", "090400.240000", "090400.243000", "090400.246000", "090400.248000", "090400.251000", "090440.159000", "090440.162000", "090440.165000", "090440.167000", "090440.170000", "090440.172000", "090440.175000", "090440.177000", "090440.180000", "090440.182000", "090440.185000", "090440.187000", "090440.190000", "090440.193000", "090440.195000", "090440.198000", "090440.200000", "090440.203000", "090440.205000", "090440.208000", "090520.160000", "090520.163000", "090520.166000", "090520.168000", "090520.170000", "090520.173000", "090520.175000", "090520.178000", "090520.180000", "090520.183000", "090520.185000", "090520.188000", "090520.190000", "090520.193000", "090520.195000", "090520.198000", "090520.200000", "090520.203000", "090520.205000", "090520.207000", "090600.160000", "090600.163000", "090600.166000", "090600.168000", "090600.181000", "090600.183000", "090600.186000", "090600.188000", "090600.191000", "090600.193000", "090600.195000", "090600.198000", "090600.201000", "090600.203000", "090600.205000", "090600.208000", "090600.210000", "090600.213000", "090600.215000", "090600.218000", "090640.160000", "090640.162000", "090640.165000", "090640.167000", "090640.170000", "090640.172000", "090640.175000", "090640.177000", "090640.180000", "090640.182000", "090640.185000", "090640.187000", "090640.190000", "090640.192000", "090640.195000", "090640.197000", "090640.200000", "090640.202000", "090640.205000", "090640.207000", "090720.160000", "090720.163000", "090720.166000", "090720.168000", "090720.171000", "090720.173000", "090720.176000", "090720.178000", "090720.181000", "090720.183000", "090720.186000", "090720.188000", "090720.191000", "090720.193000", "090720.196000", "090720.198000", "090720.201000", "090720.203000", "090720.206000", "090720.208000", "090800.160000", "090800.163000", "090800.166000", "090800.168000", "090800.171000", "090800.173000", "090800.175000", "090800.178000", "090800.181000", "090800.183000", "090800.186000", "090800.188000", "090800.191000", "090800.193000", "090800.195000", "090800.198000", "090800.200000", "090800.203000", "090800.205000", "090800.208000", "090840.160000", "090840.163000", "090840.166000", "090840.168000", "090840.171000", "090840.173000", "090840.175000", "090840.178000", "090840.180000", "090840.183000", "090840.185000", "090840.188000", "090840.190000", "090840.193000", "090840.195000", "090840.198000", "090840.200000", "090840.203000", "090840.205000", "090840.208000", "090920.159000", "090920.162000", "090920.165000", "090920.167000", "090920.170000", "090920.172000", "090920.175000", "090920.177000", "090920.180000", "090920.182000", "090920.185000", "090920.187000", "090920.190000", "090920.192000", "090920.195000", "090920.197000", "090920.200000", "090920.202000", "090920.205000", "090920.207000", "090947.217000", "090947.220000", "090947.222000", "090947.225000", "090947.227000", "090947.230000", "090947.232000", "090947.235000", "090947.237000", "090947.240000", "090947.242000", "090947.245000", "090947.247000", "090947.255000"],
      "InstanceCreationTime": ["090400.165000", "090400.168000", "090400.171000", "090400.174000", "090400.176000", "090400.179000", "090400.182000", "090400.184000", "090400.186000", "090400.199000", "090400.202000", "090400.204000", "090400.207000", "090400.209000", "090400.212000", "090400.214000", "090400.217000", "090400.219000", "090400.222000", "090400.224000", "090400.227000", "090400.240000", "090400.243000", "090400.246000", "090400.248000", "090400.251000", "090440.159000", "090440.162000", "090440.165000", "090440.167000", "090440.170000", "090440.172000", "090440.175000", "090440.177000", "090440.180000", "090440.182000", "090440.185000", "090440.187000", "090440.190000", "090440.193000", "090440.195000", "090440.198000", "090440.200000", "090440.203000", "090440.205000", "090440.208000", "090520.160000", "090520.163000", "090520.166000", "090520.168000", "090520.170000", "090520.173000", "090520.175000", "090520.178000", "090520.180000", "090520.183000", "090520.185000", "090520.188000", "090520.190000", "090520.193000", "090520.195000", "090520.198000", "090520.200000", "090520.203000", "090520.205000", "090520.207000", "090600.160000", "090600.163000", "090600.166000", "090600.168000", "090600.181000", "090600.183000", "090600.186000", "090600.188000", "090600.191000", "090600.193000", "090600.195000", "090600.198000", "090600.201000", "090600.203000", "090600.205000", "090600.208000", "090600.210000", "090600.213000", "090600.215000", "090600.218000", "090640.160000", "090640.162000", "090640.165000", "090640.167000", "090640.170000", "090640.172000", "090640.175000", "090640.177000", "090640.180000", "090640.182000", "090640.185000", "090640.187000", "090640.190000", "090640.192000", "090640.195000", "090640.197000", "090640.200000", "090640.202000", "090640.205000", "090640.207000", "090720.160000", "090720.163000", "090720.166000", "090720.168000", "090720.171000", "090720.173000", "090720.176000", "090720.178000", "090720.181000", "090720.183000", "090720.186000", "090720.188000", "090720.191000", "090720.193000", "090720.196000", "090720.198000", "090720.201000", "090720.203000", "090720.206000", "090720.208000", "090800.160000", "090800.163000", "090800.166000", "090800.168000", "090800.171000", "090800.173000", "090800.175000", "090800.178000", "090800.181000", "090800.183000", "090800.186000", "090800.188000", "090800.191000", "090800.193000", "090800.195000", "090800.198000", "090800.200000", "090800.203000", "090800.205000", "090800.208000", "090840.160000", "090840.163000", "090840.166000", "090840.168000", "090840.171000", "090840.173000", "090840.175000", "090840.178000", "090840.180000", "090840.183000", "090840.185000", "090840.188000", "090840.190000", "090840.193000", "090840.195000", "090840.198000", "090840.200000", "090840.203000", "090840.205000", "090840.208000", "090920.159000", "090920.162000", "090920.165000", "090920.167000", "090920.170000", "090920.172000", "090920.175000", "090920.177000", "090920.180000", "090920.182000", "090920.185000", "090920.187000", "090920.190000", "090920.192000", "090920.195000", "090920.197000", "090920.200000", "090920.202000", "090920.205000", "090920.207000", "090947.217000", "090947.220000", "090947.222000", "090947.225000", "090947.227000", "090947.230000", "090947.232000", "090947.235000", "090947.237000", "090947.240000", "090947.242000", "090947.245000", "090947.247000", "090947.255000"],
      "InstanceNumber": [1, 2, 3, 4, 5, 6, 7, 8, 9, 10, 11, 12, 13, 14, 15, 16, 17, 18, 19, 20, 21, 22, 23, 24, 25, 26, 27, 28, 29, 30, 31, 32, 33, 34, 35, 36, 37, 38, 39, 40, 41, 42, 43, 44, 45, 46, 47, 48, 49, 50, 51, 52, 53, 54, 55, 56, 57, 58, 59, 60, 61, 62, 63, 64, 65, 66, 67, 68, 69, 70, 71, 72, 73, 74, 75, 76, 77, 78, 79, 80, 81, 82, 83, 84, 85, 86, 87, 88, 89, 90, 91, 92, 93, 94, 95, 96, 97, 98, 99, 100, 101, 102, 103, 104, 105, 106, 107, 108, 109, 110, 111, 112, 113, 114, 115, 116, 117, 118, 119, 120, 121, 122, 123, 124, 125, 126, 127, 128, 129, 130, 131, 132, 133, 134, 135, 136, 137, 138, 139, 140, 141, 142, 143, 144, 145, 146, 147, 148, 149, 150, 151, 152, 153, 154, 155, 156, 157, 158, 159, 160, 161, 162, 163, 164, 165, 166, 167, 168, 169, 170, 171, 172, 173, 174, 175, 176, 177, 178, 179, 180, 181, 182, 183, 184, 185, 186, 187, 188, 189, 190, 191, 192, 193, 194, 195, 196, 197, 198, 199, 200],
      "LargestImagePixelValue": [333, 331, 331, 331, 331, 331, 331, 332, 332, 332, 330, 331, 332, 331, 332, 331, 332, 333, 332, 333, 332, 331, 332, 331, 331, 331, 332, 333, 331, 332, 332, 332, 332, 333, 332, 331, 332, 332, 332, 331, 331, 331, 330, 332, 332, 333, 331, 332, 331, 331, 332, 332, 333, 331, 331, 331, 333, 330, 331, 331, 333, 331, 332, 331, 331, 331, 331, 332, 331, 333, 332, 331, 332, 330, 330, 332, 331, 332, 331, 332, 331, 332, 330, 331, 331, 332, 331, 332, 331, 331, 330, 331, 331, 331, 331, 331, 330, 330, 331, 332, 332, 333, 331, 331, 333, 332, 332, 332, 334, 332, 331, 332, 333, 332, 332, 330, 330, 331, 332, 331, 331, 331, 332, 332, 333, 332, 332, 331, 332, 331, 331, 332, 330, 331, 331, 332, 331, 332, 331, 332, 331, 330, 330, 332, 331, 331, 330, 332, 331, 332, 331, 330, 332, 330, 331, 333, 330, 331, 331, 330, 330, 331, 331, 331, 331, 332, 331, 332, 331, 332, 331, 331, 330, 332, 331, 332, 331, 331, 330, 333, 332, 332, 331, 331, 331, 331, 330, 331, 332, 331, 330, 332, 332, 332, 332, 331, 331, 331, 332, 332],
      "WindowCenter": [281.0, 281.0, 280.0, 280.0, 280.0, 280.0, 280.0, 280.0, 280.0, 280.0, 280.0, 280.0, 280.0, 280.0, 280.0, 280.0, 280.0, 280.0, 280.0, 280.0, 280.0, 280.0, 280.0, 280.0, 280.0, 280.0, 280.0, 280.0, 280.0, 280.0, 280.0, 280.0, 280.0, 280.0, 280.0, 280.0, 280.0, 280.0, 280.0, 280.0, 280.0, 280.0, 280.0, 280.0, 280.0, 280.0, 280.0, 280.0, 280.0, 280.0, 280.0, 280.0, 280.0, 280.0, 280.0, 280.0, 280.0, 280.0, 280.0, 280.0, 280.0, 280.0, 280.0, 280.0, 280.0, 280.0, 280.0, 280.0, 280.0, 280.0, 280.0, 280.0, 280.0, 280.0, 280.0, 280.0, 280.0, 280.0, 280.0, 280.0, 280.0, 280.0, 280.0, 280.0, 280.0, 280.0, 280.0, 280.0, 280.0, 280.0, 280.0, 280.0, 280.0, 280.0, 280.0, 280.0, 280.0, 280.0, 280.0, 280.0, 280.0, 280.0, 280.0, 280.0, 280.0, 280.0, 280.0, 280.0, 280.0, 280.0, 280.0, 280.0, 280.0, 280.0, 280.0, 280.0, 280.0, 280.0, 280.0, 280.0, 280.0, 280.0, 280.0, 280.0, 280.0, 280.0, 280.0, 280.0, 280.0, 280.0, 280.0, 280.0, 280.0, 280.0, 280.0, 280.0, 280.0, 280.0, 280.0, 280.0, 280.0, 280.0, 280.0, 280.0, 280.0, 280.0, 280.0, 280.0, 280.0, 280.0, 280.0, 280.0, 280.0, 280.0, 280.0, 280.0, 280.0, 280.0, 280.0, 280.0, 280.0, 280.0, 280.0, 280.0, 280.0, 280.0, 280.0, 280.0, 280.0, 280.0, 280.0, 280.0, 280.0, 280.0, 280.0, 280.0, 280.0, 280.0, 280.0, 280.0, 280.0, 280.0, 280.0, 280.0, 280.0, 280.0, 280.0, 280.0, 280.0, 280.0, 280.0, 280.0, 280.0, 280.0, 280.0, 280.0, 280.0, 280.0, 280.0, 280.0],
      "WindowWidth": [613.0, 613.0, 612.0, 612.0, 612.0, 612.0, 612.0, 612.0, 612.0, 612.0, 612.0, 612.0, 612.0, 612.0, 612.0, 612.0, 612.0, 612.0, 612.0, 612.0, 612.0, 612.0, 612.0, 612.0, 612.0, 612.0, 612.0, 612.0, 612.0, 612.0, 612.0, 612.0, 612.0, 612.0, 612.0, 612.0, 612.0, 612.0, 612.0, 612.0, 612.0, 612.0, 612.0, 612.0, 612.0, 612.0, 612.0, 612.0, 612.0, 612.0, 612.0, 612.0, 612.0, 612.0, 612.0, 612.0, 612.0, 612.0, 612.0, 612.0, 612.0, 612.0, 612.0, 612.0, 612.0, 612.0, 612.0, 612.0, 612.0, 612.0, 612.0, 612.0, 612.0, 612.0, 612.0, 612.0, 612.0, 612.0, 612.0, 612.0, 612.0, 612.0, 612.0, 612.0, 612.0, 612.0, 612.0, 612.0, 612.0, 612.0, 612.0, 612.0, 612.0, 612.0, 612.0, 612.0, 612.0, 612.0, 612.0, 612.0, 612.0, 612.0, 612.0, 612.0, 612.0, 612.0, 612.0, 611.0, 612.0, 612.0, 612.0, 612.0, 612.0, 612.0, 612.0, 612.0, 612.0, 612.0, 612.0, 612.0, 612.0, 612.0, 612.0, 612.0, 612.0, 612.0, 612.0, 612.0, 612.0, 612.0, 612.0, 612.0, 612.0, 612.0, 612.0, 612.0, 612.0, 612.0, 612.0, 612.0, 612.0, 612.0, 612.0, 612.0, 612.0, 611.0, 612.0, 612.0, 612.0, 612.0, 612.0, 612.0, 612.0, 612.0, 612.0, 612.0, 612.0, 612.0, 612.0, 612.0, 612.0, 612.0, 612.0, 612.0, 612.0, 612.0, 612.0, 612.0, 612.0, 612.0, 612.0, 612.0, 612.0, 612.0, 612.0, 611.0, 612.0, 612.0, 612.0, 612.0, 612.0, 612.0, 612.0, 611.0, 612.0, 612.0, 612.0, 612.0, 612.0, 612.0, 612.0, 611.0, 612.0, 612.0, 611.0, 611.0, 611.0, 611.0, 612.0, 611.0]
    },
    "slices": {}
  }
}