{
  "AcquisitionMatrixPE": 80,
  "AcquisitionNumber": 1,
  "AcquisitionTime": "08:02:46.200000",
  "BandwidthPerPixelPhaseEncode": 48.077,
  "BaseResolution": 80,
  "BodyPartExamined": "BRAIN",
  "CoilCombinationMethod": "Sum of Squares",
  "ConsistencyInfo": "N4_VE11C_LATEST_20160120",
  "ConversionSoftware": "dcm2niix",
  "ConversionSoftwareVersion": "v1.0.20220720",
  "DerivedVendorReportedEchoSpacing": 0.000519999,
  "DeviceSerialNumber": "66112",
  "DwellTime": 2.7e-06,
  "EchoTime": 0.035,
  "EchoTrainLength": 39,
  "EffectiveEchoSpacing": 0.00026,
  "FlipAngle": 90,
  "HeudiconvVersion": "0.13.1",
  "ImageOrientationPatientDICOM": [0.999976, 0.00210496, 0.00655844, -0.00383968, 0.960847, 0.277054],
  "ImageOrientationText": "Tra>Cor(16.1)>Sag(0.3)",
  "ImageType": [
    "ORIGINAL",
    "PRIMARY",
    "M",
    "ND",
    "NORM",
    "MOSAIC"
],
  "ImagingFrequency": 123.252,
  "InPlanePhaseEncodingDirectionDICOM": "COL",
  "InstitutionAddress": "Maynard 3,Hanover,NH,US,03755",
  "InstitutionName": "Dartmouth College - PBS",
  "InstitutionalDepartmentName": "Department",
  "MRAcquisitionType": "2D",
  "MagneticFieldStrength": 3,
  "Manufacturer": "Siemens",
  "ManufacturersModelName": "Prisma",
  "MatrixCoilMode": "GRAPPA",
  "Modality": "MR",
  "NonlinearGradientCorrection": false,
  "ParallelReductionFactorInPlane": 2,
  "PartialFourier": 1,
  "PatientPosition": "HFS",
  "PercentPhaseFOV": 100,
  "PercentSampling": 100,
  "PhaseEncodingDirection": "j-",
  "PhaseEncodingSteps": 79,
  "PhaseResolution": 1,
  "PixelBandwidth": 2315,
  "ProcedureStepDescription": "dbic^QA",
  "ProtocolName": "func-bold_task-rest_acq-p2",
  "PulseSequenceDetails": "%SiemensSeq%\\ep2d_bold",
  "ReceiveCoilActiveElements": "HC1-7;NC1,2",
  "ReceiveCoilName": "HeadNeck_64",
  "ReconMatrixPE": 80,
  "RefLinesPE": 24,
  "RepetitionTime": 2,
  "SAR": 0.0361585,
  "ScanOptions": "FS",
  "ScanningSequence": "EP",
  "SequenceName": "*epfid2d1_80",
  "SequenceVariant": "SK",
  "SeriesDescription": "func-bold_task-rest_acq-p2",
  "SeriesNumber": 5,
  "ShimSetting": [4139, -7694, -7517, 207, -67, -225, -70, 96],
  "SliceThickness": 3.5,
  "SliceTiming": [0.99, 0, 1.055, 0.065, 1.1225, 0.1325, 1.1875, 0.1975, 1.2525, 0.2625, 1.32, 0.33, 1.385, 0.395, 1.4525, 0.4625, 1.5175, 0.5275, 1.5825, 0.5925, 1.65, 0.66, 1.715, 0.725, 1.7825, 0.7925, 1.8475, 0.8575, 1.9125, 0.9225],
  "SoftwareVersions": "syngo MR E11",
  "SpacingBetweenSlices": 3.99,
  "StationName": "AWP66112",
  "TaskName": "rest",
  "TotalReadoutTime": 0.02054,
  "TxRefAmp": 212.016,
  "dcmmeta_affine": [
    [-2.9999289512634277, -0.011519049294292927, 0.022816671058535576, 122.11962890625],
    [-0.006314894650131464, 2.882539749145508, 1.1055208444595337, -124.90895080566406],
    [0.01967531628906727, -0.8311628699302673, 3.833719253540039, -28.326772689819336],
    [0.0, 0.0, 0.0, 1.0]
],
  "dcmmeta_reorient_transform": [
    [0.0, -1.0, 0.0, 79.0],
    [1.0, 0.0, 0.0, 0.0],
    [0.0, 0.0, 1.0, 0.0],
    [0.0, 0.0, 0.0, 1.0]
],
  "dcmmeta_shape": [80, 80, 30, 200],
  "dcmmeta_slice_dim": 2,
  "dcmmeta_version": 0.6,
  "global": {
    "const": {
      "AccessionNumber": "qa64",
      "AcquisitionMatrix": [80, 0, 0, 80],
      "AngioFlag": "N",
      "BitsAllocated": 16,
      "BitsStored": 12,
      "BodyPartExamined": "BRAIN",
      "Columns": 480,
      "EchoNumbers": 1,
      "EchoTime": 35.0,
      "EchoTrainLength": 39,
      "FlipAngle": 90.0,
      "HighBit": 11,
      "ImageOrientationPatient": [0.99997627771963, 0.0021049648141, 0.00655843892466, -0.0038396830498, 0.96084659150389, 0.27705429870233],
      "ImagePositionPatient": [-718.89157976402, -680.58262596583, -264.15628354871],
      "ImageType": [
        "ORIGINAL",
        "PRIMARY",
        "M",
        "ND",
        "NORM",
        "MOSAIC"
],
      "ImagedNucleus": "1H",
      "ImagingFrequency": 123.252339,
      "InPlanePhaseEncodingDirection": "COL",
      "MRAcquisitionType": "2D",
      "MagneticFieldStrength": 3.0,
      "Manufacturer": "SIEMENS",
      "ManufacturerModelName": "Prisma",
      "Modality": "MR",
      "NumberOfAverages": 1.0,
      "NumberOfPhaseEncodingSteps": 79,
      "PercentPhaseFieldOfView": 100.0,
      "PercentSampling": 100.0,
      "PerformedProcedureStepStartTime": "075720.519000",
      "PhotometricInterpretation": "MONOCHROME2",
      "PixelBandwidth": 2315.0,
      "PixelRepresentation": 0,
      "PixelSpacing": [3.0, 3.0],
      "ProtocolName": "func-bold_task-rest_acq-p2",
      "RepetitionTime": 2000.0,
      "Rows": 480,
      "SAR": 0.03615847645003,
      "SamplesPerPixel": 1,
      "ScanOptions": "FS",
      "ScanningSequence": "EP",
      "SequenceName": "*epfid2d1_80",
      "SequenceVariant": "SK",
      "SeriesDescription": "func-bold_task-rest_acq-p2",
      "SeriesNumber": 5,
      "SeriesTime": "080322.509000",
      "SliceLocation": -61.127815166624,
      "SliceThickness": 3.5,
      "SmallestImagePixelValue": 0,
      "SoftwareVersions": "syngo MR E11",
      "SpacingBetweenSlices": 3.9899999857046,
      "SpecificCharacterSet": "ISO_IR 100",
      "StudyID": "10",
      "StudyTime": "075720.456000",
      "TransmitCoilName": "Body",
      "VariableFlipAngleFlag": "N",
      "WindowCenterWidthExplanation": "Algo1",
      "dBdt": 0.0},
    "slices": {}
  },
  "time": {
    "samples": {
      "AcquisitionNumber": [1, 2, 3, 4, 5, 6, 7, 8, 9, 10, 11, 12, 13, 14, 15, 16, 17, 18, 19, 20, 21, 22, 23, 24, 25, 26, 27, 28, 29, 30, 31, 32, 33, 34, 35, 36, 37, 38, 39, 40, 41, 42, 43, 44, 45, 46, 47, 48, 49, 50, 51, 52, 53, 54, 55, 56, 57, 58, 59, 60, 61, 62, 63, 64, 65, 66, 67, 68, 69, 70, 71, 72, 73, 74, 75, 76, 77, 78, 79, 80, 81, 82, 83, 84, 85, 86, 87, 88, 89, 90, 91, 92, 93, 94, 95, 96, 97, 98, 99, 100, 101, 102, 103, 104, 105, 106, 107, 108, 109, 110, 111, 112, 113, 114, 115, 116, 117, 118, 119, 120, 121, 122, 123, 124, 125, 126, 127, 128, 129, 130, 131, 132, 133, 134, 135, 136, 137, 138, 139, 140, 141, 142, 143, 144, 145, 146, 147, 148, 149, 150, 151, 152, 153, 154, 155, 156, 157, 158, 159, 160, 161, 162, 163, 164, 165, 166, 167, 168, 169, 170, 171, 172, 173, 174, 175, 176, 177, 178, 179, 180, 181, 182, 183, 184, 185, 186, 187, 188, 189, 190, 191, 192, 193, 194, 195, 196, 197, 198, 199, 200],
      "AcquisitionTime": ["080246.200000", "080248.200000", "080250.200000", "080252.200000", "080254.200000", "080256.200000", "080258.200000", "080300.200000", "080302.200000", "080304.200000", "080306.200000", "080308.200000", "080310.200000", "080312.200000", "080314.200000", "080316.200000", "080318.200000", "080320.200000", "080322.200000", "080324.200000", "080326.200000", "080328.200000", "080330.200000", "080332.200000", "080334.200000", "080336.200000", "080338.200000", "080340.200000", "080342.200000", "080344.200000", "080346.200000", "080348.200000", "080350.200000", "080352.200000", "080354.200000", "080356.200000", "080358.200000", "080400.200000", "080402.200000", "080404.200000", "080406.200000", "080408.200000", "080410.200000", "080412.200000", "080414.200000", "080416.200000", "080418.200000", "080420.200000", "080422.200000", "080424.200000", "080426.200000", "080428.200000", "080430.200000", "080432.200000", "080434.200000", "080436.200000", "080438.200000", "080440.200000", "080442.200000", "080444.200000", "080446.200000", "080448.200000", "080450.200000", "080452.200000", "080454.200000", "080456.200000", "080458.200000", "080500.200000", "080502.200000", "080504.200000", "080506.200000", "080508.200000", "080510.200000", "080512.200000", "080514.200000", "080516.200000", "080518.200000", "080520.200000", "080522.200000", "080524.200000", "080526.200000", "080528.200000", "080530.200000", "080532.200000", "080534.200000", "080536.200000", "080538.200000", "080540.200000", "080542.200000", "080544.200000", "080546.200000", "080548.200000", "080550.200000", "080552.200000", "080554.200000", "080556.200000", "080558.200000", "080600.200000", "080602.200000", "080604.200000", "080606.200000", "080608.200000", "080610.200000", "080612.200000", "080614.200000", "080616.200000", "080618.200000", "080620.200000", "080622.200000", "080624.200000", "080626.200000", "080628.200000", "080630.200000", "080632.200000", "080634.200000", "080636.200000", "080638.200000", "080640.200000", "080642.200000", "080644.200000", "080646.200000", "080648.200000", "080650.200000", "080652.200000", "080654.200000", "080656.200000", "080658.200000", "080700.200000", "080702.200000", "080704.200000", "080706.200000", "080708.200000", "080710.200000", "080712.200000", "080714.200000", "080716.200000", "080718.200000", "080720.200000", "080722.200000", "080724.200000", "080726.200000", "080728.200000", "080730.200000", "080732.200000", "080734.200000", "080736.200000", "080738.200000", "080740.200000", "080742.200000", "080744.200000", "080746.200000", "080748.200000", "080750.200000", "080752.200000", "080754.200000", "080756.200000", "080758.200000", "080800.200000", "080802.200000", "080804.200000", "080806.200000", "080808.200000", "080810.200000", "080812.200000", "080814.200000", "080816.200000", "080818.200000", "080820.200000", "080822.200000", "080824.200000", "080826.200000", "080828.200000", "080830.200000", "080832.200000", "080834.200000", "080836.200000", "080838.200000", "080840.200000", "080842.200000", "080844.200000", "080846.200000", "080848.200000", "080850.200000", "080852.200000", "080854.200000", "080856.200000", "080858.200000", "080900.200000", "080902.200000", "080904.200000", "080906.200000", "080908.200000", "080910.200000", "080912.200000", "080914.200000", "080916.200000", "080918.200000", "080920.200000", "080922.200000", "080924.200000"],
      "ContentTime": ["080322.513000", "080322.517000", "080322.519000", "080322.522000", "080322.524000", "080322.527000", "080322.529000", "080322.532000", "080322.534000", "080322.537000", "080322.539000", "080322.542000", "080322.544000", "080322.547000", "080322.549000", "080322.552000", "080322.554000", "080322.557000", "080402.508000", "080402.510000", "080402.513000", "080402.516000", "080402.518000", "080402.521000", "080402.523000", "080402.526000", "080402.529000", "080402.531000", "080402.534000", "080402.536000", "080402.545000", "080402.548000", "080402.550000", "080402.553000", "080402.555000", "080402.558000", "080402.560000", "080402.563000", "080442.508000", "080442.510000", "080442.513000", "080442.515000", "080442.518000", "080442.521000", "080442.523000", "080442.526000", "080442.529000", "080442.532000", "080442.534000", "080442.537000", "080442.539000", "080442.542000", "080442.544000", "080442.547000", "080442.549000", "080442.552000", "080442.565000", "080442.568000", "080522.507000", "080522.510000", "080522.513000", "080522.515000", "080522.518000", "080522.521000", "080522.523000", "080522.526000", "080522.528000", "080522.531000", "080522.533000", "080522.536000", "080522.538000", "080522.541000", "080522.543000", "080522.546000", "080522.548000", "080522.551000", "080522.553000", "080522.556000", "080602.507000", "080602.509000", "080602.512000", "080602.515000", "080602.526000", "080602.530000", "080602.532000", "080602.535000", "080602.537000", "080602.540000", "080602.542000", "080602.545000", "080602.547000", "080602.550000", "080602.552000", "080602.555000", "080602.557000", "080602.560000", "080602.562000", "080602.565000", "080642.508000", "080642.510000", "080642.513000", "080642.516000", "080642.518000", "080642.521000", "080642.523000", "080642.526000", "080642.528000", "080642.531000", "080642.533000", "080642.536000", "080642.538000", "080642.541000", "080642.543000", "080642.546000", "080642.548000", "080642.551000", "080642.553000", "080642.556000", "080722.507000", "080722.510000", "080722.513000", "080722.515000", "080722.518000", "080722.520000", "080722.523000", "080722.526000", "080722.528000", "080722.531000", "080722.533000", "080722.536000", "080722.538000", "080722.541000", "080722.550000", "080722.553000", "080722.555000", "080722.558000", "080722.561000", "080722.563000", "080802.508000", "080802.510000", "080802.513000", "080802.516000", "080802.518000", "080802.521000", "080802.523000", "080802.526000", "080802.528000", "080802.531000", "080802.533000", "080802.536000", "080802.538000", "080802.541000", "080802.543000", "080802.546000", "080802.548000", "080802.551000", "080802.554000", "080802.556000", "080842.508000", "080842.510000", "080842.513000", "080842.516000", "080842.518000", "080842.521000", "080842.523000", "080842.526000", "080842.528000", "080842.531000", "080842.533000", "080842.536000", "080842.538000", "080842.541000", "080842.543000", "080842.546000", "080842.549000", "080842.551000", "080842.554000", "080842.556000", "080922.507000", "080922.510000", "080922.513000", "080922.515000", "080922.518000", "080922.530000", "080922.532000", "080922.535000", "080922.537000", "080922.540000", "080922.543000", "080922.545000", "080922.548000", "080922.550000", "080922.553000", "080922.555000", "080922.558000", "080922.560000", "080922.563000", "080922.565000", "080925.424000", "080925.427000"],
      "InstanceCreationTime": ["080322.513000", "080322.517000", "080322.519000", "080322.522000", "080322.524000", "080322.527000", "080322.529000", "080322.532000", "080322.534000", "080322.537000", "080322.539000", "080322.542000", "080322.544000", "080322.547000", "080322.549000", "080322.552000", "080322.554000", "080322.557000", "080402.508000", "080402.510000", "080402.513000", "080402.516000", "080402.518000", "080402.521000", "080402.523000", "080402.526000", "080402.529000", "080402.531000", "080402.534000", "080402.536000", "080402.545000", "080402.548000", "080402.550000", "080402.553000", "080402.555000", "080402.558000", "080402.560000", "080402.563000", "080442.508000", "080442.510000", "080442.513000", "080442.515000", "080442.518000", "080442.521000", "080442.523000", "080442.526000", "080442.529000", "080442.532000", "080442.534000", "080442.537000", "080442.539000", "080442.542000", "080442.544000", "080442.547000", "080442.549000", "080442.552000", "080442.565000", "080442.568000", "080522.507000", "080522.510000", "080522.513000", "080522.515000", "080522.518000", "080522.521000", "080522.523000", "080522.526000", "080522.528000", "080522.531000", "080522.533000", "080522.536000", "080522.538000", "080522.541000", "080522.543000", "080522.546000", "080522.548000", "080522.551000", "080522.553000", "080522.556000", "080602.507000", "080602.509000", "080602.512000", "080602.515000", "080602.526000", "080602.530000", "080602.532000", "080602.535000", "080602.537000", "080602.540000", "080602.542000", "080602.545000", "080602.547000", "080602.550000", "080602.552000", "080602.555000", "080602.557000", "080602.560000", "080602.562000", "080602.565000", "080642.508000", "080642.510000", "080642.513000", "080642.516000", "080642.518000", "080642.521000", "080642.523000", "080642.526000", "080642.528000", "080642.531000", "080642.533000", "080642.536000", "080642.538000", "080642.541000", "080642.543000", "080642.546000", "080642.548000", "080642.551000", "080642.553000", "080642.556000", "080722.507000", "080722.510000", "080722.513000", "080722.515000", "080722.518000", "080722.520000", "080722.523000", "080722.526000", "080722.528000", "080722.531000", "080722.533000", "080722.536000", "080722.538000", "080722.541000", "080722.550000", "080722.553000", "080722.555000", "080722.558000", "080722.561000", "080722.563000", "080802.508000", "080802.510000", "080802.513000", "080802.516000", "080802.518000", "080802.521000", "080802.523000", "080802.526000", "080802.528000", "080802.531000", "080802.533000", "080802.536000", "080802.538000", "080802.541000", "080802.543000", "080802.546000", "080802.548000", "080802.551000", "080802.554000", "080802.556000", "080842.508000", "080842.510000", "080842.513000", "080842.516000", "080842.518000", "080842.521000", "080842.523000", "080842.526000", "080842.528000", "080842.531000", "080842.533000", "080842.536000", "080842.538000", "080842.541000", "080842.543000", "080842.546000", "080842.549000", "080842.551000", "080842.554000", "080842.556000", "080922.507000", "080922.510000", "080922.513000", "080922.515000", "080922.518000", "080922.530000", "080922.532000", "080922.535000", "080922.537000", "080922.540000", "080922.543000", "080922.545000", "080922.548000", "080922.550000", "080922.553000", "080922.555000", "080922.558000", "080922.560000", "080922.563000", "080922.565000", "080925.424000", "080925.427000"],
      "InstanceNumber": [1, 2, 3, 4, 5, 6, 7, 8, 9, 10, 11, 12, 13, 14, 15, 16, 17, 18, 19, 20, 21, 22, 23, 24, 25, 26, 27, 28, 29, 30, 31, 32, 33, 34, 35, 36, 37, 38, 39, 40, 41, 42, 43, 44, 45, 46, 47, 48, 49, 50, 51, 52, 53, 54, 55, 56, 57, 58, 59, 60, 61, 62, 63, 64, 65, 66, 67, 68, 69, 70, 71, 72, 73, 74, 75, 76, 77, 78, 79, 80, 81, 82, 83, 84, 85, 86, 87, 88, 89, 90, 91, 92, 93, 94, 95, 96, 97, 98, 99, 100, 101, 102, 103, 104, 105, 106, 107, 108, 109, 110, 111, 112, 113, 114, 115, 116, 117, 118, 119, 120, 121, 122, 123, 124, 125, 126, 127, 128, 129, 130, 131, 132, 133, 134, 135, 136, 137, 138, 139, 140, 141, 142, 143, 144, 145, 146, 147, 148, 149, 150, 151, 152, 153, 154, 155, 156, 157, 158, 159, 160, 161, 162, 163, 164, 165, 166, 167, 168, 169, 170, 171, 172, 173, 174, 175, 176, 177, 178, 179, 180, 181, 182, 183, 184, 185, 186, 187, 188, 189, 190, 191, 192, 193, 194, 195, 196, 197, 198, 199, 200],
      "LargestImagePixelValue": [4016, 4011, 4009, 4019, 4022, 4023, 4020, 4019, 4011, 4019, 4019, 4008, 4015, 4012, 4026, 4022, 4009, 4017, 4024, 4010, 4026, 4015, 4029, 4021, 4016, 4012, 4016, 4019, 4010, 4016, 4011, 4021, 4015, 4017, 4012, 4025, 4027, 4012, 4016, 4011, 4020, 4022, 4012, 4009, 4028, 4024, 4014, 4014, 4024, 4018, 4009, 4026, 4023, 4019, 4027, 4024, 4015, 4016, 4024, 4030, 4023, 4029, 4015, 4017, 4025, 4026, 4024, 4028, 4029, 4020, 4018, 4020, 4022, 4030, 4031, 4028, 4028, 4029, 4022, 4018, 4022, 4024, 4026, 4029, 4024, 4029, 4031, 4019, 4027, 4025, 4028, 4026, 4024, 4034, 4027, 4029, 4034, 4025, 4036, 4023, 4036, 4025, 4028, 4029, 4029, 4026, 4032, 4033, 4027, 4032, 4039, 4044, 4033, 4025, 4030, 4027, 4033, 4028, 4029, 4022, 4032, 4033, 4032, 4036, 4029, 4031, 4030, 4031, 4028, 4031, 4035, 4030, 4025, 4033, 4038, 4033, 4044, 4035, 4036, 4032, 4031, 4040, 4037, 4032, 4037, 4033, 4032, 4039, 4035, 4034, 4041, 4032, 4037, 4037, 4034, 4035, 4036, 4034, 4040, 4037, 4040, 4034, 4034, 4041, 4038, 4045, 4037, 4032, 4036, 4037, 4044, 4038, 4034, 4037, 4039, 4037, 4040, 4032, 4036, 4041, 4043, 4041, 4035, 4031, 4037, 4033, 4042, 4037, 4050, 4034, 4034, 4034, 4033, 4035, 4033, 4042, 4034, 4035, 4050, 4038],
      "WindowCenter": [1501.0, 1500.0, 1500.0, 1500.0, 1501.0, 1501.0, 1501.0, 1500.0, 1501.0, 1500.0, 1499.0, 1500.0, 1499.0, 1499.0, 1499.0, 1500.0, 1500.0, 1500.0, 1499.0, 1499.0, 1499.0, 1499.0, 1500.0, 1499.0, 1500.0, 1499.0, 1499.0, 1499.0, 1499.0, 1499.0, 1499.0, 1498.0, 1498.0, 1498.0, 1498.0, 1498.0, 1498.0, 1498.0, 1498.0, 1498.0, 1498.0, 1498.0, 1498.0, 1497.0, 1498.0, 1498.0, 1497.0, 1497.0, 1498.0, 1497.0, 1496.0, 1497.0, 1496.0, 1497.0, 1497.0, 1496.0, 1497.0, 1497.0, 1497.0, 1496.0, 1496.0, 1496.0, 1496.0, 1497.0, 1497.0, 1496.0, 1497.0, 1496.0, 1496.0, 1496.0, 1495.0, 1496.0, 1496.0, 1495.0, 1496.0, 1495.0, 1495.0, 1495.0, 1496.0, 1496.0, 1495.0, 1495.0, 1496.0, 1496.0, 1495.0, 1495.0, 1495.0, 1495.0, 1495.0, 1495.0, 1496.0, 1495.0, 1495.0, 1495.0, 1495.0, 1494.0, 1495.0, 1495.0, 1495.0, 1495.0, 1494.0, 1495.0, 1496.0, 1495.0, 1495.0, 1495.0, 1494.0, 1494.0, 1495.0, 1495.0, 1495.0, 1495.0, 1495.0, 1495.0, 1494.0, 1495.0, 1495.0, 1495.0, 1495.0, 1494.0, 1495.0, 1494.0, 1495.0, 1494.0, 1493.0, 1494.0, 1494.0, 1494.0, 1495.0, 1495.0, 1495.0, 1493.0, 1494.0, 1494.0, 1495.0, 1495.0, 1494.0, 1494.0, 1494.0, 1493.0, 1494.0, 1494.0, 1493.0, 1494.0, 1494.0, 1494.0, 1494.0, 1494.0, 1494.0, 1494.0, 1494.0, 1493.0, 1493.0, 1493.0, 1494.0, 1492.0, 1493.0, 1493.0, 1493.0, 1493.0, 1494.0, 1493.0, 1493.0, 1493.0, 1493.0, 1492.0, 1492.0, 1493.0, 1493.0, 1493.0, 1493.0, 1493.0, 1493.0, 1493.0, 1492.0, 1492.0, 1492.0, 1493.0, 1492.0, 1492.0, 1492.0, 1492.0, 1493.0, 1492.0, 1493.0, 1492.0, 1492.0, 1492.0, 1492.0, 1492.0, 1492.0, 1492.0, 1492.0, 1492.0, 1492.0, 1493.0, 1492.0, 1492.0, 1491.0, 1493.0],
      "WindowWidth": [3390.0, 3389.0, 3389.0, 3389.0, 3389.0, 3389.0, 3389.0, 3389.0, 3389.0, 3389.0, 3388.0, 3389.0, 3389.0, 3389.0, 3389.0, 3388.0, 3388.0, 3388.0, 3388.0, 3388.0, 3388.0, 3388.0, 3387.0, 3387.0, 3387.0, 3387.0, 3387.0, 3387.0, 3387.0, 3386.0, 3387.0, 3386.0, 3386.0, 3386.0, 3386.0, 3386.0, 3386.0, 3386.0, 3386.0, 3386.0, 3385.0, 3386.0, 3385.0, 3386.0, 3385.0, 3385.0, 3385.0, 3385.0, 3385.0, 3385.0, 3385.0, 3385.0, 3385.0, 3385.0, 3385.0, 3385.0, 3384.0, 3384.0, 3384.0, 3384.0, 3384.0, 3384.0, 3384.0, 3383.0, 3383.0, 3384.0, 3383.0, 3383.0, 3383.0, 3383.0, 3384.0, 3383.0, 3383.0, 3383.0, 3383.0, 3383.0, 3383.0, 3383.0, 3383.0, 3383.0, 3383.0, 3383.0, 3383.0, 3383.0, 3383.0, 3382.0, 3383.0, 3382.0, 3382.0, 3382.0, 3382.0, 3382.0, 3382.0, 3382.0, 3382.0, 3382.0, 3382.0, 3382.0, 3382.0, 3382.0, 3382.0, 3382.0, 3381.0, 3382.0, 3382.0, 3382.0, 3382.0, 3382.0, 3381.0, 3381.0, 3381.0, 3381.0, 3381.0, 3381.0, 3382.0, 3381.0, 3381.0, 3381.0, 3381.0, 3382.0, 3381.0, 3381.0, 3381.0, 3381.0, 3381.0, 3381.0, 3381.0, 3381.0, 3381.0, 3381.0, 3381.0, 3381.0, 3381.0, 3381.0, 3381.0, 3381.0, 3381.0, 3381.0, 3380.0, 3381.0, 3380.0, 3380.0, 3381.0, 3380.0, 3380.0, 3380.0, 3380.0, 3380.0, 3380.0, 3380.0, 3380.0, 3380.0, 3380.0, 3380.0, 3380.0, 3380.0, 3380.0, 3380.0, 3380.0, 3380.0, 3380.0, 3380.0, 3380.0, 3380.0, 3380.0, 3380.0, 3380.0, 3380.0, 3379.0, 3380.0, 3380.0, 3379.0, 3379.0, 3379.0, 3379.0, 3379.0, 3379.0, 3379.0, 3379.0, 3379.0, 3379.0, 3379.0, 3379.0, 3379.0, 3379.0, 3379.0, 3379.0, 3379.0, 3379.0, 3379.0, 3379.0, 3379.0, 3379.0, 3379.0, 3379.0, 3378.0, 3379.0, 3379.0, 3379.0, 3378.0]
    },
    "slices": {}
  }
}