{
  "AcquisitionMatrixPE": 80,
  "AcquisitionNumber": 1,
  "AcquisitionTime": "08:09:34.522500",
  "BandwidthPerPixelPhaseEncode": 25,
  "BaseResolution": 80,
  "BodyPartExamined": "BRAIN",
  "CoilCombinationMethod": "Sum of Squares",
  "ConsistencyInfo": "N4_VE11C_LATEST_20160120",
  "ConversionSoftware": "dcm2niix",
  "ConversionSoftwareVersion": "v1.0.20220720",
  "DerivedVendorReportedEchoSpacing": 0.0005,
  "DeviceSerialNumber": "66112",
  "DwellTime": 2.7e-06,
  "EchoTime": 0.03,
  "EchoTrainLength": 80,
  "EffectiveEchoSpacing": 0.0005,
  "FlipAngle": 77,
  "HeudiconvVersion": "0.13.1",
  "ImageOrientationPatientDICOM": [0.999976, 0.00210496, 0.00655844, -0.00383968, 0.960847, 0.277054],
  "ImageOrientationText": "Tra>Cor(16.1)>Sag(0.3)",
  "ImageType": [
    "ORIGINAL",
    "PRIMARY",
    "M",
    "ND",
    "NORM",
    "MOSAIC"
],
  "ImagingFrequency": 123.252,
  "InPlanePhaseEncodingDirectionDICOM": "COL",
  "InstitutionAddress": "Maynard 3,Hanover,NH,US,03755",
  "InstitutionName": "Dartmouth College - PBS",
  "InstitutionalDepartmentName": "Department",
  "MRAcquisitionType": "2D",
  "MagneticFieldStrength": 3,
  "Manufacturer": "Siemens",
  "ManufacturersModelName": "Prisma",
  "MatrixCoilMode": "SENSE",
  "Modality": "MR",
  "NonlinearGradientCorrection": false,
  "PartialFourier": 1,
  "PatientPosition": "HFS",
  "PercentPhaseFOV": 100,
  "PercentSampling": 100,
  "PhaseEncodingDirection": "j-",
  "PhaseEncodingSteps": 80,
  "PhaseResolution": 1,
  "PixelBandwidth": 2315,
  "ProcedureStepDescription": "dbic^QA",
  "ProtocolName": "func-bold_fa-77",
  "PulseSequenceDetails": "%SiemensSeq%\\ep2d_bold",
  "ReceiveCoilActiveElements": "HC1-7;NC1,2",
  "ReceiveCoilName": "HeadNeck_64",
  "ReconMatrixPE": 80,
  "RepetitionTime": 2,
  "SAR": 0.0284151,
  "ScanOptions": "FS",
  "ScanningSequence": "EP",
  "SequenceName": "*epfid2d1_80",
  "SequenceVariant": "SK",
  "SeriesDescription": "func-bold_fa-77",
  "SeriesNumber": 7,
  "ShimSetting": [4139, -7694, -7517, 209, -66, -225, -69, 95],
  "SliceThickness": 3.5,
  "SliceTiming": [0.99, 0, 1.0575, 0.0675, 1.1225, 0.1325, 1.1875, 0.1975, 1.255, 0.265, 1.32, 0.33, 1.385, 0.3975, 1.4525, 0.4625, 1.5175, 0.5275, 1.585, 0.595, 1.65, 0.66, 1.715, 0.7275, 1.7825, 0.7925, 1.8475, 0.8575, 1.915, 0.925],
  "SoftwareVersions": "syngo MR E11",
  "SpacingBetweenSlices": 3.99,
  "StationName": "AWP66112",
  "TotalReadoutTime": 0.0395,
  "TxRefAmp": 212.016,
  "dcmmeta_affine": [
    [-2.9999289512634277, -0.011519049294292927, 0.022816671058535576, 120.19957733154297],
    [-0.006314894650131464, 2.882539749145508, 1.1055208444595337, -122.71231842041016],
    [0.01967531628906727, -0.8311628699302673, 3.833719253540039, -27.617918014526367],
    [0.0, 0.0, 0.0, 1.0]
],
  "dcmmeta_reorient_transform": [
    [0.0, -1.0, 0.0, 79.0],
    [1.0, 0.0, 0.0, 0.0],
    [0.0, 0.0, 1.0, 0.0],
    [0.0, 0.0, 0.0, 1.0]
],
  "dcmmeta_shape": [80, 80, 30, 200],
  "dcmmeta_slice_dim": 2,
  "dcmmeta_version": 0.6,
  "global": {
    "const": {
      "AccessionNumber": "qa64",
      "AcquisitionMatrix": [80, 0, 0, 80],
      "AngioFlag": "N",
      "BitsAllocated": 16,
      "BitsStored": 12,
      "BodyPartExamined": "BRAIN",
      "Columns": 480,
      "EchoNumbers": 1,
      "EchoTime": 30.0,
      "EchoTrainLength": 80,
      "FlipAngle": 77.0,
      "HighBit": 11,
      "ImageOrientationPatient": [0.99997627771963, 0.0021049648141, 0.00655843892466, -0.0038396830498, 0.96084659150389, 0.27705429870233],
      "ImagePositionPatient": [-716.97153037979, -682.77925453638, -263.44742887342],
      "ImageType": [
        "ORIGINAL",
        "PRIMARY",
        "M",
        "ND",
        "NORM",
        "MOSAIC"
],
      "ImagedNucleus": "1H",
      "ImagingFrequency": 123.252339,
      "InPlanePhaseEncodingDirection": "COL",
      "MRAcquisitionType": "2D",
      "MagneticFieldStrength": 3.0,
      "Manufacturer": "SIEMENS",
      "ManufacturerModelName": "Prisma",
      "Modality": "MR",
      "NumberOfAverages": 1.0,
      "NumberOfPhaseEncodingSteps": 80,
      "PercentPhaseFieldOfView": 100.0,
      "PercentSampling": 100.0,
      "PerformedProcedureStepStartTime": "075720.519000",
      "PhotometricInterpretation": "MONOCHROME2",
      "PixelBandwidth": 2315.0,
      "PixelRepresentation": 0,
      "PixelSpacing": [3.0, 3.0],
      "ProtocolName": "func-bold_fa-77",
      "RepetitionTime": 2000.0,
      "Rows": 480,
      "SAR": 0.02841513667053,
      "SamplesPerPixel": 1,
      "ScanOptions": "FS",
      "ScanningSequence": "EP",
      "SequenceName": "*epfid2d1_80",
      "SequenceVariant": "SK",
      "SeriesDescription": "func-bold_fa-77",
      "SeriesNumber": 7,
      "SeriesTime": "081022.579000",
      "SliceLocation": -59.849078462243,
      "SliceThickness": 3.5,
      "SmallestImagePixelValue": 0,
      "SoftwareVersions": "syngo MR E11",
      "SpacingBetweenSlices": 3.9899999857251,
      "SpecificCharacterSet": "ISO_IR 100",
      "StudyID": "10",
      "StudyTime": "075720.456000",
      "TransmitCoilName": "Body",
      "VariableFlipAngleFlag": "N",
      "WindowCenterWidthExplanation": "Algo1",
      "dBdt": 0.0},
    "slices": {}
  },
  "time": {
    "samples": {
      "AcquisitionNumber": [1, 2, 3, 4, 5, 6, 7, 8, 9, 10, 11, 12, 13, 14, 15, 16, 17, 18, 19, 20, 21, 22, 23, 24, 25, 26, 27, 28, 29, 30, 31, 32, 33, 34, 35, 36, 37, 38, 39, 40, 41, 42, 43, 44, 45, 46, 47, 48, 49, 50, 51, 52, 53, 54, 55, 56, 57, 58, 59, 60, 61, 62, 63, 64, 65, 66, 67, 68, 69, 70, 71, 72, 73, 74, 75, 76, 77, 78, 79, 80, 81, 82, 83, 84, 85, 86, 87, 88, 89, 90, 91, 92, 93, 94, 95, 96, 97, 98, 99, 100, 101, 102, 103, 104, 105, 106, 107, 108, 109, 110, 111, 112, 113, 114, 115, 116, 117, 118, 119, 120, 121, 122, 123, 124, 125, 126, 127, 128, 129, 130, 131, 132, 133, 134, 135, 136, 137, 138, 139, 140, 141, 142, 143, 144, 145, 146, 147, 148, 149, 150, 151, 152, 153, 154, 155, 156, 157, 158, 159, 160, 161, 162, 163, 164, 165, 166, 167, 168, 169, 170, 171, 172, 173, 174, 175, 176, 177, 178, 179, 180, 181, 182, 183, 184, 185, 186, 187, 188, 189, 190, 191, 192, 193, 194, 195, 196, 197, 198, 199, 200],
      "AcquisitionTime": ["080934.522500", "080936.522500", "080938.522500", "080940.522500", "080942.522500", "080944.522500", "080946.522500", "080948.522500", "080950.522500", "080952.522500", "080954.522500", "080956.522500", "080958.522500", "081000.522500", "081002.522500", "081004.522500", "081006.522500", "081008.522500", "081010.522500", "081012.522500", "081014.522500", "081016.522500", "081018.522500", "081020.522500", "081022.522500", "081024.522500", "081026.522500", "081028.522500", "081030.522500", "081032.522500", "081034.522500", "081036.522500", "081038.522500", "081040.522500", "081042.522500", "081044.522500", "081046.522500", "081048.522500", "081050.522500", "081052.522500", "081054.522500", "081056.522500", "081058.522500", "081100.522500", "081102.522500", "081104.522500", "081106.522500", "081108.522500", "081110.522500", "081112.522500", "081114.522500", "081116.522500", "081118.522500", "081120.522500", "081122.522500", "081124.522500", "081126.522500", "081128.522500", "081130.522500", "081132.522500", "081134.522500", "081136.522500", "081138.522500", "081140.522500", "081142.522500", "081144.522500", "081146.522500", "081148.522500", "081150.522500", "081152.522500", "081154.522500", "081156.522500", "081158.522500", "081200.522500", "081202.522500", "081204.522500", "081206.522500", "081208.522500", "081210.522500", "081212.522500", "081214.522500", "081216.522500", "081218.522500", "081220.522500", "081222.522500", "081224.522500", "081226.522500", "081228.522500", "081230.522500", "081232.522500", "081234.522500", "081236.522500", "081238.522500", "081240.522500", "081242.522500", "081244.522500", "081246.522500", "081248.522500", "081250.522500", "081252.522500", "081254.522500", "081256.522500", "081258.522500", "081300.522500", "081302.522500", "081304.522500", "081306.522500", "081308.522500", "081310.522500", "081312.522500", "081314.522500", "081316.522500", "081318.522500", "081320.522500", "081322.522500", "081324.522500", "081326.522500", "081328.522500", "081330.522500", "081332.522500", "081334.522500", "081336.522500", "081338.522500", "081340.522500", "081342.522500", "081344.522500", "081346.522500", "081348.522500", "081350.522500", "081352.522500", "081354.522500", "081356.522500", "081358.522500", "081400.522500", "081402.522500", "081404.522500", "081406.522500", "081408.522500", "081410.522500", "081412.522500", "081414.522500", "081416.522500", "081418.522500", "081420.522500", "081422.522500", "081424.522500", "081426.522500", "081428.522500", "081430.522500", "081432.522500", "081434.522500", "081436.522500", "081438.522500", "081440.522500", "081442.522500", "081444.522500", "081446.522500", "081448.522500", "081450.522500", "081452.522500", "081454.522500", "081456.522500", "081458.522500", "081500.522500", "081502.522500", "081504.522500", "081506.522500", "081508.522500", "081510.522500", "081512.522500", "081514.522500", "081516.522500", "081518.522500", "081520.522500", "081522.522500", "081524.522500", "081526.522500", "081528.522500", "081530.522500", "081532.522500", "081534.522500", "081536.522500", "081538.522500", "081540.522500", "081542.522500", "081544.522500", "081546.522500", "081548.522500", "081550.522500", "081552.522500", "081554.522500", "081556.522500", "081558.522500", "081600.522500", "081602.522500", "081604.522500", "081606.522500", "081608.522500", "081610.522500", "081612.522500"],
      "ContentTime": ["081022.583000", "081022.586000", "081022.589000", "081022.591000", "081022.594000", "081022.596000", "081022.599000", "081022.601000", "081022.604000", "081022.614000", "081022.616000", "081022.619000", "081022.622000", "081022.624000", "081022.627000", "081022.629000", "081022.632000", "081022.634000", "081022.637000", "081022.639000", "081022.642000", "081022.644000", "081022.647000", "081022.649000", "081102.578000", "081102.580000", "081102.583000", "081102.585000", "081102.588000", "081102.590000", "081102.593000", "081102.595000", "081102.598000", "081102.601000", "081102.603000", "081102.606000", "081102.608000", "081102.611000", "081102.613000", "081102.616000", "081102.618000", "081102.621000", "081102.623000", "081102.626000", "081142.578000", "081142.581000", "081142.583000", "081142.586000", "081142.588000", "081142.591000", "081142.593000", "081142.596000", "081142.598000", "081142.601000", "081142.603000", "081142.606000", "081142.608000", "081142.611000", "081142.613000", "081142.616000", "081142.618000", "081142.621000", "081142.923000", "081142.925000", "081222.577000", "081222.580000", "081222.583000", "081222.585000", "081222.588000", "081222.590000", "081222.593000", "081222.595000", "081222.598000", "081222.600000", "081222.603000", "081222.605000", "081222.608000", "081222.610000", "081222.613000", "081222.615000", "081222.617000", "081222.620000", "081222.623000", "081222.625000", "081302.576000", "081302.588000", "081302.590000", "081302.593000", "081302.595000", "081302.598000", "081302.600000", "081302.603000", "081302.605000", "081302.608000", "081302.610000", "081302.613000", "081302.615000", "081302.618000", "081302.620000", "081302.623000", "081302.625000", "081302.628000", "081302.630000", "081302.633000", "081322.577000", "081322.580000", "081322.583000", "081322.585000", "081322.588000", "081322.590000", "081322.593000", "081322.595000", "081322.598000", "081322.600000", "081402.578000", "081402.580000", "081402.583000", "081402.585000", "081402.588000", "081402.590000", "081402.593000", "081402.595000", "081402.598000", "081402.600000", "081402.603000", "081402.605000", "081402.608000", "081402.610000", "081402.613000", "081402.615000", "081402.618000", "081402.620000", "081402.623000", "081402.626000", "081442.577000", "081442.580000", "081442.583000", "081442.585000", "081442.588000", "081442.590000", "081442.593000", "081442.595000", "081442.598000", "081442.600000", "081442.603000", "081442.605000", "081442.608000", "081442.610000", "081442.613000", "081442.615000", "081442.618000", "081442.620000", "081442.623000", "081442.625000", "081522.576000", "081522.579000", "081522.582000", "081522.584000", "081522.587000", "081522.589000", "081522.592000", "081522.594000", "081522.597000", "081522.599000", "081522.602000", "081522.604000", "081522.607000", "081522.609000", "081522.612000", "081522.614000", "081522.617000", "081522.619000", "081522.622000", "081522.624000", "081602.577000", "081602.580000", "081602.583000", "081602.585000", "081602.588000", "081602.590000", "081602.593000", "081602.595000", "081602.598000", "081602.600000", "081602.603000", "081602.605000", "081602.608000", "081602.610000", "081602.613000", "081602.615000", "081602.618000", "081602.620000", "081602.623000", "081602.625000", "081613.763000", "081613.765000", "081613.768000", "081613.771000", "081613.773000", "081613.776000"],
      "InstanceCreationTime": ["081022.583000", "081022.586000", "081022.589000", "081022.591000", "081022.594000", "081022.596000", "081022.599000", "081022.601000", "081022.604000", "081022.614000", "081022.616000", "081022.619000", "081022.622000", "081022.624000", "081022.627000", "081022.629000", "081022.632000", "081022.634000", "081022.637000", "081022.639000", "081022.642000", "081022.644000", "081022.647000", "081022.649000", "081102.578000", "081102.580000", "081102.583000", "081102.585000", "081102.588000", "081102.590000", "081102.593000", "081102.595000", "081102.598000", "081102.601000", "081102.603000", "081102.606000", "081102.608000", "081102.611000", "081102.613000", "081102.616000", "081102.618000", "081102.621000", "081102.623000", "081102.626000", "081142.578000", "081142.581000", "081142.583000", "081142.586000", "081142.588000", "081142.591000", "081142.593000", "081142.596000", "081142.598000", "081142.601000", "081142.603000", "081142.606000", "081142.608000", "081142.611000", "081142.613000", "081142.616000", "081142.618000", "081142.621000", "081142.923000", "081142.925000", "081222.577000", "081222.580000", "081222.583000", "081222.585000", "081222.588000", "081222.590000", "081222.593000", "081222.595000", "081222.598000", "081222.600000", "081222.603000", "081222.605000", "081222.608000", "081222.610000", "081222.613000", "081222.615000", "081222.617000", "081222.620000", "081222.623000", "081222.625000", "081302.576000", "081302.588000", "081302.590000", "081302.593000", "081302.595000", "081302.598000", "081302.600000", "081302.603000", "081302.605000", "081302.608000", "081302.610000", "081302.613000", "081302.615000", "081302.618000", "081302.620000", "081302.623000", "081302.625000", "081302.628000", "081302.630000", "081302.633000", "081322.577000", "081322.580000", "081322.583000", "081322.585000", "081322.588000", "081322.590000", "081322.593000", "081322.595000", "081322.598000", "081322.600000", "081402.578000", "081402.580000", "081402.583000", "081402.585000", "081402.588000", "081402.590000", "081402.593000", "081402.595000", "081402.598000", "081402.600000", "081402.603000", "081402.605000", "081402.608000", "081402.610000", "081402.613000", "081402.615000", "081402.618000", "081402.620000", "081402.623000", "081402.626000", "081442.577000", "081442.580000", "081442.583000", "081442.585000", "081442.588000", "081442.590000", "081442.593000", "081442.595000", "081442.598000", "081442.600000", "081442.603000", "081442.605000", "081442.608000", "081442.610000", "081442.613000", "081442.615000", "081442.618000", "081442.620000", "081442.623000", "081442.625000", "081522.576000", "081522.579000", "081522.582000", "081522.584000", "081522.587000", "081522.589000", "081522.592000", "081522.594000", "081522.597000", "081522.599000", "081522.602000", "081522.604000", "081522.607000", "081522.609000", "081522.612000", "081522.614000", "081522.617000", "081522.619000", "081522.622000", "081522.624000", "081602.577000", "081602.580000", "081602.583000", "081602.585000", "081602.588000", "081602.590000", "081602.593000", "081602.595000", "081602.598000", "081602.600000", "081602.603000", "081602.605000", "081602.608000", "081602.610000", "081602.613000", "081602.615000", "081602.618000", "081602.620000", "081602.623000", "081602.625000", "081613.763000", "081613.765000", "081613.768000", "081613.771000", "081613.773000", "081613.776000"],
      "InstanceNumber": [1, 2, 3, 4, 5, 6, 7, 8, 9, 10, 11, 12, 13, 14, 15, 16, 17, 18, 19, 20, 21, 22, 23, 24, 25, 26, 27, 28, 29, 30, 31, 32, 33, 34, 35, 36, 37, 38, 39, 40, 41, 42, 43, 44, 45, 46, 47, 48, 49, 50, 51, 52, 53, 54, 55, 56, 57, 58, 59, 60, 61, 62, 63, 64, 65, 66, 67, 68, 69, 70, 71, 72, 73, 74, 75, 76, 77, 78, 79, 80, 81, 82, 83, 84, 85, 86, 87, 88, 89, 90, 91, 92, 93, 94, 95, 96, 97, 98, 99, 100, 101, 102, 103, 104, 105, 106, 107, 108, 109, 110, 111, 112, 113, 114, 115, 116, 117, 118, 119, 120, 121, 122, 123, 124, 125, 126, 127, 128, 129, 130, 131, 132, 133, 134, 135, 136, 137, 138, 139, 140, 141, 142, 143, 144, 145, 146, 147, 148, 149, 150, 151, 152, 153, 154, 155, 156, 157, 158, 159, 160, 161, 162, 163, 164, 165, 166, 167, 168, 169, 170, 171, 172, 173, 174, 175, 176, 177, 178, 179, 180, 181, 182, 183, 184, 185, 186, 187, 188, 189, 190, 191, 192, 193, 194, 195, 196, 197, 198, 199, 200],
      "LargestImagePixelValue": [4046, 4049, 4048, 4046, 4048, 4047, 4046, 4043, 4045, 4047, 4050, 4046, 4045, 4044, 4046, 4043, 4041, 4043, 4045, 4042, 4038, 4048, 4042, 4044, 4046, 4042, 4043, 4046, 4039, 4040, 4043, 4044, 4043, 4043, 4047, 4041, 4045, 4045, 4044, 4046, 4048, 4049, 4044, 4045, 4047, 4047, 4047, 4047, 4047, 4045, 4042, 4046, 4048, 4042, 4043, 4042, 4046, 4048, 4043, 4043, 4044, 4049, 4042, 4042, 4046, 4043, 4045, 4042, 4043, 4047, 4043, 4045, 4047, 4045, 4044, 4043, 4045, 4043, 4046, 4045, 4041, 4044, 4045, 4043, 4040, 4041, 4044, 4044, 4043, 4046, 4042, 4042, 4042, 4043, 4044, 4045, 4047, 4039, 4045, 4048, 4043, 4044, 4042, 4046, 4043, 4040, 4045, 4044, 4038, 4046, 4041, 4041, 4043, 4039, 4042, 4040, 4039, 4041, 4044, 4036, 4041, 4044, 4041, 4042, 4040, 4040, 4042, 4041, 4042, 4039, 4041, 4039, 4039, 4039, 4042, 4044, 4042, 4040, 4043, 4043, 4040, 4042, 4040, 4040, 4040, 4043, 4043, 4045, 4042, 4040, 4040, 4044, 4040, 4040, 4040, 4040, 4041, 4041, 4042, 4044, 4040, 4042, 4046, 4043, 4041, 4038, 4046, 4040, 4037, 4037, 4040, 4043, 4041, 4037, 4038, 4040, 4041, 4041, 4036, 4040, 4039, 4038, 4040, 4042, 4038, 4040, 4040, 4041, 4041, 4039, 4038, 4041, 4038, 4038, 4043, 4040, 4043, 4042, 4040, 4040],
      "WindowCenter": [1414.0, 1413.0, 1414.0, 1414.0, 1414.0, 1413.0, 1413.0, 1413.0, 1414.0, 1414.0, 1413.0, 1414.0, 1414.0, 1414.0, 1413.0, 1413.0, 1413.0, 1414.0, 1413.0, 1413.0, 1413.0, 1413.0, 1413.0, 1413.0, 1413.0, 1413.0, 1413.0, 1413.0, 1412.0, 1412.0, 1412.0, 1412.0, 1412.0, 1412.0, 1412.0, 1413.0, 1412.0, 1412.0, 1412.0, 1413.0, 1412.0, 1413.0, 1411.0, 1412.0, 1412.0, 1413.0, 1413.0, 1412.0, 1412.0, 1412.0, 1412.0, 1412.0, 1412.0, 1412.0, 1412.0, 1412.0, 1412.0, 1412.0, 1412.0, 1411.0, 1411.0, 1412.0, 1411.0, 1412.0, 1411.0, 1411.0, 1411.0, 1411.0, 1411.0, 1411.0, 1411.0, 1412.0, 1411.0, 1412.0, 1411.0, 1411.0, 1411.0, 1411.0, 1412.0, 1411.0, 1411.0, 1411.0, 1411.0, 1411.0, 1410.0, 1411.0, 1411.0, 1411.0, 1411.0, 1411.0, 1411.0, 1411.0, 1410.0, 1410.0, 1410.0, 1410.0, 1410.0, 1410.0, 1411.0, 1411.0, 1410.0, 1411.0, 1410.0, 1411.0, 1410.0, 1410.0, 1410.0, 1410.0, 1410.0, 1410.0, 1410.0, 1410.0, 1410.0, 1410.0, 1409.0, 1410.0, 1410.0, 1410.0, 1410.0, 1409.0, 1410.0, 1409.0, 1409.0, 1409.0, 1410.0, 1409.0, 1409.0, 1409.0, 1410.0, 1410.0, 1409.0, 1409.0, 1409.0, 1410.0, 1410.0, 1410.0, 1410.0, 1409.0, 1409.0, 1409.0, 1409.0, 1409.0, 1409.0, 1409.0, 1409.0, 1410.0, 1409.0, 1409.0, 1408.0, 1409.0, 1409.0, 1409.0, 1410.0, 1408.0, 1409.0, 1409.0, 1409.0, 1409.0, 1408.0, 1409.0, 1408.0, 1409.0, 1408.0, 1408.0, 1408.0, 1408.0, 1409.0, 1409.0, 1408.0, 1408.0, 1408.0, 1408.0, 1408.0, 1407.0, 1408.0, 1408.0, 1408.0, 1408.0, 1408.0, 1408.0, 1408.0, 1407.0, 1407.0, 1408.0, 1407.0, 1408.0, 1408.0, 1407.0, 1407.0, 1408.0, 1407.0, 1408.0, 1407.0, 1408.0, 1407.0, 1408.0, 1408.0, 1407.0, 1407.0, 1407.0],
      "WindowWidth": [3343.0, 3344.0, 3344.0, 3343.0, 3343.0, 3343.0, 3343.0, 3343.0, 3343.0, 3343.0, 3343.0, 3343.0, 3343.0, 3343.0, 3343.0, 3343.0, 3343.0, 3343.0, 3343.0, 3343.0, 3343.0, 3343.0, 3343.0, 3342.0, 3342.0, 3343.0, 3343.0, 3343.0, 3342.0, 3342.0, 3342.0, 3342.0, 3343.0, 3342.0, 3342.0, 3342.0, 3342.0, 3342.0, 3342.0, 3342.0, 3342.0, 3342.0, 3342.0, 3342.0, 3342.0, 3342.0, 3342.0, 3342.0, 3342.0, 3342.0, 3342.0, 3342.0, 3342.0, 3342.0, 3342.0, 3342.0, 3342.0, 3342.0, 3342.0, 3342.0, 3342.0, 3342.0, 3342.0, 3342.0, 3342.0, 3341.0, 3341.0, 3341.0, 3341.0, 3341.0, 3341.0, 3341.0, 3341.0, 3341.0, 3341.0, 3341.0, 3341.0, 3342.0, 3341.0, 3342.0, 3341.0, 3341.0, 3341.0, 3341.0, 3341.0, 3341.0, 3341.0, 3341.0, 3341.0, 3341.0, 3341.0, 3341.0, 3341.0, 3341.0, 3341.0, 3341.0, 3341.0, 3341.0, 3340.0, 3341.0, 3341.0, 3340.0, 3341.0, 3340.0, 3340.0, 3340.0, 3340.0, 3340.0, 3340.0, 3340.0, 3340.0, 3340.0, 3340.0, 3340.0, 3340.0, 3340.0, 3340.0, 3340.0, 3340.0, 3340.0, 3340.0, 3340.0, 3340.0, 3340.0, 3339.0, 3340.0, 3340.0, 3339.0, 3339.0, 3339.0, 3340.0, 3339.0, 3339.0, 3339.0, 3339.0, 3339.0, 3339.0, 3340.0, 3339.0, 3339.0, 3339.0, 3339.0, 3339.0, 3339.0, 3339.0, 3339.0, 3339.0, 3339.0, 3339.0, 3338.0, 3338.0, 3339.0, 3339.0, 3339.0, 3339.0, 3339.0, 3338.0, 3339.0, 3339.0, 3338.0, 3339.0, 3338.0, 3338.0, 3338.0, 3339.0, 3338.0, 3338.0, 3338.0, 3338.0, 3338.0, 3338.0, 3338.0, 3339.0, 3338.0, 3338.0, 3338.0, 3338.0, 3338.0, 3338.0, 3338.0, 3337.0, 3338.0, 3338.0, 3337.0, 3338.0, 3337.0, 3337.0, 3338.0, 3338.0, 3337.0, 3338.0, 3337.0, 3338.0, 3337.0, 3337.0, 3337.0, 3337.0, 3337.0, 3337.0, 3337.0]
    },
    "slices": {}
  }
}