{
  "AcquisitionMatrixPE": 80,
  "AcquisitionNumber": 1,
  "AcquisitionTime": "09:06:38.455000",
  "BandwidthPerPixelPhaseEncode": 25,
  "BaseResolution": 80,
  "BodyPartExamined": "BRAIN",
  "CoilCombinationMethod": "Sum of Squares",
  "ConsistencyInfo": "N4_VE11E_LATEST_20181129",
  "ConversionSoftware": "dcm2niix",
  "ConversionSoftwareVersion": "v1.0.20220720",
  "DerivedVendorReportedEchoSpacing": 0.0005,
  "DeviceSerialNumber": "66112",
  "DwellTime": 2.7e-06,
  "EchoTime": 0.03,
  "EchoTrainLength": 80,
  "EffectiveEchoSpacing": 0.0005,
  "FlipAngle": 77,
  "HeudiconvVersion": "0.13.1",
  "ImageOrientationPatientDICOM": [0.992507, -0.122069, 0.00541088, 0.11431, 0.943245, 0.311806],
  "ImageOrientationText": "Tra>Cor(18.0)>Sag(2.5)",
  "ImageType": [
    "ORIGINAL",
    "PRIMARY",
    "M",
    "ND",
    "NORM",
    "MOSAIC"
],
  "ImagingFrequency": 123.261,
  "InPlanePhaseEncodingDirectionDICOM": "COL",
  "InstitutionAddress": "Maynard 3,Hanover,NH,US,03755",
  "InstitutionName": "Dartmouth College - PBS",
  "InstitutionalDepartmentName": "Department",
  "MRAcquisitionType": "2D",
  "MagneticFieldStrength": 3,
  "Manufacturer": "Siemens",
  "ManufacturersModelName": "Prisma",
  "MatrixCoilMode": "SENSE",
  "Modality": "MR",
  "NonlinearGradientCorrection": false,
  "PartialFourier": 1,
  "PatientPosition": "HFS",
  "PercentPhaseFOV": 100,
  "PercentSampling": 100,
  "PhaseEncodingDirection": "j-",
  "PhaseEncodingSteps": 80,
  "PhaseResolution": 1,
  "PixelBandwidth": 2315,
  "ProcedureStepDescription": "dbic^QA",
  "ProtocolName": "func-bold_fa-77",
  "PulseSequenceDetails": "%SiemensSeq%\\ep2d_bold",
  "ReceiveCoilActiveElements": "HC1-7;NC1,2",
  "ReceiveCoilName": "HeadNeck_64",
  "ReconMatrixPE": 80,
  "RepetitionTime": 2,
  "SAR": 0.0320432,
  "ScanOptions": "FS",
  "ScanningSequence": "EP",
  "SequenceName": "*epfid2d1_80",
  "SequenceVariant": "SK",
  "SeriesDescription": "func-bold_fa-77",
  "SeriesNumber": 6,
  "ShimSetting": [4242, -7736, -7482, -162, -190, -155, -84, 105],
  "SliceThickness": 3.5,
  "SliceTiming": [0.9875, 0, 1.055, 0.065, 1.12, 0.13, 1.1875, 0.1975, 1.2525, 0.2625, 1.3175, 0.33, 1.385, 0.395, 1.45, 0.46, 1.5175, 0.5275, 1.5825, 0.5925, 1.6475, 0.6575, 1.715, 0.725, 1.78, 0.79, 1.8475, 0.8575, 1.9125, 0.9225],
  "SoftwareVersions": "syngo MR E11",
  "SpacingBetweenSlices": 3.99,
  "StationName": "AWP66112",
  "TotalReadoutTime": 0.0395,
  "TxRefAmp": 208.512,
  "dcmmeta_affine": [
    [-2.977520704269409, 0.34293103218078613, 0.17223085463047028, 105.8399429321289],
    [0.366207093000412, 2.8297336101531982, 1.2323155403137207, -129.55319213867188],
    [0.016232632100582123, -0.9354178309440613, 3.791020154953003, -25.76054573059082],
    [0.0, 0.0, 0.0, 1.0]
],
  "dcmmeta_reorient_transform": [
    [0.0, -1.0, 0.0, 79.0],
    [1.0, 0.0, 0.0, 0.0],
    [0.0, 0.0, 1.0, 0.0],
    [0.0, 0.0, 0.0, 1.0]
],
  "dcmmeta_shape": [80, 80, 30, 200],
  "dcmmeta_slice_dim": 2,
  "dcmmeta_version": 0.6,
  "global": {
    "const": {
      "AccessionNumber": "qa64",
      "AcquisitionMatrix": [80, 0, 0, 80],
      "AngioFlag": "N",
      "BitsAllocated": 16,
      "BitsStored": 12,
      "BodyPartExamined": "BRAIN",
      "Columns": 480,
      "EchoNumbers": 1,
      "EchoTime": 30.0,
      "EchoTrainLength": 80,
      "FlipAngle": 77.0,
      "HighBit": 11,
      "ImageOrientationPatient": [0.99250686362377, -0.1220690299239, 0.00541087729975, 0.11431034111258, 0.94324450616471, 0.31180594526856],
      "ImagePositionPatient": [-797.02181713534, -586.70104431702, -289.98864917545],
      "ImageType": [
        "ORIGINAL",
        "PRIMARY",
        "M",
        "ND",
        "NORM",
        "MOSAIC"
],
      "ImagedNucleus": "1H",
      "ImagingFrequency": 123.261235,
      "InPlanePhaseEncodingDirection": "COL",
      "MRAcquisitionType": "2D",
      "MagneticFieldStrength": 3.0,
      "Manufacturer": "SIEMENS",
      "ManufacturerModelName": "Prisma",
      "Modality": "MR",
      "NumberOfAverages": 1.0,
      "NumberOfPhaseEncodingSteps": 80,
      "PercentPhaseFieldOfView": 100.0,
      "PercentSampling": 100.0,
      "PerformedProcedureStepStartTime": "085211.277000",
      "PhotometricInterpretation": "MONOCHROME2",
      "PixelBandwidth": 2315.0,
      "PixelRepresentation": 0,
      "PixelSpacing": [3.0, 3.0],
      "ProtocolName": "func-bold_fa-77",
      "RepetitionTime": 2000.0,
      "Rows": 480,
      "SAR": 0.0320432203532,
      "SamplesPerPixel": 1,
      "ScanOptions": "FS",
      "ScanningSequence": "EP",
      "SequenceName": "*epfid2d1_80",
      "SequenceVariant": "SK",
      "SeriesDescription": "func-bold_fa-77",
      "SeriesNumber": 6,
      "SeriesTime": "090737.704000",
      "SliceLocation": -59.919865521777,
      "SliceThickness": 3.5,
      "SmallestImagePixelValue": 0,
      "SoftwareVersions": "syngo MR E11",
      "SpacingBetweenSlices": 3.9899999352505,
      "SpecificCharacterSet": "ISO_IR 100",
      "StudyID": "26",
      "StudyTime": "085211.176000",
      "TransmitCoilName": "Body",
      "VariableFlipAngleFlag": "N",
      "WindowCenterWidthExplanation": "Algo1"
    },
    "slices": {}
  },
  "time": {
    "samples": {
      "AcquisitionNumber": [1, 2, 3, 4, 5, 6, 7, 8, 9, 10, 11, 12, 13, 14, 15, 16, 17, 18, 19, 20, 21, 22, 23, 24, 25, 26, 27, 28, 29, 30, 31, 32, 33, 34, 35, 36, 37, 38, 39, 40, 41, 42, 43, 44, 45, 46, 47, 48, 49, 50, 51, 52, 53, 54, 55, 56, 57, 58, 59, 60, 61, 62, 63, 64, 65, 66, 67, 68, 69, 70, 71, 72, 73, 74, 75, 76, 77, 78, 79, 80, 81, 82, 83, 84, 85, 86, 87, 88, 89, 90, 91, 92, 93, 94, 95, 96, 97, 98, 99, 100, 101, 102, 103, 104, 105, 106, 107, 108, 109, 110, 111, 112, 113, 114, 115, 116, 117, 118, 119, 120, 121, 122, 123, 124, 125, 126, 127, 128, 129, 130, 131, 132, 133, 134, 135, 136, 137, 138, 139, 140, 141, 142, 143, 144, 145, 146, 147, 148, 149, 150, 151, 152, 153, 154, 155, 156, 157, 158, 159, 160, 161, 162, 163, 164, 165, 166, 167, 168, 169, 170, 171, 172, 173, 174, 175, 176, 177, 178, 179, 180, 181, 182, 183, 184, 185, 186, 187, 188, 189, 190, 191, 192, 193, 194, 195, 196, 197, 198, 199, 200],
      "AcquisitionTime": ["090638.455000", "090640.455000", "090642.455000", "090644.455000", "090646.455000", "090648.455000", "090650.455000", "090652.455000", "090654.455000", "090656.455000", "090658.455000", "090700.455000", "090702.455000", "090704.455000", "090706.455000", "090708.455000", "090710.455000", "090712.455000", "090714.455000", "090716.455000", "090718.455000", "090720.455000", "090722.455000", "090724.455000", "090726.455000", "090728.455000", "090730.455000", "090732.455000", "090734.455000", "090736.455000", "090738.455000", "090740.455000", "090742.455000", "090744.455000", "090746.455000", "090748.455000", "090750.455000", "090752.455000", "090754.455000", "090756.455000", "090758.455000", "090800.455000", "090802.455000", "090804.455000", "090806.455000", "090808.455000", "090810.455000", "090812.455000", "090814.455000", "090816.455000", "090818.455000", "090820.455000", "090822.455000", "090824.455000", "090826.455000", "090828.455000", "090830.455000", "090832.455000", "090834.455000", "090836.455000", "090838.455000", "090840.455000", "090842.455000", "090844.455000", "090846.455000", "090848.455000", "090850.455000", "090852.455000", "090854.455000", "090856.455000", "090858.455000", "090900.455000", "090902.455000", "090904.455000", "090906.455000", "090908.455000", "090910.455000", "090912.455000", "090914.455000", "090916.455000", "090918.455000", "090920.455000", "090922.455000", "090924.455000", "090926.455000", "090928.455000", "090930.455000", "090932.455000", "090934.455000", "090936.455000", "090938.455000", "090940.455000", "090942.455000", "090944.455000", "090946.455000", "090948.455000", "090950.455000", "090952.455000", "090954.455000", "090956.455000", "090958.455000", "091000.455000", "091002.455000", "091004.455000", "091006.455000", "091008.455000", "091010.455000", "091012.455000", "091014.455000", "091016.455000", "091018.455000", "091020.455000", "091022.455000", "091024.455000", "091026.455000", "091028.455000", "091030.455000", "091032.455000", "091034.455000", "091036.455000", "091038.455000", "091040.455000", "091042.455000", "091044.455000", "091046.455000", "091048.455000", "091050.455000", "091052.455000", "091054.455000", "091056.455000", "091058.455000", "091100.455000", "091102.455000", "091104.455000", "091106.455000", "091108.455000", "091110.455000", "091112.455000", "091114.455000", "091116.455000", "091118.455000", "091120.455000", "091122.455000", "091124.455000", "091126.455000", "091128.455000", "091130.455000", "091132.455000", "091134.455000", "091136.455000", "091138.455000", "091140.455000", "091142.455000", "091144.455000", "091146.455000", "091148.455000", "091150.455000", "091152.455000", "091154.455000", "091156.455000", "091158.455000", "091200.455000", "091202.455000", "091204.455000", "091206.455000", "091208.455000", "091210.455000", "091212.455000", "091214.455000", "091216.455000", "091218.455000", "091220.455000", "091222.455000", "091224.455000", "091226.455000", "091228.455000", "091230.455000", "091232.455000", "091234.455000", "091236.455000", "091238.455000", "091240.455000", "091242.455000", "091244.455000", "091246.455000", "091248.455000", "091250.455000", "091252.455000", "091254.455000", "091256.455000", "091258.455000", "091300.455000", "091302.455000", "091304.455000", "091306.455000", "091308.455000", "091310.455000", "091312.455000", "091314.455000", "091316.455000"],
      "ContentTime": ["090737.707000", "090737.710000", "090737.713000", "090737.715000", "090737.717000", "090737.720000", "090737.722000", "090737.724000", "090737.726000", "090737.729000", "090737.731000", "090737.733000", "090737.736000", "090737.738000", "090737.740000", "090737.743000", "090737.745000", "090737.747000", "090737.749000", "090737.752000", "090737.754000", "090737.756000", "090737.759000", "090737.761000", "090737.763000", "090737.766000", "090737.768000", "090737.770000", "090737.773000", "090757.681000", "090757.684000", "090757.686000", "090757.688000", "090757.691000", "090757.693000", "090757.695000", "090757.698000", "090757.700000", "090757.702000", "090837.681000", "090837.684000", "090837.686000", "090837.688000", "090837.691000", "090837.693000", "090837.695000", "090837.698000", "090837.700000", "090837.702000", "090837.705000", "090837.707000", "090837.709000", "090837.712000", "090837.714000", "090837.716000", "090837.719000", "090837.721000", "090837.723000", "090837.725000", "090917.681000", "090917.684000", "090917.686000", "090917.688000", "090917.691000", "090917.693000", "090917.695000", "090917.698000", "090917.700000", "090917.702000", "090917.705000", "090917.707000", "090917.709000", "090917.712000", "090917.714000", "090917.716000", "090917.719000", "090917.721000", "090917.723000", "090917.725000", "090957.681000", "090957.684000", "090957.686000", "090957.688000", "090957.691000", "090957.693000", "090957.695000", "090957.698000", "090957.700000", "090957.702000", "090957.704000", "090957.707000", "090957.709000", "090957.711000", "090957.714000", "090957.716000", "090957.718000", "090957.720000", "090957.723000", "090957.725000", "091037.682000", "091037.685000", "091037.687000", "091037.690000", "091037.692000", "091037.694000", "091037.697000", "091037.699000", "091037.701000", "091037.704000", "091037.706000", "091037.708000", "091037.711000", "091037.713000", "091037.715000", "091037.718000", "091037.720000", "091037.722000", "091037.725000", "091037.727000", "091117.681000", "091117.684000", "091117.686000", "091117.689000", "091117.691000", "091117.693000", "091117.696000", "091117.698000", "091117.700000", "091117.703000", "091117.705000", "091117.707000", "091117.710000", "091117.712000", "091117.714000", "091117.717000", "091117.719000", "091117.721000", "091117.724000", "091117.726000", "091157.681000", "091157.684000", "091157.686000", "091157.689000", "091157.691000", "091157.693000", "091157.696000", "091157.698000", "091157.700000", "091157.703000", "091157.705000", "091157.707000", "091157.710000", "091157.712000", "091157.714000", "091157.716000", "091157.719000", "091157.721000", "091157.723000", "091157.726000", "091237.681000", "091237.684000", "091237.686000", "091237.688000", "091237.691000", "091237.693000", "091237.695000", "091237.697000", "091237.700000", "091237.702000", "091237.704000", "091237.707000", "091237.709000", "091237.711000", "091237.714000", "091237.716000", "091237.718000", "091237.721000", "091237.723000", "091237.725000", "091317.681000", "091317.684000", "091317.686000", "091317.688000", "091317.691000", "091317.693000", "091317.695000", "091317.698000", "091317.700000", "091317.702000", "091317.705000", "091317.707000", "091317.709000", "091317.712000", "091317.714000", "091317.716000", "091317.719000", "091317.721000", "091317.723000", "091317.726000", "091317.927000"],
      "InstanceCreationTime": ["090737.707000", "090737.710000", "090737.713000", "090737.715000", "090737.717000", "090737.720000", "090737.722000", "090737.724000", "090737.726000", "090737.729000", "090737.731000", "090737.733000", "090737.736000", "090737.738000", "090737.740000", "090737.743000", "090737.745000", "090737.747000", "090737.749000", "090737.752000", "090737.754000", "090737.756000", "090737.759000", "090737.761000", "090737.763000", "090737.766000", "090737.768000", "090737.770000", "090737.773000", "090757.681000", "090757.684000", "090757.686000", "090757.688000", "090757.691000", "090757.693000", "090757.695000", "090757.698000", "090757.700000", "090757.702000", "090837.681000", "090837.684000", "090837.686000", "090837.688000", "090837.691000", "090837.693000", "090837.695000", "090837.698000", "090837.700000", "090837.702000", "090837.705000", "090837.707000", "090837.709000", "090837.712000", "090837.714000", "090837.716000", "090837.719000", "090837.721000", "090837.723000", "090837.725000", "090917.681000", "090917.684000", "090917.686000", "090917.688000", "090917.691000", "090917.693000", "090917.695000", "090917.698000", "090917.700000", "090917.702000", "090917.705000", "090917.707000", "090917.709000", "090917.712000", "090917.714000", "090917.716000", "090917.719000", "090917.721000", "090917.723000", "090917.725000", "090957.681000", "090957.684000", "090957.686000", "090957.688000", "090957.691000", "090957.693000", "090957.695000", "090957.698000", "090957.700000", "090957.702000", "090957.704000", "090957.707000", "090957.709000", "090957.711000", "090957.714000", "090957.716000", "090957.718000", "090957.720000", "090957.723000", "090957.725000", "091037.682000", "091037.685000", "091037.687000", "091037.690000", "091037.692000", "091037.694000", "091037.697000", "091037.699000", "091037.701000", "091037.704000", "091037.706000", "091037.708000", "091037.711000", "091037.713000", "091037.715000", "091037.718000", "091037.720000", "091037.722000", "091037.725000", "091037.727000", "091117.681000", "091117.684000", "091117.686000", "091117.689000", "091117.691000", "091117.693000", "091117.696000", "091117.698000", "091117.700000", "091117.703000", "091117.705000", "091117.707000", "091117.710000", "091117.712000", "091117.714000", "091117.717000", "091117.719000", "091117.721000", "091117.724000", "091117.726000", "091157.681000", "091157.684000", "091157.686000", "091157.689000", "091157.691000", "091157.693000", "091157.696000", "091157.698000", "091157.700000", "091157.703000", "091157.705000", "091157.707000", "091157.710000", "091157.712000", "091157.714000", "091157.716000", "091157.719000", "091157.721000", "091157.723000", "091157.726000", "091237.681000", "091237.684000", "091237.686000", "091237.688000", "091237.691000", "091237.693000", "091237.695000", "091237.697000", "091237.700000", "091237.702000", "091237.704000", "091237.707000", "091237.709000", "091237.711000", "091237.714000", "091237.716000", "091237.718000", "091237.721000", "091237.723000", "091237.725000", "091317.681000", "091317.684000", "091317.686000", "091317.688000", "091317.691000", "091317.693000", "091317.695000", "091317.698000", "091317.700000", "091317.702000", "091317.705000", "091317.707000", "091317.709000", "091317.712000", "091317.714000", "091317.716000", "091317.719000", "091317.721000", "091317.723000", "091317.726000", "091317.927000"],
      "InstanceNumber": [1, 2, 3, 4, 5, 6, 7, 8, 9, 10, 11, 12, 13, 14, 15, 16, 17, 18, 19, 20, 21, 22, 23, 24, 25, 26, 27, 28, 29, 30, 31, 32, 33, 34, 35, 36, 37, 38, 39, 40, 41, 42, 43, 44, 45, 46, 47, 48, 49, 50, 51, 52, 53, 54, 55, 56, 57, 58, 59, 60, 61, 62, 63, 64, 65, 66, 67, 68, 69, 70, 71, 72, 73, 74, 75, 76, 77, 78, 79, 80, 81, 82, 83, 84, 85, 86, 87, 88, 89, 90, 91, 92, 93, 94, 95, 96, 97, 98, 99, 100, 101, 102, 103, 104, 105, 106, 107, 108, 109, 110, 111, 112, 113, 114, 115, 116, 117, 118, 119, 120, 121, 122, 123, 124, 125, 126, 127, 128, 129, 130, 131, 132, 133, 134, 135, 136, 137, 138, 139, 140, 141, 142, 143, 144, 145, 146, 147, 148, 149, 150, 151, 152, 153, 154, 155, 156, 157, 158, 159, 160, 161, 162, 163, 164, 165, 166, 167, 168, 169, 170, 171, 172, 173, 174, 175, 176, 177, 178, 179, 180, 181, 182, 183, 184, 185, 186, 187, 188, 189, 190, 191, 192, 193, 194, 195, 196, 197, 198, 199, 200],
      "LargestImagePixelValue": [3632, 3630, 3630, 3632, 3630, 3630, 3636, 3630, 3630, 3631, 3633, 3629, 3632, 3628, 3629, 3632, 3627, 3628, 3627, 3626, 3630, 3633, 3632, 3632, 3634, 3634, 3633, 3634, 3630, 3630, 3631, 3631, 3631, 3628, 3630, 3626, 3629, 3626, 3633, 3627, 3628, 3631, 3627, 3629, 3627, 3629, 3626, 3629, 3633, 3628, 3629, 3631, 3630, 3632, 3627, 3630, 3629, 3631, 3629, 3630, 3629, 3633, 3633, 3631, 3632, 3630, 3634, 3629, 3623, 3627, 3628, 3630, 3630, 3630, 3628, 3629, 3632, 3629, 3625, 3628, 3627, 3627, 3630, 3631, 3629, 3631, 3630, 3631, 3628, 3625, 3630, 3632, 3629, 3629, 3629, 3627, 3629, 3629, 3630, 3630, 3633, 3629, 3627, 3628, 3627, 3629, 3631, 3630, 3632, 3628, 3626, 3627, 3628, 3624, 3630, 3627, 3628, 3628, 3628, 3626, 3629, 3627, 3627, 3627, 3632, 3626, 3632, 3629, 3622, 3629, 3627, 3627, 3629, 3628, 3629, 3630, 3629, 3627, 3629, 3627, 3626, 3627, 3627, 3623, 3627, 3626, 3622, 3629, 3626, 3625, 3629, 3623, 3623, 3625, 3631, 3630, 3629, 3628, 3624, 3626, 3625, 3626, 3627, 3622, 3627, 3623, 3625, 3629, 3629, 3628, 3626, 3625, 3628, 3626, 3628, 3627, 3626, 3626, 3629, 3624, 3624, 3626, 3625, 3624, 3627, 3625, 3625, 3626, 3628, 3623, 3629, 3625, 3628, 3627, 3624, 3623, 3628, 3628, 3626, 3624],
      "WindowCenter": [1337.0, 1336.0, 1337.0, 1337.0, 1337.0, 1337.0, 1336.0, 1337.0, 1337.0, 1337.0, 1337.0, 1336.0, 1337.0, 1337.0, 1336.0, 1336.0, 1336.0, 1336.0, 1336.0, 1336.0, 1336.0, 1336.0, 1336.0, 1336.0, 1336.0, 1336.0, 1336.0, 1336.0, 1336.0, 1336.0, 1336.0, 1335.0, 1336.0, 1336.0, 1336.0, 1336.0, 1336.0, 1336.0, 1336.0, 1336.0, 1336.0, 1336.0, 1336.0, 1335.0, 1336.0, 1336.0, 1336.0, 1336.0, 1336.0, 1336.0, 1336.0, 1336.0, 1335.0, 1335.0, 1335.0, 1335.0, 1335.0, 1335.0, 1335.0, 1335.0, 1335.0, 1335.0, 1335.0, 1335.0, 1335.0, 1335.0, 1335.0, 1335.0, 1335.0, 1335.0, 1335.0, 1334.0, 1334.0, 1335.0, 1335.0, 1335.0, 1335.0, 1335.0, 1335.0, 1335.0, 1335.0, 1335.0, 1335.0, 1335.0, 1335.0, 1335.0, 1334.0, 1335.0, 1335.0, 1335.0, 1334.0, 1334.0, 1335.0, 1334.0, 1335.0, 1334.0, 1334.0, 1335.0, 1334.0, 1334.0, 1334.0, 1334.0, 1334.0, 1335.0, 1335.0, 1334.0, 1334.0, 1334.0, 1334.0, 1335.0, 1334.0, 1335.0, 1334.0, 1334.0, 1334.0, 1335.0, 1334.0, 1335.0, 1334.0, 1335.0, 1334.0, 1334.0, 1334.0, 1335.0, 1335.0, 1334.0, 1334.0, 1334.0, 1334.0, 1334.0, 1334.0, 1334.0, 1334.0, 1334.0, 1334.0, 1334.0, 1334.0, 1334.0, 1334.0, 1334.0, 1334.0, 1334.0, 1334.0, 1334.0, 1334.0, 1334.0, 1334.0, 1334.0, 1334.0, 1334.0, 1333.0, 1333.0, 1334.0, 1334.0, 1334.0, 1334.0, 1334.0, 1333.0, 1334.0, 1334.0, 1334.0, 1333.0, 1334.0, 1333.0, 1333.0, 1334.0, 1333.0, 1334.0, 1334.0, 1334.0, 1333.0, 1334.0, 1333.0, 1334.0, 1333.0, 1333.0, 1333.0, 1333.0, 1333.0, 1332.0, 1333.0, 1333.0, 1333.0, 1333.0, 1334.0, 1333.0, 1333.0, 1333.0, 1333.0, 1333.0, 1333.0, 1333.0, 1333.0, 1333.0, 1333.0, 1333.0, 1333.0, 1333.0, 1333.0, 1333.0],
      "WindowWidth": [3223.0, 3223.0, 3223.0, 3223.0, 3223.0, 3223.0, 3223.0, 3223.0, 3223.0, 3223.0, 3223.0, 3223.0, 3223.0, 3223.0, 3223.0, 3223.0, 3223.0, 3223.0, 3223.0, 3223.0, 3223.0, 3222.0, 3222.0, 3222.0, 3222.0, 3222.0, 3222.0, 3222.0, 3222.0, 3222.0, 3222.0, 3222.0, 3222.0, 3222.0, 3222.0, 3222.0, 3222.0, 3222.0, 3222.0, 3222.0, 3222.0, 3222.0, 3222.0, 3222.0, 3222.0, 3222.0, 3222.0, 3222.0, 3222.0, 3222.0, 3222.0, 3222.0, 3222.0, 3222.0, 3222.0, 3221.0, 3222.0, 3221.0, 3221.0, 3222.0, 3222.0, 3222.0, 3222.0, 3222.0, 3222.0, 3222.0, 3222.0, 3221.0, 3222.0, 3222.0, 3221.0, 3222.0, 3222.0, 3221.0, 3221.0, 3221.0, 3221.0, 3221.0, 3221.0, 3221.0, 3221.0, 3221.0, 3221.0, 3221.0, 3221.0, 3221.0, 3221.0, 3221.0, 3221.0, 3221.0, 3221.0, 3221.0, 3221.0, 3221.0, 3221.0, 3221.0, 3221.0, 3220.0, 3220.0, 3220.0, 3220.0, 3220.0, 3221.0, 3220.0, 3221.0, 3221.0, 3221.0, 3220.0, 3220.0, 3220.0, 3221.0, 3220.0, 3220.0, 3220.0, 3220.0, 3220.0, 3220.0, 3220.0, 3220.0, 3220.0, 3221.0, 3220.0, 3220.0, 3220.0, 3220.0, 3220.0, 3220.0, 3220.0, 3220.0, 3220.0, 3220.0, 3220.0, 3220.0, 3220.0, 3220.0, 3220.0, 3220.0, 3220.0, 3220.0, 3220.0, 3219.0, 3220.0, 3219.0, 3220.0, 3219.0, 3219.0, 3219.0, 3219.0, 3219.0, 3219.0, 3219.0, 3219.0, 3219.0, 3219.0, 3219.0, 3219.0, 3219.0, 3220.0, 3219.0, 3219.0, 3219.0, 3219.0, 3219.0, 3219.0, 3219.0, 3219.0, 3219.0, 3219.0, 3219.0, 3219.0, 3219.0, 3219.0, 3219.0, 3219.0, 3219.0, 3219.0, 3219.0, 3219.0, 3219.0, 3219.0, 3219.0, 3219.0, 3219.0, 3219.0, 3219.0, 3219.0, 3218.0, 3219.0, 3219.0, 3219.0, 3219.0, 3219.0, 3218.0, 3219.0, 3219.0, 3219.0, 3219.0, 3218.0, 3219.0, 3218.0]
    },
    "slices": {}
  }
}