{
  "AcquisitionMatrixPE": 80,
  "AcquisitionNumber": 1,
  "AcquisitionTime": "09:13:25.502500",
  "BandwidthPerPixelPhaseEncode": 25,
  "BaseResolution": 80,
  "BodyPartExamined": "BRAIN",
  "CoilCombinationMethod": "Sum of Squares",
  "ConsistencyInfo": "N4_VE11E_LATEST_20181129",
  "ConversionSoftware": "dcm2niix",
  "ConversionSoftwareVersion": "v1.0.20220720",
  "DerivedVendorReportedEchoSpacing": 0.0005,
  "DeviceSerialNumber": "66112",
  "DwellTime": 2.7e-06,
  "EchoTime": 0.03,
  "EchoTrainLength": 80,
  "EffectiveEchoSpacing": 0.0005,
  "FlipAngle": 10,
  "HeudiconvVersion": "0.13.1",
  "ImageOrientationPatientDICOM": [0.992507, -0.122069, 0.00541088, 0.11431, 0.943245, 0.311806],
  "ImageOrientationText": "Tra>Cor(18.0)>Sag(2.5)",
  "ImageType": [
    "ORIGINAL",
    "PRIMARY",
    "M",
    "ND",
    "NORM",
    "MOSAIC"
],
  "ImagingFrequency": 123.261,
  "InPlanePhaseEncodingDirectionDICOM": "COL",
  "InstitutionAddress": "Maynard 3,Hanover,NH,US,03755",
  "InstitutionName": "Dartmouth College - PBS",
  "InstitutionalDepartmentName": "Department",
  "MRAcquisitionType": "2D",
  "MagneticFieldStrength": 3,
  "Manufacturer": "Siemens",
  "ManufacturersModelName": "Prisma",
  "MatrixCoilMode": "SENSE",
  "Modality": "MR",
  "NonlinearGradientCorrection": false,
  "PartialFourier": 1,
  "PatientPosition": "HFS",
  "PercentPhaseFOV": 100,
  "PercentSampling": 100,
  "PhaseEncodingDirection": "j-",
  "PhaseEncodingSteps": 80,
  "PhaseResolution": 1,
  "PixelBandwidth": 2315,
  "ProcedureStepDescription": "dbic^QA",
  "ProtocolName": "func-bold_fa-10",
  "PulseSequenceDetails": "%SiemensSeq%\\ep2d_bold",
  "ReceiveCoilActiveElements": "HC1-7;NC1,2",
  "ReceiveCoilName": "HeadNeck_64",
  "ReconMatrixPE": 80,
  "RepetitionTime": 2,
  "SAR": 0.00859557,
  "ScanOptions": "FS",
  "ScanningSequence": "EP",
  "SequenceName": "*epfid2d1_80",
  "SequenceVariant": "SK",
  "SeriesDescription": "func-bold_fa-10",
  "SeriesNumber": 7,
  "ShimSetting": [4242, -7736, -7482, -162, -190, -155, -84, 105],
  "SliceThickness": 3.5,
  "SliceTiming": [0.99, 0, 1.0575, 0.0675, 1.1225, 0.1325, 1.19, 0.2, 1.255, 0.265, 1.32, 0.33, 1.3875, 0.3975, 1.4525, 0.4625, 1.5175, 0.53, 1.585, 0.595, 1.65, 0.66, 1.7175, 0.7275, 1.7825, 0.7925, 1.8475, 0.86, 1.915, 0.925],
  "SoftwareVersions": "syngo MR E11",
  "SpacingBetweenSlices": 3.99,
  "StationName": "AWP66112",
  "TotalReadoutTime": 0.0395,
  "TxRefAmp": 208.512,
  "dcmmeta_affine": [
    [-2.977520704269409, 0.34293103218078613, 0.17223085463047028, 105.8399429321289],
    [0.366207093000412, 2.8297336101531982, 1.2323155403137207, -129.55319213867188],
    [0.016232632100582123, -0.9354178309440613, 3.791020154953003, -25.76054573059082],
    [0.0, 0.0, 0.0, 1.0]
],
  "dcmmeta_reorient_transform": [
    [0.0, -1.0, 0.0, 79.0],
    [1.0, 0.0, 0.0, 0.0],
    [0.0, 0.0, 1.0, 0.0],
    [0.0, 0.0, 0.0, 1.0]
],
  "dcmmeta_shape": [80, 80, 30, 200],
  "dcmmeta_slice_dim": 2,
  "dcmmeta_version": 0.6,
  "global": {
    "const": {
      "AccessionNumber": "qa64",
      "AcquisitionMatrix": [80, 0, 0, 80],
      "AngioFlag": "N",
      "BitsAllocated": 16,
      "BitsStored": 12,
      "BodyPartExamined": "BRAIN",
      "Columns": 480,
      "EchoNumbers": 1,
      "EchoTime": 30.0,
      "EchoTrainLength": 80,
      "FlipAngle": 10.0,
      "HighBit": 11,
      "ImageOrientationPatient": [0.99250686362377, -0.1220690299239, 0.00541087729975, 0.11431034111258, 0.94324450616471, 0.31180594526856],
      "ImagePositionPatient": [-797.02181713534, -586.70104431702, -289.98864917545],
      "ImageType": [
        "ORIGINAL",
        "PRIMARY",
        "M",
        "ND",
        "NORM",
        "MOSAIC"
],
      "ImagedNucleus": "1H",
      "ImagingFrequency": 123.261236,
      "InPlanePhaseEncodingDirection": "COL",
      "MRAcquisitionType": "2D",
      "MagneticFieldStrength": 3.0,
      "Manufacturer": "SIEMENS",
      "ManufacturerModelName": "Prisma",
      "Modality": "MR",
      "NumberOfAverages": 1.0,
      "NumberOfPhaseEncodingSteps": 80,
      "PercentPhaseFieldOfView": 100.0,
      "PercentSampling": 100.0,
      "PerformedProcedureStepStartTime": "085211.277000",
      "PhotometricInterpretation": "MONOCHROME2",
      "PixelBandwidth": 2315.0,
      "PixelRepresentation": 0,
      "PixelSpacing": [3.0, 3.0],
      "ProtocolName": "func-bold_fa-10",
      "RepetitionTime": 2000.0,
      "Rows": 480,
      "SAR": 0.00859556574798,
      "SamplesPerPixel": 1,
      "ScanOptions": "FS",
      "ScanningSequence": "EP",
      "SequenceName": "*epfid2d1_80",
      "SequenceVariant": "SK",
      "SeriesDescription": "func-bold_fa-10",
      "SeriesNumber": 7,
      "SeriesTime": "091417.769000",
      "SliceLocation": -59.919865521777,
      "SliceThickness": 3.5,
      "SmallestImagePixelValue": 0,
      "SoftwareVersions": "syngo MR E11",
      "SpacingBetweenSlices": 3.9899999352505,
      "SpecificCharacterSet": "ISO_IR 100",
      "StudyID": "26",
      "StudyTime": "085211.176000",
      "TransmitCoilName": "Body",
      "VariableFlipAngleFlag": "N",
      "WindowCenterWidthExplanation": "Algo1"
    },
    "slices": {}
  },
  "time": {
    "samples": {
      "AcquisitionNumber": [1, 2, 3, 4, 5, 6, 7, 8, 9, 10, 11, 12, 13, 14, 15, 16, 17, 18, 19, 20, 21, 22, 23, 24, 25, 26, 27, 28, 29, 30, 31, 32, 33, 34, 35, 36, 37, 38, 39, 40, 41, 42, 43, 44, 45, 46, 47, 48, 49, 50, 51, 52, 53, 54, 55, 56, 57, 58, 59, 60, 61, 62, 63, 64, 65, 66, 67, 68, 69, 70, 71, 72, 73, 74, 75, 76, 77, 78, 79, 80, 81, 82, 83, 84, 85, 86, 87, 88, 89, 90, 91, 92, 93, 94, 95, 96, 97, 98, 99, 100, 101, 102, 103, 104, 105, 106, 107, 108, 109, 110, 111, 112, 113, 114, 115, 116, 117, 118, 119, 120, 121, 122, 123, 124, 125, 126, 127, 128, 129, 130, 131, 132, 133, 134, 135, 136, 137, 138, 139, 140, 141, 142, 143, 144, 145, 146, 147, 148, 149, 150, 151, 152, 153, 154, 155, 156, 157, 158, 159, 160, 161, 162, 163, 164, 165, 166, 167, 168, 169, 170, 171, 172, 173, 174, 175, 176, 177, 178, 179, 180, 181, 182, 183, 184, 185, 186, 187, 188, 189, 190, 191, 192, 193, 194, 195, 196, 197, 198, 199, 200],
      "AcquisitionTime": ["091325.502500", "091327.502500", "091329.502500", "091331.502500", "091333.502500", "091335.502500", "091337.502500", "091339.502500", "091341.502500", "091343.502500", "091345.502500", "091347.502500", "091349.502500", "091351.502500", "091353.502500", "091355.502500", "091357.502500", "091359.502500", "091401.502500", "091403.502500", "091405.502500", "091407.502500", "091409.502500", "091411.502500", "091413.502500", "091415.502500", "091417.502500", "091419.502500", "091421.502500", "091423.502500", "091425.502500", "091427.502500", "091429.502500", "091431.502500", "091433.502500", "091435.502500", "091437.502500", "091439.502500", "091441.502500", "091443.502500", "091445.502500", "091447.502500", "091449.502500", "091451.502500", "091453.502500", "091455.502500", "091457.502500", "091459.502500", "091501.502500", "091503.502500", "091505.502500", "091507.502500", "091509.502500", "091511.502500", "091513.502500", "091515.502500", "091517.502500", "091519.502500", "091521.502500", "091523.502500", "091525.502500", "091527.502500", "091529.502500", "091531.502500", "091533.502500", "091535.502500", "091537.502500", "091539.502500", "091541.502500", "091543.502500", "091545.502500", "091547.502500", "091549.502500", "091551.502500", "091553.502500", "091555.502500", "091557.502500", "091559.502500", "091601.502500", "091603.502500", "091605.502500", "091607.502500", "091609.502500", "091611.502500", "091613.502500", "091615.502500", "091617.502500", "091619.502500", "091621.502500", "091623.502500", "091625.502500", "091627.502500", "091629.502500", "091631.502500", "091633.502500", "091635.502500", "091637.502500", "091639.502500", "091641.502500", "091643.502500", "091645.502500", "091647.502500", "091649.502500", "091651.502500", "091653.502500", "091655.502500", "091657.502500", "091659.502500", "091701.502500", "091703.502500", "091705.502500", "091707.502500", "091709.502500", "091711.502500", "091713.502500", "091715.502500", "091717.502500", "091719.502500", "091721.502500", "091723.502500", "091725.502500", "091727.502500", "091729.502500", "091731.502500", "091733.502500", "091735.502500", "091737.502500", "091739.502500", "091741.502500", "091743.502500", "091745.502500", "091747.502500", "091749.502500", "091751.502500", "091753.502500", "091755.502500", "091757.502500", "091759.502500", "091801.502500", "091803.502500", "091805.502500", "091807.502500", "091809.502500", "091811.502500", "091813.502500", "091815.502500", "091817.502500", "091819.502500", "091821.502500", "091823.502500", "091825.502500", "091827.502500", "091829.502500", "091831.502500", "091833.502500", "091835.502500", "091837.502500", "091839.502500", "091841.502500", "091843.502500", "091845.502500", "091847.502500", "091849.502500", "091851.502500", "091853.502500", "091855.502500", "091857.502500", "091859.502500", "091901.502500", "091903.502500", "091905.502500", "091907.502500", "091909.502500", "091911.502500", "091913.502500", "091915.502500", "091917.502500", "091919.502500", "091921.502500", "091923.502500", "091925.502500", "091927.502500", "091929.502500", "091931.502500", "091933.502500", "091935.502500", "091937.502500", "091939.502500", "091941.502500", "091943.502500", "091945.502500", "091947.502500", "091949.502500", "091951.502500", "091953.502500", "091955.502500", "091957.502500", "091959.502500", "092001.502500", "092003.502500"],
      "ContentTime": ["091417.772000", "091417.775000", "091417.778000", "091417.780000", "091417.782000", "091417.784000", "091417.796000", "091417.798000", "091417.800000", "091417.802000", "091417.805000", "091417.807000", "091417.809000", "091417.812000", "091417.814000", "091417.820000", "091417.822000", "091417.824000", "091417.827000", "091417.829000", "091417.831000", "091417.834000", "091417.848000", "091417.850000", "091417.852000", "091417.855000", "091457.767000", "091457.770000", "091457.772000", "091457.774000", "091457.777000", "091457.779000", "091457.781000", "091457.784000", "091457.786000", "091457.788000", "091457.790000", "091457.793000", "091457.795000", "091457.797000", "091457.800000", "091457.802000", "091457.804000", "091457.806000", "091457.809000", "091457.811000", "091537.767000", "091537.770000", "091537.772000", "091537.774000", "091537.776000", "091537.785000", "091537.787000", "091537.790000", "091537.792000", "091537.794000", "091537.797000", "091537.799000", "091537.801000", "091537.804000", "091537.806000", "091537.808000", "091537.810000", "091537.813000", "091537.815000", "091537.817000", "091617.767000", "091617.770000", "091617.772000", "091617.774000", "091617.777000", "091617.779000", "091617.781000", "091617.783000", "091617.786000", "091617.788000", "091617.790000", "091617.793000", "091617.795000", "091617.797000", "091617.799000", "091617.802000", "091617.804000", "091617.806000", "091617.808000", "091617.811000", "091657.767000", "091657.770000", "091657.772000", "091657.774000", "091657.776000", "091657.779000", "091657.781000", "091657.783000", "091657.786000", "091657.788000", "091657.790000", "091657.793000", "091657.795000", "091657.797000", "091657.799000", "091657.802000", "091657.804000", "091657.806000", "091657.808000", "091657.811000", "091737.768000", "091737.771000", "091737.773000", "091737.775000", "091737.778000", "091737.780000", "091737.782000", "091737.785000", "091737.787000", "091737.789000", "091737.792000", "091737.794000", "091737.796000", "091737.798000", "091737.801000", "091737.803000", "091737.805000", "091737.807000", "091737.810000", "091737.812000", "091757.767000", "091757.770000", "091757.772000", "091757.775000", "091757.777000", "091757.779000", "091757.781000", "091757.784000", "091757.786000", "091757.788000", "091837.767000", "091837.770000", "091837.772000", "091837.774000", "091837.776000", "091837.779000", "091837.781000", "091837.783000", "091837.785000", "091837.788000", "091837.790000", "091837.792000", "091837.795000", "091837.797000", "091837.799000", "091837.801000", "091837.804000", "091837.806000", "091837.808000", "091837.811000", "091917.767000", "091917.770000", "091917.772000", "091917.774000", "091917.777000", "091917.779000", "091917.781000", "091917.784000", "091917.786000", "091917.788000", "091917.790000", "091917.793000", "091917.795000", "091917.797000", "091917.799000", "091917.802000", "091917.804000", "091917.806000", "091917.808000", "091917.811000", "091957.768000", "091957.771000", "091957.773000", "091957.775000", "091957.778000", "091957.780000", "091957.782000", "091957.784000", "091957.787000", "091957.789000", "091957.791000", "091957.794000", "091957.796000", "091957.798000", "091957.800000", "091957.803000", "091957.805000", "091957.807000", "091957.809000", "091957.812000", "092004.904000", "092004.907000", "092004.909000", "092004.911000"],
      "InstanceCreationTime": ["091417.772000", "091417.775000", "091417.778000", "091417.780000", "091417.782000", "091417.784000", "091417.796000", "091417.798000", "091417.800000", "091417.802000", "091417.805000", "091417.807000", "091417.809000", "091417.812000", "091417.814000", "091417.820000", "091417.822000", "091417.824000", "091417.827000", "091417.829000", "091417.831000", "091417.834000", "091417.848000", "091417.850000", "091417.852000", "091417.855000", "091457.767000", "091457.770000", "091457.772000", "091457.774000", "091457.777000", "091457.779000", "091457.781000", "091457.784000", "091457.786000", "091457.788000", "091457.790000", "091457.793000", "091457.795000", "091457.797000", "091457.800000", "091457.802000", "091457.804000", "091457.806000", "091457.809000", "091457.811000", "091537.767000", "091537.770000", "091537.772000", "091537.774000", "091537.776000", "091537.785000", "091537.787000", "091537.790000", "091537.792000", "091537.794000", "091537.797000", "091537.799000", "091537.801000", "091537.804000", "091537.806000", "091537.808000", "091537.810000", "091537.813000", "091537.815000", "091537.817000", "091617.767000", "091617.770000", "091617.772000", "091617.774000", "091617.777000", "091617.779000", "091617.781000", "091617.783000", "091617.786000", "091617.788000", "091617.790000", "091617.793000", "091617.795000", "091617.797000", "091617.799000", "091617.802000", "091617.804000", "091617.806000", "091617.808000", "091617.811000", "091657.767000", "091657.770000", "091657.772000", "091657.774000", "091657.776000", "091657.779000", "091657.781000", "091657.783000", "091657.786000", "091657.788000", "091657.790000", "091657.793000", "091657.795000", "091657.797000", "091657.799000", "091657.802000", "091657.804000", "091657.806000", "091657.808000", "091657.811000", "091737.768000", "091737.771000", "091737.773000", "091737.775000", "091737.778000", "091737.780000", "091737.782000", "091737.785000", "091737.787000", "091737.789000", "091737.792000", "091737.794000", "091737.796000", "091737.798000", "091737.801000", "091737.803000", "091737.805000", "091737.807000", "091737.810000", "091737.812000", "091757.767000", "091757.770000", "091757.772000", "091757.775000", "091757.777000", "091757.779000", "091757.781000", "091757.784000", "091757.786000", "091757.788000", "091837.767000", "091837.770000", "091837.772000", "091837.774000", "091837.776000", "091837.779000", "091837.781000", "091837.783000", "091837.785000", "091837.788000", "091837.790000", "091837.792000", "091837.795000", "091837.797000", "091837.799000", "091837.801000", "091837.804000", "091837.806000", "091837.808000", "091837.811000", "091917.767000", "091917.770000", "091917.772000", "091917.774000", "091917.777000", "091917.779000", "091917.781000", "091917.784000", "091917.786000", "091917.788000", "091917.790000", "091917.793000", "091917.795000", "091917.797000", "091917.799000", "091917.802000", "091917.804000", "091917.806000", "091917.808000", "091917.811000", "091957.768000", "091957.771000", "091957.773000", "091957.775000", "091957.778000", "091957.780000", "091957.782000", "091957.784000", "091957.787000", "091957.789000", "091957.791000", "091957.794000", "091957.796000", "091957.798000", "091957.800000", "091957.803000", "091957.805000", "091957.807000", "091957.809000", "091957.812000", "092004.904000", "092004.907000", "092004.909000", "092004.911000"],
      "InstanceNumber": [1, 2, 3, 4, 5, 6, 7, 8, 9, 10, 11, 12, 13, 14, 15, 16, 17, 18, 19, 20, 21, 22, 23, 24, 25, 26, 27, 28, 29, 30, 31, 32, 33, 34, 35, 36, 37, 38, 39, 40, 41, 42, 43, 44, 45, 46, 47, 48, 49, 50, 51, 52, 53, 54, 55, 56, 57, 58, 59, 60, 61, 62, 63, 64, 65, 66, 67, 68, 69, 70, 71, 72, 73, 74, 75, 76, 77, 78, 79, 80, 81, 82, 83, 84, 85, 86, 87, 88, 89, 90, 91, 92, 93, 94, 95, 96, 97, 98, 99, 100, 101, 102, 103, 104, 105, 106, 107, 108, 109, 110, 111, 112, 113, 114, 115, 116, 117, 118, 119, 120, 121, 122, 123, 124, 125, 126, 127, 128, 129, 130, 131, 132, 133, 134, 135, 136, 137, 138, 139, 140, 141, 142, 143, 144, 145, 146, 147, 148, 149, 150, 151, 152, 153, 154, 155, 156, 157, 158, 159, 160, 161, 162, 163, 164, 165, 166, 167, 168, 169, 170, 171, 172, 173, 174, 175, 176, 177, 178, 179, 180, 181, 182, 183, 184, 185, 186, 187, 188, 189, 190, 191, 192, 193, 194, 195, 196, 197, 198, 199, 200],
      "LargestImagePixelValue": [605, 602, 600, 599, 607, 604, 602, 608, 605, 603, 603, 604, 605, 604, 602, 601, 602, 603, 609, 600, 611, 605, 612, 613, 599, 606, 603, 606, 601, 600, 602, 601, 601, 602, 600, 602, 600, 601, 604, 600, 602, 608, 609, 603, 602, 601, 599, 603, 604, 601, 600, 606, 602, 602, 605, 600, 605, 603, 599, 612, 602, 606, 602, 607, 602, 600, 606, 601, 600, 600, 601, 605, 600, 604, 607, 604, 602, 600, 601, 604, 599, 599, 604, 603, 603, 603, 600, 601, 604, 604, 599, 603, 601, 602, 601, 603, 605, 600, 600, 606, 600, 600, 602, 601, 600, 604, 604, 602, 604, 600, 600, 603, 599, 601, 601, 600, 602, 603, 603, 597, 600, 600, 604, 602, 602, 599, 601, 600, 601, 602, 601, 602, 601, 598, 604, 599, 603, 605, 602, 602, 600, 601, 601, 608, 604, 605, 599, 602, 602, 604, 603, 603, 602, 597, 599, 603, 606, 605, 603, 607, 602, 601, 603, 598, 599, 600, 602, 600, 605, 601, 600, 602, 603, 597, 606, 600, 602, 601, 600, 602, 599, 599, 599, 602, 596, 601, 598, 604, 600, 602, 600, 600, 601, 599, 599, 600, 600, 601, 603, 604],
      "WindowCenter": [441.0, 441.0, 441.0, 441.0, 441.0, 441.0, 441.0, 442.0, 441.0, 441.0, 441.0, 441.0, 441.0, 441.0, 441.0, 441.0, 441.0, 442.0, 441.0, 441.0, 442.0, 441.0, 442.0, 442.0, 441.0, 441.0, 441.0, 442.0, 441.0, 441.0, 441.0, 441.0, 441.0, 441.0, 441.0, 441.0, 441.0, 441.0, 441.0, 442.0, 441.0, 441.0, 441.0, 441.0, 441.0, 441.0, 441.0, 441.0, 441.0, 441.0, 441.0, 441.0, 441.0, 441.0, 441.0, 441.0, 441.0, 441.0, 441.0, 442.0, 441.0, 441.0, 441.0, 441.0, 441.0, 441.0, 441.0, 441.0, 441.0, 441.0, 441.0, 441.0, 441.0, 441.0, 441.0, 441.0, 441.0, 441.0, 441.0, 441.0, 441.0, 441.0, 441.0, 441.0, 441.0, 441.0, 441.0, 441.0, 441.0, 441.0, 441.0, 441.0, 441.0, 441.0, 441.0, 441.0, 441.0, 441.0, 441.0, 441.0, 441.0, 441.0, 441.0, 441.0, 441.0, 441.0, 441.0, 441.0, 441.0, 441.0, 441.0, 441.0, 441.0, 441.0, 441.0, 441.0, 441.0, 441.0, 441.0, 441.0, 441.0, 441.0, 441.0, 441.0, 441.0, 441.0, 441.0, 441.0, 441.0, 441.0, 441.0, 441.0, 441.0, 441.0, 441.0, 441.0, 441.0, 441.0, 441.0, 441.0, 441.0, 441.0, 441.0, 441.0, 441.0, 441.0, 441.0, 441.0, 441.0, 441.0, 441.0, 441.0, 441.0, 441.0, 441.0, 441.0, 441.0, 441.0, 440.0, 440.0, 440.0, 440.0, 441.0, 441.0, 441.0, 441.0, 441.0, 441.0, 440.0, 440.0, 440.0, 440.0, 440.0, 441.0, 441.0, 441.0, 441.0, 440.0, 440.0, 440.0, 440.0, 440.0, 440.0, 440.0, 441.0, 441.0, 441.0, 440.0, 440.0, 440.0, 440.0, 440.0, 440.0, 440.0, 440.0, 440.0, 440.0, 440.0, 440.0, 440.0],
      "WindowWidth": [921.0, 921.0, 921.0, 921.0, 921.0, 921.0, 921.0, 922.0, 921.0, 921.0, 921.0, 921.0, 921.0, 921.0, 921.0, 921.0, 921.0, 922.0, 921.0, 921.0, 923.0, 921.0, 922.0, 922.0, 921.0, 921.0, 921.0, 922.0, 921.0, 921.0, 921.0, 921.0, 921.0, 921.0, 921.0, 921.0, 921.0, 921.0, 921.0, 922.0, 921.0, 921.0, 921.0, 921.0, 921.0, 921.0, 921.0, 921.0, 921.0, 921.0, 921.0, 921.0, 921.0, 920.0, 921.0, 921.0, 921.0, 921.0, 921.0, 922.0, 921.0, 921.0, 921.0, 921.0, 921.0, 921.0, 920.0, 920.0, 921.0, 921.0, 921.0, 921.0, 921.0, 921.0, 921.0, 921.0, 920.0, 920.0, 921.0, 921.0, 921.0, 921.0, 921.0, 921.0, 921.0, 920.0, 920.0, 920.0, 921.0, 921.0, 921.0, 921.0, 921.0, 921.0, 920.0, 920.0, 921.0, 920.0, 920.0, 920.0, 921.0, 921.0, 921.0, 921.0, 921.0, 920.0, 920.0, 920.0, 920.0, 920.0, 920.0, 920.0, 921.0, 921.0, 920.0, 920.0, 920.0, 920.0, 920.0, 920.0, 920.0, 920.0, 921.0, 920.0, 920.0, 920.0, 920.0, 920.0, 920.0, 920.0, 920.0, 920.0, 921.0, 921.0, 920.0, 920.0, 920.0, 920.0, 919.0, 919.0, 920.0, 920.0, 920.0, 920.0, 920.0, 920.0, 920.0, 919.0, 919.0, 919.0, 919.0, 919.0, 919.0, 920.0, 920.0, 920.0, 919.0, 919.0, 919.0, 919.0, 919.0, 919.0, 919.0, 919.0, 920.0, 920.0, 919.0, 919.0, 919.0, 919.0, 919.0, 919.0, 919.0, 919.0, 919.0, 919.0, 919.0, 919.0, 919.0, 918.0, 919.0, 919.0, 919.0, 919.0, 919.0, 919.0, 919.0, 919.0, 919.0, 918.0, 919.0, 919.0, 919.0, 918.0, 919.0, 919.0, 919.0, 919.0, 919.0, 919.0]
    },
    "slices": {}
  }
}