{
  "AcquisitionMatrixPE": 80,
  "AcquisitionNumber": 1,
  "AcquisitionTime": "08:59:25.757500",
  "BandwidthPerPixelPhaseEncode": 48.077,
  "BaseResolution": 80,
  "BodyPartExamined": "BRAIN",
  "CoilCombinationMethod": "Sum of Squares",
  "ConsistencyInfo": "N4_VE11E_LATEST_20181129",
  "ConversionSoftware": "dcm2niix",
  "ConversionSoftwareVersion": "v1.0.20220720",
  "DerivedVendorReportedEchoSpacing": 0.000519999,
  "DeviceSerialNumber": "66112",
  "DwellTime": 2.7e-06,
  "EchoTime": 0.035,
  "EchoTrainLength": 39,
  "EffectiveEchoSpacing": 0.00026,
  "FlipAngle": 90,
  "HeudiconvVersion": "0.13.1",
  "ImageOrientationPatientDICOM": [0.999947, 0.0100979, 0.00222618, -0.0102973, 0.952783, 0.303478],
  "ImageOrientationText": "Tra>Cor(17.7)>Sag(-0.1)",
  "ImageType": [
    "ORIGINAL",
    "PRIMARY",
    "M",
    "ND",
    "NORM",
    "MOSAIC"
],
  "ImagingFrequency": 123.259,
  "InPlanePhaseEncodingDirectionDICOM": "COL",
  "InstitutionAddress": "Maynard 3,Hanover,NH,US,03755",
  "InstitutionName": "Dartmouth College - PBS",
  "InstitutionalDepartmentName": "Department",
  "MRAcquisitionType": "2D",
  "MagneticFieldStrength": 3,
  "Manufacturer": "Siemens",
  "ManufacturersModelName": "Prisma",
  "MatrixCoilMode": "GRAPPA",
  "Modality": "MR",
  "NonlinearGradientCorrection": false,
  "ParallelReductionFactorInPlane": 2,
  "PartialFourier": 1,
  "PatientPosition": "HFS",
  "PercentPhaseFOV": 100,
  "PercentSampling": 100,
  "PhaseEncodingDirection": "j-",
  "PhaseEncodingSteps": 79,
  "PhaseResolution": 1,
  "PixelBandwidth": 2315,
  "ProcedureStepDescription": "dbic^QA",
  "ProtocolName": "func-bold_task-rest_acq-p2",
  "PulseSequenceDetails": "%SiemensSeq%\\ep2d_bold",
  "ReceiveCoilActiveElements": "HC1-7;NC1,2",
  "ReceiveCoilName": "HeadNeck_64",
  "ReconMatrixPE": 80,
  "RefLinesPE": 24,
  "RepetitionTime": 2,
  "SAR": 0.040822,
  "ScanOptions": "FS",
  "ScanningSequence": "EP",
  "SequenceName": "*epfid2d1_80",
  "SequenceVariant": "SK",
  "SeriesDescription": "func-bold_task-rest_acq-p2",
  "SeriesNumber": 5,
  "ShimSetting": [4217, -7748, -7483, -130, -160, -127, -72, 94],
  "SliceThickness": 3.5,
  "SliceTiming": [0.9875, 0, 1.055, 0.065, 1.12, 0.13, 1.1875, 0.1975, 1.2525, 0.2625, 1.3175, 0.33, 1.385, 0.395, 1.45, 0.46, 1.5175, 0.5275, 1.5825, 0.5925, 1.6475, 0.6575, 1.715, 0.725, 1.78, 0.79, 1.8475, 0.8575, 1.9125, 0.9225],
  "SoftwareVersions": "syngo MR E11",
  "SpacingBetweenSlices": 3.99,
  "StationName": "AWP66112",
  "TaskName": "rest",
  "TotalReadoutTime": 0.02054,
  "TxRefAmp": 212.189,
  "dcmmeta_affine": [
    [-2.9998395442962646, -0.030891861766576767, -0.003764296416193247, 123.27764892578125],
    [-0.03029380552470684, 2.8583483695983887, 1.2109037637710571, -122.91319274902344],
    [0.006678546778857708, -0.9104338884353638, 3.8018150329589844, -11.474281311035156],
    [0.0, 0.0, 0.0, 1.0]
],
  "dcmmeta_reorient_transform": [
    [0.0, -1.0, 0.0, 79.0],
    [1.0, 0.0, 0.0, 0.0],
    [0.0, 0.0, 1.0, 0.0],
    [0.0, 0.0, 0.0, 1.0]
],
  "dcmmeta_shape": [80, 80, 30, 200],
  "dcmmeta_slice_dim": 2,
  "dcmmeta_version": 0.6,
  "global": {
    "const": {
      "AccessionNumber": "qa64",
      "AcquisitionMatrix": [80, 0, 0, 80],
      "AngioFlag": "N",
      "BitsAllocated": 16,
      "BitsStored": 12,
      "BodyPartExamined": "BRAIN",
      "Columns": 480,
      "EchoNumbers": 1,
      "EchoTime": 35.0,
      "EchoTrainLength": 39,
      "FlipAngle": 90.0,
      "HighBit": 11,
      "ImageOrientationPatient": [0.99994653647865, 0.01009793527997, 0.002226182254, -0.0102972869767, 0.95278281261489, 0.30347796932658],
      "ImagePositionPatient": [-714.62674478623, -680.62478545696, -266.82105087508],
      "ImageType": [
        "ORIGINAL",
        "PRIMARY",
        "M",
        "ND",
        "NORM",
        "MOSAIC"
],
      "ImagedNucleus": "1H",
      "ImagingFrequency": 123.259258,
      "InPlanePhaseEncodingDirection": "COL",
      "MRAcquisitionType": "2D",
      "MagneticFieldStrength": 3.0,
      "Manufacturer": "SIEMENS",
      "ManufacturerModelName": "Prisma",
      "Modality": "MR",
      "NumberOfAverages": 1.0,
      "NumberOfPhaseEncodingSteps": 79,
      "PercentPhaseFieldOfView": 100.0,
      "PercentSampling": 100.0,
      "PerformedProcedureStepStartTime": "085403.795000",
      "PhotometricInterpretation": "MONOCHROME2",
      "PixelBandwidth": 2315.0,
      "PixelRepresentation": 0,
      "PixelSpacing": [3.0, 3.0],
      "ProtocolName": "func-bold_task-rest_acq-p2",
      "RepetitionTime": 2000.0,
      "Rows": 480,
      "SAR": 0.04082195162598,
      "SamplesPerPixel": 1,
      "ScanOptions": "FS",
      "ScanningSequence": "EP",
      "SequenceName": "*epfid2d1_80",
      "SequenceVariant": "SK",
      "SeriesDescription": "func-bold_task-rest_acq-p2",
      "SeriesNumber": 5,
      "SeriesTime": "090011.642000",
      "SliceLocation": -48.351679316784,
      "SliceThickness": 3.5,
      "SmallestImagePixelValue": 0,
      "SoftwareVersions": "syngo MR E11",
      "SpacingBetweenSlices": 3.989999973565,
      "SpecificCharacterSet": "ISO_IR 100",
      "StudyID": "18",
      "StudyTime": "085403.716000",
      "TransmitCoilName": "Body",
      "VariableFlipAngleFlag": "N",
      "WindowCenterWidthExplanation": "Algo1"
    },
    "slices": {}
  },
  "time": {
    "samples": {
      "AcquisitionNumber": [1, 2, 3, 4, 5, 6, 7, 8, 9, 10, 11, 12, 13, 14, 15, 16, 17, 18, 19, 20, 21, 22, 23, 24, 25, 26, 27, 28, 29, 30, 31, 32, 33, 34, 35, 36, 37, 38, 39, 40, 41, 42, 43, 44, 45, 46, 47, 48, 49, 50, 51, 52, 53, 54, 55, 56, 57, 58, 59, 60, 61, 62, 63, 64, 65, 66, 67, 68, 69, 70, 71, 72, 73, 74, 75, 76, 77, 78, 79, 80, 81, 82, 83, 84, 85, 86, 87, 88, 89, 90, 91, 92, 93, 94, 95, 96, 97, 98, 99, 100, 101, 102, 103, 104, 105, 106, 107, 108, 109, 110, 111, 112, 113, 114, 115, 116, 117, 118, 119, 120, 121, 122, 123, 124, 125, 126, 127, 128, 129, 130, 131, 132, 133, 134, 135, 136, 137, 138, 139, 140, 141, 142, 143, 144, 145, 146, 147, 148, 149, 150, 151, 152, 153, 154, 155, 156, 157, 158, 159, 160, 161, 162, 163, 164, 165, 166, 167, 168, 169, 170, 171, 172, 173, 174, 175, 176, 177, 178, 179, 180, 181, 182, 183, 184, 185, 186, 187, 188, 189, 190, 191, 192, 193, 194, 195, 196, 197, 198, 199, 200],
      "AcquisitionTime": ["085925.757500", "085927.757500", "085929.757500", "085931.757500", "085933.757500", "085935.757500", "085937.757500", "085939.757500", "085941.757500", "085943.757500", "085945.757500", "085947.757500", "085949.757500", "085951.757500", "085953.757500", "085955.757500", "085957.757500", "085959.757500", "090001.757500", "090003.757500", "090005.757500", "090007.757500", "090009.757500", "090011.757500", "090013.757500", "090015.757500", "090017.757500", "090019.757500", "090021.757500", "090023.757500", "090025.757500", "090027.757500", "090029.757500", "090031.757500", "090033.757500", "090035.757500", "090037.757500", "090039.757500", "090041.757500", "090043.757500", "090045.757500", "090047.757500", "090049.757500", "090051.757500", "090053.757500", "090055.757500", "090057.757500", "090059.757500", "090101.757500", "090103.757500", "090105.757500", "090107.757500", "090109.757500", "090111.757500", "090113.757500", "090115.757500", "090117.757500", "090119.757500", "090121.757500", "090123.757500", "090125.757500", "090127.757500", "090129.757500", "090131.757500", "090133.757500", "090135.757500", "090137.757500", "090139.757500", "090141.757500", "090143.757500", "090145.757500", "090147.757500", "090149.757500", "090151.757500", "090153.757500", "090155.757500", "090157.757500", "090159.757500", "090201.757500", "090203.757500", "090205.757500", "090207.757500", "090209.757500", "090211.757500", "090213.757500", "090215.757500", "090217.757500", "090219.757500", "090221.757500", "090223.757500", "090225.757500", "090227.757500", "090229.757500", "090231.757500", "090233.757500", "090235.757500", "090237.757500", "090239.757500", "090241.757500", "090243.757500", "090245.757500", "090247.757500", "090249.757500", "090251.757500", "090253.757500", "090255.757500", "090257.757500", "090259.757500", "090301.757500", "090303.757500", "090305.757500", "090307.757500", "090309.757500", "090311.757500", "090313.757500", "090315.757500", "090317.757500", "090319.757500", "090321.757500", "090323.757500", "090325.757500", "090327.757500", "090329.757500", "090331.757500", "090333.757500", "090335.757500", "090337.757500", "090339.757500", "090341.757500", "090343.757500", "090345.757500", "090347.757500", "090349.757500", "090351.757500", "090353.757500", "090355.757500", "090357.757500", "090359.757500", "090401.757500", "090403.757500", "090405.757500", "090407.757500", "090409.757500", "090411.757500", "090413.757500", "090415.757500", "090417.757500", "090419.757500", "090421.757500", "090423.757500", "090425.757500", "090427.757500", "090429.757500", "090431.757500", "090433.757500", "090435.757500", "090437.757500", "090439.757500", "090441.757500", "090443.757500", "090445.757500", "090447.757500", "090449.757500", "090451.757500", "090453.757500", "090455.757500", "090457.757500", "090459.757500", "090501.757500", "090503.757500", "090505.757500", "090507.757500", "090509.757500", "090511.757500", "090513.757500", "090515.757500", "090517.757500", "090519.757500", "090521.757500", "090523.757500", "090525.757500", "090527.757500", "090529.757500", "090531.757500", "090533.757500", "090535.757500", "090537.757500", "090539.757500", "090541.757500", "090543.757500", "090545.757500", "090547.757500", "090549.757500", "090551.757500", "090553.757500", "090555.757500", "090557.757500", "090559.757500", "090601.757500", "090603.757500"],
      "ContentTime": ["090011.646000", "090011.649000", "090011.651000", "090011.653000", "090011.656000", "090011.658000", "090011.660000", "090011.663000", "090011.665000", "090011.667000", "090011.670000", "090011.672000", "090011.674000", "090011.677000", "090011.679000", "090011.681000", "090011.684000", "090011.686000", "090011.688000", "090011.691000", "090011.693000", "090011.695000", "090011.698000", "090051.641000", "090051.644000", "090051.646000", "090051.648000", "090051.651000", "090051.653000", "090051.655000", "090051.658000", "090051.660000", "090051.662000", "090051.665000", "090051.667000", "090051.669000", "090051.672000", "090051.674000", "090051.676000", "090051.679000", "090051.681000", "090051.683000", "090051.686000", "090131.641000", "090131.644000", "090131.654000", "090131.657000", "090131.659000", "090131.661000", "090131.668000", "090131.670000", "090131.673000", "090131.675000", "090131.677000", "090131.680000", "090131.682000", "090131.684000", "090131.687000", "090131.689000", "090131.691000", "090131.694000", "090131.696000", "090131.698000", "090211.640000", "090211.643000", "090211.645000", "090211.648000", "090211.650000", "090211.652000", "090211.655000", "090211.657000", "090211.659000", "090211.662000", "090211.664000", "090211.667000", "090211.669000", "090211.671000", "090211.674000", "090211.676000", "090211.678000", "090211.681000", "090211.683000", "090211.685000", "090251.641000", "090251.644000", "090251.646000", "090251.648000", "090251.651000", "090251.653000", "090251.656000", "090251.658000", "090251.661000", "090251.664000", "090251.667000", "090251.669000", "090251.671000", "090251.674000", "090251.676000", "090251.678000", "090251.681000", "090251.683000", "090251.685000", "090251.688000", "090331.641000", "090331.644000", "090331.646000", "090331.648000", "090331.651000", "090331.653000", "090331.655000", "090331.658000", "090331.660000", "090331.663000", "090331.665000", "090331.667000", "090331.669000", "090331.672000", "090331.674000", "090331.676000", "090331.679000", "090331.681000", "090331.683000", "090331.686000", "090411.640000", "090411.643000", "090411.645000", "090411.647000", "090411.650000", "090411.656000", "090411.659000", "090411.661000", "090411.663000", "090411.666000", "090411.668000", "090411.670000", "090411.673000", "090411.675000", "090411.677000", "090411.679000", "090411.682000", "090411.684000", "090411.686000", "090411.689000", "090451.640000", "090451.643000", "090451.645000", "090451.647000", "090451.650000", "090451.652000", "090451.654000", "090451.657000", "090451.659000", "090451.661000", "090451.664000", "090451.666000", "090451.668000", "090451.671000", "090451.673000", "090451.675000", "090451.678000", "090451.680000", "090451.682000", "090451.685000", "090531.641000", "090531.644000", "090531.646000", "090531.648000", "090531.651000", "090531.653000", "090531.655000", "090531.658000", "090531.660000", "090531.663000", "090531.665000", "090531.667000", "090531.670000", "090531.672000", "090531.674000", "090531.676000", "090531.679000", "090531.681000", "090531.684000", "090531.692000", "090605.063000", "090605.066000", "090605.068000", "090605.071000", "090605.073000", "090605.075000", "090605.078000", "090605.080000", "090605.083000", "090605.085000", "090605.087000", "090605.090000", "090605.092000", "090605.099000", "090605.104000", "090605.107000", "090605.110000"],
      "InstanceCreationTime": ["090011.646000", "090011.649000", "090011.651000", "090011.653000", "090011.656000", "090011.658000", "090011.660000", "090011.663000", "090011.665000", "090011.667000", "090011.670000", "090011.672000", "090011.674000", "090011.677000", "090011.679000", "090011.681000", "090011.684000", "090011.686000", "090011.688000", "090011.691000", "090011.693000", "090011.695000", "090011.698000", "090051.641000", "090051.644000", "090051.646000", "090051.648000", "090051.651000", "090051.653000", "090051.655000", "090051.658000", "090051.660000", "090051.662000", "090051.665000", "090051.667000", "090051.669000", "090051.672000", "090051.674000", "090051.676000", "090051.679000", "090051.681000", "090051.683000", "090051.686000", "090131.641000", "090131.644000", "090131.654000", "090131.657000", "090131.659000", "090131.661000", "090131.668000", "090131.670000", "090131.673000", "090131.675000", "090131.677000", "090131.680000", "090131.682000", "090131.684000", "090131.687000", "090131.689000", "090131.691000", "090131.694000", "090131.696000", "090131.698000", "090211.640000", "090211.643000", "090211.645000", "090211.648000", "090211.650000", "090211.652000", "090211.655000", "090211.657000", "090211.659000", "090211.662000", "090211.664000", "090211.667000", "090211.669000", "090211.671000", "090211.674000", "090211.676000", "090211.678000", "090211.681000", "090211.683000", "090211.685000", "090251.641000", "090251.644000", "090251.646000", "090251.648000", "090251.651000", "090251.653000", "090251.656000", "090251.658000", "090251.661000", "090251.664000", "090251.667000", "090251.669000", "090251.671000", "090251.674000", "090251.676000", "090251.678000", "090251.681000", "090251.683000", "090251.685000", "090251.688000", "090331.641000", "090331.644000", "090331.646000", "090331.648000", "090331.651000", "090331.653000", "090331.655000", "090331.658000", "090331.660000", "090331.663000", "090331.665000", "090331.667000", "090331.669000", "090331.672000", "090331.674000", "090331.676000", "090331.679000", "090331.681000", "090331.683000", "090331.686000", "090411.640000", "090411.643000", "090411.645000", "090411.647000", "090411.650000", "090411.656000", "090411.659000", "090411.661000", "090411.663000", "090411.666000", "090411.668000", "090411.670000", "090411.673000", "090411.675000", "090411.677000", "090411.679000", "090411.682000", "090411.684000", "090411.686000", "090411.689000", "090451.640000", "090451.643000", "090451.645000", "090451.647000", "090451.650000", "090451.652000", "090451.654000", "090451.657000", "090451.659000", "090451.661000", "090451.664000", "090451.666000", "090451.668000", "090451.671000", "090451.673000", "090451.675000", "090451.678000", "090451.680000", "090451.682000", "090451.685000", "090531.641000", "090531.644000", "090531.646000", "090531.648000", "090531.651000", "090531.653000", "090531.655000", "090531.658000", "090531.660000", "090531.663000", "090531.665000", "090531.667000", "090531.670000", "090531.672000", "090531.674000", "090531.676000", "090531.679000", "090531.681000", "090531.684000", "090531.692000", "090605.063000", "090605.066000", "090605.068000", "090605.071000", "090605.073000", "090605.075000", "090605.078000", "090605.080000", "090605.083000", "090605.085000", "090605.087000", "090605.090000", "090605.092000", "090605.099000", "090605.104000", "090605.107000", "090605.110000"],
      "InstanceNumber": [1, 2, 3, 4, 5, 6, 7, 8, 9, 10, 11, 12, 13, 14, 15, 16, 17, 18, 19, 20, 21, 22, 23, 24, 25, 26, 27, 28, 29, 30, 31, 32, 33, 34, 35, 36, 37, 38, 39, 40, 41, 42, 43, 44, 45, 46, 47, 48, 49, 50, 51, 52, 53, 54, 55, 56, 57, 58, 59, 60, 61, 62, 63, 64, 65, 66, 67, 68, 69, 70, 71, 72, 73, 74, 75, 76, 77, 78, 79, 80, 81, 82, 83, 84, 85, 86, 87, 88, 89, 90, 91, 92, 93, 94, 95, 96, 97, 98, 99, 100, 101, 102, 103, 104, 105, 106, 107, 108, 109, 110, 111, 112, 113, 114, 115, 116, 117, 118, 119, 120, 121, 122, 123, 124, 125, 126, 127, 128, 129, 130, 131, 132, 133, 134, 135, 136, 137, 138, 139, 140, 141, 142, 143, 144, 145, 146, 147, 148, 149, 150, 151, 152, 153, 154, 155, 156, 157, 158, 159, 160, 161, 162, 163, 164, 165, 166, 167, 168, 169, 170, 171, 172, 173, 174, 175, 176, 177, 178, 179, 180, 181, 182, 183, 184, 185, 186, 187, 188, 189, 190, 191, 192, 193, 194, 195, 196, 197, 198, 199, 200],
      "LargestImagePixelValue": [3674, 3671, 3662, 3670, 3667, 3674, 3671, 3666, 3666, 3673, 3662, 3666, 3664, 3665, 3668, 3666, 3664, 3665, 3666, 3664, 3671, 3672, 3667, 3674, 3670, 3676, 3670, 3671, 3669, 3673, 3668, 3676, 3675, 3676, 3672, 3672, 3682, 3676, 3680, 3666, 3677, 3678, 3675, 3675, 3681, 3680, 3679, 3677, 3682, 3679, 3675, 3674, 3678, 3684, 3685, 3680, 3689, 3688, 3678, 3680, 3681, 3684, 3679, 3682, 3672, 3682, 3687, 3684, 3681, 3690, 3679, 3695, 3684, 3686, 3689, 3694, 3693, 3686, 3687, 3685, 3687, 3688, 3685, 3689, 3686, 3689, 3690, 3682, 3682, 3678, 3691, 3691, 3688, 3684, 3691, 3686, 3685, 3689, 3689, 3687, 3688, 3684, 3691, 3687, 3695, 3691, 3682, 3694, 3685, 3688, 3697, 3687, 3688, 3692, 3693, 3692, 3695, 3692, 3699, 3693, 3689, 3692, 3690, 3692, 3693, 3699, 3707, 3701, 3701, 3701, 3701, 3694, 3700, 3693, 3696, 3692, 3693, 3687, 3689, 3693, 3692, 3685, 3692, 3691, 3687, 3695, 3692, 3689, 3691, 3686, 3684, 3675, 3683, 3661, 3677, 3674, 3677, 3676, 3674, 3673, 3679, 3676, 3680, 3677, 3687, 3683, 3683, 3685, 3692, 3681, 3681, 3687, 3694, 3692, 3685, 3682, 3678, 3673, 3678, 3681, 3691, 3693, 3694, 3693, 3688, 3695, 3697, 3696, 3697, 3705, 3704, 3707, 3703, 3709, 3706, 3699, 3702, 3709, 3705, 3704],
      "WindowCenter": [1416.0, 1415.0, 1414.0, 1414.0, 1415.0, 1415.0, 1414.0, 1414.0, 1414.0, 1414.0, 1414.0, 1415.0, 1414.0, 1414.0, 1415.0, 1415.0, 1414.0, 1415.0, 1414.0, 1414.0, 1415.0, 1414.0, 1414.0, 1414.0, 1414.0, 1414.0, 1413.0, 1414.0, 1414.0, 1414.0, 1414.0, 1414.0, 1414.0, 1414.0, 1414.0, 1413.0, 1414.0, 1415.0, 1414.0, 1414.0, 1414.0, 1415.0, 1414.0, 1414.0, 1414.0, 1413.0, 1414.0, 1413.0, 1413.0, 1414.0, 1414.0, 1414.0, 1413.0, 1415.0, 1414.0, 1414.0, 1414.0, 1414.0, 1413.0, 1414.0, 1414.0, 1413.0, 1414.0, 1413.0, 1413.0, 1413.0, 1413.0, 1414.0, 1413.0, 1413.0, 1413.0, 1413.0, 1413.0, 1413.0, 1413.0, 1413.0, 1413.0, 1413.0, 1413.0, 1413.0, 1413.0, 1413.0, 1413.0, 1412.0, 1413.0, 1412.0, 1413.0, 1412.0, 1412.0, 1413.0, 1412.0, 1412.0, 1413.0, 1413.0, 1412.0, 1412.0, 1412.0, 1412.0, 1412.0, 1412.0, 1412.0, 1412.0, 1411.0, 1412.0, 1412.0, 1411.0, 1412.0, 1412.0, 1412.0, 1411.0, 1412.0, 1412.0, 1411.0, 1412.0, 1411.0, 1411.0, 1412.0, 1411.0, 1412.0, 1412.0, 1412.0, 1411.0, 1412.0, 1411.0, 1411.0, 1411.0, 1411.0, 1411.0, 1412.0, 1411.0, 1412.0, 1411.0, 1411.0, 1410.0, 1411.0, 1411.0, 1411.0, 1411.0, 1411.0, 1411.0, 1411.0, 1410.0, 1411.0, 1410.0, 1411.0, 1411.0, 1411.0, 1411.0, 1411.0, 1410.0, 1411.0, 1410.0, 1411.0, 1411.0, 1410.0, 1411.0, 1411.0, 1410.0, 1411.0, 1411.0, 1411.0, 1411.0, 1410.0, 1411.0, 1410.0, 1411.0, 1410.0, 1410.0, 1410.0, 1410.0, 1410.0, 1411.0, 1411.0, 1410.0, 1410.0, 1410.0, 1410.0, 1410.0, 1409.0, 1410.0, 1410.0, 1409.0, 1410.0, 1410.0, 1410.0, 1410.0, 1410.0, 1411.0, 1410.0, 1410.0, 1410.0, 1410.0, 1410.0, 1410.0, 1410.0, 1410.0, 1410.0, 1409.0, 1410.0, 1409.0],
      "WindowWidth": [3271.0, 3270.0, 3271.0, 3270.0, 3270.0, 3270.0, 3269.0, 3269.0, 3269.0, 3269.0, 3269.0, 3269.0, 3269.0, 3269.0, 3269.0, 3269.0, 3269.0, 3269.0, 3269.0, 3269.0, 3269.0, 3269.0, 3269.0, 3269.0, 3269.0, 3269.0, 3270.0, 3269.0, 3269.0, 3269.0, 3269.0, 3269.0, 3269.0, 3269.0, 3269.0, 3269.0, 3269.0, 3269.0, 3269.0, 3269.0, 3269.0, 3269.0, 3269.0, 3269.0, 3269.0, 3270.0, 3269.0, 3270.0, 3270.0, 3269.0, 3269.0, 3269.0, 3270.0, 3269.0, 3269.0, 3269.0, 3269.0, 3269.0, 3269.0, 3269.0, 3269.0, 3270.0, 3269.0, 3270.0, 3269.0, 3269.0, 3269.0, 3269.0, 3269.0, 3269.0, 3269.0, 3269.0, 3269.0, 3269.0, 3269.0, 3270.0, 3270.0, 3269.0, 3269.0, 3269.0, 3269.0, 3269.0, 3269.0, 3270.0, 3269.0, 3270.0, 3270.0, 3269.0, 3269.0, 3269.0, 3269.0, 3270.0, 3269.0, 3269.0, 3269.0, 3269.0, 3269.0, 3269.0, 3269.0, 3269.0, 3269.0, 3269.0, 3269.0, 3269.0, 3269.0, 3269.0, 3269.0, 3269.0, 3269.0, 3269.0, 3269.0, 3269.0, 3269.0, 3269.0, 3269.0, 3269.0, 3269.0, 3269.0, 3269.0, 3269.0, 3269.0, 3269.0, 3269.0, 3269.0, 3269.0, 3269.0, 3269.0, 3269.0, 3269.0, 3269.0, 3269.0, 3269.0, 3269.0, 3269.0, 3269.0, 3269.0, 3269.0, 3269.0, 3269.0, 3269.0, 3269.0, 3269.0, 3269.0, 3270.0, 3269.0, 3269.0, 3269.0, 3269.0, 3269.0, 3269.0, 3269.0, 3269.0, 3269.0, 3269.0, 3269.0, 3269.0, 3269.0, 3269.0, 3269.0, 3269.0, 3269.0, 3269.0, 3269.0, 3269.0, 3269.0, 3269.0, 3269.0, 3269.0, 3269.0, 3269.0, 3269.0, 3269.0, 3269.0, 3269.0, 3269.0, 3269.0, 3269.0, 3269.0, 3270.0, 3269.0, 3270.0, 3270.0, 3269.0, 3270.0, 3270.0, 3270.0, 3270.0, 3269.0, 3269.0, 3269.0, 3269.0, 3269.0, 3269.0, 3270.0, 3270.0, 3269.0, 3270.0, 3270.0, 3269.0, 3270.0]
    },
    "slices": {}
  }
}