{
  "AcquisitionMatrixPE": 80,
  "AcquisitionNumber": 1,
  "AcquisitionTime": "11:59:2.202500",
  "BandwidthPerPixelPhaseEncode": 48.077,
  "BaseResolution": 80,
  "BodyPartExamined": "BRAIN",
  "CoilCombinationMethod": "Sum of Squares",
  "ConsistencyInfo": "N4_VE11C_LATEST_20160120",
  "ConversionSoftware": "dcm2niix",
  "ConversionSoftwareVersion": "v1.0.20220720",
  "DerivedVendorReportedEchoSpacing": 0.000519999,
  "DeviceSerialNumber": "66112",
  "DwellTime": 2.7e-06,
  "EchoTime": 0.035,
  "EchoTrainLength": 39,
  "EffectiveEchoSpacing": 0.00026,
  "FlipAngle": 90,
  "HeudiconvVersion": "0.13.1",
  "ImageOrientationPatientDICOM": [0.977341, 0.211384, 0.0110268, -0.204711, 0.930669, 0.30323],
  "ImageOrientationText": "Tra>Cor(17.4)>Sag(-3.1)",
  "ImageType": [
    "ORIGINAL",
    "PRIMARY",
    "M",
    "ND",
    "NORM",
    "MOSAIC"
],
  "ImagingFrequency": 123.252,
  "InPlanePhaseEncodingDirectionDICOM": "COL",
  "InstitutionAddress": "Maynard 3,Hanover,NH,US,03755",
  "InstitutionName": "Dartmouth College - PBS",
  "InstitutionalDepartmentName": "Department",
  "MRAcquisitionType": "2D",
  "MagneticFieldStrength": 3,
  "Manufacturer": "Siemens",
  "ManufacturersModelName": "Prisma",
  "MatrixCoilMode": "GRAPPA",
  "Modality": "MR",
  "NonlinearGradientCorrection": false,
  "ParallelReductionFactorInPlane": 2,
  "PartialFourier": 1,
  "PatientPosition": "HFS",
  "PercentPhaseFOV": 100,
  "PercentSampling": 100,
  "PhaseEncodingDirection": "j-",
  "PhaseEncodingSteps": 79,
  "PhaseResolution": 1,
  "PixelBandwidth": 2315,
  "ProcedureStepDescription": "dbic^QA",
  "ProtocolName": "func-bold_task-rest_acq-p2",
  "PulseSequenceDetails": "%SiemensSeq%\\ep2d_bold",
  "ReceiveCoilActiveElements": "HEA;HEP",
  "ReceiveCoilName": "Head_32",
  "ReconMatrixPE": 80,
  "RefLinesPE": 24,
  "RepetitionTime": 2,
  "SAR": 0.0555462,
  "ScanOptions": "FS",
  "ScanningSequence": "EP",
  "SequenceName": "*epfid2d1_80",
  "SequenceVariant": "SK",
  "SeriesDescription": "func-bold_task-rest_acq-p2",
  "SeriesNumber": 5,
  "ShimSetting": [4142, -7686, -7524, 251, -49, -170, -41, 58],
  "SliceThickness": 3.5,
  "SliceTiming": [0.99, 0, 1.0575, 0.0675, 1.1225, 0.1325, 1.1875, 0.2, 1.255, 0.265, 1.32, 0.33, 1.3875, 0.3975, 1.4525, 0.4625, 1.5175, 0.5275, 1.585, 0.595, 1.65, 0.66, 1.7175, 0.7275, 1.7825, 0.7925, 1.8475, 0.8575, 1.915, 0.925],
  "SoftwareVersions": "syngo MR E11",
  "SpacingBetweenSlices": 3.99,
  "StationName": "AWP66112",
  "TaskName": "rest",
  "TotalReadoutTime": 0.02054,
  "TxRefAmp": 225.54,
  "dcmmeta_affine": [
    [-2.9320223331451416, -0.6141337156295776, -0.21480509638786316, 147.01373291015625],
    [-0.634153425693512, 2.792006731033325, 1.1914807558059692, -96.56804656982422],
    [0.033080484718084335, -0.9096910953521729, 3.8018853664398193, -21.689878463745117],
    [0.0, 0.0, 0.0, 1.0]
],
  "dcmmeta_reorient_transform": [
    [0.0, -1.0, 0.0, 79.0],
    [1.0, 0.0, 0.0, 0.0],
    [0.0, 0.0, 1.0, 0.0],
    [0.0, 0.0, 0.0, 1.0]
],
  "dcmmeta_shape": [80, 80, 30, 200],
  "dcmmeta_slice_dim": 2,
  "dcmmeta_version": 0.6,
  "global": {
    "const": {
      "AccessionNumber": "qa",
      "AcquisitionMatrix": [80, 0, 0, 80],
      "AngioFlag": "N",
      "BitsAllocated": 16,
      "BitsStored": 12,
      "BodyPartExamined": "BRAIN",
      "Columns": 480,
      "EchoNumbers": 1,
      "EchoTime": 35.0,
      "EchoTrainLength": 39,
      "FlipAngle": 90.0,
      "HighBit": 11,
      "ImageOrientationPatient": [0.97734078591046, 0.21138447729582, 0.01102682884141, -0.2047112299375, 0.93066892830561, 0.30323037153946],
      "ImagePositionPatient": [-562.07490843239, -809.23253356837, -282.10979639581],
      "ImageType": [
        "ORIGINAL",
        "PRIMARY",
        "M",
        "ND",
        "NORM",
        "MOSAIC"
],
      "ImagedNucleus": "1H",
      "ImagingFrequency": 123.252375,
      "InPlanePhaseEncodingDirection": "COL",
      "MRAcquisitionType": "2D",
      "MagneticFieldStrength": 3.0,
      "Manufacturer": "SIEMENS",
      "ManufacturerModelName": "Prisma",
      "Modality": "MR",
      "NumberOfAverages": 1.0,
      "NumberOfPhaseEncodingSteps": 79,
      "PercentPhaseFieldOfView": 100.0,
      "PercentSampling": 100.0,
      "PerformedProcedureStepStartTime": "115729.630000",
      "PhotometricInterpretation": "MONOCHROME2",
      "PixelBandwidth": 2315.0,
      "PixelRepresentation": 0,
      "PixelSpacing": [3.0, 3.0],
      "ProtocolName": "func-bold_task-rest_acq-p2",
      "RepetitionTime": 2000.0,
      "Rows": 480,
      "SAR": 0.05554623957957,
      "SamplesPerPixel": 1,
      "ScanOptions": "FS",
      "ScanningSequence": "EP",
      "SequenceName": "*epfid2d1_80",
      "SequenceVariant": "SK",
      "SeriesDescription": "func-bold_task-rest_acq-p2",
      "SeriesNumber": 5,
      "SeriesTime": "115957.494000",
      "SliceLocation": -57.418721307642,
      "SliceThickness": 3.5,
      "SmallestImagePixelValue": 0,
      "SoftwareVersions": "syngo MR E11",
      "SpacingBetweenSlices": 3.9899999025127,
      "SpecificCharacterSet": "ISO_IR 100",
      "StudyID": "17",
      "StudyTime": "115729.560000",
      "TransmitCoilName": "Body",
      "VariableFlipAngleFlag": "N",
      "WindowCenterWidthExplanation": "Algo1",
      "dBdt": 0.0},
    "slices": {}
  },
  "time": {
    "samples": {
      "AcquisitionNumber": [1, 2, 3, 4, 5, 6, 7, 8, 9, 10, 11, 12, 13, 14, 15, 16, 17, 18, 19, 20, 21, 22, 23, 24, 25, 26, 27, 28, 29, 30, 31, 32, 33, 34, 35, 36, 37, 38, 39, 40, 41, 42, 43, 44, 45, 46, 47, 48, 49, 50, 51, 52, 53, 54, 55, 56, 57, 58, 59, 60, 61, 62, 63, 64, 65, 66, 67, 68, 69, 70, 71, 72, 73, 74, 75, 76, 77, 78, 79, 80, 81, 82, 83, 84, 85, 86, 87, 88, 89, 90, 91, 92, 93, 94, 95, 96, 97, 98, 99, 100, 101, 102, 103, 104, 105, 106, 107, 108, 109, 110, 111, 112, 113, 114, 115, 116, 117, 118, 119, 120, 121, 122, 123, 124, 125, 126, 127, 128, 129, 130, 131, 132, 133, 134, 135, 136, 137, 138, 139, 140, 141, 142, 143, 144, 145, 146, 147, 148, 149, 150, 151, 152, 153, 154, 155, 156, 157, 158, 159, 160, 161, 162, 163, 164, 165, 166, 167, 168, 169, 170, 171, 172, 173, 174, 175, 176, 177, 178, 179, 180, 181, 182, 183, 184, 185, 186, 187, 188, 189, 190, 191, 192, 193, 194, 195, 196, 197, 198, 199, 200],
      "AcquisitionTime": ["115902.202500", "115904.202500", "115906.202500", "115908.202500", "115910.202500", "115912.202500", "115914.202500", "115916.202500", "115918.202500", "115920.202500", "115922.202500", "115924.202500", "115926.202500", "115928.202500", "115930.202500", "115932.202500", "115934.202500", "115936.202500", "115938.202500", "115940.202500", "115942.202500", "115944.202500", "115946.202500", "115948.202500", "115950.202500", "115952.202500", "115954.202500", "115956.202500", "115958.202500", "120000.202500", "120002.202500", "120004.202500", "120006.202500", "120008.202500", "120010.202500", "120012.202500", "120014.202500", "120016.202500", "120018.202500", "120020.202500", "120022.202500", "120024.202500", "120026.202500", "120028.202500", "120030.202500", "120032.202500", "120034.202500", "120036.202500", "120038.202500", "120040.202500", "120042.202500", "120044.202500", "120046.202500", "120048.202500", "120050.202500", "120052.202500", "120054.202500", "120056.202500", "120058.202500", "120100.202500", "120102.202500", "120104.202500", "120106.202500", "120108.202500", "120110.202500", "120112.202500", "120114.202500", "120116.202500", "120118.202500", "120120.202500", "120122.202500", "120124.202500", "120126.202500", "120128.202500", "120130.202500", "120132.202500", "120134.202500", "120136.202500", "120138.202500", "120140.202500", "120142.202500", "120144.202500", "120146.202500", "120148.202500", "120150.202500", "120152.202500", "120154.202500", "120156.202500", "120158.202500", "120200.202500", "120202.202500", "120204.202500", "120206.202500", "120208.202500", "120210.202500", "120212.202500", "120214.202500", "120216.202500", "120218.202500", "120220.202500", "120222.202500", "120224.202500", "120226.202500", "120228.202500", "120230.202500", "120232.202500", "120234.202500", "120236.202500", "120238.202500", "120240.202500", "120242.202500", "120244.202500", "120246.202500", "120248.202500", "120250.202500", "120252.202500", "120254.202500", "120256.202500", "120258.202500", "120300.202500", "120302.202500", "120304.202500", "120306.202500", "120308.202500", "120310.202500", "120312.202500", "120314.202500", "120316.202500", "120318.202500", "120320.202500", "120322.202500", "120324.202500", "120326.202500", "120328.202500", "120330.202500", "120332.202500", "120334.202500", "120336.202500", "120338.202500", "120340.202500", "120342.202500", "120344.202500", "120346.202500", "120348.202500", "120350.202500", "120352.202500", "120354.202500", "120356.202500", "120358.202500", "120400.202500", "120402.202500", "120404.202500", "120406.202500", "120408.202500", "120410.202500", "120412.202500", "120414.202500", "120416.202500", "120418.202500", "120420.202500", "120422.202500", "120424.202500", "120426.202500", "120428.202500", "120430.202500", "120432.202500", "120434.202500", "120436.202500", "120438.202500", "120440.202500", "120442.202500", "120444.202500", "120446.202500", "120448.202500", "120450.202500", "120452.202500", "120454.202500", "120456.202500", "120458.202500", "120500.202500", "120502.202500", "120504.202500", "120506.202500", "120508.202500", "120510.202500", "120512.202500", "120514.202500", "120516.202500", "120518.202500", "120520.202500", "120522.202500", "120524.202500", "120526.202500", "120528.202500", "120530.202500", "120532.202500", "120534.202500", "120536.202500", "120538.202500", "120540.202500"],
      "ContentTime": ["115957.498000", "115957.501000", "115957.504000", "115957.506000", "115957.509000", "115957.511000", "115957.514000", "115957.517000", "115957.519000", "115957.522000", "115957.524000", "115957.527000", "115957.530000", "115957.532000", "115957.535000", "115957.537000", "115957.540000", "115957.542000", "115957.545000", "115957.548000", "115957.550000", "115957.553000", "115957.555000", "115957.558000", "115957.561000", "115957.563000", "115957.566000", "115957.569000", "120037.491000", "120037.494000", "120037.497000", "120037.500000", "120037.503000", "120037.505000", "120037.508000", "120037.510000", "120037.513000", "120037.516000", "120037.518000", "120037.521000", "120037.523000", "120037.526000", "120037.529000", "120037.531000", "120037.541000", "120037.544000", "120037.546000", "120037.549000", "120117.492000", "120117.494000", "120117.497000", "120117.500000", "120117.502000", "120117.505000", "120117.508000", "120117.510000", "120117.513000", "120117.516000", "120117.518000", "120117.521000", "120117.524000", "120117.526000", "120117.529000", "120117.531000", "120117.534000", "120117.537000", "120117.539000", "120117.542000", "120157.492000", "120157.495000", "120157.498000", "120157.501000", "120157.504000", "120157.507000", "120157.510000", "120157.512000", "120157.515000", "120157.518000", "120157.520000", "120157.523000", "120157.526000", "120157.529000", "120157.532000", "120157.535000", "120157.537000", "120157.540000", "120157.543000", "120157.546000", "120237.492000", "120237.495000", "120237.498000", "120237.501000", "120237.504000", "120237.506000", "120237.509000", "120237.511000", "120237.514000", "120237.517000", "120237.519000", "120237.528000", "120237.531000", "120237.533000", "120237.536000", "120237.539000", "120237.541000", "120237.544000", "120237.546000", "120237.549000", "120317.492000", "120317.494000", "120317.497000", "120317.500000", "120317.503000", "120317.505000", "120317.508000", "120317.510000", "120317.513000", "120317.516000", "120317.518000", "120317.521000", "120317.524000", "120317.526000", "120317.529000", "120317.532000", "120317.534000", "120317.537000", "120317.540000", "120317.549000", "120357.493000", "120357.495000", "120357.498000", "120357.501000", "120357.504000", "120357.506000", "120357.509000", "120357.512000", "120357.514000", "120357.517000", "120357.519000", "120357.522000", "120357.525000", "120357.527000", "120357.530000", "120357.533000", "120357.535000", "120357.538000", "120357.541000", "120357.543000", "120437.492000", "120437.495000", "120437.498000", "120437.501000", "120437.503000", "120437.506000", "120437.509000", "120437.511000", "120437.514000", "120437.517000", "120437.519000", "120437.522000", "120437.525000", "120437.527000", "120437.530000", "120437.532000", "120437.535000", "120437.538000", "120437.540000", "120437.543000", "120457.493000", "120457.503000", "120457.506000", "120457.509000", "120457.511000", "120457.514000", "120457.517000", "120457.519000", "120457.522000", "120457.525000", "120537.492000", "120537.494000", "120537.497000", "120537.500000", "120537.502000", "120537.505000", "120537.508000", "120537.510000", "120537.513000", "120537.516000", "120537.518000", "120537.526000", "120537.528000", "120537.531000", "120537.533000", "120537.536000", "120537.539000", "120537.541000", "120537.544000", "120537.547000", "120541.349000", "120541.352000"],
      "InstanceCreationTime": ["115957.498000", "115957.501000", "115957.504000", "115957.506000", "115957.509000", "115957.511000", "115957.514000", "115957.517000", "115957.519000", "115957.522000", "115957.524000", "115957.527000", "115957.530000", "115957.532000", "115957.535000", "115957.537000", "115957.540000", "115957.542000", "115957.545000", "115957.548000", "115957.550000", "115957.553000", "115957.555000", "115957.558000", "115957.561000", "115957.563000", "115957.566000", "115957.569000", "120037.491000", "120037.494000", "120037.497000", "120037.500000", "120037.503000", "120037.505000", "120037.508000", "120037.510000", "120037.513000", "120037.516000", "120037.518000", "120037.521000", "120037.523000", "120037.526000", "120037.529000", "120037.531000", "120037.541000", "120037.544000", "120037.546000", "120037.549000", "120117.492000", "120117.494000", "120117.497000", "120117.500000", "120117.502000", "120117.505000", "120117.508000", "120117.510000", "120117.513000", "120117.516000", "120117.518000", "120117.521000", "120117.524000", "120117.526000", "120117.529000", "120117.531000", "120117.534000", "120117.537000", "120117.539000", "120117.542000", "120157.492000", "120157.495000", "120157.498000", "120157.501000", "120157.504000", "120157.507000", "120157.510000", "120157.512000", "120157.515000", "120157.518000", "120157.520000", "120157.523000", "120157.526000", "120157.529000", "120157.532000", "120157.535000", "120157.537000", "120157.540000", "120157.543000", "120157.546000", "120237.492000", "120237.495000", "120237.498000", "120237.501000", "120237.504000", "120237.506000", "120237.509000", "120237.511000", "120237.514000", "120237.517000", "120237.519000", "120237.528000", "120237.531000", "120237.533000", "120237.536000", "120237.539000", "120237.541000", "120237.544000", "120237.546000", "120237.549000", "120317.492000", "120317.494000", "120317.497000", "120317.500000", "120317.503000", "120317.505000", "120317.508000", "120317.510000", "120317.513000", "120317.516000", "120317.518000", "120317.521000", "120317.524000", "120317.526000", "120317.529000", "120317.532000", "120317.534000", "120317.537000", "120317.540000", "120317.549000", "120357.493000", "120357.495000", "120357.498000", "120357.501000", "120357.504000", "120357.506000", "120357.509000", "120357.512000", "120357.514000", "120357.517000", "120357.519000", "120357.522000", "120357.525000", "120357.527000", "120357.530000", "120357.533000", "120357.535000", "120357.538000", "120357.541000", "120357.543000", "120437.492000", "120437.495000", "120437.498000", "120437.501000", "120437.503000", "120437.506000", "120437.509000", "120437.511000", "120437.514000", "120437.517000", "120437.519000", "120437.522000", "120437.525000", "120437.527000", "120437.530000", "120437.532000", "120437.535000", "120437.538000", "120437.540000", "120437.543000", "120457.493000", "120457.503000", "120457.506000", "120457.509000", "120457.511000", "120457.514000", "120457.517000", "120457.519000", "120457.522000", "120457.525000", "120537.492000", "120537.494000", "120537.497000", "120537.500000", "120537.502000", "120537.505000", "120537.508000", "120537.510000", "120537.513000", "120537.516000", "120537.518000", "120537.526000", "120537.528000", "120537.531000", "120537.533000", "120537.536000", "120537.539000", "120537.541000", "120537.544000", "120537.547000", "120541.349000", "120541.352000"],
      "InstanceNumber": [1, 2, 3, 4, 5, 6, 7, 8, 9, 10, 11, 12, 13, 14, 15, 16, 17, 18, 19, 20, 21, 22, 23, 24, 25, 26, 27, 28, 29, 30, 31, 32, 33, 34, 35, 36, 37, 38, 39, 40, 41, 42, 43, 44, 45, 46, 47, 48, 49, 50, 51, 52, 53, 54, 55, 56, 57, 58, 59, 60, 61, 62, 63, 64, 65, 66, 67, 68, 69, 70, 71, 72, 73, 74, 75, 76, 77, 78, 79, 80, 81, 82, 83, 84, 85, 86, 87, 88, 89, 90, 91, 92, 93, 94, 95, 96, 97, 98, 99, 100, 101, 102, 103, 104, 105, 106, 107, 108, 109, 110, 111, 112, 113, 114, 115, 116, 117, 118, 119, 120, 121, 122, 123, 124, 125, 126, 127, 128, 129, 130, 131, 132, 133, 134, 135, 136, 137, 138, 139, 140, 141, 142, 143, 144, 145, 146, 147, 148, 149, 150, 151, 152, 153, 154, 155, 156, 157, 158, 159, 160, 161, 162, 163, 164, 165, 166, 167, 168, 169, 170, 171, 172, 173, 174, 175, 176, 177, 178, 179, 180, 181, 182, 183, 184, 185, 186, 187, 188, 189, 190, 191, 192, 193, 194, 195, 196, 197, 198, 199, 200],
      "LargestImagePixelValue": [2158, 2166, 2158, 2155, 2158, 2152, 2159, 2159, 2159, 2154, 2159, 2156, 2156, 2157, 2159, 2158, 2160, 2159, 2161, 2171, 2154, 2169, 2157, 2162, 2162, 2153, 2155, 2153, 2160, 2157, 2159, 2160, 2159, 2155, 2153, 2156, 2161, 2160, 2154, 2161, 2159, 2164, 2162, 2161, 2163, 2155, 2159, 2160, 2158, 2158, 2161, 2156, 2156, 2158, 2156, 2155, 2156, 2158, 2155, 2154, 2158, 2155, 2156, 2151, 2161, 2158, 2157, 2155, 2156, 2161, 2162, 2155, 2159, 2157, 2162, 2162, 2156, 2159, 2162, 2158, 2157, 2154, 2152, 2158, 2160, 2165, 2159, 2161, 2162, 2154, 2158, 2158, 2160, 2167, 2161, 2154, 2159, 2165, 2156, 2157, 2166, 2158, 2154, 2158, 2162, 2157, 2159, 2161, 2162, 2158, 2160, 2160, 2163, 2159, 2157, 2165, 2167, 2161, 2159, 2159, 2162, 2160, 2163, 2162, 2168, 2162, 2159, 2154, 2159, 2160, 2164, 2159, 2169, 2157, 2155, 2161, 2161, 2158, 2158, 2161, 2164, 2168, 2168, 2161, 2159, 2160, 2161, 2161, 2159, 2169, 2167, 2166, 2164, 2152, 2166, 2155, 2161, 2154, 2162, 2165, 2160, 2159, 2162, 2165, 2161, 2163, 2161, 2165, 2162, 2168, 2163, 2166, 2170, 2160, 2162, 2159, 2166, 2161, 2163, 2166, 2167, 2170, 2161, 2162, 2164, 2161, 2158, 2165, 2161, 2165, 2165, 2167, 2160, 2163, 2161, 2165, 2163, 2166, 2173, 2162],
      "WindowCenter": [1008.0, 1008.0, 1008.0, 1008.0, 1008.0, 1008.0, 1008.0, 1008.0, 1008.0, 1008.0, 1008.0, 1008.0, 1008.0, 1008.0, 1008.0, 1008.0, 1008.0, 1008.0, 1008.0, 1008.0, 1008.0, 1008.0, 1008.0, 1008.0, 1008.0, 1008.0, 1008.0, 1009.0, 1008.0, 1008.0, 1008.0, 1008.0, 1008.0, 1008.0, 1008.0, 1008.0, 1008.0, 1008.0, 1008.0, 1008.0, 1008.0, 1008.0, 1009.0, 1009.0, 1008.0, 1008.0, 1008.0, 1008.0, 1008.0, 1008.0, 1008.0, 1008.0, 1008.0, 1008.0, 1008.0, 1008.0, 1008.0, 1008.0, 1008.0, 1008.0, 1008.0, 1008.0, 1008.0, 1008.0, 1008.0, 1008.0, 1008.0, 1008.0, 1008.0, 1008.0, 1008.0, 1008.0, 1008.0, 1008.0, 1009.0, 1008.0, 1008.0, 1008.0, 1008.0, 1008.0, 1008.0, 1008.0, 1008.0, 1008.0, 1008.0, 1008.0, 1009.0, 1008.0, 1008.0, 1008.0, 1008.0, 1008.0, 1008.0, 1008.0, 1008.0, 1009.0, 1008.0, 1008.0, 1008.0, 1008.0, 1008.0, 1008.0, 1008.0, 1009.0, 1008.0, 1008.0, 1009.0, 1008.0, 1008.0, 1008.0, 1008.0, 1008.0, 1008.0, 1008.0, 1008.0, 1008.0, 1008.0, 1008.0, 1008.0, 1008.0, 1008.0, 1008.0, 1008.0, 1008.0, 1008.0, 1008.0, 1008.0, 1008.0, 1008.0, 1008.0, 1008.0, 1008.0, 1008.0, 1008.0, 1008.0, 1008.0, 1008.0, 1008.0, 1008.0, 1008.0, 1008.0, 1008.0, 1008.0, 1008.0, 1008.0, 1008.0, 1008.0, 1008.0, 1008.0, 1008.0, 1008.0, 1008.0, 1008.0, 1008.0, 1008.0, 1008.0, 1008.0, 1008.0, 1008.0, 1008.0, 1008.0, 1008.0, 1008.0, 1008.0, 1008.0, 1009.0, 1008.0, 1008.0, 1008.0, 1008.0, 1008.0, 1008.0, 1008.0, 1008.0, 1008.0, 1008.0, 1008.0, 1008.0, 1008.0, 1008.0, 1008.0, 1008.0, 1008.0, 1008.0, 1008.0, 1008.0, 1008.0, 1008.0, 1008.0, 1008.0, 1008.0, 1008.0, 1008.0, 1008.0, 1008.0, 1008.0, 1008.0, 1008.0, 1008.0, 1008.0],
      "WindowWidth": [2227.0, 2227.0, 2227.0, 2227.0, 2228.0, 2227.0, 2227.0, 2227.0, 2227.0, 2227.0, 2227.0, 2227.0, 2227.0, 2228.0, 2228.0, 2228.0, 2227.0, 2227.0, 2228.0, 2228.0, 2227.0, 2227.0, 2228.0, 2227.0, 2228.0, 2227.0, 2228.0, 2228.0, 2227.0, 2228.0, 2227.0, 2227.0, 2227.0, 2227.0, 2227.0, 2227.0, 2227.0, 2227.0, 2227.0, 2227.0, 2227.0, 2227.0, 2228.0, 2228.0, 2227.0, 2227.0, 2227.0, 2227.0, 2227.0, 2227.0, 2227.0, 2227.0, 2227.0, 2227.0, 2228.0, 2227.0, 2228.0, 2227.0, 2227.0, 2227.0, 2227.0, 2227.0, 2227.0, 2227.0, 2228.0, 2228.0, 2228.0, 2227.0, 2227.0, 2228.0, 2228.0, 2228.0, 2228.0, 2228.0, 2228.0, 2228.0, 2228.0, 2228.0, 2228.0, 2227.0, 2228.0, 2228.0, 2228.0, 2228.0, 2228.0, 2228.0, 2228.0, 2228.0, 2228.0, 2228.0, 2228.0, 2228.0, 2228.0, 2228.0, 2228.0, 2229.0, 2228.0, 2228.0, 2228.0, 2228.0, 2228.0, 2228.0, 2228.0, 2228.0, 2228.0, 2228.0, 2229.0, 2228.0, 2228.0, 2228.0, 2228.0, 2228.0, 2228.0, 2228.0, 2228.0, 2228.0, 2228.0, 2228.0, 2228.0, 2228.0, 2228.0, 2228.0, 2228.0, 2228.0, 2228.0, 2228.0, 2228.0, 2228.0, 2228.0, 2228.0, 2228.0, 2228.0, 2228.0, 2228.0, 2228.0, 2228.0, 2228.0, 2228.0, 2228.0, 2228.0, 2228.0, 2228.0, 2228.0, 2228.0, 2228.0, 2228.0, 2228.0, 2228.0, 2228.0, 2228.0, 2228.0, 2228.0, 2228.0, 2228.0, 2228.0, 2228.0, 2228.0, 2229.0, 2228.0, 2228.0, 2228.0, 2228.0, 2228.0, 2228.0, 2228.0, 2228.0, 2228.0, 2228.0, 2228.0, 2228.0, 2228.0, 2228.0, 2228.0, 2228.0, 2228.0, 2228.0, 2228.0, 2228.0, 2228.0, 2228.0, 2228.0, 2228.0, 2228.0, 2228.0, 2228.0, 2228.0, 2228.0, 2228.0, 2228.0, 2228.0, 2228.0, 2228.0, 2228.0, 2228.0, 2228.0, 2228.0, 2228.0, 2228.0, 2228.0, 2228.0]
    },
    "slices": {}
  }
}