{
  "AcquisitionMatrixPE": 80,
  "AcquisitionNumber": 1,
  "AcquisitionTime": "12:12:47.502500",
  "BandwidthPerPixelPhaseEncode": 25,
  "BaseResolution": 80,
  "BodyPartExamined": "BRAIN",
  "CoilCombinationMethod": "Sum of Squares",
  "ConsistencyInfo": "N4_VE11C_LATEST_20160120",
  "ConversionSoftware": "dcm2niix",
  "ConversionSoftwareVersion": "v1.0.20220720",
  "DerivedVendorReportedEchoSpacing": 0.0005,
  "DeviceSerialNumber": "66112",
  "DwellTime": 2.7e-06,
  "EchoTime": 0.03,
  "EchoTrainLength": 80,
  "EffectiveEchoSpacing": 0.0005,
  "FlipAngle": 77,
  "HeudiconvVersion": "0.13.1",
  "ImageOrientationPatientDICOM": [0.977341, 0.211384, 0.0110268, -0.204711, 0.930669, 0.30323],
  "ImageOrientationText": "Tra>Cor(17.4)>Sag(-3.1)",
  "ImageType": [
    "ORIGINAL",
    "PRIMARY",
    "M",
    "ND",
    "NORM",
    "MOSAIC"
],
  "ImagingFrequency": 123.252,
  "InPlanePhaseEncodingDirectionDICOM": "COL",
  "InstitutionAddress": "Maynard 3,Hanover,NH,US,03755",
  "InstitutionName": "Dartmouth College - PBS",
  "InstitutionalDepartmentName": "Department",
  "MRAcquisitionType": "2D",
  "MagneticFieldStrength": 3,
  "Manufacturer": "Siemens",
  "ManufacturersModelName": "Prisma",
  "MatrixCoilMode": "SENSE",
  "Modality": "MR",
  "NonlinearGradientCorrection": false,
  "PartialFourier": 1,
  "PatientPosition": "HFS",
  "PercentPhaseFOV": 100,
  "PercentSampling": 100,
  "PhaseEncodingDirection": "j-",
  "PhaseEncodingSteps": 80,
  "PhaseResolution": 1,
  "PixelBandwidth": 2315,
  "ProcedureStepDescription": "dbic^QA",
  "ProtocolName": "func-bold_acq-32ch-77flip",
  "PulseSequenceDetails": "%SiemensSeq%\\ep2d_bold",
  "ReceiveCoilActiveElements": "HEA;HEP",
  "ReceiveCoilName": "Head_32",
  "ReconMatrixPE": 80,
  "RepetitionTime": 2,
  "SAR": 0.043651,
  "ScanOptions": "FS",
  "ScanningSequence": "EP",
  "SequenceName": "*epfid2d1_80",
  "SequenceVariant": "SK",
  "SeriesDescription": "func-bold_acq-32ch-77flip",
  "SeriesNumber": 8,
  "ShimSetting": [4142, -7685, -7526, 240, -50, -171, -37, 56],
  "SliceThickness": 3.5,
  "SliceTiming": [0.99, 0, 1.055, 0.065, 1.1225, 0.1325, 1.1875, 0.1975, 1.255, 0.265, 1.32, 0.33, 1.385, 0.395, 1.4525, 0.4625, 1.5175, 0.5275, 1.585, 0.595, 1.65, 0.66, 1.715, 0.725, 1.7825, 0.7925, 1.8475, 0.8575, 1.915, 0.925],
  "SoftwareVersions": "syngo MR E11",
  "SpacingBetweenSlices": 3.99,
  "StationName": "AWP66112",
  "TotalReadoutTime": 0.0395,
  "TxRefAmp": 225.54,
  "dcmmeta_affine": [
    [-2.9320223331451416, -0.6141337156295776, -0.21480511128902435, 146.27621459960938],
    [-0.634153425693512, 2.792006731033325, 1.1914807558059692, -92.86992645263672],
    [0.033080484718084335, -0.9096910953521729, 3.8018853664398193, -16.17442512512207],
    [0.0, 0.0, 0.0, 1.0]
],
  "dcmmeta_reorient_transform": [
    [0.0, -1.0, 0.0, 79.0],
    [1.0, 0.0, 0.0, 0.0],
    [0.0, 0.0, 1.0, 0.0],
    [0.0, 0.0, 0.0, 1.0]
],
  "dcmmeta_shape": [80, 80, 30, 200],
  "dcmmeta_slice_dim": 2,
  "dcmmeta_version": 0.6,
  "global": {
    "const": {
      "AccessionNumber": "qa",
      "AcquisitionMatrix": [80, 0, 0, 80],
      "AngioFlag": "N",
      "BitsAllocated": 16,
      "BitsStored": 12,
      "BodyPartExamined": "BRAIN",
      "Columns": 480,
      "EchoNumbers": 1,
      "EchoTime": 30.0,
      "EchoTrainLength": 80,
      "FlipAngle": 77.0,
      "HighBit": 11,
      "ImageOrientationPatient": [0.97734078591046, 0.21138447729582, 0.01102682884141, -0.2047112299375, 0.93066892830561, 0.30323037153946],
      "ImagePositionPatient": [-561.33739107552, -812.93064987086, -276.59434305719],
      "ImageType": [
        "ORIGINAL",
        "PRIMARY",
        "M",
        "ND",
        "NORM",
        "MOSAIC"
],
      "ImagedNucleus": "1H",
      "ImagingFrequency": 123.252377,
      "InPlanePhaseEncodingDirection": "COL",
      "MRAcquisitionType": "2D",
      "MagneticFieldStrength": 3.0,
      "Manufacturer": "SIEMENS",
      "ManufacturerModelName": "Prisma",
      "Modality": "MR",
      "NumberOfAverages": 1.0,
      "NumberOfPhaseEncodingSteps": 80,
      "PercentPhaseFieldOfView": 100.0,
      "PercentSampling": 100.0,
      "PerformedProcedureStepStartTime": "115729.630000",
      "PhotometricInterpretation": "MONOCHROME2",
      "PixelBandwidth": 2315.0,
      "PixelRepresentation": 0,
      "PixelSpacing": [3.0, 3.0],
      "ProtocolName": "func-bold_acq-32ch-77flip",
      "RepetitionTime": 2000.0,
      "Rows": 480,
      "SAR": 0.04365100594545,
      "SamplesPerPixel": 1,
      "ScanOptions": "FS",
      "ScanningSequence": "EP",
      "SequenceName": "*epfid2d1_80",
      "SequenceVariant": "SK",
      "SeriesDescription": "func-bold_acq-32ch-77flip",
      "SeriesNumber": 8,
      "SeriesTime": "121337.425000",
      "SliceLocation": -51.019278144191,
      "SliceThickness": 3.5,
      "SmallestImagePixelValue": 0,
      "SoftwareVersions": "syngo MR E11",
      "SpacingBetweenSlices": 3.9900000276863,
      "SpecificCharacterSet": "ISO_IR 100",
      "StudyID": "17",
      "StudyTime": "115729.560000",
      "TransmitCoilName": "Body",
      "VariableFlipAngleFlag": "N",
      "WindowCenterWidthExplanation": "Algo1",
      "dBdt": 0.0},
    "slices": {}
  },
  "time": {
    "samples": {
      "AcquisitionNumber": [1, 2, 3, 4, 5, 6, 7, 8, 9, 10, 11, 12, 13, 14, 15, 16, 17, 18, 19, 20, 21, 22, 23, 24, 25, 26, 27, 28, 29, 30, 31, 32, 33, 34, 35, 36, 37, 38, 39, 40, 41, 42, 43, 44, 45, 46, 47, 48, 49, 50, 51, 52, 53, 54, 55, 56, 57, 58, 59, 60, 61, 62, 63, 64, 65, 66, 67, 68, 69, 70, 71, 72, 73, 74, 75, 76, 77, 78, 79, 80, 81, 82, 83, 84, 85, 86, 87, 88, 89, 90, 91, 92, 93, 94, 95, 96, 97, 98, 99, 100, 101, 102, 103, 104, 105, 106, 107, 108, 109, 110, 111, 112, 113, 114, 115, 116, 117, 118, 119, 120, 121, 122, 123, 124, 125, 126, 127, 128, 129, 130, 131, 132, 133, 134, 135, 136, 137, 138, 139, 140, 141, 142, 143, 144, 145, 146, 147, 148, 149, 150, 151, 152, 153, 154, 155, 156, 157, 158, 159, 160, 161, 162, 163, 164, 165, 166, 167, 168, 169, 170, 171, 172, 173, 174, 175, 176, 177, 178, 179, 180, 181, 182, 183, 184, 185, 186, 187, 188, 189, 190, 191, 192, 193, 194, 195, 196, 197, 198, 199, 200],
      "AcquisitionTime": ["121247.502500", "121249.502500", "121251.502500", "121253.502500", "121255.502500", "121257.502500", "121259.502500", "121301.502500", "121303.502500", "121305.502500", "121307.502500", "121309.502500", "121311.502500", "121313.502500", "121315.502500", "121317.502500", "121319.502500", "121321.502500", "121323.502500", "121325.502500", "121327.502500", "121329.502500", "121331.502500", "121333.502500", "121335.502500", "121337.502500", "121339.502500", "121341.502500", "121343.502500", "121345.502500", "121347.502500", "121349.502500", "121351.502500", "121353.502500", "121355.502500", "121357.502500", "121359.502500", "121401.502500", "121403.502500", "121405.502500", "121407.502500", "121409.502500", "121411.502500", "121413.502500", "121415.502500", "121417.502500", "121419.502500", "121421.502500", "121423.502500", "121425.502500", "121427.502500", "121429.502500", "121431.502500", "121433.502500", "121435.502500", "121437.502500", "121439.502500", "121441.502500", "121443.502500", "121445.502500", "121447.502500", "121449.502500", "121451.502500", "121453.502500", "121455.502500", "121457.502500", "121459.502500", "121501.502500", "121503.502500", "121505.502500", "121507.502500", "121509.502500", "121511.502500", "121513.502500", "121515.502500", "121517.502500", "121519.502500", "121521.502500", "121523.502500", "121525.502500", "121527.502500", "121529.502500", "121531.502500", "121533.502500", "121535.502500", "121537.502500", "121539.502500", "121541.502500", "121543.502500", "121545.502500", "121547.502500", "121549.502500", "121551.502500", "121553.502500", "121555.502500", "121557.502500", "121559.502500", "121601.502500", "121603.502500", "121605.502500", "121607.502500", "121609.502500", "121611.502500", "121613.502500", "121615.502500", "121617.502500", "121619.502500", "121621.502500", "121623.502500", "121625.502500", "121627.502500", "121629.502500", "121631.502500", "121633.502500", "121635.502500", "121637.502500", "121639.502500", "121641.502500", "121643.502500", "121645.502500", "121647.502500", "121649.502500", "121651.502500", "121653.502500", "121655.502500", "121657.502500", "121659.502500", "121701.502500", "121703.502500", "121705.502500", "121707.502500", "121709.502500", "121711.502500", "121713.502500", "121715.502500", "121717.502500", "121719.502500", "121721.502500", "121723.502500", "121725.502500", "121727.502500", "121729.502500", "121731.502500", "121733.502500", "121735.502500", "121737.502500", "121739.502500", "121741.502500", "121743.502500", "121745.502500", "121747.502500", "121749.502500", "121751.502500", "121753.502500", "121755.502500", "121757.502500", "121759.502500", "121801.502500", "121803.502500", "121805.502500", "121807.502500", "121809.502500", "121811.502500", "121813.502500", "121815.502500", "121817.502500", "121819.502500", "121821.502500", "121823.502500", "121825.502500", "121827.502500", "121829.502500", "121831.502500", "121833.502500", "121835.502500", "121837.502500", "121839.502500", "121841.502500", "121843.502500", "121845.502500", "121847.502500", "121849.502500", "121851.502500", "121853.502500", "121855.502500", "121857.502500", "121859.502500", "121901.502500", "121903.502500", "121905.502500", "121907.502500", "121909.502500", "121911.502500", "121913.502500", "121915.502500", "121917.502500", "121919.502500", "121921.502500", "121923.502500", "121925.502500"],
      "ContentTime": ["121337.428000", "121337.432000", "121337.434000", "121337.437000", "121337.440000", "121337.442000", "121337.445000", "121337.447000", "121337.450000", "121337.453000", "121337.455000", "121337.458000", "121337.461000", "121337.463000", "121337.466000", "121337.468000", "121337.471000", "121337.474000", "121337.476000", "121337.479000", "121337.488000", "121337.491000", "121337.493000", "121337.496000", "121337.498000", "121417.423000", "121417.426000", "121417.429000", "121417.431000", "121417.434000", "121417.437000", "121417.439000", "121417.442000", "121417.445000", "121417.447000", "121417.450000", "121417.452000", "121417.455000", "121417.458000", "121417.460000", "121417.463000", "121417.465000", "121417.468000", "121417.470000", "121417.473000", "121457.423000", "121457.425000", "121457.428000", "121457.431000", "121457.433000", "121457.436000", "121457.439000", "121457.441000", "121457.444000", "121457.446000", "121457.459000", "121457.461000", "121457.464000", "121457.467000", "121457.469000", "121457.472000", "121457.482000", "121457.484000", "121457.487000", "121457.489000", "121517.423000", "121517.425000", "121517.428000", "121517.430000", "121517.433000", "121517.436000", "121517.438000", "121517.441000", "121517.444000", "121517.446000", "121557.424000", "121557.427000", "121557.434000", "121557.437000", "121557.440000", "121557.442000", "121557.445000", "121557.448000", "121557.450000", "121557.453000", "121557.455000", "121557.458000", "121557.461000", "121557.463000", "121557.466000", "121557.468000", "121557.471000", "121557.474000", "121557.476000", "121557.479000", "121637.423000", "121637.425000", "121637.428000", "121637.430000", "121637.433000", "121637.436000", "121637.438000", "121637.441000", "121637.444000", "121637.446000", "121637.449000", "121637.451000", "121637.454000", "121637.457000", "121637.459000", "121637.462000", "121637.465000", "121637.467000", "121637.470000", "121637.472000", "121717.422000", "121717.425000", "121717.428000", "121717.431000", "121717.434000", "121717.436000", "121717.439000", "121717.441000", "121717.444000", "121717.447000", "121717.449000", "121717.452000", "121717.454000", "121717.457000", "121717.459000", "121717.462000", "121717.465000", "121717.467000", "121717.470000", "121717.472000", "121757.424000", "121757.426000", "121757.437000", "121757.439000", "121757.442000", "121757.445000", "121757.447000", "121757.450000", "121757.452000", "121757.455000", "121757.458000", "121757.460000", "121757.463000", "121757.466000", "121757.468000", "121757.471000", "121757.473000", "121757.476000", "121757.478000", "121757.481000", "121837.423000", "121837.426000", "121837.429000", "121837.432000", "121837.434000", "121837.437000", "121837.440000", "121837.442000", "121837.445000", "121837.447000", "121837.450000", "121837.453000", "121837.455000", "121837.458000", "121837.460000", "121837.463000", "121837.465000", "121837.468000", "121837.470000", "121837.473000", "121917.422000", "121917.426000", "121917.428000", "121917.431000", "121917.433000", "121917.436000", "121917.439000", "121917.441000", "121917.444000", "121917.446000", "121917.449000", "121917.452000", "121917.454000", "121917.457000", "121917.459000", "121917.462000", "121917.465000", "121917.467000", "121917.470000", "121917.472000", "121926.633000", "121926.636000", "121926.638000", "121926.641000", "121926.643000"],
      "InstanceCreationTime": ["121337.428000", "121337.432000", "121337.434000", "121337.437000", "121337.440000", "121337.442000", "121337.445000", "121337.447000", "121337.450000", "121337.453000", "121337.455000", "121337.458000", "121337.461000", "121337.463000", "121337.466000", "121337.468000", "121337.471000", "121337.474000", "121337.476000", "121337.479000", "121337.488000", "121337.491000", "121337.493000", "121337.496000", "121337.498000", "121417.423000", "121417.426000", "121417.429000", "121417.431000", "121417.434000", "121417.437000", "121417.439000", "121417.442000", "121417.445000", "121417.447000", "121417.450000", "121417.452000", "121417.455000", "121417.458000", "121417.460000", "121417.463000", "121417.465000", "121417.468000", "121417.470000", "121417.473000", "121457.423000", "121457.425000", "121457.428000", "121457.431000", "121457.433000", "121457.436000", "121457.439000", "121457.441000", "121457.444000", "121457.446000", "121457.459000", "121457.461000", "121457.464000", "121457.467000", "121457.469000", "121457.472000", "121457.482000", "121457.484000", "121457.487000", "121457.489000", "121517.423000", "121517.425000", "121517.428000", "121517.430000", "121517.433000", "121517.436000", "121517.438000", "121517.441000", "121517.444000", "121517.446000", "121557.424000", "121557.427000", "121557.434000", "121557.437000", "121557.440000", "121557.442000", "121557.445000", "121557.448000", "121557.450000", "121557.453000", "121557.455000", "121557.458000", "121557.461000", "121557.463000", "121557.466000", "121557.468000", "121557.471000", "121557.474000", "121557.476000", "121557.479000", "121637.423000", "121637.425000", "121637.428000", "121637.430000", "121637.433000", "121637.436000", "121637.438000", "121637.441000", "121637.444000", "121637.446000", "121637.449000", "121637.451000", "121637.454000", "121637.457000", "121637.459000", "121637.462000", "121637.465000", "121637.467000", "121637.470000", "121637.472000", "121717.422000", "121717.425000", "121717.428000", "121717.431000", "121717.434000", "121717.436000", "121717.439000", "121717.441000", "121717.444000", "121717.447000", "121717.449000", "121717.452000", "121717.454000", "121717.457000", "121717.459000", "121717.462000", "121717.465000", "121717.467000", "121717.470000", "121717.472000", "121757.424000", "121757.426000", "121757.437000", "121757.439000", "121757.442000", "121757.445000", "121757.447000", "121757.450000", "121757.452000", "121757.455000", "121757.458000", "121757.460000", "121757.463000", "121757.466000", "121757.468000", "121757.471000", "121757.473000", "121757.476000", "121757.478000", "121757.481000", "121837.423000", "121837.426000", "121837.429000", "121837.432000", "121837.434000", "121837.437000", "121837.440000", "121837.442000", "121837.445000", "121837.447000", "121837.450000", "121837.453000", "121837.455000", "121837.458000", "121837.460000", "121837.463000", "121837.465000", "121837.468000", "121837.470000", "121837.473000", "121917.422000", "121917.426000", "121917.428000", "121917.431000", "121917.433000", "121917.436000", "121917.439000", "121917.441000", "121917.444000", "121917.446000", "121917.449000", "121917.452000", "121917.454000", "121917.457000", "121917.459000", "121917.462000", "121917.465000", "121917.467000", "121917.470000", "121917.472000", "121926.633000", "121926.636000", "121926.638000", "121926.641000", "121926.643000"],
      "InstanceNumber": [1, 2, 3, 4, 5, 6, 7, 8, 9, 10, 11, 12, 13, 14, 15, 16, 17, 18, 19, 20, 21, 22, 23, 24, 25, 26, 27, 28, 29, 30, 31, 32, 33, 34, 35, 36, 37, 38, 39, 40, 41, 42, 43, 44, 45, 46, 47, 48, 49, 50, 51, 52, 53, 54, 55, 56, 57, 58, 59, 60, 61, 62, 63, 64, 65, 66, 67, 68, 69, 70, 71, 72, 73, 74, 75, 76, 77, 78, 79, 80, 81, 82, 83, 84, 85, 86, 87, 88, 89, 90, 91, 92, 93, 94, 95, 96, 97, 98, 99, 100, 101, 102, 103, 104, 105, 106, 107, 108, 109, 110, 111, 112, 113, 114, 115, 116, 117, 118, 119, 120, 121, 122, 123, 124, 125, 126, 127, 128, 129, 130, 131, 132, 133, 134, 135, 136, 137, 138, 139, 140, 141, 142, 143, 144, 145, 146, 147, 148, 149, 150, 151, 152, 153, 154, 155, 156, 157, 158, 159, 160, 161, 162, 163, 164, 165, 166, 167, 168, 169, 170, 171, 172, 173, 174, 175, 176, 177, 178, 179, 180, 181, 182, 183, 184, 185, 186, 187, 188, 189, 190, 191, 192, 193, 194, 195, 196, 197, 198, 199, 200],
      "LargestImagePixelValue": [2085, 2086, 2086, 2088, 2083, 2084, 2082, 2083, 2085, 2091, 2089, 2086, 2085, 2088, 2086, 2084, 2083, 2084, 2084, 2084, 2084, 2083, 2083, 2084, 2085, 2087, 2085, 2085, 2084, 2085, 2086, 2086, 2086, 2087, 2085, 2083, 2083, 2082, 2085, 2085, 2086, 2082, 2082, 2085, 2086, 2088, 2086, 2081, 2083, 2082, 2084, 2087, 2085, 2085, 2082, 2078, 2080, 2080, 2081, 2083, 2082, 2083, 2084, 2082, 2085, 2084, 2086, 2084, 2082, 2082, 2082, 2084, 2084, 2084, 2083, 2081, 2083, 2082, 2082, 2083, 2081, 2082, 2082, 2084, 2082, 2084, 2085, 2085, 2082, 2080, 2080, 2082, 2084, 2084, 2083, 2083, 2084, 2086, 2083, 2084, 2084, 2081, 2083, 2084, 2085, 2084, 2084, 2084, 2083, 2081, 2081, 2082, 2080, 2082, 2081, 2081, 2082, 2080, 2079, 2080, 2082, 2079, 2079, 2078, 2080, 2080, 2082, 2080, 2082, 2080, 2083, 2080, 2081, 2083, 2082, 2083, 2083, 2080, 2080, 2081, 2078, 2082, 2079, 2081, 2082, 2082, 2080, 2081, 2081, 2082, 2082, 2081, 2081, 2081, 2081, 2082, 2080, 2080, 2077, 2081, 2079, 2082, 2081, 2082, 2081, 2082, 2082, 2077, 2079, 2080, 2081, 2081, 2081, 2080, 2079, 2079, 2079, 2080, 2080, 2082, 2080, 2079, 2081, 2082, 2081, 2082, 2082, 2081, 2080, 2080, 2079, 2081, 2082, 2081, 2079, 2079, 2078, 2077, 2076, 2076],
      "WindowCenter": [998.0, 998.0, 997.0, 998.0, 999.0, 998.0, 999.0, 998.0, 999.0, 998.0, 999.0, 997.0, 997.0, 998.0, 997.0, 998.0, 999.0, 997.0, 998.0, 997.0, 998.0, 999.0, 998.0, 996.0, 999.0, 999.0, 997.0, 998.0, 997.0, 999.0, 999.0, 999.0, 997.0, 999.0, 996.0, 999.0, 999.0, 999.0, 999.0, 997.0, 999.0, 999.0, 999.0, 999.0, 999.0, 997.0, 997.0, 999.0, 997.0, 998.0, 999.0, 997.0, 998.0, 999.0, 998.0, 999.0, 999.0, 999.0, 998.0, 997.0, 998.0, 997.0, 998.0, 997.0, 999.0, 998.0, 998.0, 997.0, 998.0, 998.0, 998.0, 998.0, 996.0, 997.0, 998.0, 997.0, 997.0, 997.0, 997.0, 997.0, 997.0, 998.0, 998.0, 998.0, 996.0, 997.0, 996.0, 997.0, 997.0, 998.0, 996.0, 998.0, 998.0, 998.0, 998.0, 997.0, 997.0, 996.0, 997.0, 996.0, 998.0, 997.0, 997.0, 996.0, 997.0, 998.0, 997.0, 998.0, 997.0, 996.0, 996.0, 997.0, 997.0, 997.0, 997.0, 997.0, 997.0, 997.0, 998.0, 998.0, 997.0, 997.0, 997.0, 997.0, 998.0, 998.0, 997.0, 998.0, 997.0, 998.0, 997.0, 998.0, 998.0, 996.0, 998.0, 997.0, 997.0, 997.0, 997.0, 996.0, 996.0, 998.0, 998.0, 996.0, 998.0, 997.0, 996.0, 995.0, 997.0, 998.0, 998.0, 998.0, 997.0, 997.0, 998.0, 998.0, 997.0, 997.0, 996.0, 997.0, 996.0, 996.0, 998.0, 997.0, 996.0, 998.0, 997.0, 997.0, 998.0, 996.0, 997.0, 997.0, 997.0, 997.0, 998.0, 997.0, 997.0, 998.0, 997.0, 997.0, 998.0, 997.0, 996.0, 997.0, 997.0, 998.0, 997.0, 996.0, 998.0, 998.0, 997.0, 997.0, 997.0, 997.0, 998.0, 997.0, 998.0, 996.0, 998.0, 998.0],
      "WindowWidth": [2218.0, 2219.0, 2218.0, 2219.0, 2219.0, 2219.0, 2219.0, 2219.0, 2219.0, 2219.0, 2220.0, 2218.0, 2218.0, 2219.0, 2218.0, 2219.0, 2219.0, 2219.0, 2219.0, 2218.0, 2219.0, 2219.0, 2219.0, 2217.0, 2219.0, 2219.0, 2218.0, 2218.0, 2218.0, 2219.0, 2219.0, 2219.0, 2218.0, 2219.0, 2217.0, 2219.0, 2219.0, 2219.0, 2219.0, 2218.0, 2219.0, 2219.0, 2219.0, 2219.0, 2219.0, 2218.0, 2218.0, 2219.0, 2218.0, 2218.0, 2219.0, 2218.0, 2218.0, 2219.0, 2218.0, 2218.0, 2219.0, 2218.0, 2218.0, 2217.0, 2219.0, 2217.0, 2218.0, 2217.0, 2218.0, 2218.0, 2218.0, 2217.0, 2218.0, 2218.0, 2217.0, 2217.0, 2216.0, 2217.0, 2217.0, 2217.0, 2217.0, 2217.0, 2217.0, 2217.0, 2217.0, 2217.0, 2217.0, 2219.0, 2216.0, 2217.0, 2216.0, 2217.0, 2217.0, 2218.0, 2216.0, 2218.0, 2218.0, 2218.0, 2217.0, 2217.0, 2217.0, 2216.0, 2217.0, 2216.0, 2218.0, 2217.0, 2217.0, 2216.0, 2217.0, 2218.0, 2217.0, 2218.0, 2217.0, 2216.0, 2216.0, 2217.0, 2217.0, 2217.0, 2217.0, 2217.0, 2217.0, 2217.0, 2218.0, 2218.0, 2217.0, 2217.0, 2217.0, 2217.0, 2218.0, 2218.0, 2217.0, 2218.0, 2218.0, 2218.0, 2217.0, 2218.0, 2218.0, 2216.0, 2218.0, 2217.0, 2217.0, 2217.0, 2217.0, 2216.0, 2216.0, 2218.0, 2218.0, 2216.0, 2218.0, 2218.0, 2216.0, 2216.0, 2217.0, 2218.0, 2218.0, 2218.0, 2217.0, 2217.0, 2218.0, 2218.0, 2217.0, 2217.0, 2216.0, 2217.0, 2216.0, 2216.0, 2218.0, 2217.0, 2216.0, 2218.0, 2217.0, 2217.0, 2218.0, 2216.0, 2217.0, 2217.0, 2216.0, 2217.0, 2217.0, 2217.0, 2216.0, 2217.0, 2217.0, 2217.0, 2217.0, 2216.0, 2215.0, 2216.0, 2216.0, 2217.0, 2217.0, 2215.0, 2217.0, 2217.0, 2216.0, 2217.0, 2216.0, 2216.0, 2217.0, 2216.0, 2217.0, 2216.0, 2217.0, 2217.0]
    },
    "slices": {}
  }
}