{
  "AcquisitionMatrixPE": 80,
  "AcquisitionNumber": 1,
  "AcquisitionTime": "10:39:9.185000",
  "BandwidthPerPixelPhaseEncode": 48.077,
  "BaseResolution": 80,
  "BodyPartExamined": "BRAIN",
  "CoilCombinationMethod": "Sum of Squares",
  "ConsistencyInfo": "N4_VE11C_LATEST_20160120",
  "ConversionSoftware": "dcm2niix",
  "ConversionSoftwareVersion": "v1.0.20220720",
  "DerivedVendorReportedEchoSpacing": 0.000519999,
  "DeviceSerialNumber": "66112",
  "DwellTime": 2.7e-06,
  "EchoTime": 0.035,
  "EchoTrainLength": 39,
  "EffectiveEchoSpacing": 0.00026,
  "FlipAngle": 90,
  "HeudiconvVersion": "0.13.1",
  "ImageOrientationPatientDICOM": [0.987712, 0.155673, 0.0137854, -0.1522, 0.93813, 0.311041],
  "ImageOrientationText": "Tra>Cor(18.0)>Sag(-2.0)",
  "ImageType": [
    "ORIGINAL",
    "PRIMARY",
    "M",
    "ND",
    "NORM",
    "MOSAIC"
],
  "ImagingFrequency": 123.252,
  "InPlanePhaseEncodingDirectionDICOM": "COL",
  "InstitutionAddress": "Maynard 3,Hanover,NH,US,03755",
  "InstitutionName": "Dartmouth College - PBS",
  "InstitutionalDepartmentName": "Department",
  "MRAcquisitionType": "2D",
  "MagneticFieldStrength": 3,
  "Manufacturer": "Siemens",
  "ManufacturersModelName": "Prisma",
  "MatrixCoilMode": "GRAPPA",
  "Modality": "MR",
  "NonlinearGradientCorrection": false,
  "ParallelReductionFactorInPlane": 2,
  "PartialFourier": 1,
  "PatientPosition": "HFS",
  "PercentPhaseFOV": 100,
  "PercentSampling": 100,
  "PhaseEncodingDirection": "j-",
  "PhaseEncodingSteps": 79,
  "PhaseResolution": 1,
  "PixelBandwidth": 2315,
  "ProcedureStepDescription": "dbic^QA",
  "ProtocolName": "func-bold_task-rest_acq-p2",
  "PulseSequenceDetails": "%SiemensSeq%\\ep2d_bold",
  "ReceiveCoilActiveElements": "HEA;HEP",
  "ReceiveCoilName": "Head_32",
  "ReconMatrixPE": 80,
  "RefLinesPE": 24,
  "RepetitionTime": 2,
  "SAR": 0.0555558,
  "ScanOptions": "FS",
  "ScanningSequence": "EP",
  "SequenceName": "*epfid2d1_80",
  "SequenceVariant": "SK",
  "SeriesDescription": "func-bold_task-rest_acq-p2",
  "SeriesNumber": 5,
  "ShimSetting": [4158, -7699, -7515, 270, -16, -128, -8, 76],
  "SliceThickness": 3.5,
  "SliceTiming": [0.99, 0, 1.055, 0.065, 1.12, 0.13, 1.1875, 0.1975, 1.2525, 0.2625, 1.32, 0.33, 1.385, 0.395, 1.45, 0.46, 1.5175, 0.5275, 1.5825, 0.5925, 1.65, 0.66, 1.715, 0.725, 1.78, 0.79, 1.8475, 0.8575, 1.9125, 0.9225],
  "SoftwareVersions": "syngo MR E11",
  "SpacingBetweenSlices": 3.99,
  "StationName": "AWP66112",
  "TaskName": "rest",
  "TotalReadoutTime": 0.02054,
  "TxRefAmp": 220.22,
  "dcmmeta_affine": [
    [-2.963137149810791, -0.4565999209880829, -0.1415984332561493, 140.45384216308594],
    [-0.46702027320861816, 2.8143908977508545, 1.2341771125793457, -97.31959533691406],
    [0.041356343775987625, -0.9331241250038147, 3.791682720184326, -23.331897735595703],
    [0.0, 0.0, 0.0, 1.0]
],
  "dcmmeta_reorient_transform": [
    [0.0, -1.0, 0.0, 79.0],
    [1.0, 0.0, 0.0, 0.0],
    [0.0, 0.0, 1.0, 0.0],
    [0.0, 0.0, 0.0, 1.0]
],
  "dcmmeta_shape": [80, 80, 30, 200],
  "dcmmeta_slice_dim": 2,
  "dcmmeta_version": 0.6,
  "global": {
    "const": {
      "AccessionNumber": "qa",
      "AcquisitionMatrix": [80, 0, 0, 80],
      "AngioFlag": "N",
      "BitsAllocated": 16,
      "BitsStored": 12,
      "BodyPartExamined": "BRAIN",
      "Columns": 480,
      "EchoNumbers": 1,
      "EchoTime": 35.0,
      "EchoTrainLength": 39,
      "FlipAngle": 90.0,
      "HighBit": 11,
      "ImageOrientationPatient": [0.98771238090761, 0.15567342109987, 0.01378544757651, -0.1521999705551, 0.93813028333796, 0.31104138060276],
      "ImagePositionPatient": [-605.68990045778, -781.29950761119, -291.94480099977],
      "ImageType": [
        "ORIGINAL",
        "PRIMARY",
        "M",
        "ND",
        "NORM",
        "MOSAIC"
],
      "ImagedNucleus": "1H",
      "ImagingFrequency": 123.252384,
      "InPlanePhaseEncodingDirection": "COL",
      "MRAcquisitionType": "2D",
      "MagneticFieldStrength": 3.0,
      "Manufacturer": "SIEMENS",
      "ManufacturerModelName": "Prisma",
      "Modality": "MR",
      "NumberOfAverages": 1.0,
      "NumberOfPhaseEncodingSteps": 79,
      "PercentPhaseFieldOfView": 100.0,
      "PercentSampling": 100.0,
      "PerformedProcedureStepStartTime": "103653.836000",
      "PhotometricInterpretation": "MONOCHROME2",
      "PixelBandwidth": 2315.0,
      "PixelRepresentation": 0,
      "PixelSpacing": [3.0, 3.0],
      "ProtocolName": "func-bold_task-rest_acq-p2",
      "RepetitionTime": 2000.0,
      "Rows": 480,
      "SAR": 0.05555578906171,
      "SamplesPerPixel": 1,
      "ScanOptions": "FS",
      "ScanningSequence": "EP",
      "SequenceName": "*epfid2d1_80",
      "SequenceVariant": "SK",
      "SeriesDescription": "func-bold_task-rest_acq-p2",
      "SeriesNumber": 5,
      "SeriesTime": "103949.696000",
      "SliceLocation": -57.259349280112,
      "SliceThickness": 3.5,
      "SmallestImagePixelValue": 0,
      "SoftwareVersions": "syngo MR E11",
      "SpacingBetweenSlices": 3.990000077208,
      "SpecificCharacterSet": "ISO_IR 100",
      "StudyID": "4",
      "StudyTime": "103653.750000",
      "TransmitCoilName": "Body",
      "VariableFlipAngleFlag": "N",
      "WindowCenterWidthExplanation": "Algo1",
      "dBdt": 0.0},
    "slices": {}
  },
  "time": {
    "samples": {
      "AcquisitionNumber": [1, 2, 3, 4, 5, 6, 7, 8, 9, 10, 11, 12, 13, 14, 15, 16, 17, 18, 19, 20, 21, 22, 23, 24, 25, 26, 27, 28, 29, 30, 31, 32, 33, 34, 35, 36, 37, 38, 39, 40, 41, 42, 43, 44, 45, 46, 47, 48, 49, 50, 51, 52, 53, 54, 55, 56, 57, 58, 59, 60, 61, 62, 63, 64, 65, 66, 67, 68, 69, 70, 71, 72, 73, 74, 75, 76, 77, 78, 79, 80, 81, 82, 83, 84, 85, 86, 87, 88, 89, 90, 91, 92, 93, 94, 95, 96, 97, 98, 99, 100, 101, 102, 103, 104, 105, 106, 107, 108, 109, 110, 111, 112, 113, 114, 115, 116, 117, 118, 119, 120, 121, 122, 123, 124, 125, 126, 127, 128, 129, 130, 131, 132, 133, 134, 135, 136, 137, 138, 139, 140, 141, 142, 143, 144, 145, 146, 147, 148, 149, 150, 151, 152, 153, 154, 155, 156, 157, 158, 159, 160, 161, 162, 163, 164, 165, 166, 167, 168, 169, 170, 171, 172, 173, 174, 175, 176, 177, 178, 179, 180, 181, 182, 183, 184, 185, 186, 187, 188, 189, 190, 191, 192, 193, 194, 195, 196, 197, 198, 199, 200],
      "AcquisitionTime": ["103909.185000", "103911.185000", "103913.185000", "103915.185000", "103917.185000", "103919.185000", "103921.185000", "103923.185000", "103925.185000", "103927.185000", "103929.185000", "103931.185000", "103933.185000", "103935.185000", "103937.185000", "103939.185000", "103941.185000", "103943.185000", "103945.185000", "103947.185000", "103949.185000", "103951.185000", "103953.185000", "103955.185000", "103957.185000", "103959.185000", "104001.185000", "104003.185000", "104005.185000", "104007.185000", "104009.185000", "104011.185000", "104013.185000", "104015.185000", "104017.185000", "104019.185000", "104021.185000", "104023.185000", "104025.185000", "104027.185000", "104029.185000", "104031.185000", "104033.185000", "104035.185000", "104037.185000", "104039.185000", "104041.185000", "104043.185000", "104045.185000", "104047.185000", "104049.185000", "104051.185000", "104053.185000", "104055.185000", "104057.185000", "104059.185000", "104101.185000", "104103.185000", "104105.185000", "104107.185000", "104109.185000", "104111.185000", "104113.185000", "104115.185000", "104117.185000", "104119.185000", "104121.185000", "104123.185000", "104125.185000", "104127.185000", "104129.185000", "104131.185000", "104133.185000", "104135.185000", "104137.185000", "104139.185000", "104141.185000", "104143.185000", "104145.185000", "104147.185000", "104149.185000", "104151.185000", "104153.185000", "104155.185000", "104157.185000", "104159.185000", "104201.185000", "104203.185000", "104205.185000", "104207.185000", "104209.185000", "104211.185000", "104213.185000", "104215.185000", "104217.185000", "104219.185000", "104221.185000", "104223.185000", "104225.185000", "104227.185000", "104229.185000", "104231.185000", "104233.185000", "104235.185000", "104237.185000", "104239.185000", "104241.185000", "104243.185000", "104245.185000", "104247.185000", "104249.185000", "104251.185000", "104253.185000", "104255.185000", "104257.185000", "104259.185000", "104301.185000", "104303.185000", "104305.185000", "104307.185000", "104309.185000", "104311.185000", "104313.185000", "104315.185000", "104317.185000", "104319.185000", "104321.185000", "104323.185000", "104325.185000", "104327.185000", "104329.185000", "104331.185000", "104333.185000", "104335.185000", "104337.185000", "104339.185000", "104341.185000", "104343.185000", "104345.185000", "104347.185000", "104349.185000", "104351.185000", "104353.185000", "104355.185000", "104357.185000", "104359.185000", "104401.185000", "104403.185000", "104405.185000", "104407.185000", "104409.185000", "104411.185000", "104413.185000", "104415.185000", "104417.185000", "104419.185000", "104421.185000", "104423.185000", "104425.185000", "104427.185000", "104429.185000", "104431.185000", "104433.185000", "104435.185000", "104437.185000", "104439.185000", "104441.185000", "104443.185000", "104445.185000", "104447.185000", "104449.185000", "104451.185000", "104453.185000", "104455.185000", "104457.185000", "104459.185000", "104501.185000", "104503.185000", "104505.185000", "104507.185000", "104509.185000", "104511.185000", "104513.185000", "104515.185000", "104517.185000", "104519.185000", "104521.185000", "104523.185000", "104525.185000", "104527.185000", "104529.185000", "104531.185000", "104533.185000", "104535.185000", "104537.185000", "104539.185000", "104541.185000", "104543.185000", "104545.185000", "104547.185000"],
      "ContentTime": ["103949.700000", "103949.703000", "103949.706000", "103949.708000", "103949.711000", "103949.713000", "103949.716000", "103949.719000", "103949.721000", "103949.724000", "103949.726000", "103949.729000", "103949.738000", "103949.741000", "103949.744000", "103949.747000", "103949.749000", "103949.752000", "103949.754000", "103949.757000", "104009.694000", "104009.698000", "104009.700000", "104009.703000", "104009.705000", "104009.708000", "104009.711000", "104009.713000", "104009.716000", "104009.718000", "104049.693000", "104049.697000", "104049.699000", "104049.702000", "104049.704000", "104049.707000", "104049.710000", "104049.712000", "104049.715000", "104049.717000", "104049.720000", "104049.722000", "104049.725000", "104049.738000", "104049.741000", "104049.743000", "104049.746000", "104049.748000", "104049.751000", "104049.754000", "104129.694000", "104129.697000", "104129.700000", "104129.703000", "104129.705000", "104129.708000", "104129.711000", "104129.713000", "104129.716000", "104129.718000", "104129.721000", "104129.723000", "104129.734000", "104129.737000", "104129.740000", "104129.742000", "104129.745000", "104129.747000", "104129.750000", "104129.752000", "104209.694000", "104209.697000", "104209.700000", "104209.703000", "104209.705000", "104209.708000", "104209.710000", "104209.713000", "104209.716000", "104209.718000", "104209.721000", "104209.724000", "104209.726000", "104209.729000", "104209.731000", "104209.734000", "104209.736000", "104209.739000", "104209.742000", "104209.744000", "104249.694000", "104249.697000", "104249.700000", "104249.703000", "104249.705000", "104249.708000", "104249.710000", "104249.713000", "104249.716000", "104249.718000", "104249.721000", "104249.736000", "104249.739000", "104249.742000", "104249.744000", "104249.747000", "104249.749000", "104249.752000", "104249.755000", "104249.757000", "104329.693000", "104329.696000", "104329.699000", "104329.702000", "104329.704000", "104329.707000", "104329.710000", "104329.712000", "104329.715000", "104329.717000", "104329.720000", "104329.723000", "104329.725000", "104329.728000", "104329.731000", "104329.733000", "104329.736000", "104329.738000", "104329.741000", "104329.743000", "104409.695000", "104409.698000", "104409.700000", "104409.703000", "104409.705000", "104409.708000", "104409.711000", "104409.713000", "104409.716000", "104409.718000", "104409.721000", "104409.724000", "104409.726000", "104409.729000", "104409.731000", "104409.734000", "104409.737000", "104409.739000", "104409.742000", "104409.744000", "104449.694000", "104449.697000", "104449.700000", "104449.703000", "104449.705000", "104449.708000", "104449.710000", "104449.713000", "104449.716000", "104449.718000", "104449.721000", "104449.724000", "104449.726000", "104449.729000", "104449.731000", "104449.734000", "104449.736000", "104449.739000", "104449.742000", "104449.744000", "104529.694000", "104529.697000", "104529.699000", "104529.702000", "104529.704000", "104529.707000", "104529.710000", "104529.712000", "104529.715000", "104529.717000", "104529.720000", "104529.723000", "104529.725000", "104529.728000", "104529.730000", "104529.733000", "104529.735000", "104529.738000", "104529.741000", "104529.743000", "104548.940000", "104548.943000", "104548.946000", "104548.949000", "104548.951000", "104548.954000", "104548.956000", "104548.959000", "104548.962000", "104548.964000"],
      "InstanceCreationTime": ["103949.700000", "103949.703000", "103949.706000", "103949.708000", "103949.711000", "103949.713000", "103949.716000", "103949.719000", "103949.721000", "103949.724000", "103949.726000", "103949.729000", "103949.738000", "103949.741000", "103949.744000", "103949.747000", "103949.749000", "103949.752000", "103949.754000", "103949.757000", "104009.694000", "104009.698000", "104009.700000", "104009.703000", "104009.705000", "104009.708000", "104009.711000", "104009.713000", "104009.716000", "104009.718000", "104049.693000", "104049.697000", "104049.699000", "104049.702000", "104049.704000", "104049.707000", "104049.710000", "104049.712000", "104049.715000", "104049.717000", "104049.720000", "104049.722000", "104049.725000", "104049.738000", "104049.741000", "104049.743000", "104049.746000", "104049.748000", "104049.751000", "104049.754000", "104129.694000", "104129.697000", "104129.700000", "104129.703000", "104129.705000", "104129.708000", "104129.711000", "104129.713000", "104129.716000", "104129.718000", "104129.721000", "104129.723000", "104129.734000", "104129.737000", "104129.740000", "104129.742000", "104129.745000", "104129.747000", "104129.750000", "104129.752000", "104209.694000", "104209.697000", "104209.700000", "104209.703000", "104209.705000", "104209.708000", "104209.710000", "104209.713000", "104209.716000", "104209.718000", "104209.721000", "104209.724000", "104209.726000", "104209.729000", "104209.731000", "104209.734000", "104209.736000", "104209.739000", "104209.742000", "104209.744000", "104249.694000", "104249.697000", "104249.700000", "104249.703000", "104249.705000", "104249.708000", "104249.710000", "104249.713000", "104249.716000", "104249.718000", "104249.721000", "104249.736000", "104249.739000", "104249.742000", "104249.744000", "104249.747000", "104249.749000", "104249.752000", "104249.755000", "104249.757000", "104329.693000", "104329.696000", "104329.699000", "104329.702000", "104329.704000", "104329.707000", "104329.710000", "104329.712000", "104329.715000", "104329.717000", "104329.720000", "104329.723000", "104329.725000", "104329.728000", "104329.731000", "104329.733000", "104329.736000", "104329.738000", "104329.741000", "104329.743000", "104409.695000", "104409.698000", "104409.700000", "104409.703000", "104409.705000", "104409.708000", "104409.711000", "104409.713000", "104409.716000", "104409.718000", "104409.721000", "104409.724000", "104409.726000", "104409.729000", "104409.731000", "104409.734000", "104409.737000", "104409.739000", "104409.742000", "104409.744000", "104449.694000", "104449.697000", "104449.700000", "104449.703000", "104449.705000", "104449.708000", "104449.710000", "104449.713000", "104449.716000", "104449.718000", "104449.721000", "104449.724000", "104449.726000", "104449.729000", "104449.731000", "104449.734000", "104449.736000", "104449.739000", "104449.742000", "104449.744000", "104529.694000", "104529.697000", "104529.699000", "104529.702000", "104529.704000", "104529.707000", "104529.710000", "104529.712000", "104529.715000", "104529.717000", "104529.720000", "104529.723000", "104529.725000", "104529.728000", "104529.730000", "104529.733000", "104529.735000", "104529.738000", "104529.741000", "104529.743000", "104548.940000", "104548.943000", "104548.946000", "104548.949000", "104548.951000", "104548.954000", "104548.956000", "104548.959000", "104548.962000", "104548.964000"],
      "InstanceNumber": [1, 2, 3, 4, 5, 6, 7, 8, 9, 10, 11, 12, 13, 14, 15, 16, 17, 18, 19, 20, 21, 22, 23, 24, 25, 26, 27, 28, 29, 30, 31, 32, 33, 34, 35, 36, 37, 38, 39, 40, 41, 42, 43, 44, 45, 46, 47, 48, 49, 50, 51, 52, 53, 54, 55, 56, 57, 58, 59, 60, 61, 62, 63, 64, 65, 66, 67, 68, 69, 70, 71, 72, 73, 74, 75, 76, 77, 78, 79, 80, 81, 82, 83, 84, 85, 86, 87, 88, 89, 90, 91, 92, 93, 94, 95, 96, 97, 98, 99, 100, 101, 102, 103, 104, 105, 106, 107, 108, 109, 110, 111, 112, 113, 114, 115, 116, 117, 118, 119, 120, 121, 122, 123, 124, 125, 126, 127, 128, 129, 130, 131, 132, 133, 134, 135, 136, 137, 138, 139, 140, 141, 142, 143, 144, 145, 146, 147, 148, 149, 150, 151, 152, 153, 154, 155, 156, 157, 158, 159, 160, 161, 162, 163, 164, 165, 166, 167, 168, 169, 170, 171, 172, 173, 174, 175, 176, 177, 178, 179, 180, 181, 182, 183, 184, 185, 186, 187, 188, 189, 190, 191, 192, 193, 194, 195, 196, 197, 198, 199, 200],
      "LargestImagePixelValue": [1940, 1941, 1935, 1940, 1937, 1942, 1926, 1932, 1938, 1933, 1936, 1934, 1935, 1942, 1936, 1933, 1932, 1942, 1930, 1936, 1935, 1933, 1939, 1932, 1934, 1935, 1933, 1937, 1935, 1934, 1934, 1936, 1935, 1943, 1931, 1934, 1939, 1936, 1934, 1933, 1931, 1941, 1936, 1930, 1936, 1942, 1942, 1936, 1938, 1939, 1937, 1932, 1933, 1931, 1933, 1942, 1931, 1927, 1933, 1937, 1941, 1934, 1936, 1938, 1934, 1936, 1936, 1934, 1936, 1937, 1939, 1940, 1936, 1939, 1939, 1938, 1936, 1934, 1930, 1941, 1934, 1940, 1936, 1938, 1936, 1943, 1927, 1938, 1931, 1937, 1936, 1932, 1942, 1941, 1937, 1936, 1939, 1939, 1941, 1939, 1937, 1942, 1939, 1940, 1937, 1934, 1940, 1930, 1934, 1939, 1934, 1926, 1939, 1931, 1937, 1941, 1934, 1938, 1941, 1941, 1933, 1936, 1941, 1932, 1936, 1939, 1935, 1937, 1934, 1937, 1937, 1939, 1937, 1941, 1941, 1941, 1935, 1933, 1932, 1937, 1929, 1936, 1934, 1936, 1938, 1937, 1934, 1941, 1933, 1935, 1937, 1928, 1936, 1933, 1933, 1935, 1939, 1933, 1931, 1938, 1932, 1937, 1932, 1933, 1931, 1937, 1937, 1936, 1931, 1938, 1933, 1934, 1935, 1937, 1929, 1939, 1935, 1927, 1928, 1932, 1938, 1933, 1942, 1937, 1940, 1939, 1940, 1923, 1938, 1935, 1935, 1932, 1935, 1937, 1934, 1938, 1939, 1932, 1933, 1935],
      "WindowCenter": [977.0, 979.0, 978.0, 977.0, 977.0, 977.0, 977.0, 978.0, 978.0, 977.0, 978.0, 977.0, 979.0, 978.0, 977.0, 978.0, 977.0, 977.0, 977.0, 977.0, 977.0, 977.0, 977.0, 978.0, 977.0, 977.0, 978.0, 978.0, 977.0, 978.0, 978.0, 977.0, 978.0, 977.0, 978.0, 978.0, 977.0, 977.0, 978.0, 977.0, 977.0, 978.0, 977.0, 978.0, 977.0, 977.0, 977.0, 977.0, 977.0, 977.0, 977.0, 977.0, 977.0, 977.0, 977.0, 977.0, 977.0, 977.0, 977.0, 977.0, 977.0, 977.0, 977.0, 977.0, 976.0, 976.0, 977.0, 977.0, 977.0, 977.0, 977.0, 977.0, 977.0, 977.0, 977.0, 976.0, 976.0, 977.0, 977.0, 977.0, 976.0, 977.0, 977.0, 977.0, 977.0, 976.0, 976.0, 977.0, 976.0, 976.0, 976.0, 976.0, 977.0, 976.0, 977.0, 977.0, 976.0, 976.0, 977.0, 976.0, 976.0, 976.0, 977.0, 977.0, 976.0, 978.0, 976.0, 977.0, 977.0, 977.0, 976.0, 976.0, 977.0, 976.0, 976.0, 977.0, 976.0, 977.0, 976.0, 977.0, 976.0, 977.0, 976.0, 976.0, 976.0, 976.0, 976.0, 977.0, 976.0, 976.0, 977.0, 976.0, 977.0, 976.0, 976.0, 977.0, 976.0, 976.0, 977.0, 977.0, 977.0, 976.0, 977.0, 977.0, 976.0, 976.0, 977.0, 977.0, 977.0, 976.0, 977.0, 977.0, 976.0, 977.0, 976.0, 977.0, 976.0, 977.0, 977.0, 977.0, 976.0, 976.0, 976.0, 976.0, 976.0, 976.0, 976.0, 976.0, 976.0, 976.0, 976.0, 976.0, 976.0, 976.0, 976.0, 976.0, 976.0, 976.0, 976.0, 976.0, 976.0, 976.0, 976.0, 976.0, 976.0, 976.0, 976.0, 976.0, 976.0, 976.0, 976.0, 976.0, 976.0, 975.0, 976.0, 976.0, 976.0, 975.0, 976.0, 976.0],
      "WindowWidth": [2136.0, 2137.0, 2136.0, 2136.0, 2136.0, 2135.0, 2135.0, 2136.0, 2136.0, 2135.0, 2136.0, 2135.0, 2137.0, 2136.0, 2135.0, 2135.0, 2135.0, 2135.0, 2135.0, 2135.0, 2135.0, 2135.0, 2135.0, 2136.0, 2134.0, 2135.0, 2135.0, 2136.0, 2135.0, 2135.0, 2135.0, 2134.0, 2135.0, 2134.0, 2135.0, 2135.0, 2134.0, 2134.0, 2135.0, 2134.0, 2134.0, 2135.0, 2134.0, 2135.0, 2134.0, 2134.0, 2135.0, 2134.0, 2134.0, 2134.0, 2135.0, 2134.0, 2134.0, 2134.0, 2134.0, 2135.0, 2134.0, 2135.0, 2134.0, 2135.0, 2133.0, 2133.0, 2134.0, 2134.0, 2133.0, 2133.0, 2134.0, 2134.0, 2134.0, 2134.0, 2134.0, 2134.0, 2134.0, 2134.0, 2134.0, 2133.0, 2133.0, 2134.0, 2134.0, 2134.0, 2133.0, 2134.0, 2134.0, 2134.0, 2134.0, 2133.0, 2133.0, 2134.0, 2133.0, 2133.0, 2133.0, 2133.0, 2133.0, 2133.0, 2133.0, 2133.0, 2132.0, 2132.0, 2133.0, 2132.0, 2132.0, 2132.0, 2133.0, 2133.0, 2132.0, 2134.0, 2132.0, 2133.0, 2133.0, 2133.0, 2132.0, 2132.0, 2133.0, 2132.0, 2132.0, 2133.0, 2132.0, 2132.0, 2132.0, 2133.0, 2132.0, 2132.0, 2132.0, 2132.0, 2131.0, 2131.0, 2132.0, 2133.0, 2131.0, 2131.0, 2133.0, 2131.0, 2132.0, 2131.0, 2131.0, 2132.0, 2131.0, 2131.0, 2132.0, 2132.0, 2133.0, 2131.0, 2132.0, 2133.0, 2131.0, 2131.0, 2132.0, 2132.0, 2132.0, 2131.0, 2132.0, 2132.0, 2131.0, 2132.0, 2131.0, 2132.0, 2131.0, 2131.0, 2132.0, 2131.0, 2131.0, 2131.0, 2132.0, 2131.0, 2131.0, 2131.0, 2131.0, 2131.0, 2132.0, 2131.0, 2132.0, 2131.0, 2131.0, 2131.0, 2132.0, 2131.0, 2131.0, 2131.0, 2131.0, 2131.0, 2131.0, 2130.0, 2131.0, 2131.0, 2131.0, 2131.0, 2131.0, 2130.0, 2131.0, 2131.0, 2130.0, 2130.0, 2131.0, 2130.0, 2131.0, 2130.0, 2130.0, 2130.0, 2130.0, 2131.0]
    },
    "slices": {}
  }
}