{
  "AcquisitionMatrixPE": 80,
  "AcquisitionNumber": 1,
  "AcquisitionTime": "10:52:53.495000",
  "BandwidthPerPixelPhaseEncode": 25,
  "BaseResolution": 80,
  "BodyPartExamined": "BRAIN",
  "CoilCombinationMethod": "Sum of Squares",
  "ConsistencyInfo": "N4_VE11C_LATEST_20160120",
  "ConversionSoftware": "dcm2niix",
  "ConversionSoftwareVersion": "v1.0.20220720",
  "DerivedVendorReportedEchoSpacing": 0.0005,
  "DeviceSerialNumber": "66112",
  "DwellTime": 2.7e-06,
  "EchoTime": 0.03,
  "EchoTrainLength": 80,
  "EffectiveEchoSpacing": 0.0005,
  "FlipAngle": 77,
  "HeudiconvVersion": "0.13.1",
  "ImageOrientationPatientDICOM": [0.987712, 0.155673, 0.0137854, -0.1522, 0.93813, 0.311041],
  "ImageOrientationText": "Tra>Cor(18.0)>Sag(-2.0)",
  "ImageType": [
    "ORIGINAL",
    "PRIMARY",
    "M",
    "ND",
    "NORM",
    "MOSAIC"
],
  "ImagingFrequency": 123.252,
  "InPlanePhaseEncodingDirectionDICOM": "COL",
  "InstitutionAddress": "Maynard 3,Hanover,NH,US,03755",
  "InstitutionName": "Dartmouth College - PBS",
  "InstitutionalDepartmentName": "Department",
  "MRAcquisitionType": "2D",
  "MagneticFieldStrength": 3,
  "Manufacturer": "Siemens",
  "ManufacturersModelName": "Prisma",
  "MatrixCoilMode": "SENSE",
  "Modality": "MR",
  "NonlinearGradientCorrection": false,
  "PartialFourier": 1,
  "PatientPosition": "HFS",
  "PercentPhaseFOV": 100,
  "PercentSampling": 100,
  "PhaseEncodingDirection": "j-",
  "PhaseEncodingSteps": 80,
  "PhaseResolution": 1,
  "PixelBandwidth": 2315,
  "ProcedureStepDescription": "dbic^QA",
  "ProtocolName": "func-bold_fa-77",
  "PulseSequenceDetails": "%SiemensSeq%\\ep2d_bold",
  "ReceiveCoilActiveElements": "HEA;HEP",
  "ReceiveCoilName": "Head_32",
  "ReconMatrixPE": 80,
  "RepetitionTime": 2,
  "SAR": 0.0436585,
  "ScanOptions": "FS",
  "ScanningSequence": "EP",
  "SequenceName": "*epfid2d1_80",
  "SequenceVariant": "SK",
  "SeriesDescription": "func-bold_fa-77",
  "SeriesNumber": 8,
  "ShimSetting": [4158, -7699, -7515, 269, -11, -125, -7, 73],
  "SliceThickness": 3.5,
  "SliceTiming": [0.99, 0, 1.0575, 0.0675, 1.1225, 0.1325, 1.19, 0.2, 1.255, 0.265, 1.32, 0.33, 1.3875, 0.3975, 1.4525, 0.4625, 1.52, 0.53, 1.585, 0.595, 1.65, 0.66, 1.7175, 0.7275, 1.7825, 0.7925, 1.85, 0.86, 1.915, 0.925],
  "SoftwareVersions": "syngo MR E11",
  "SpacingBetweenSlices": 3.99,
  "StationName": "AWP66112",
  "TotalReadoutTime": 0.0395,
  "TxRefAmp": 220.22,
  "dcmmeta_affine": [
    [-2.963137149810791, -0.4565999209880829, -0.1415984332561493, 140.09323120117188],
    [-0.46702027320861816, 2.8143908977508545, 1.2341771125793457, -94.92414093017578],
    [0.041356343775987625, -0.9331241250038147, 3.791682481765747, -22.10828399658203],
    [0.0, 0.0, 0.0, 1.0]
],
  "dcmmeta_reorient_transform": [
    [0.0, -1.0, 0.0, 79.0],
    [1.0, 0.0, 0.0, 0.0],
    [0.0, 0.0, 1.0, 0.0],
    [0.0, 0.0, 0.0, 1.0]
],
  "dcmmeta_shape": [80, 80, 30, 200],
  "dcmmeta_slice_dim": 2,
  "dcmmeta_version": 0.6,
  "global": {
    "const": {
      "AccessionNumber": "qa",
      "AcquisitionMatrix": [80, 0, 0, 80],
      "AngioFlag": "N",
      "BitsAllocated": 16,
      "BitsStored": 12,
      "BodyPartExamined": "BRAIN",
      "Columns": 480,
      "EchoNumbers": 1,
      "EchoTime": 30.0,
      "EchoTrainLength": 80,
      "FlipAngle": 77.0,
      "HighBit": 11,
      "ImageOrientationPatient": [0.98771238090761, 0.15567342109987, 0.01378544757651, -0.1521999705551, 0.93813028333796, 0.31104138060276],
      "ImagePositionPatient": [-605.32928830377, -783.69495701114, -290.72118726076],
      "ImageType": [
        "ORIGINAL",
        "PRIMARY",
        "M",
        "ND",
        "NORM",
        "MOSAIC"
],
      "ImagedNucleus": "1H",
      "ImagingFrequency": 123.252376,
      "InPlanePhaseEncodingDirection": "COL",
      "MRAcquisitionType": "2D",
      "MagneticFieldStrength": 3.0,
      "Manufacturer": "SIEMENS",
      "ManufacturerModelName": "Prisma",
      "Modality": "MR",
      "NumberOfAverages": 1.0,
      "NumberOfPhaseEncodingSteps": 80,
      "PercentPhaseFieldOfView": 100.0,
      "PercentSampling": 100.0,
      "PerformedProcedureStepStartTime": "103653.836000",
      "PhotometricInterpretation": "MONOCHROME2",
      "PixelBandwidth": 2315.0,
      "PixelRepresentation": 0,
      "PixelSpacing": [3.0, 3.0],
      "ProtocolName": "func-bold_fa-77",
      "RepetitionTime": 2000.0,
      "Rows": 480,
      "SAR": 0.04365850593884,
      "SamplesPerPixel": 1,
      "ScanOptions": "FS",
      "ScanningSequence": "EP",
      "SequenceName": "*epfid2d1_80",
      "SequenceVariant": "SK",
      "SeriesDescription": "func-bold_fa-77",
      "SeriesNumber": 8,
      "SeriesTime": "105349.837000",
      "SliceLocation": -55.342801462107,
      "SliceThickness": 3.5,
      "SmallestImagePixelValue": 0,
      "SoftwareVersions": "syngo MR E11",
      "SpacingBetweenSlices": 3.9899999649334,
      "SpecificCharacterSet": "ISO_IR 100",
      "StudyID": "4",
      "StudyTime": "103653.750000",
      "TransmitCoilName": "Body",
      "VariableFlipAngleFlag": "N",
      "WindowCenterWidthExplanation": "Algo1",
      "dBdt": 0.0},
    "slices": {}
  },
  "time": {
    "samples": {
      "AcquisitionNumber": [1, 2, 3, 4, 5, 6, 7, 8, 9, 10, 11, 12, 13, 14, 15, 16, 17, 18, 19, 20, 21, 22, 23, 24, 25, 26, 27, 28, 29, 30, 31, 32, 33, 34, 35, 36, 37, 38, 39, 40, 41, 42, 43, 44, 45, 46, 47, 48, 49, 50, 51, 52, 53, 54, 55, 56, 57, 58, 59, 60, 61, 62, 63, 64, 65, 66, 67, 68, 69, 70, 71, 72, 73, 74, 75, 76, 77, 78, 79, 80, 81, 82, 83, 84, 85, 86, 87, 88, 89, 90, 91, 92, 93, 94, 95, 96, 97, 98, 99, 100, 101, 102, 103, 104, 105, 106, 107, 108, 109, 110, 111, 112, 113, 114, 115, 116, 117, 118, 119, 120, 121, 122, 123, 124, 125, 126, 127, 128, 129, 130, 131, 132, 133, 134, 135, 136, 137, 138, 139, 140, 141, 142, 143, 144, 145, 146, 147, 148, 149, 150, 151, 152, 153, 154, 155, 156, 157, 158, 159, 160, 161, 162, 163, 164, 165, 166, 167, 168, 169, 170, 171, 172, 173, 174, 175, 176, 177, 178, 179, 180, 181, 182, 183, 184, 185, 186, 187, 188, 189, 190, 191, 192, 193, 194, 195, 196, 197, 198, 199, 200],
      "AcquisitionTime": ["105253.495000", "105255.495000", "105257.495000", "105259.495000", "105301.495000", "105303.495000", "105305.495000", "105307.495000", "105309.495000", "105311.495000", "105313.495000", "105315.495000", "105317.495000", "105319.495000", "105321.495000", "105323.495000", "105325.495000", "105327.495000", "105329.495000", "105331.495000", "105333.495000", "105335.495000", "105337.495000", "105339.495000", "105341.495000", "105343.495000", "105345.495000", "105347.495000", "105349.495000", "105351.495000", "105353.495000", "105355.495000", "105357.495000", "105359.495000", "105401.495000", "105403.495000", "105405.495000", "105407.495000", "105409.495000", "105411.495000", "105413.495000", "105415.495000", "105417.495000", "105419.495000", "105421.495000", "105423.495000", "105425.495000", "105427.495000", "105429.495000", "105431.495000", "105433.495000", "105435.495000", "105437.495000", "105439.495000", "105441.495000", "105443.495000", "105445.495000", "105447.495000", "105449.495000", "105451.495000", "105453.495000", "105455.495000", "105457.495000", "105459.495000", "105501.495000", "105503.495000", "105505.495000", "105507.495000", "105509.495000", "105511.495000", "105513.495000", "105515.495000", "105517.495000", "105519.495000", "105521.495000", "105523.495000", "105525.495000", "105527.495000", "105529.495000", "105531.495000", "105533.495000", "105535.495000", "105537.495000", "105539.495000", "105541.495000", "105543.495000", "105545.495000", "105547.495000", "105549.495000", "105551.495000", "105553.495000", "105555.495000", "105557.495000", "105559.495000", "105601.495000", "105603.495000", "105605.495000", "105607.495000", "105609.495000", "105611.495000", "105613.495000", "105615.495000", "105617.495000", "105619.495000", "105621.495000", "105623.495000", "105625.495000", "105627.495000", "105629.495000", "105631.495000", "105633.495000", "105635.495000", "105637.495000", "105639.495000", "105641.495000", "105643.495000", "105645.495000", "105647.495000", "105649.495000", "105651.495000", "105653.495000", "105655.495000", "105657.495000", "105659.495000", "105701.495000", "105703.495000", "105705.495000", "105707.495000", "105709.495000", "105711.495000", "105713.495000", "105715.495000", "105717.495000", "105719.495000", "105721.495000", "105723.495000", "105725.495000", "105727.495000", "105729.495000", "105731.495000", "105733.495000", "105735.495000", "105737.495000", "105739.495000", "105741.495000", "105743.495000", "105745.495000", "105747.495000", "105749.495000", "105751.495000", "105753.495000", "105755.495000", "105757.495000", "105759.495000", "105801.495000", "105803.495000", "105805.495000", "105807.495000", "105809.495000", "105811.495000", "105813.495000", "105815.495000", "105817.495000", "105819.495000", "105821.495000", "105823.495000", "105825.495000", "105827.495000", "105829.495000", "105831.495000", "105833.495000", "105835.495000", "105837.495000", "105839.495000", "105841.495000", "105843.495000", "105845.495000", "105847.495000", "105849.495000", "105851.495000", "105853.495000", "105855.495000", "105857.495000", "105859.495000", "105901.495000", "105903.495000", "105905.495000", "105907.495000", "105909.495000", "105911.495000", "105913.495000", "105915.495000", "105917.495000", "105919.495000", "105921.495000", "105923.495000", "105925.495000", "105927.495000", "105929.495000", "105931.495000"],
      "ContentTime": ["105349.840000", "105349.843000", "105349.846000", "105349.849000", "105349.851000", "105349.854000", "105349.856000", "105349.859000", "105349.861000", "105349.864000", "105349.867000", "105349.869000", "105349.872000", "105349.874000", "105349.877000", "105349.879000", "105349.882000", "105349.884000", "105349.887000", "105349.890000", "105349.892000", "105349.895000", "105349.897000", "105349.900000", "105349.902000", "105349.907000", "105349.910000", "105349.912000", "105429.835000", "105429.838000", "105429.841000", "105429.843000", "105429.846000", "105429.849000", "105429.851000", "105429.854000", "105429.856000", "105429.859000", "105429.861000", "105429.864000", "105429.867000", "105429.869000", "105429.872000", "105429.874000", "105429.877000", "105429.879000", "105429.882000", "105429.884000", "105509.836000", "105509.838000", "105509.841000", "105509.843000", "105509.846000", "105509.849000", "105509.851000", "105509.854000", "105509.856000", "105509.859000", "105509.861000", "105509.864000", "105509.866000", "105509.869000", "105509.871000", "105509.874000", "105509.877000", "105509.879000", "105509.882000", "105509.884000", "105549.835000", "105549.838000", "105549.841000", "105549.843000", "105549.846000", "105549.848000", "105549.851000", "105549.853000", "105549.856000", "105549.859000", "105549.861000", "105549.864000", "105549.866000", "105549.869000", "105549.871000", "105549.874000", "105549.877000", "105549.879000", "105549.882000", "105549.884000", "105629.835000", "105629.838000", "105629.841000", "105629.843000", "105629.846000", "105629.848000", "105629.851000", "105629.853000", "105629.856000", "105629.859000", "105629.861000", "105629.864000", "105629.866000", "105629.869000", "105629.871000", "105629.885000", "105629.888000", "105629.890000", "105629.893000", "105629.896000", "105709.834000", "105709.837000", "105709.840000", "105709.842000", "105709.845000", "105709.847000", "105709.850000", "105709.852000", "105709.855000", "105709.857000", "105709.860000", "105709.862000", "105709.865000", "105709.867000", "105709.870000", "105709.872000", "105709.875000", "105709.877000", "105709.880000", "105709.883000", "105749.835000", "105749.838000", "105749.841000", "105749.843000", "105749.846000", "105749.848000", "105749.851000", "105749.853000", "105749.856000", "105749.859000", "105749.861000", "105749.864000", "105749.875000", "105749.877000", "105749.880000", "105749.882000", "105749.885000", "105749.888000", "105749.890000", "105749.893000", "105829.835000", "105829.838000", "105829.841000", "105829.843000", "105829.846000", "105829.849000", "105829.851000", "105829.854000", "105829.856000", "105829.859000", "105829.862000", "105829.864000", "105829.867000", "105829.869000", "105829.872000", "105829.874000", "105829.877000", "105829.880000", "105829.882000", "105829.885000", "105909.835000", "105909.838000", "105909.841000", "105909.843000", "105909.846000", "105909.848000", "105909.851000", "105909.853000", "105909.856000", "105909.859000", "105909.861000", "105909.864000", "105909.866000", "105909.869000", "105909.871000", "105909.874000", "105909.876000", "105909.879000", "105909.881000", "105909.884000", "105933.353000", "105933.356000", "105933.359000", "105933.361000", "105933.364000", "105933.367000", "105933.369000", "105933.372000", "105933.374000", "105933.377000", "105933.379000", "105933.382000"],
      "InstanceCreationTime": ["105349.840000", "105349.843000", "105349.846000", "105349.849000", "105349.851000", "105349.854000", "105349.856000", "105349.859000", "105349.861000", "105349.864000", "105349.867000", "105349.869000", "105349.872000", "105349.874000", "105349.877000", "105349.879000", "105349.882000", "105349.884000", "105349.887000", "105349.890000", "105349.892000", "105349.895000", "105349.897000", "105349.900000", "105349.902000", "105349.907000", "105349.910000", "105349.912000", "105429.835000", "105429.838000", "105429.841000", "105429.843000", "105429.846000", "105429.849000", "105429.851000", "105429.854000", "105429.856000", "105429.859000", "105429.861000", "105429.864000", "105429.867000", "105429.869000", "105429.872000", "105429.874000", "105429.877000", "105429.879000", "105429.882000", "105429.884000", "105509.836000", "105509.838000", "105509.841000", "105509.843000", "105509.846000", "105509.849000", "105509.851000", "105509.854000", "105509.856000", "105509.859000", "105509.861000", "105509.864000", "105509.866000", "105509.869000", "105509.871000", "105509.874000", "105509.877000", "105509.879000", "105509.882000", "105509.884000", "105549.835000", "105549.838000", "105549.841000", "105549.843000", "105549.846000", "105549.848000", "105549.851000", "105549.853000", "105549.856000", "105549.859000", "105549.861000", "105549.864000", "105549.866000", "105549.869000", "105549.871000", "105549.874000", "105549.877000", "105549.879000", "105549.882000", "105549.884000", "105629.835000", "105629.838000", "105629.841000", "105629.843000", "105629.846000", "105629.848000", "105629.851000", "105629.853000", "105629.856000", "105629.859000", "105629.861000", "105629.864000", "105629.866000", "105629.869000", "105629.871000", "105629.885000", "105629.888000", "105629.890000", "105629.893000", "105629.896000", "105709.834000", "105709.837000", "105709.840000", "105709.842000", "105709.845000", "105709.847000", "105709.850000", "105709.852000", "105709.855000", "105709.857000", "105709.860000", "105709.862000", "105709.865000", "105709.867000", "105709.870000", "105709.872000", "105709.875000", "105709.877000", "105709.880000", "105709.883000", "105749.835000", "105749.838000", "105749.841000", "105749.843000", "105749.846000", "105749.848000", "105749.851000", "105749.853000", "105749.856000", "105749.859000", "105749.861000", "105749.864000", "105749.875000", "105749.877000", "105749.880000", "105749.882000", "105749.885000", "105749.888000", "105749.890000", "105749.893000", "105829.835000", "105829.838000", "105829.841000", "105829.843000", "105829.846000", "105829.849000", "105829.851000", "105829.854000", "105829.856000", "105829.859000", "105829.862000", "105829.864000", "105829.867000", "105829.869000", "105829.872000", "105829.874000", "105829.877000", "105829.880000", "105829.882000", "105829.885000", "105909.835000", "105909.838000", "105909.841000", "105909.843000", "105909.846000", "105909.848000", "105909.851000", "105909.853000", "105909.856000", "105909.859000", "105909.861000", "105909.864000", "105909.866000", "105909.869000", "105909.871000", "105909.874000", "105909.876000", "105909.879000", "105909.881000", "105909.884000", "105933.353000", "105933.356000", "105933.359000", "105933.361000", "105933.364000", "105933.367000", "105933.369000", "105933.372000", "105933.374000", "105933.377000", "105933.379000", "105933.382000"],
      "InstanceNumber": [1, 2, 3, 4, 5, 6, 7, 8, 9, 10, 11, 12, 13, 14, 15, 16, 17, 18, 19, 20, 21, 22, 23, 24, 25, 26, 27, 28, 29, 30, 31, 32, 33, 34, 35, 36, 37, 38, 39, 40, 41, 42, 43, 44, 45, 46, 47, 48, 49, 50, 51, 52, 53, 54, 55, 56, 57, 58, 59, 60, 61, 62, 63, 64, 65, 66, 67, 68, 69, 70, 71, 72, 73, 74, 75, 76, 77, 78, 79, 80, 81, 82, 83, 84, 85, 86, 87, 88, 89, 90, 91, 92, 93, 94, 95, 96, 97, 98, 99, 100, 101, 102, 103, 104, 105, 106, 107, 108, 109, 110, 111, 112, 113, 114, 115, 116, 117, 118, 119, 120, 121, 122, 123, 124, 125, 126, 127, 128, 129, 130, 131, 132, 133, 134, 135, 136, 137, 138, 139, 140, 141, 142, 143, 144, 145, 146, 147, 148, 149, 150, 151, 152, 153, 154, 155, 156, 157, 158, 159, 160, 161, 162, 163, 164, 165, 166, 167, 168, 169, 170, 171, 172, 173, 174, 175, 176, 177, 178, 179, 180, 181, 182, 183, 184, 185, 186, 187, 188, 189, 190, 191, 192, 193, 194, 195, 196, 197, 198, 199, 200],
      "LargestImagePixelValue": [1870, 1872, 1870, 1871, 1871, 1870, 1871, 1871, 1869, 1871, 1869, 1872, 1871, 1871, 1873, 1871, 1871, 1870, 1872, 1872, 1872, 1872, 1871, 1871, 1870, 1872, 1873, 1873, 1871, 1870, 1869, 1872, 1871, 1873, 1869, 1872, 1871, 1870, 1872, 1871, 1872, 1872, 1872, 1870, 1871, 1870, 1871, 1874, 1870, 1871, 1870, 1870, 1871, 1872, 1871, 1871, 1871, 1871, 1871, 1870, 1871, 1870, 1870, 1869, 1870, 1870, 1872, 1870, 1871, 1873, 1872, 1870, 1871, 1870, 1872, 1872, 1871, 1872, 1868, 1872, 1870, 1871, 1872, 1871, 1871, 1869, 1869, 1869, 1873, 1869, 1870, 1871, 1872, 1870, 1871, 1871, 1872, 1871, 1870, 1870, 1870, 1871, 1869, 1869, 1870, 1869, 1870, 1869, 1870, 1871, 1871, 1870, 1869, 1871, 1871, 1872, 1869, 1870, 1870, 1870, 1871, 1870, 1870, 1870, 1871, 1870, 1872, 1869, 1872, 1870, 1873, 1869, 1870, 1871, 1868, 1868, 1870, 1871, 1871, 1871, 1870, 1870, 1870, 1869, 1869, 1871, 1871, 1870, 1870, 1871, 1871, 1873, 1870, 1872, 1871, 1872, 1872, 1870, 1870, 1869, 1870, 1870, 1871, 1869, 1870, 1870, 1871, 1871, 1872, 1871, 1872, 1871, 1872, 1872, 1871, 1870, 1870, 1869, 1870, 1869, 1870, 1870, 1870, 1870, 1871, 1870, 1870, 1870, 1872, 1871, 1872, 1870, 1871, 1872, 1870, 1870, 1871, 1872, 1870, 1872],
      "WindowCenter": [964.0, 964.0, 965.0, 965.0, 964.0, 965.0, 964.0, 964.0, 964.0, 965.0, 964.0, 965.0, 964.0, 965.0, 964.0, 965.0, 965.0, 963.0, 964.0, 964.0, 965.0, 965.0, 964.0, 964.0, 965.0, 964.0, 965.0, 964.0, 965.0, 965.0, 963.0, 965.0, 964.0, 965.0, 964.0, 964.0, 965.0, 965.0, 964.0, 964.0, 965.0, 965.0, 965.0, 965.0, 964.0, 964.0, 964.0, 964.0, 964.0, 964.0, 964.0, 964.0, 964.0, 964.0, 964.0, 964.0, 964.0, 964.0, 964.0, 965.0, 964.0, 963.0, 963.0, 963.0, 963.0, 963.0, 964.0, 963.0, 964.0, 964.0, 964.0, 963.0, 964.0, 963.0, 964.0, 964.0, 964.0, 963.0, 964.0, 964.0, 964.0, 963.0, 964.0, 963.0, 964.0, 963.0, 963.0, 964.0, 964.0, 964.0, 963.0, 964.0, 964.0, 962.0, 963.0, 965.0, 965.0, 964.0, 963.0, 964.0, 963.0, 964.0, 964.0, 964.0, 965.0, 964.0, 964.0, 963.0, 963.0, 964.0, 963.0, 964.0, 964.0, 963.0, 964.0, 963.0, 963.0, 964.0, 963.0, 964.0, 964.0, 964.0, 964.0, 964.0, 963.0, 964.0, 964.0, 964.0, 964.0, 964.0, 964.0, 962.0, 963.0, 964.0, 964.0, 963.0, 964.0, 964.0, 964.0, 964.0, 963.0, 964.0, 963.0, 964.0, 964.0, 963.0, 964.0, 964.0, 963.0, 964.0, 964.0, 964.0, 964.0, 964.0, 963.0, 964.0, 964.0, 963.0, 964.0, 963.0, 964.0, 964.0, 964.0, 964.0, 964.0, 962.0, 964.0, 963.0, 963.0, 964.0, 963.0, 963.0, 963.0, 964.0, 963.0, 963.0, 963.0, 962.0, 963.0, 963.0, 963.0, 963.0, 963.0, 963.0, 962.0, 963.0, 963.0, 962.0, 963.0, 963.0, 963.0, 963.0, 963.0, 963.0, 963.0, 963.0, 963.0, 963.0, 963.0, 963.0],
      "WindowWidth": [2100.0, 2100.0, 2101.0, 2101.0, 2100.0, 2101.0, 2100.0, 2100.0, 2100.0, 2101.0, 2100.0, 2101.0, 2100.0, 2101.0, 2100.0, 2101.0, 2101.0, 2099.0, 2100.0, 2100.0, 2101.0, 2101.0, 2100.0, 2100.0, 2101.0, 2100.0, 2100.0, 2100.0, 2101.0, 2100.0, 2099.0, 2101.0, 2100.0, 2101.0, 2100.0, 2100.0, 2101.0, 2101.0, 2101.0, 2099.0, 2101.0, 2101.0, 2100.0, 2100.0, 2101.0, 2100.0, 2100.0, 2100.0, 2100.0, 2100.0, 2099.0, 2100.0, 2100.0, 2100.0, 2100.0, 2099.0, 2100.0, 2100.0, 2099.0, 2101.0, 2099.0, 2098.0, 2099.0, 2099.0, 2098.0, 2099.0, 2100.0, 2099.0, 2100.0, 2100.0, 2100.0, 2099.0, 2100.0, 2099.0, 2100.0, 2100.0, 2100.0, 2099.0, 2100.0, 2100.0, 2100.0, 2099.0, 2100.0, 2099.0, 2099.0, 2099.0, 2099.0, 2099.0, 2099.0, 2099.0, 2098.0, 2099.0, 2099.0, 2098.0, 2098.0, 2100.0, 2100.0, 2099.0, 2099.0, 2099.0, 2099.0, 2099.0, 2099.0, 2099.0, 2100.0, 2099.0, 2099.0, 2099.0, 2099.0, 2099.0, 2099.0, 2099.0, 2099.0, 2099.0, 2099.0, 2098.0, 2098.0, 2099.0, 2099.0, 2099.0, 2099.0, 2099.0, 2099.0, 2099.0, 2098.0, 2099.0, 2099.0, 2099.0, 2099.0, 2099.0, 2099.0, 2097.0, 2098.0, 2099.0, 2099.0, 2098.0, 2099.0, 2099.0, 2098.0, 2098.0, 2098.0, 2098.0, 2098.0, 2098.0, 2099.0, 2098.0, 2098.0, 2098.0, 2098.0, 2099.0, 2098.0, 2098.0, 2098.0, 2098.0, 2098.0, 2098.0, 2098.0, 2098.0, 2098.0, 2098.0, 2098.0, 2099.0, 2098.0, 2098.0, 2099.0, 2097.0, 2098.0, 2098.0, 2098.0, 2098.0, 2098.0, 2098.0, 2098.0, 2099.0, 2098.0, 2098.0, 2098.0, 2096.0, 2098.0, 2098.0, 2097.0, 2098.0, 2098.0, 2098.0, 2097.0, 2097.0, 2097.0, 2097.0, 2098.0, 2098.0, 2098.0, 2098.0, 2098.0, 2097.0, 2098.0, 2098.0, 2098.0, 2097.0, 2097.0, 2098.0]
    },
    "slices": {}
  }
}