{
  "AcquisitionMatrixPE": 80,
  "AcquisitionNumber": 1,
  "AcquisitionTime": "12:08:24.445000",
  "BandwidthPerPixelPhaseEncode": 25,
  "BaseResolution": 80,
  "BodyPartExamined": "BRAIN",
  "CoilCombinationMethod": "Sum of Squares",
  "ConsistencyInfo": "N4_VE11E_LATEST_20181129",
  "ConversionSoftware": "dcm2niix",
  "ConversionSoftwareVersion": "v1.0.20220720",
  "DerivedVendorReportedEchoSpacing": 0.0005,
  "DeviceSerialNumber": "66112",
  "DwellTime": 2.7e-06,
  "EchoTime": 0.03,
  "EchoTrainLength": 80,
  "EffectiveEchoSpacing": 0.0005,
  "FlipAngle": 77,
  "HeudiconvVersion": "0.13.1",
  "ImageOrientationPatientDICOM": [0.984762, 0.173766, 0.00694403, -0.167798, 0.938932, 0.300416],
  "ImageOrientationText": "Tra>Cor(17.3)>Sag(-2.6)",
  "ImageType": [
    "ORIGINAL",
    "PRIMARY",
    "M",
    "ND",
    "NORM",
    "MOSAIC"
],
  "ImagingFrequency": 123.259,
  "InPlanePhaseEncodingDirectionDICOM": "COL",
  "InstitutionAddress": "Maynard 3,Hanover,NH,US,03755",
  "InstitutionName": "Dartmouth College - PBS",
  "InstitutionalDepartmentName": "Department",
  "MRAcquisitionType": "2D",
  "MagneticFieldStrength": 3,
  "Manufacturer": "Siemens",
  "ManufacturersModelName": "Prisma",
  "MatrixCoilMode": "SENSE",
  "Modality": "MR",
  "NonlinearGradientCorrection": false,
  "PartialFourier": 1,
  "PatientPosition": "HFS",
  "PercentPhaseFOV": 100,
  "PercentSampling": 100,
  "PhaseEncodingDirection": "j-",
  "PhaseEncodingSteps": 80,
  "PhaseResolution": 1,
  "PixelBandwidth": 2315,
  "ProcedureStepDescription": "dbic^QA",
  "ProtocolName": "func-bold_fa-77",
  "PulseSequenceDetails": "%SiemensSeq%\\ep2d_bold",
  "ReceiveCoilActiveElements": "HEA;HEP",
  "ReceiveCoilName": "Head_32",
  "ReconMatrixPE": 80,
  "RepetitionTime": 2,
  "SAR": 0.0369364,
  "ScanOptions": "FS",
  "ScanningSequence": "EP",
  "SequenceName": "*epfid2d1_80",
  "SequenceVariant": "SK",
  "SeriesDescription": "func-bold_fa-77",
  "SeriesNumber": 8,
  "ShimSetting": [4224, -7734, -7483, -37, -116, -15, -1, 68],
  "SliceThickness": 3.5,
  "SliceTiming": [0.99, 0, 1.0575, 0.0675, 1.1225, 0.1325, 1.19, 0.2, 1.255, 0.265, 1.32, 0.33, 1.3875, 0.3975, 1.4525, 0.4625, 1.52, 0.53, 1.585, 0.595, 1.65, 0.66, 1.7175, 0.7275, 1.7825, 0.7925, 1.85, 0.86, 1.915, 0.925],
  "SoftwareVersions": "syngo MR E11",
  "SpacingBetweenSlices": 3.99,
  "StationName": "AWP66112",
  "TotalReadoutTime": 0.0395,
  "TxRefAmp": 226.713,
  "dcmmeta_affine": [
    [-2.95428729057312, -0.5033935904502869, -0.18227224051952362, 144.51490783691406],
    [-0.5212993025779724, 2.8167972564697266, 1.185044765472412, -103.61175537109375],
    [0.020832080394029617, -0.9012483358383179, 3.805593967437744, -20.963546752929688],
    [0.0, 0.0, 0.0, 1.0]
],
  "dcmmeta_reorient_transform": [
    [0.0, -1.0, 0.0, 79.0],
    [1.0, 0.0, 0.0, 0.0],
    [0.0, 0.0, 1.0, 0.0],
    [0.0, 0.0, 0.0, 1.0]
],
  "dcmmeta_shape": [80, 80, 30, 200],
  "dcmmeta_slice_dim": 2,
  "dcmmeta_version": 0.6,
  "global": {
    "const": {
      "AccessionNumber": "qa",
      "AcquisitionMatrix": [80, 0, 0, 80],
      "AngioFlag": "N",
      "BitsAllocated": 16,
      "BitsStored": 12,
      "BodyPartExamined": "BRAIN",
      "Columns": 480,
      "EchoNumbers": 1,
      "EchoTime": 30.0,
      "EchoTrainLength": 80,
      "FlipAngle": 77.0,
      "HighBit": 11,
      "ImageOrientationPatient": [0.98476241025551, 0.17376644048914, 0.00694402674934, -0.167797871766, 0.93893238893372, 0.30041611681468],
      "ImagePositionPatient": [-594.92552775956, -786.53451842103, -276.57825310365],
      "ImageType": [
        "ORIGINAL",
        "PRIMARY",
        "M",
        "ND",
        "NORM",
        "MOSAIC"
],
      "ImagedNucleus": "1H",
      "ImagingFrequency": 123.259262,
      "InPlanePhaseEncodingDirection": "COL",
      "MRAcquisitionType": "2D",
      "MagneticFieldStrength": 3.0,
      "Manufacturer": "SIEMENS",
      "ManufacturerModelName": "Prisma",
      "Modality": "MR",
      "NumberOfAverages": 1.0,
      "NumberOfPhaseEncodingSteps": 80,
      "PercentPhaseFieldOfView": 100.0,
      "PercentSampling": 100.0,
      "PerformedProcedureStepStartTime": "115225.922000",
      "PhotometricInterpretation": "MONOCHROME2",
      "PixelBandwidth": 2315.0,
      "PixelRepresentation": 0,
      "PixelSpacing": [3.0, 3.0],
      "ProtocolName": "func-bold_fa-77",
      "RepetitionTime": 2000.0,
      "Rows": 480,
      "SAR": 0.03693637764394,
      "SamplesPerPixel": 1,
      "ScanOptions": "FS",
      "ScanningSequence": "EP",
      "SequenceName": "*epfid2d1_80",
      "SequenceVariant": "SK",
      "SeriesDescription": "func-bold_fa-77",
      "SeriesNumber": 8,
      "SeriesTime": "120915.281000",
      "SliceLocation": -57.369516469655,
      "SliceThickness": 3.5,
      "SmallestImagePixelValue": 0,
      "SoftwareVersions": "syngo MR E11",
      "SpacingBetweenSlices": 3.9899999535516,
      "SpecificCharacterSet": "ISO_IR 100",
      "StudyID": "26",
      "StudyTime": "115225.886000",
      "TransmitCoilName": "Body",
      "VariableFlipAngleFlag": "N",
      "WindowCenterWidthExplanation": "Algo1"
    },
    "slices": {}
  },
  "time": {
    "samples": {
      "AcquisitionNumber": [1, 2, 3, 4, 5, 6, 7, 8, 9, 10, 11, 12, 13, 14, 15, 16, 17, 18, 19, 20, 21, 22, 23, 24, 25, 26, 27, 28, 29, 30, 31, 32, 33, 34, 35, 36, 37, 38, 39, 40, 41, 42, 43, 44, 45, 46, 47, 48, 49, 50, 51, 52, 53, 54, 55, 56, 57, 58, 59, 60, 61, 62, 63, 64, 65, 66, 67, 68, 69, 70, 71, 72, 73, 74, 75, 76, 77, 78, 79, 80, 81, 82, 83, 84, 85, 86, 87, 88, 89, 90, 91, 92, 93, 94, 95, 96, 97, 98, 99, 100, 101, 102, 103, 104, 105, 106, 107, 108, 109, 110, 111, 112, 113, 114, 115, 116, 117, 118, 119, 120, 121, 122, 123, 124, 125, 126, 127, 128, 129, 130, 131, 132, 133, 134, 135, 136, 137, 138, 139, 140, 141, 142, 143, 144, 145, 146, 147, 148, 149, 150, 151, 152, 153, 154, 155, 156, 157, 158, 159, 160, 161, 162, 163, 164, 165, 166, 167, 168, 169, 170, 171, 172, 173, 174, 175, 176, 177, 178, 179, 180, 181, 182, 183, 184, 185, 186, 187, 188, 189, 190, 191, 192, 193, 194, 195, 196, 197, 198, 199, 200],
      "AcquisitionTime": ["120824.445000", "120826.445000", "120828.445000", "120830.445000", "120832.445000", "120834.445000", "120836.445000", "120838.445000", "120840.445000", "120842.445000", "120844.445000", "120846.445000", "120848.445000", "120850.445000", "120852.445000", "120854.445000", "120856.445000", "120858.445000", "120900.445000", "120902.445000", "120904.445000", "120906.445000", "120908.445000", "120910.445000", "120912.445000", "120914.445000", "120916.445000", "120918.445000", "120920.445000", "120922.445000", "120924.445000", "120926.445000", "120928.445000", "120930.445000", "120932.445000", "120934.445000", "120936.445000", "120938.445000", "120940.445000", "120942.445000", "120944.445000", "120946.445000", "120948.445000", "120950.445000", "120952.445000", "120954.445000", "120956.445000", "120958.445000", "121000.445000", "121002.445000", "121004.445000", "121006.445000", "121008.445000", "121010.445000", "121012.445000", "121014.445000", "121016.445000", "121018.445000", "121020.445000", "121022.445000", "121024.445000", "121026.445000", "121028.445000", "121030.445000", "121032.445000", "121034.445000", "121036.445000", "121038.445000", "121040.445000", "121042.445000", "121044.445000", "121046.445000", "121048.445000", "121050.445000", "121052.445000", "121054.445000", "121056.445000", "121058.445000", "121100.445000", "121102.445000", "121104.445000", "121106.445000", "121108.445000", "121110.445000", "121112.445000", "121114.445000", "121116.445000", "121118.445000", "121120.445000", "121122.445000", "121124.445000", "121126.445000", "121128.445000", "121130.445000", "121132.445000", "121134.445000", "121136.445000", "121138.445000", "121140.445000", "121142.445000", "121144.445000", "121146.445000", "121148.445000", "121150.445000", "121152.445000", "121154.445000", "121156.445000", "121158.445000", "121200.445000", "121202.445000", "121204.445000", "121206.445000", "121208.445000", "121210.445000", "121212.445000", "121214.445000", "121216.445000", "121218.445000", "121220.445000", "121222.445000", "121224.445000", "121226.445000", "121228.445000", "121230.445000", "121232.445000", "121234.445000", "121236.445000", "121238.445000", "121240.445000", "121242.445000", "121244.445000", "121246.445000", "121248.445000", "121250.445000", "121252.445000", "121254.445000", "121256.445000", "121258.445000", "121300.445000", "121302.445000", "121304.445000", "121306.445000", "121308.445000", "121310.445000", "121312.445000", "121314.445000", "121316.445000", "121318.445000", "121320.445000", "121322.445000", "121324.445000", "121326.445000", "121328.445000", "121330.445000", "121332.445000", "121334.445000", "121336.445000", "121338.445000", "121340.445000", "121342.445000", "121344.445000", "121346.445000", "121348.445000", "121350.445000", "121352.445000", "121354.445000", "121356.445000", "121358.445000", "121400.445000", "121402.445000", "121404.445000", "121406.445000", "121408.445000", "121410.445000", "121412.445000", "121414.445000", "121416.445000", "121418.445000", "121420.445000", "121422.445000", "121424.445000", "121426.445000", "121428.445000", "121430.445000", "121432.445000", "121434.445000", "121436.445000", "121438.445000", "121440.445000", "121442.445000", "121444.445000", "121446.445000", "121448.445000", "121450.445000", "121452.445000", "121454.445000", "121456.445000", "121458.445000", "121500.445000", "121502.445000"],
      "ContentTime": ["120915.293000", "120915.296000", "120915.299000", "120915.301000", "120915.303000", "120915.313000", "120915.315000", "120915.317000", "120915.320000", "120915.322000", "120915.325000", "120915.335000", "120915.338000", "120915.340000", "120915.343000", "120915.345000", "120915.347000", "120915.350000", "120915.352000", "120915.354000", "120915.357000", "120915.360000", "120915.362000", "120915.364000", "120915.367000", "120935.274000", "120935.277000", "120935.279000", "120935.282000", "120935.284000", "120935.286000", "120935.289000", "120935.291000", "120935.294000", "120935.296000", "121015.274000", "121015.277000", "121015.279000", "121015.281000", "121015.284000", "121015.287000", "121015.290000", "121015.292000", "121015.294000", "121015.297000", "121015.299000", "121015.302000", "121015.304000", "121015.306000", "121015.309000", "121015.311000", "121015.314000", "121015.316000", "121015.318000", "121015.321000", "121055.273000", "121055.276000", "121055.278000", "121055.281000", "121055.283000", "121055.286000", "121055.288000", "121055.290000", "121055.293000", "121055.295000", "121055.298000", "121055.300000", "121055.302000", "121055.305000", "121055.307000", "121055.309000", "121055.312000", "121055.314000", "121055.317000", "121055.319000", "121135.274000", "121135.277000", "121135.279000", "121135.282000", "121135.284000", "121135.287000", "121135.289000", "121135.291000", "121135.294000", "121135.296000", "121135.299000", "121135.301000", "121135.303000", "121135.306000", "121135.308000", "121135.310000", "121135.313000", "121135.315000", "121135.318000", "121135.320000", "121215.274000", "121215.277000", "121215.280000", "121215.282000", "121215.284000", "121215.287000", "121215.289000", "121215.292000", "121215.294000", "121215.296000", "121215.299000", "121215.301000", "121215.304000", "121215.306000", "121215.309000", "121215.311000", "121215.314000", "121215.316000", "121215.319000", "121215.321000", "121255.274000", "121255.277000", "121255.279000", "121255.282000", "121255.284000", "121255.287000", "121255.289000", "121255.291000", "121255.294000", "121255.296000", "121255.299000", "121255.301000", "121255.304000", "121255.306000", "121255.308000", "121255.311000", "121255.313000", "121255.315000", "121255.318000", "121255.320000", "121335.273000", "121335.276000", "121335.278000", "121335.280000", "121335.283000", "121335.285000", "121335.288000", "121335.290000", "121335.293000", "121335.295000", "121335.297000", "121335.300000", "121335.302000", "121335.305000", "121335.307000", "121335.309000", "121335.312000", "121335.314000", "121335.316000", "121335.319000", "121415.274000", "121415.277000", "121415.279000", "121415.282000", "121415.284000", "121415.287000", "121415.289000", "121415.291000", "121415.294000", "121415.297000", "121415.299000", "121415.301000", "121415.304000", "121415.306000", "121415.309000", "121415.311000", "121415.314000", "121415.316000", "121415.318000", "121415.321000", "121455.274000", "121455.277000", "121455.279000", "121455.282000", "121455.284000", "121455.287000", "121455.289000", "121455.291000", "121455.294000", "121455.297000", "121455.299000", "121455.302000", "121455.304000", "121455.306000", "121455.309000", "121455.311000", "121455.314000", "121455.316000", "121455.318000", "121455.321000", "121503.638000", "121503.641000", "121503.643000", "121503.646000", "121503.648000"],
      "InstanceCreationTime": ["120915.293000", "120915.296000", "120915.299000", "120915.301000", "120915.303000", "120915.313000", "120915.315000", "120915.317000", "120915.320000", "120915.322000", "120915.325000", "120915.335000", "120915.338000", "120915.340000", "120915.343000", "120915.345000", "120915.347000", "120915.350000", "120915.352000", "120915.354000", "120915.357000", "120915.360000", "120915.362000", "120915.364000", "120915.367000", "120935.274000", "120935.277000", "120935.279000", "120935.282000", "120935.284000", "120935.286000", "120935.289000", "120935.291000", "120935.294000", "120935.296000", "121015.274000", "121015.277000", "121015.279000", "121015.281000", "121015.284000", "121015.287000", "121015.290000", "121015.292000", "121015.294000", "121015.297000", "121015.299000", "121015.302000", "121015.304000", "121015.306000", "121015.309000", "121015.311000", "121015.314000", "121015.316000", "121015.318000", "121015.321000", "121055.273000", "121055.276000", "121055.278000", "121055.281000", "121055.283000", "121055.286000", "121055.288000", "121055.290000", "121055.293000", "121055.295000", "121055.298000", "121055.300000", "121055.302000", "121055.305000", "121055.307000", "121055.309000", "121055.312000", "121055.314000", "121055.317000", "121055.319000", "121135.274000", "121135.277000", "121135.279000", "121135.282000", "121135.284000", "121135.287000", "121135.289000", "121135.291000", "121135.294000", "121135.296000", "121135.299000", "121135.301000", "121135.303000", "121135.306000", "121135.308000", "121135.310000", "121135.313000", "121135.315000", "121135.318000", "121135.320000", "121215.274000", "121215.277000", "121215.280000", "121215.282000", "121215.284000", "121215.287000", "121215.289000", "121215.292000", "121215.294000", "121215.296000", "121215.299000", "121215.301000", "121215.304000", "121215.306000", "121215.309000", "121215.311000", "121215.314000", "121215.316000", "121215.319000", "121215.321000", "121255.274000", "121255.277000", "121255.279000", "121255.282000", "121255.284000", "121255.287000", "121255.289000", "121255.291000", "121255.294000", "121255.296000", "121255.299000", "121255.301000", "121255.304000", "121255.306000", "121255.308000", "121255.311000", "121255.313000", "121255.315000", "121255.318000", "121255.320000", "121335.273000", "121335.276000", "121335.278000", "121335.280000", "121335.283000", "121335.285000", "121335.288000", "121335.290000", "121335.293000", "121335.295000", "121335.297000", "121335.300000", "121335.302000", "121335.305000", "121335.307000", "121335.309000", "121335.312000", "121335.314000", "121335.316000", "121335.319000", "121415.274000", "121415.277000", "121415.279000", "121415.282000", "121415.284000", "121415.287000", "121415.289000", "121415.291000", "121415.294000", "121415.297000", "121415.299000", "121415.301000", "121415.304000", "121415.306000", "121415.309000", "121415.311000", "121415.314000", "121415.316000", "121415.318000", "121415.321000", "121455.274000", "121455.277000", "121455.279000", "121455.282000", "121455.284000", "121455.287000", "121455.289000", "121455.291000", "121455.294000", "121455.297000", "121455.299000", "121455.302000", "121455.304000", "121455.306000", "121455.309000", "121455.311000", "121455.314000", "121455.316000", "121455.318000", "121455.321000", "121503.638000", "121503.641000", "121503.643000", "121503.646000", "121503.648000"],
      "InstanceNumber": [1, 2, 3, 4, 5, 6, 7, 8, 9, 10, 11, 12, 13, 14, 15, 16, 17, 18, 19, 20, 21, 22, 23, 24, 25, 26, 27, 28, 29, 30, 31, 32, 33, 34, 35, 36, 37, 38, 39, 40, 41, 42, 43, 44, 45, 46, 47, 48, 49, 50, 51, 52, 53, 54, 55, 56, 57, 58, 59, 60, 61, 62, 63, 64, 65, 66, 67, 68, 69, 70, 71, 72, 73, 74, 75, 76, 77, 78, 79, 80, 81, 82, 83, 84, 85, 86, 87, 88, 89, 90, 91, 92, 93, 94, 95, 96, 97, 98, 99, 100, 101, 102, 103, 104, 105, 106, 107, 108, 109, 110, 111, 112, 113, 114, 115, 116, 117, 118, 119, 120, 121, 122, 123, 124, 125, 126, 127, 128, 129, 130, 131, 132, 133, 134, 135, 136, 137, 138, 139, 140, 141, 142, 143, 144, 145, 146, 147, 148, 149, 150, 151, 152, 153, 154, 155, 156, 157, 158, 159, 160, 161, 162, 163, 164, 165, 166, 167, 168, 169, 170, 171, 172, 173, 174, 175, 176, 177, 178, 179, 180, 181, 182, 183, 184, 185, 186, 187, 188, 189, 190, 191, 192, 193, 194, 195, 196, 197, 198, 199, 200],
      "LargestImagePixelValue": [2460, 2461, 2460, 2462, 2462, 2459, 2462, 2461, 2462, 2460, 2460, 2462, 2461, 2461, 2461, 2460, 2459, 2460, 2457, 2459, 2459, 2460, 2461, 2458, 2460, 2459, 2459, 2460, 2458, 2460, 2460, 2459, 2460, 2459, 2458, 2457, 2458, 2460, 2459, 2460, 2456, 2457, 2457, 2458, 2459, 2457, 2458, 2458, 2457, 2458, 2455, 2459, 2461, 2458, 2459, 2456, 2458, 2455, 2460, 2457, 2458, 2455, 2456, 2452, 2455, 2457, 2455, 2457, 2458, 2455, 2456, 2457, 2456, 2456, 2454, 2455, 2455, 2456, 2456, 2456, 2455, 2458, 2456, 2456, 2455, 2454, 2455, 2456, 2456, 2455, 2456, 2457, 2455, 2455, 2454, 2455, 2454, 2455, 2455, 2455, 2457, 2453, 2455, 2456, 2457, 2454, 2454, 2454, 2455, 2455, 2456, 2453, 2454, 2455, 2454, 2455, 2453, 2454, 2455, 2455, 2454, 2456, 2452, 2455, 2450, 2454, 2451, 2453, 2452, 2451, 2453, 2453, 2453, 2452, 2451, 2455, 2453, 2454, 2450, 2454, 2453, 2454, 2453, 2452, 2452, 2452, 2452, 2450, 2454, 2452, 2453, 2453, 2452, 2452, 2451, 2451, 2453, 2452, 2453, 2451, 2450, 2452, 2451, 2452, 2451, 2452, 2452, 2449, 2452, 2452, 2448, 2452, 2452, 2449, 2451, 2450, 2450, 2449, 2448, 2451, 2450, 2450, 2449, 2449, 2450, 2448, 2448, 2449, 2449, 2450, 2448, 2449, 2446, 2450, 2452, 2450, 2447, 2447, 2449, 2448],
      "WindowCenter": [1022.0, 1021.0, 1021.0, 1020.0, 1020.0, 1020.0, 1020.0, 1020.0, 1020.0, 1021.0, 1020.0, 1020.0, 1021.0, 1021.0, 1020.0, 1020.0, 1020.0, 1020.0, 1021.0, 1020.0, 1021.0, 1020.0, 1020.0, 1020.0, 1020.0, 1020.0, 1020.0, 1020.0, 1020.0, 1021.0, 1020.0, 1021.0, 1020.0, 1020.0, 1020.0, 1021.0, 1020.0, 1020.0, 1020.0, 1020.0, 1021.0, 1020.0, 1020.0, 1021.0, 1020.0, 1020.0, 1020.0, 1021.0, 1020.0, 1020.0, 1020.0, 1020.0, 1020.0, 1020.0, 1021.0, 1020.0, 1020.0, 1020.0, 1020.0, 1020.0, 1020.0, 1020.0, 1020.0, 1020.0, 1021.0, 1021.0, 1020.0, 1020.0, 1021.0, 1020.0, 1020.0, 1020.0, 1020.0, 1020.0, 1020.0, 1020.0, 1020.0, 1020.0, 1020.0, 1020.0, 1020.0, 1020.0, 1020.0, 1020.0, 1020.0, 1020.0, 1020.0, 1020.0, 1019.0, 1019.0, 1019.0, 1019.0, 1019.0, 1019.0, 1019.0, 1019.0, 1019.0, 1020.0, 1019.0, 1020.0, 1020.0, 1019.0, 1019.0, 1019.0, 1020.0, 1020.0, 1019.0, 1019.0, 1020.0, 1019.0, 1020.0, 1019.0, 1019.0, 1019.0, 1020.0, 1019.0, 1019.0, 1019.0, 1019.0, 1019.0, 1019.0, 1019.0, 1019.0, 1020.0, 1020.0, 1020.0, 1019.0, 1019.0, 1019.0, 1019.0, 1020.0, 1020.0, 1019.0, 1019.0, 1019.0, 1019.0, 1019.0, 1019.0, 1019.0, 1020.0, 1020.0, 1020.0, 1020.0, 1020.0, 1020.0, 1019.0, 1020.0, 1019.0, 1019.0, 1020.0, 1019.0, 1020.0, 1020.0, 1019.0, 1019.0, 1019.0, 1020.0, 1020.0, 1020.0, 1019.0, 1019.0, 1020.0, 1019.0, 1020.0, 1019.0, 1019.0, 1019.0, 1019.0, 1019.0, 1019.0, 1019.0, 1019.0, 1019.0, 1019.0, 1019.0, 1019.0, 1020.0, 1020.0, 1020.0, 1019.0, 1020.0, 1019.0, 1020.0, 1020.0, 1020.0, 1019.0, 1020.0, 1019.0, 1019.0, 1019.0, 1019.0, 1019.0, 1019.0, 1019.0, 1020.0, 1019.0, 1019.0, 1020.0, 1020.0, 1019.0],
      "WindowWidth": [2283.0, 2282.0, 2281.0, 2282.0, 2282.0, 2282.0, 2282.0, 2282.0, 2282.0, 2282.0, 2282.0, 2282.0, 2282.0, 2282.0, 2282.0, 2282.0, 2281.0, 2281.0, 2282.0, 2281.0, 2282.0, 2281.0, 2281.0, 2281.0, 2281.0, 2281.0, 2281.0, 2281.0, 2281.0, 2282.0, 2281.0, 2281.0, 2281.0, 2281.0, 2281.0, 2282.0, 2281.0, 2281.0, 2281.0, 2281.0, 2281.0, 2281.0, 2281.0, 2281.0, 2281.0, 2281.0, 2281.0, 2281.0, 2281.0, 2281.0, 2281.0, 2280.0, 2280.0, 2280.0, 2281.0, 2280.0, 2280.0, 2280.0, 2280.0, 2280.0, 2280.0, 2280.0, 2280.0, 2280.0, 2281.0, 2281.0, 2280.0, 2280.0, 2281.0, 2280.0, 2280.0, 2280.0, 2280.0, 2280.0, 2280.0, 2280.0, 2280.0, 2280.0, 2281.0, 2280.0, 2280.0, 2280.0, 2280.0, 2280.0, 2280.0, 2280.0, 2280.0, 2280.0, 2279.0, 2279.0, 2279.0, 2279.0, 2280.0, 2280.0, 2279.0, 2279.0, 2279.0, 2280.0, 2279.0, 2280.0, 2280.0, 2279.0, 2279.0, 2279.0, 2280.0, 2280.0, 2279.0, 2279.0, 2280.0, 2279.0, 2280.0, 2279.0, 2279.0, 2279.0, 2280.0, 2279.0, 2279.0, 2279.0, 2279.0, 2279.0, 2279.0, 2279.0, 2279.0, 2280.0, 2280.0, 2280.0, 2279.0, 2279.0, 2279.0, 2279.0, 2280.0, 2279.0, 2279.0, 2279.0, 2278.0, 2279.0, 2279.0, 2279.0, 2278.0, 2279.0, 2280.0, 2279.0, 2279.0, 2279.0, 2279.0, 2279.0, 2280.0, 2278.0, 2279.0, 2280.0, 2278.0, 2279.0, 2279.0, 2278.0, 2278.0, 2278.0, 2279.0, 2279.0, 2279.0, 2278.0, 2278.0, 2279.0, 2278.0, 2279.0, 2278.0, 2278.0, 2278.0, 2278.0, 2278.0, 2278.0, 2278.0, 2278.0, 2278.0, 2278.0, 2278.0, 2278.0, 2279.0, 2279.0, 2279.0, 2278.0, 2279.0, 2278.0, 2279.0, 2279.0, 2279.0, 2278.0, 2279.0, 2278.0, 2278.0, 2278.0, 2278.0, 2277.0, 2278.0, 2277.0, 2279.0, 2278.0, 2278.0, 2279.0, 2278.0, 2278.0]
    },
    "slices": {}
  }
}