{
  "AcquisitionMatrixPE": 80,
  "AcquisitionNumber": 1,
  "AcquisitionTime": "12:15:10.457500",
  "BandwidthPerPixelPhaseEncode": 25,
  "BaseResolution": 80,
  "BodyPartExamined": "BRAIN",
  "CoilCombinationMethod": "Sum of Squares",
  "ConsistencyInfo": "N4_VE11E_LATEST_20181129",
  "ConversionSoftware": "dcm2niix",
  "ConversionSoftwareVersion": "v1.0.20220720",
  "DerivedVendorReportedEchoSpacing": 0.0005,
  "DeviceSerialNumber": "66112",
  "DwellTime": 2.7e-06,
  "EchoTime": 0.03,
  "EchoTrainLength": 80,
  "EffectiveEchoSpacing": 0.0005,
  "FlipAngle": 10,
  "HeudiconvVersion": "0.13.1",
  "ImageOrientationPatientDICOM": [0.984762, 0.173766, 0.00694403, -0.167798, 0.938932, 0.300416],
  "ImageOrientationText": "Tra>Cor(17.3)>Sag(-2.6)",
  "ImageType": [
    "ORIGINAL",
    "PRIMARY",
    "M",
    "ND",
    "NORM",
    "MOSAIC"
],
  "ImagingFrequency": 123.259,
  "InPlanePhaseEncodingDirectionDICOM": "COL",
  "InstitutionAddress": "Maynard 3,Hanover,NH,US,03755",
  "InstitutionName": "Dartmouth College - PBS",
  "InstitutionalDepartmentName": "Department",
  "MRAcquisitionType": "2D",
  "MagneticFieldStrength": 3,
  "Manufacturer": "Siemens",
  "ManufacturersModelName": "Prisma",
  "MatrixCoilMode": "SENSE",
  "Modality": "MR",
  "NonlinearGradientCorrection": false,
  "PartialFourier": 1,
  "PatientPosition": "HFS",
  "PercentPhaseFOV": 100,
  "PercentSampling": 100,
  "PhaseEncodingDirection": "j-",
  "PhaseEncodingSteps": 80,
  "PhaseResolution": 1,
  "PixelBandwidth": 2315,
  "ProcedureStepDescription": "dbic^QA",
  "ProtocolName": "func-bold_fa-10",
  "PulseSequenceDetails": "%SiemensSeq%\\ep2d_bold",
  "ReceiveCoilActiveElements": "HEA;HEP",
  "ReceiveCoilName": "Head_32",
  "ReconMatrixPE": 80,
  "RepetitionTime": 2,
  "SAR": 0.00990815,
  "ScanOptions": "FS",
  "ScanningSequence": "EP",
  "SequenceName": "*epfid2d1_80",
  "SequenceVariant": "SK",
  "SeriesDescription": "func-bold_fa-10",
  "SeriesNumber": 10,
  "ShimSetting": [4224, -7734, -7483, -37, -116, -15, -1, 68],
  "SliceThickness": 3.5,
  "SliceTiming": [0.99, 0, 1.0575, 0.0675, 1.1225, 0.1325, 1.19, 0.2, 1.255, 0.265, 1.32, 0.33, 1.3875, 0.3975, 1.4525, 0.4625, 1.52, 0.53, 1.585, 0.595, 1.65, 0.66, 1.7175, 0.7275, 1.7825, 0.7925, 1.85, 0.86, 1.915, 0.925],
  "SoftwareVersions": "syngo MR E11",
  "SpacingBetweenSlices": 3.99,
  "StationName": "AWP66112",
  "TotalReadoutTime": 0.0395,
  "TxRefAmp": 226.713,
  "dcmmeta_affine": [
    [-2.95428729057312, -0.5033935904502869, -0.18227224051952362, 144.51490783691406],
    [-0.5212993025779724, 2.8167972564697266, 1.185044765472412, -103.61175537109375],
    [0.020832080394029617, -0.9012483358383179, 3.805593967437744, -20.963546752929688],
    [0.0, 0.0, 0.0, 1.0]
],
  "dcmmeta_reorient_transform": [
    [0.0, -1.0, 0.0, 79.0],
    [1.0, 0.0, 0.0, 0.0],
    [0.0, 0.0, 1.0, 0.0],
    [0.0, 0.0, 0.0, 1.0]
],
  "dcmmeta_shape": [80, 80, 30, 200],
  "dcmmeta_slice_dim": 2,
  "dcmmeta_version": 0.6,
  "global": {
    "const": {
      "AccessionNumber": "qa",
      "AcquisitionMatrix": [80, 0, 0, 80],
      "AngioFlag": "N",
      "BitsAllocated": 16,
      "BitsStored": 12,
      "BodyPartExamined": "BRAIN",
      "Columns": 480,
      "EchoNumbers": 1,
      "EchoTime": 30.0,
      "EchoTrainLength": 80,
      "FlipAngle": 10.0,
      "HighBit": 11,
      "ImageOrientationPatient": [0.98476241025551, 0.17376644048914, 0.00694402674934, -0.167797871766, 0.93893238893372, 0.30041611681468],
      "ImagePositionPatient": [-594.92552775956, -786.53451842103, -276.57825310365],
      "ImageType": [
        "ORIGINAL",
        "PRIMARY",
        "M",
        "ND",
        "NORM",
        "MOSAIC"
],
      "ImagedNucleus": "1H",
      "ImagingFrequency": 123.259263,
      "InPlanePhaseEncodingDirection": "COL",
      "MRAcquisitionType": "2D",
      "MagneticFieldStrength": 3.0,
      "Manufacturer": "SIEMENS",
      "ManufacturerModelName": "Prisma",
      "Modality": "MR",
      "NumberOfAverages": 1.0,
      "NumberOfPhaseEncodingSteps": 80,
      "PercentPhaseFieldOfView": 100.0,
      "PercentSampling": 100.0,
      "PerformedProcedureStepStartTime": "115225.922000",
      "PhotometricInterpretation": "MONOCHROME2",
      "PixelBandwidth": 2315.0,
      "PixelRepresentation": 0,
      "PixelSpacing": [3.0, 3.0],
      "ProtocolName": "func-bold_fa-10",
      "RepetitionTime": 2000.0,
      "Rows": 480,
      "SAR": 0.00990815054599,
      "SamplesPerPixel": 1,
      "ScanOptions": "FS",
      "ScanningSequence": "EP",
      "SequenceName": "*epfid2d1_80",
      "SequenceVariant": "SK",
      "SeriesDescription": "func-bold_fa-10",
      "SeriesNumber": 10,
      "SeriesTime": "121555.104000",
      "SliceLocation": -57.369516469655,
      "SliceThickness": 3.5,
      "SmallestImagePixelValue": 0,
      "SoftwareVersions": "syngo MR E11",
      "SpacingBetweenSlices": 3.9899999535516,
      "SpecificCharacterSet": "ISO_IR 100",
      "StudyID": "26",
      "StudyTime": "115225.886000",
      "TransmitCoilName": "Body",
      "VariableFlipAngleFlag": "N",
      "WindowCenterWidthExplanation": "Algo1"
    },
    "slices": {}
  },
  "time": {
    "samples": {
      "AcquisitionNumber": [1, 2, 3, 4, 5, 6, 7, 8, 9, 10, 11, 12, 13, 14, 15, 16, 17, 18, 19, 20, 21, 22, 23, 24, 25, 26, 27, 28, 29, 30, 31, 32, 33, 34, 35, 36, 37, 38, 39, 40, 41, 42, 43, 44, 45, 46, 47, 48, 49, 50, 51, 52, 53, 54, 55, 56, 57, 58, 59, 60, 61, 62, 63, 64, 65, 66, 67, 68, 69, 70, 71, 72, 73, 74, 75, 76, 77, 78, 79, 80, 81, 82, 83, 84, 85, 86, 87, 88, 89, 90, 91, 92, 93, 94, 95, 96, 97, 98, 99, 100, 101, 102, 103, 104, 105, 106, 107, 108, 109, 110, 111, 112, 113, 114, 115, 116, 117, 118, 119, 120, 121, 122, 123, 124, 125, 126, 127, 128, 129, 130, 131, 132, 133, 134, 135, 136, 137, 138, 139, 140, 141, 142, 143, 144, 145, 146, 147, 148, 149, 150, 151, 152, 153, 154, 155, 156, 157, 158, 159, 160, 161, 162, 163, 164, 165, 166, 167, 168, 169, 170, 171, 172, 173, 174, 175, 176, 177, 178, 179, 180, 181, 182, 183, 184, 185, 186, 187, 188, 189, 190, 191, 192, 193, 194, 195, 196, 197, 198, 199, 200],
      "AcquisitionTime": ["121510.457500", "121512.457500", "121514.457500", "121516.457500", "121518.457500", "121520.457500", "121522.457500", "121524.457500", "121526.457500", "121528.457500", "121530.457500", "121532.457500", "121534.457500", "121536.457500", "121538.457500", "121540.457500", "121542.457500", "121544.457500", "121546.457500", "121548.457500", "121550.457500", "121552.457500", "121554.457500", "121556.457500", "121558.457500", "121600.457500", "121602.457500", "121604.457500", "121606.457500", "121608.457500", "121610.457500", "121612.457500", "121614.457500", "121616.457500", "121618.457500", "121620.457500", "121622.457500", "121624.457500", "121626.457500", "121628.457500", "121630.457500", "121632.457500", "121634.457500", "121636.457500", "121638.457500", "121640.457500", "121642.457500", "121644.457500", "121646.457500", "121648.457500", "121650.457500", "121652.457500", "121654.457500", "121656.457500", "121658.457500", "121700.457500", "121702.457500", "121704.457500", "121706.457500", "121708.457500", "121710.457500", "121712.457500", "121714.457500", "121716.457500", "121718.457500", "121720.457500", "121722.457500", "121724.457500", "121726.457500", "121728.457500", "121730.457500", "121732.457500", "121734.457500", "121736.457500", "121738.457500", "121740.457500", "121742.457500", "121744.457500", "121746.457500", "121748.457500", "121750.457500", "121752.457500", "121754.457500", "121756.457500", "121758.457500", "121800.457500", "121802.457500", "121804.457500", "121806.457500", "121808.457500", "121810.457500", "121812.457500", "121814.457500", "121816.457500", "121818.457500", "121820.457500", "121822.457500", "121824.457500", "121826.457500", "121828.457500", "121830.457500", "121832.457500", "121834.457500", "121836.457500", "121838.457500", "121840.457500", "121842.457500", "121844.457500", "121846.457500", "121848.457500", "121850.457500", "121852.457500", "121854.457500", "121856.457500", "121858.457500", "121900.457500", "121902.457500", "121904.457500", "121906.457500", "121908.457500", "121910.457500", "121912.457500", "121914.457500", "121916.457500", "121918.457500", "121920.457500", "121922.457500", "121924.457500", "121926.457500", "121928.457500", "121930.457500", "121932.457500", "121934.457500", "121936.457500", "121938.457500", "121940.457500", "121942.457500", "121944.457500", "121946.457500", "121948.457500", "121950.457500", "121952.457500", "121954.457500", "121956.457500", "121958.457500", "122000.457500", "122002.457500", "122004.457500", "122006.457500", "122008.457500", "122010.457500", "122012.457500", "122014.457500", "122016.457500", "122018.457500", "122020.457500", "122022.457500", "122024.457500", "122026.457500", "122028.457500", "122030.457500", "122032.457500", "122034.457500", "122036.457500", "122038.457500", "122040.457500", "122042.457500", "122044.457500", "122046.457500", "122048.457500", "122050.457500", "122052.457500", "122054.457500", "122056.457500", "122058.457500", "122100.457500", "122102.457500", "122104.457500", "122106.457500", "122108.457500", "122110.457500", "122112.457500", "122114.457500", "122116.457500", "122118.457500", "122120.457500", "122122.457500", "122124.457500", "122126.457500", "122128.457500", "122130.457500", "122132.457500", "122134.457500", "122136.457500", "122138.457500", "122140.457500", "122142.457500", "122144.457500", "122146.457500", "122148.457500"],
      "ContentTime": ["121555.107000", "121555.110000", "121555.113000", "121555.115000", "121555.117000", "121555.120000", "121555.122000", "121555.124000", "121555.132000", "121555.135000", "121555.137000", "121555.140000", "121555.142000", "121555.145000", "121555.147000", "121555.149000", "121555.152000", "121555.154000", "121555.156000", "121555.159000", "121555.161000", "121555.163000", "121635.103000", "121635.106000", "121635.108000", "121635.115000", "121635.117000", "121635.119000", "121635.122000", "121635.124000", "121635.127000", "121635.129000", "121635.131000", "121635.134000", "121635.136000", "121635.138000", "121635.141000", "121635.143000", "121635.146000", "121635.148000", "121635.150000", "121635.153000", "121715.103000", "121715.106000", "121715.108000", "121715.111000", "121715.113000", "121715.116000", "121715.118000", "121715.120000", "121715.123000", "121715.125000", "121715.127000", "121715.130000", "121715.132000", "121715.135000", "121715.137000", "121715.140000", "121715.142000", "121715.144000", "121715.147000", "121715.149000", "121755.102000", "121755.105000", "121755.107000", "121755.110000", "121755.112000", "121755.114000", "121755.117000", "121755.119000", "121755.121000", "121755.124000", "121755.126000", "121755.129000", "121755.131000", "121755.133000", "121755.136000", "121755.138000", "121755.140000", "121755.143000", "121755.145000", "121755.147000", "121835.103000", "121835.106000", "121835.108000", "121835.111000", "121835.113000", "121835.115000", "121835.118000", "121835.120000", "121835.122000", "121835.125000", "121835.127000", "121835.130000", "121835.132000", "121835.134000", "121835.137000", "121835.139000", "121835.141000", "121835.144000", "121835.146000", "121835.148000", "121915.103000", "121915.106000", "121915.108000", "121915.111000", "121915.113000", "121915.116000", "121915.118000", "121915.120000", "121915.123000", "121915.125000", "121915.127000", "121915.130000", "121915.132000", "121915.135000", "121915.137000", "121915.140000", "121915.142000", "121915.144000", "121915.147000", "121915.149000", "121935.103000", "121935.106000", "121935.108000", "121935.111000", "121935.113000", "121935.116000", "121935.118000", "121935.121000", "121935.123000", "121935.125000", "122015.102000", "122015.105000", "122015.107000", "122015.110000", "122015.112000", "122015.115000", "122015.117000", "122015.119000", "122015.122000", "122015.124000", "122015.126000", "122015.129000", "122015.131000", "122015.134000", "122015.136000", "122015.138000", "122015.141000", "122015.143000", "122015.146000", "122015.148000", "122055.103000", "122055.106000", "122055.108000", "122055.111000", "122055.113000", "122055.116000", "122055.118000", "122055.121000", "122055.123000", "122055.125000", "122055.128000", "122055.130000", "122055.132000", "122055.135000", "122055.137000", "122055.140000", "122055.142000", "122055.144000", "122055.147000", "122055.149000", "122135.103000", "122135.106000", "122135.108000", "122135.111000", "122135.113000", "122135.116000", "122135.118000", "122135.120000", "122135.123000", "122135.125000", "122135.140000", "122135.142000", "122135.145000", "122135.147000", "122135.149000", "122135.152000", "122135.154000", "122135.157000", "122135.159000", "122135.161000", "122150.052000", "122150.055000", "122150.057000", "122150.060000", "122150.062000", "122150.065000", "122150.067000", "122150.070000"],
      "InstanceCreationTime": ["121555.107000", "121555.110000", "121555.113000", "121555.115000", "121555.117000", "121555.120000", "121555.122000", "121555.124000", "121555.132000", "121555.135000", "121555.137000", "121555.140000", "121555.142000", "121555.145000", "121555.147000", "121555.149000", "121555.152000", "121555.154000", "121555.156000", "121555.159000", "121555.161000", "121555.163000", "121635.103000", "121635.106000", "121635.108000", "121635.115000", "121635.117000", "121635.119000", "121635.122000", "121635.124000", "121635.127000", "121635.129000", "121635.131000", "121635.134000", "121635.136000", "121635.138000", "121635.141000", "121635.143000", "121635.146000", "121635.148000", "121635.150000", "121635.153000", "121715.103000", "121715.106000", "121715.108000", "121715.111000", "121715.113000", "121715.116000", "121715.118000", "121715.120000", "121715.123000", "121715.125000", "121715.127000", "121715.130000", "121715.132000", "121715.135000", "121715.137000", "121715.140000", "121715.142000", "121715.144000", "121715.147000", "121715.149000", "121755.102000", "121755.105000", "121755.107000", "121755.110000", "121755.112000", "121755.114000", "121755.117000", "121755.119000", "121755.121000", "121755.124000", "121755.126000", "121755.129000", "121755.131000", "121755.133000", "121755.136000", "121755.138000", "121755.140000", "121755.143000", "121755.145000", "121755.147000", "121835.103000", "121835.106000", "121835.108000", "121835.111000", "121835.113000", "121835.115000", "121835.118000", "121835.120000", "121835.122000", "121835.125000", "121835.127000", "121835.130000", "121835.132000", "121835.134000", "121835.137000", "121835.139000", "121835.141000", "121835.144000", "121835.146000", "121835.148000", "121915.103000", "121915.106000", "121915.108000", "121915.111000", "121915.113000", "121915.116000", "121915.118000", "121915.120000", "121915.123000", "121915.125000", "121915.127000", "121915.130000", "121915.132000", "121915.135000", "121915.137000", "121915.140000", "121915.142000", "121915.144000", "121915.147000", "121915.149000", "121935.103000", "121935.106000", "121935.108000", "121935.111000", "121935.113000", "121935.116000", "121935.118000", "121935.121000", "121935.123000", "121935.125000", "122015.102000", "122015.105000", "122015.107000", "122015.110000", "122015.112000", "122015.115000", "122015.117000", "122015.119000", "122015.122000", "122015.124000", "122015.126000", "122015.129000", "122015.131000", "122015.134000", "122015.136000", "122015.138000", "122015.141000", "122015.143000", "122015.146000", "122015.148000", "122055.103000", "122055.106000", "122055.108000", "122055.111000", "122055.113000", "122055.116000", "122055.118000", "122055.121000", "122055.123000", "122055.125000", "122055.128000", "122055.130000", "122055.132000", "122055.135000", "122055.137000", "122055.140000", "122055.142000", "122055.144000", "122055.147000", "122055.149000", "122135.103000", "122135.106000", "122135.108000", "122135.111000", "122135.113000", "122135.116000", "122135.118000", "122135.120000", "122135.123000", "122135.125000", "122135.140000", "122135.142000", "122135.145000", "122135.147000", "122135.149000", "122135.152000", "122135.154000", "122135.157000", "122135.159000", "122135.161000", "122150.052000", "122150.055000", "122150.057000", "122150.060000", "122150.062000", "122150.065000", "122150.067000", "122150.070000"],
      "InstanceNumber": [1, 2, 3, 4, 5, 6, 7, 8, 9, 10, 11, 12, 13, 14, 15, 16, 17, 18, 19, 20, 21, 22, 23, 24, 25, 26, 27, 28, 29, 30, 31, 32, 33, 34, 35, 36, 37, 38, 39, 40, 41, 42, 43, 44, 45, 46, 47, 48, 49, 50, 51, 52, 53, 54, 55, 56, 57, 58, 59, 60, 61, 62, 63, 64, 65, 66, 67, 68, 69, 70, 71, 72, 73, 74, 75, 76, 77, 78, 79, 80, 81, 82, 83, 84, 85, 86, 87, 88, 89, 90, 91, 92, 93, 94, 95, 96, 97, 98, 99, 100, 101, 102, 103, 104, 105, 106, 107, 108, 109, 110, 111, 112, 113, 114, 115, 116, 117, 118, 119, 120, 121, 122, 123, 124, 125, 126, 127, 128, 129, 130, 131, 132, 133, 134, 135, 136, 137, 138, 139, 140, 141, 142, 143, 144, 145, 146, 147, 148, 149, 150, 151, 152, 153, 154, 155, 156, 157, 158, 159, 160, 161, 162, 163, 164, 165, 166, 167, 168, 169, 170, 171, 172, 173, 174, 175, 176, 177, 178, 179, 180, 181, 182, 183, 184, 185, 186, 187, 188, 189, 190, 191, 192, 193, 194, 195, 196, 197, 198, 199, 200],
      "LargestImagePixelValue": [417, 419, 417, 419, 418, 419, 418, 418, 418, 418, 418, 417, 420, 415, 420, 417, 418, 417, 420, 418, 418, 419, 418, 418, 418, 419, 417, 418, 417, 418, 418, 417, 419, 418, 419, 417, 419, 417, 419, 419, 420, 419, 418, 418, 419, 418, 417, 418, 418, 419, 417, 419, 418, 419, 418, 417, 417, 417, 420, 416, 419, 418, 419, 418, 418, 417, 418, 418, 418, 417, 417, 419, 417, 419, 417, 418, 417, 418, 419, 417, 418, 419, 418, 417, 418, 415, 418, 418, 418, 418, 416, 419, 416, 418, 416, 417, 416, 417, 417, 417, 418, 417, 418, 416, 418, 417, 418, 418, 420, 417, 418, 416, 416, 417, 417, 418, 416, 418, 416, 419, 416, 417, 418, 418, 418, 416, 417, 416, 418, 417, 419, 417, 420, 416, 419, 418, 418, 420, 416, 419, 416, 418, 417, 417, 417, 416, 416, 416, 417, 415, 417, 417, 420, 418, 417, 418, 417, 417, 416, 417, 415, 417, 416, 419, 415, 417, 416, 417, 417, 415, 415, 417, 418, 416, 417, 414, 417, 415, 416, 418, 416, 417, 418, 418, 416, 417, 416, 418, 415, 417, 416, 417, 417, 417, 417, 416, 417, 415, 416, 416],
      "WindowCenter": [301.0, 302.0, 302.0, 302.0, 302.0, 302.0, 302.0, 301.0, 302.0, 301.0, 302.0, 301.0, 302.0, 302.0, 302.0, 301.0, 301.0, 302.0, 302.0, 302.0, 302.0, 302.0, 302.0, 302.0, 302.0, 302.0, 302.0, 302.0, 302.0, 302.0, 302.0, 302.0, 302.0, 301.0, 302.0, 302.0, 302.0, 302.0, 302.0, 302.0, 302.0, 302.0, 302.0, 302.0, 301.0, 301.0, 302.0, 302.0, 302.0, 301.0, 302.0, 302.0, 301.0, 301.0, 302.0, 301.0, 302.0, 301.0, 301.0, 302.0, 301.0, 301.0, 301.0, 302.0, 301.0, 302.0, 301.0, 302.0, 301.0, 302.0, 301.0, 302.0, 302.0, 301.0, 301.0, 302.0, 301.0, 302.0, 302.0, 302.0, 301.0, 301.0, 301.0, 302.0, 301.0, 301.0, 301.0, 302.0, 302.0, 301.0, 301.0, 301.0, 301.0, 301.0, 301.0, 301.0, 301.0, 301.0, 302.0, 302.0, 301.0, 302.0, 301.0, 302.0, 301.0, 301.0, 302.0, 302.0, 301.0, 301.0, 301.0, 302.0, 301.0, 301.0, 301.0, 302.0, 301.0, 301.0, 302.0, 301.0, 301.0, 301.0, 301.0, 301.0, 301.0, 301.0, 301.0, 301.0, 302.0, 302.0, 302.0, 302.0, 301.0, 302.0, 301.0, 301.0, 301.0, 302.0, 301.0, 302.0, 302.0, 301.0, 301.0, 301.0, 302.0, 302.0, 302.0, 301.0, 302.0, 301.0, 301.0, 301.0, 301.0, 301.0, 301.0, 301.0, 301.0, 301.0, 301.0, 301.0, 301.0, 301.0, 302.0, 302.0, 301.0, 301.0, 301.0, 301.0, 301.0, 301.0, 301.0, 301.0, 301.0, 301.0, 301.0, 301.0, 301.0, 301.0, 301.0, 301.0, 302.0, 302.0, 301.0, 301.0, 301.0, 301.0, 302.0, 301.0, 301.0, 301.0, 301.0, 301.0, 301.0, 302.0, 301.0, 301.0, 301.0, 301.0, 301.0, 301.0],
      "WindowWidth": [652.0, 654.0, 653.0, 654.0, 653.0, 653.0, 654.0, 652.0, 653.0, 652.0, 653.0, 652.0, 653.0, 653.0, 653.0, 652.0, 652.0, 653.0, 653.0, 653.0, 652.0, 653.0, 653.0, 653.0, 653.0, 653.0, 653.0, 653.0, 653.0, 653.0, 653.0, 652.0, 653.0, 652.0, 653.0, 653.0, 653.0, 652.0, 652.0, 652.0, 652.0, 653.0, 652.0, 653.0, 652.0, 652.0, 652.0, 653.0, 652.0, 652.0, 653.0, 653.0, 652.0, 652.0, 653.0, 652.0, 653.0, 652.0, 652.0, 652.0, 652.0, 652.0, 652.0, 652.0, 652.0, 652.0, 652.0, 653.0, 652.0, 653.0, 652.0, 653.0, 652.0, 652.0, 652.0, 653.0, 652.0, 652.0, 653.0, 652.0, 652.0, 652.0, 652.0, 652.0, 652.0, 652.0, 652.0, 653.0, 652.0, 652.0, 652.0, 652.0, 652.0, 652.0, 652.0, 652.0, 652.0, 652.0, 652.0, 652.0, 652.0, 652.0, 652.0, 652.0, 652.0, 652.0, 652.0, 652.0, 652.0, 652.0, 652.0, 652.0, 652.0, 652.0, 652.0, 652.0, 652.0, 652.0, 652.0, 652.0, 652.0, 652.0, 652.0, 652.0, 652.0, 652.0, 652.0, 652.0, 652.0, 652.0, 652.0, 652.0, 652.0, 652.0, 652.0, 652.0, 652.0, 652.0, 652.0, 652.0, 652.0, 652.0, 652.0, 652.0, 652.0, 652.0, 652.0, 652.0, 652.0, 652.0, 652.0, 652.0, 652.0, 652.0, 652.0, 652.0, 652.0, 652.0, 652.0, 652.0, 652.0, 652.0, 652.0, 652.0, 652.0, 652.0, 652.0, 652.0, 652.0, 652.0, 652.0, 652.0, 652.0, 652.0, 652.0, 652.0, 652.0, 652.0, 652.0, 652.0, 652.0, 652.0, 652.0, 652.0, 652.0, 652.0, 652.0, 652.0, 652.0, 652.0, 652.0, 652.0, 652.0, 652.0, 652.0, 652.0, 652.0, 652.0, 652.0, 652.0]
    },
    "slices": {}
  }
}