{
  "AcquisitionMatrixPE": 80,
  "AcquisitionNumber": 1,
  "AcquisitionTime": "08:43:28.740000",
  "BandwidthPerPixelPhaseEncode": 48.077,
  "BaseResolution": 80,
  "BodyPartExamined": "BRAIN",
  "CoilCombinationMethod": "Sum of Squares",
  "ConsistencyInfo": "N4_VE11E_LATEST_20181129",
  "ConversionSoftware": "dcm2niix",
  "ConversionSoftwareVersion": "v1.0.20220720",
  "DerivedVendorReportedEchoSpacing": 0.000519999,
  "DeviceSerialNumber": "66112",
  "DwellTime": 2.7e-06,
  "EchoTime": 0.035,
  "EchoTrainLength": 39,
  "EffectiveEchoSpacing": 0.00026,
  "FlipAngle": 90,
  "HeudiconvVersion": "0.13.1",
  "ImageOrientationPatientDICOM": [0.991218, -0.130263, -0.0227721, 0.1312, 0.947201, 0.29257],
  "ImageOrientationText": "Tra>Cor(17.0)>Sag(0.9)",
  "ImageType": [
    "ORIGINAL",
    "PRIMARY",
    "M",
    "ND",
    "NORM",
    "MOSAIC"
],
  "ImagingFrequency": 123.252,
  "InPlanePhaseEncodingDirectionDICOM": "COL",
  "InstitutionAddress": "Maynard 3,Hanover,NH,US,03755",
  "InstitutionName": "Dartmouth College - PBS",
  "InstitutionalDepartmentName": "Department",
  "MRAcquisitionType": "2D",
  "MagneticFieldStrength": 3,
  "Manufacturer": "Siemens",
  "ManufacturersModelName": "Prisma",
  "MatrixCoilMode": "GRAPPA",
  "Modality": "MR",
  "NonlinearGradientCorrection": false,
  "ParallelReductionFactorInPlane": 2,
  "PartialFourier": 1,
  "PatientPosition": "HFS",
  "PercentPhaseFOV": 100,
  "PercentSampling": 100,
  "PhaseEncodingDirection": "j-",
  "PhaseEncodingSteps": 79,
  "PhaseResolution": 1,
  "PixelBandwidth": 2315,
  "ProcedureStepDescription": "dbic^QA",
  "ProtocolName": "func-bold_task-rest_acq-p2",
  "PulseSequenceDetails": "%SiemensSeq%\\ep2d_bold",
  "ReceiveCoilActiveElements": "HC1-7;NC1,2",
  "ReceiveCoilName": "HeadNeck_64",
  "ReconMatrixPE": 80,
  "RefLinesPE": 24,
  "RepetitionTime": 2,
  "SAR": 0.0358191,
  "ScanOptions": "FS",
  "ScanningSequence": "EP",
  "SequenceName": "*epfid2d1_80",
  "SequenceVariant": "SK",
  "SeriesDescription": "func-bold_task-rest_acq-p2",
  "SeriesNumber": 5,
  "ShimSetting": [4140, -7706, -7505, 141, -71, -302, -71, 87],
  "SliceThickness": 3.5,
  "SliceTiming": [0.9875, 0, 1.055, 0.065, 1.12, 0.13, 1.1875, 0.1975, 1.2525, 0.2625, 1.3175, 0.3275, 1.385, 0.395, 1.45, 0.46, 1.5175, 0.5275, 1.5825, 0.5925, 1.6475, 0.6575, 1.715, 0.725, 1.78, 0.79, 1.8475, 0.8575, 1.9125, 0.9225],
  "SoftwareVersions": "syngo MR E11",
  "SpacingBetweenSlices": 3.99,
  "StationName": "AWP66112",
  "TaskName": "rest",
  "TotalReadoutTime": 0.02054,
  "TxRefAmp": 211.481,
  "dcmmeta_affine": [
    [-2.973653554916382, 0.39360103011131287, 0.06600014120340347, 104.88167572021484],
    [0.39079049229621887, 2.841602325439453, 1.169023036956787, -131.1564483642578],
    [-0.06831642985343933, -0.8777097463607788, 3.8143320083618164, -21.303743362426758],
    [0.0, 0.0, 0.0, 1.0]
],
  "dcmmeta_reorient_transform": [
    [0.0, -1.0, 0.0, 79.0],
    [1.0, 0.0, 0.0, 0.0],
    [0.0, 0.0, 1.0, 0.0],
    [0.0, 0.0, 0.0, 1.0]
],
  "dcmmeta_shape": [80, 80, 30, 200],
  "dcmmeta_slice_dim": 2,
  "dcmmeta_version": 0.6,
  "global": {
    "const": {
      "AccessionNumber": "qa64",
      "AcquisitionMatrix": [80, 0, 0, 80],
      "AngioFlag": "N",
      "BitsAllocated": 16,
      "BitsStored": 12,
      "BodyPartExamined": "BRAIN",
      "Columns": 480,
      "EchoNumbers": 1,
      "EchoTime": 35.0,
      "EchoTrainLength": 39,
      "FlipAngle": 90.0,
      "HighBit": 11,
      "ImageOrientationPatient": [0.99121786283475, -0.1302634940789, -0.0227721432387, 0.13120034626455, 0.94720077577369, 0.29256992243526],
      "ImagePositionPatient": [-809.42707945122, -583.49250889312, -252.52148323586],
      "ImageType": [
        "ORIGINAL",
        "PRIMARY",
        "M",
        "ND",
        "NORM",
        "MOSAIC"
],
      "ImagedNucleus": "1H",
      "ImagingFrequency": 123.252356,
      "InPlanePhaseEncodingDirection": "COL",
      "MRAcquisitionType": "2D",
      "MagneticFieldStrength": 3.0,
      "Manufacturer": "SIEMENS",
      "ManufacturerModelName": "Prisma",
      "Modality": "MR",
      "NumberOfAverages": 1.0,
      "NumberOfPhaseEncodingSteps": 79,
      "PercentPhaseFieldOfView": 100.0,
      "PercentSampling": 100.0,
      "PerformedProcedureStepStartTime": "084038.711000",
      "PhotometricInterpretation": "MONOCHROME2",
      "PixelBandwidth": 2315.0,
      "PixelRepresentation": 0,
      "PixelSpacing": [3.0, 3.0],
      "ProtocolName": "func-bold_task-rest_acq-p2",
      "RepetitionTime": 2000.0,
      "Rows": 480,
      "SAR": 0.03581914115325,
      "SamplesPerPixel": 1,
      "ScanOptions": "FS",
      "ScanningSequence": "EP",
      "SequenceName": "*epfid2d1_80",
      "SequenceVariant": "SK",
      "SeriesDescription": "func-bold_task-rest_acq-p2",
      "SeriesNumber": 5,
      "SeriesTime": "084425.284000",
      "SliceLocation": -57.058210992082,
      "SliceThickness": 3.5,
      "SmallestImagePixelValue": 0,
      "SoftwareVersions": "syngo MR E11",
      "SpacingBetweenSlices": 3.9899999408167,
      "SpecificCharacterSet": "ISO_IR 100",
      "StudyID": "4",
      "StudyTime": "084038.634000",
      "TransmitCoilName": "Body",
      "VariableFlipAngleFlag": "N",
      "WindowCenterWidthExplanation": "Algo1"
    },
    "slices": {}
  },
  "time": {
    "samples": {
      "AcquisitionNumber": [1, 2, 3, 4, 5, 6, 7, 8, 9, 10, 11, 12, 13, 14, 15, 16, 17, 18, 19, 20, 21, 22, 23, 24, 25, 26, 27, 28, 29, 30, 31, 32, 33, 34, 35, 36, 37, 38, 39, 40, 41, 42, 43, 44, 45, 46, 47, 48, 49, 50, 51, 52, 53, 54, 55, 56, 57, 58, 59, 60, 61, 62, 63, 64, 65, 66, 67, 68, 69, 70, 71, 72, 73, 74, 75, 76, 77, 78, 79, 80, 81, 82, 83, 84, 85, 86, 87, 88, 89, 90, 91, 92, 93, 94, 95, 96, 97, 98, 99, 100, 101, 102, 103, 104, 105, 106, 107, 108, 109, 110, 111, 112, 113, 114, 115, 116, 117, 118, 119, 120, 121, 122, 123, 124, 125, 126, 127, 128, 129, 130, 131, 132, 133, 134, 135, 136, 137, 138, 139, 140, 141, 142, 143, 144, 145, 146, 147, 148, 149, 150, 151, 152, 153, 154, 155, 156, 157, 158, 159, 160, 161, 162, 163, 164, 165, 166, 167, 168, 169, 170, 171, 172, 173, 174, 175, 176, 177, 178, 179, 180, 181, 182, 183, 184, 185, 186, 187, 188, 189, 190, 191, 192, 193, 194, 195, 196, 197, 198, 199, 200],
      "AcquisitionTime": ["084328.740000", "084330.740000", "084332.740000", "084334.740000", "084336.740000", "084338.740000", "084340.740000", "084342.740000", "084344.740000", "084346.740000", "084348.740000", "084350.740000", "084352.740000", "084354.740000", "084356.740000", "084358.740000", "084400.740000", "084402.740000", "084404.740000", "084406.740000", "084408.740000", "084410.740000", "084412.740000", "084414.740000", "084416.740000", "084418.740000", "084420.740000", "084422.740000", "084424.740000", "084426.740000", "084428.740000", "084430.740000", "084432.740000", "084434.740000", "084436.740000", "084438.740000", "084440.740000", "084442.740000", "084444.740000", "084446.740000", "084448.740000", "084450.740000", "084452.740000", "084454.740000", "084456.740000", "084458.740000", "084500.740000", "084502.740000", "084504.740000", "084506.740000", "084508.740000", "084510.740000", "084512.740000", "084514.740000", "084516.740000", "084518.740000", "084520.740000", "084522.740000", "084524.740000", "084526.740000", "084528.740000", "084530.740000", "084532.740000", "084534.740000", "084536.740000", "084538.740000", "084540.740000", "084542.740000", "084544.740000", "084546.740000", "084548.740000", "084550.740000", "084552.740000", "084554.740000", "084556.740000", "084558.740000", "084600.740000", "084602.740000", "084604.740000", "084606.740000", "084608.740000", "084610.740000", "084612.740000", "084614.740000", "084616.740000", "084618.740000", "084620.740000", "084622.740000", "084624.740000", "084626.740000", "084628.740000", "084630.740000", "084632.740000", "084634.740000", "084636.740000", "084638.740000", "084640.740000", "084642.740000", "084644.740000", "084646.740000", "084648.740000", "084650.740000", "084652.740000", "084654.740000", "084656.740000", "084658.740000", "084700.740000", "084702.740000", "084704.740000", "084706.740000", "084708.740000", "084710.740000", "084712.740000", "084714.740000", "084716.740000", "084718.740000", "084720.740000", "084722.740000", "084724.740000", "084726.740000", "084728.740000", "084730.740000", "084732.740000", "084734.740000", "084736.740000", "084738.740000", "084740.740000", "084742.740000", "084744.740000", "084746.740000", "084748.740000", "084750.740000", "084752.740000", "084754.740000", "084756.740000", "084758.740000", "084800.740000", "084802.740000", "084804.740000", "084806.740000", "084808.740000", "084810.740000", "084812.740000", "084814.740000", "084816.740000", "084818.740000", "084820.740000", "084822.740000", "084824.740000", "084826.740000", "084828.740000", "084830.740000", "084832.740000", "084834.740000", "084836.740000", "084838.740000", "084840.740000", "084842.740000", "084844.740000", "084846.740000", "084848.740000", "084850.740000", "084852.740000", "084854.740000", "084856.740000", "084858.740000", "084900.740000", "084902.740000", "084904.740000", "084906.740000", "084908.740000", "084910.740000", "084912.740000", "084914.740000", "084916.740000", "084918.740000", "084920.740000", "084922.740000", "084924.740000", "084926.740000", "084928.740000", "084930.740000", "084932.740000", "084934.740000", "084936.740000", "084938.740000", "084940.740000", "084942.740000", "084944.740000", "084946.740000", "084948.740000", "084950.740000", "084952.740000", "084954.740000", "084956.740000", "084958.740000", "085000.740000", "085002.740000", "085004.740000", "085006.740000"],
      "ContentTime": ["084425.288000", "084425.291000", "084425.293000", "084425.296000", "084425.298000", "084425.301000", "084425.303000", "084425.306000", "084425.308000", "084425.310000", "084425.313000", "084425.315000", "084425.317000", "084425.320000", "084425.322000", "084425.325000", "084425.327000", "084425.329000", "084425.341000", "084425.344000", "084425.346000", "084425.348000", "084425.351000", "084425.353000", "084425.355000", "084425.358000", "084425.360000", "084425.362000", "084505.283000", "084505.286000", "084505.288000", "084505.291000", "084505.293000", "084505.295000", "084505.297000", "084505.300000", "084505.302000", "084505.304000", "084505.307000", "084505.309000", "084505.311000", "084505.314000", "084505.316000", "084505.318000", "084505.326000", "084505.328000", "084505.331000", "084505.333000", "084545.282000", "084545.285000", "084545.287000", "084545.289000", "084545.292000", "084545.295000", "084545.297000", "084545.299000", "084545.302000", "084545.304000", "084545.306000", "084545.309000", "084545.311000", "084545.313000", "084545.315000", "084545.318000", "084545.320000", "084545.322000", "084545.325000", "084545.327000", "084625.283000", "084625.286000", "084625.288000", "084625.290000", "084625.293000", "084625.295000", "084625.297000", "084625.300000", "084625.302000", "084625.304000", "084625.306000", "084625.309000", "084625.311000", "084625.314000", "084625.316000", "084625.318000", "084625.321000", "084625.323000", "084625.325000", "084625.328000", "084705.283000", "084705.286000", "084705.288000", "084705.290000", "084705.293000", "084705.295000", "084705.297000", "084705.300000", "084705.302000", "084705.304000", "084705.307000", "084705.309000", "084705.311000", "084705.314000", "084705.316000", "084705.318000", "084705.321000", "084705.323000", "084705.325000", "084705.328000", "084745.282000", "084745.285000", "084745.287000", "084745.290000", "084745.292000", "084745.294000", "084745.296000", "084745.299000", "084745.301000", "084745.303000", "084745.306000", "084745.308000", "084745.310000", "084745.313000", "084745.315000", "084745.325000", "084745.327000", "084745.330000", "084745.332000", "084745.335000", "084825.282000", "084825.285000", "084825.287000", "084825.289000", "084825.292000", "084825.294000", "084825.296000", "084825.299000", "084825.301000", "084825.303000", "084825.306000", "084825.308000", "084825.310000", "084825.313000", "084825.315000", "084825.317000", "084825.319000", "084825.322000", "084825.324000", "084825.326000", "084905.283000", "084905.308000", "084905.310000", "084905.313000", "084905.315000", "084905.317000", "084905.320000", "084905.322000", "084905.324000", "084905.326000", "084905.329000", "084905.331000", "084905.333000", "084905.336000", "084905.338000", "084905.340000", "084905.343000", "084905.345000", "084905.347000", "084905.350000", "084945.282000", "084945.285000", "084945.287000", "084945.289000", "084945.292000", "084945.294000", "084945.296000", "084945.299000", "084945.301000", "084945.303000", "084945.306000", "084945.308000", "084945.310000", "084945.313000", "084945.315000", "084945.317000", "084945.320000", "084945.322000", "084945.324000", "084945.326000", "085008.214000", "085008.225000", "085008.228000", "085008.235000", "085008.237000", "085008.240000", "085008.243000", "085008.245000", "085008.248000", "085008.250000", "085008.253000", "085008.255000"],
      "InstanceCreationTime": ["084425.288000", "084425.291000", "084425.293000", "084425.296000", "084425.298000", "084425.301000", "084425.303000", "084425.306000", "084425.308000", "084425.310000", "084425.313000", "084425.315000", "084425.317000", "084425.320000", "084425.322000", "084425.325000", "084425.327000", "084425.329000", "084425.341000", "084425.344000", "084425.346000", "084425.348000", "084425.351000", "084425.353000", "084425.355000", "084425.358000", "084425.360000", "084425.362000", "084505.283000", "084505.286000", "084505.288000", "084505.291000", "084505.293000", "084505.295000", "084505.297000", "084505.300000", "084505.302000", "084505.304000", "084505.307000", "084505.309000", "084505.311000", "084505.314000", "084505.316000", "084505.318000", "084505.326000", "084505.328000", "084505.331000", "084505.333000", "084545.282000", "084545.285000", "084545.287000", "084545.289000", "084545.292000", "084545.295000", "084545.297000", "084545.299000", "084545.302000", "084545.304000", "084545.306000", "084545.309000", "084545.311000", "084545.313000", "084545.315000", "084545.318000", "084545.320000", "084545.322000", "084545.325000", "084545.327000", "084625.283000", "084625.286000", "084625.288000", "084625.290000", "084625.293000", "084625.295000", "084625.297000", "084625.300000", "084625.302000", "084625.304000", "084625.306000", "084625.309000", "084625.311000", "084625.314000", "084625.316000", "084625.318000", "084625.321000", "084625.323000", "084625.325000", "084625.328000", "084705.283000", "084705.286000", "084705.288000", "084705.290000", "084705.293000", "084705.295000", "084705.297000", "084705.300000", "084705.302000", "084705.304000", "084705.307000", "084705.309000", "084705.311000", "084705.314000", "084705.316000", "084705.318000", "084705.321000", "084705.323000", "084705.325000", "084705.328000", "084745.282000", "084745.285000", "084745.287000", "084745.290000", "084745.292000", "084745.294000", "084745.296000", "084745.299000", "084745.301000", "084745.303000", "084745.306000", "084745.308000", "084745.310000", "084745.313000", "084745.315000", "084745.325000", "084745.327000", "084745.330000", "084745.332000", "084745.335000", "084825.282000", "084825.285000", "084825.287000", "084825.289000", "084825.292000", "084825.294000", "084825.296000", "084825.299000", "084825.301000", "084825.303000", "084825.306000", "084825.308000", "084825.310000", "084825.313000", "084825.315000", "084825.317000", "084825.319000", "084825.322000", "084825.324000", "084825.326000", "084905.283000", "084905.308000", "084905.310000", "084905.313000", "084905.315000", "084905.317000", "084905.320000", "084905.322000", "084905.324000", "084905.326000", "084905.329000", "084905.331000", "084905.333000", "084905.336000", "084905.338000", "084905.340000", "084905.343000", "084905.345000", "084905.347000", "084905.350000", "084945.282000", "084945.285000", "084945.287000", "084945.289000", "084945.292000", "084945.294000", "084945.296000", "084945.299000", "084945.301000", "084945.303000", "084945.306000", "084945.308000", "084945.310000", "084945.313000", "084945.315000", "084945.317000", "084945.320000", "084945.322000", "084945.324000", "084945.326000", "085008.214000", "085008.225000", "085008.228000", "085008.235000", "085008.237000", "085008.240000", "085008.243000", "085008.245000", "085008.248000", "085008.250000", "085008.253000", "085008.255000"],
      "InstanceNumber": [1, 2, 3, 4, 5, 6, 7, 8, 9, 10, 11, 12, 13, 14, 15, 16, 17, 18, 19, 20, 21, 22, 23, 24, 25, 26, 27, 28, 29, 30, 31, 32, 33, 34, 35, 36, 37, 38, 39, 40, 41, 42, 43, 44, 45, 46, 47, 48, 49, 50, 51, 52, 53, 54, 55, 56, 57, 58, 59, 60, 61, 62, 63, 64, 65, 66, 67, 68, 69, 70, 71, 72, 73, 74, 75, 76, 77, 78, 79, 80, 81, 82, 83, 84, 85, 86, 87, 88, 89, 90, 91, 92, 93, 94, 95, 96, 97, 98, 99, 100, 101, 102, 103, 104, 105, 106, 107, 108, 109, 110, 111, 112, 113, 114, 115, 116, 117, 118, 119, 120, 121, 122, 123, 124, 125, 126, 127, 128, 129, 130, 131, 132, 133, 134, 135, 136, 137, 138, 139, 140, 141, 142, 143, 144, 145, 146, 147, 148, 149, 150, 151, 152, 153, 154, 155, 156, 157, 158, 159, 160, 161, 162, 163, 164, 165, 166, 167, 168, 169, 170, 171, 172, 173, 174, 175, 176, 177, 178, 179, 180, 181, 182, 183, 184, 185, 186, 187, 188, 189, 190, 191, 192, 193, 194, 195, 196, 197, 198, 199, 200],
      "LargestImagePixelValue": [3787, 3781, 3778, 3805, 3793, 3788, 3798, 3797, 3803, 3788, 3789, 3786, 3774, 3783, 3799, 3798, 3783, 3780, 3777, 3797, 3793, 3762, 3782, 3772, 3793, 3791, 3792, 3764, 3798, 3782, 3790, 3795, 3794, 3776, 3789, 3791, 3783, 3771, 3782, 3789, 3772, 3798, 3780, 3785, 3772, 3780, 3770, 3789, 3791, 3765, 3770, 3791, 3773, 3777, 3790, 3783, 3765, 3764, 3786, 3783, 3774, 3778, 3779, 3774, 3777, 3781, 3759, 3770, 3774, 3756, 3782, 3770, 3793, 3780, 3781, 3777, 3776, 3783, 3771, 3777, 3782, 3766, 3769, 3777, 3769, 3772, 3775, 3775, 3778, 3774, 3767, 3780, 3789, 3771, 3776, 3774, 3777, 3775, 3783, 3765, 3762, 3758, 3773, 3774, 3765, 3774, 3779, 3793, 3763, 3770, 3777, 3771, 3775, 3772, 3788, 3774, 3776, 3762, 3775, 3770, 3776, 3771, 3769, 3761, 3769, 3770, 3773, 3774, 3765, 3771, 3778, 3772, 3786, 3778, 3780, 3781, 3774, 3756, 3775, 3769, 3769, 3765, 3765, 3782, 3772, 3786, 3780, 3769, 3759, 3768, 3778, 3766, 3773, 3782, 3771, 3765, 3779, 3768, 3775, 3773, 3782, 3750, 3758, 3754, 3760, 3769, 3759, 3775, 3769, 3775, 3763, 3771, 3770, 3755, 3769, 3773, 3765, 3748, 3768, 3759, 3785, 3759, 3777, 3772, 3758, 3749, 3765, 3759, 3762, 3760, 3774, 3762, 3774, 3770, 3766, 3756, 3792, 3782, 3765, 3769],
      "WindowCenter": [1397.0, 1397.0, 1396.0, 1396.0, 1396.0, 1396.0, 1395.0, 1395.0, 1396.0, 1395.0, 1395.0, 1395.0, 1395.0, 1395.0, 1395.0, 1395.0, 1395.0, 1395.0, 1395.0, 1395.0, 1395.0, 1394.0, 1394.0, 1395.0, 1394.0, 1395.0, 1395.0, 1394.0, 1395.0, 1395.0, 1394.0, 1394.0, 1394.0, 1394.0, 1393.0, 1394.0, 1394.0, 1394.0, 1394.0, 1394.0, 1394.0, 1394.0, 1394.0, 1394.0, 1395.0, 1394.0, 1393.0, 1393.0, 1393.0, 1394.0, 1394.0, 1394.0, 1394.0, 1394.0, 1393.0, 1393.0, 1394.0, 1393.0, 1394.0, 1394.0, 1393.0, 1393.0, 1393.0, 1393.0, 1393.0, 1393.0, 1393.0, 1393.0, 1393.0, 1393.0, 1394.0, 1393.0, 1393.0, 1394.0, 1393.0, 1393.0, 1394.0, 1393.0, 1394.0, 1393.0, 1393.0, 1392.0, 1393.0, 1392.0, 1393.0, 1393.0, 1392.0, 1392.0, 1392.0, 1393.0, 1393.0, 1393.0, 1392.0, 1393.0, 1393.0, 1392.0, 1392.0, 1392.0, 1393.0, 1392.0, 1393.0, 1392.0, 1393.0, 1392.0, 1393.0, 1393.0, 1392.0, 1392.0, 1392.0, 1392.0, 1392.0, 1393.0, 1392.0, 1391.0, 1392.0, 1391.0, 1392.0, 1392.0, 1392.0, 1392.0, 1392.0, 1392.0, 1392.0, 1391.0, 1392.0, 1392.0, 1391.0, 1392.0, 1391.0, 1391.0, 1392.0, 1392.0, 1391.0, 1392.0, 1392.0, 1392.0, 1392.0, 1392.0, 1391.0, 1392.0, 1392.0, 1391.0, 1391.0, 1391.0, 1391.0, 1391.0, 1391.0, 1392.0, 1392.0, 1392.0, 1391.0, 1391.0, 1392.0, 1391.0, 1391.0, 1391.0, 1391.0, 1391.0, 1391.0, 1391.0, 1391.0, 1391.0, 1391.0, 1391.0, 1390.0, 1390.0, 1391.0, 1390.0, 1390.0, 1390.0, 1391.0, 1391.0, 1391.0, 1391.0, 1391.0, 1391.0, 1391.0, 1390.0, 1391.0, 1390.0, 1390.0, 1390.0, 1391.0, 1390.0, 1390.0, 1390.0, 1391.0, 1390.0, 1390.0, 1391.0, 1390.0, 1390.0, 1391.0, 1390.0, 1390.0, 1390.0, 1390.0, 1390.0, 1390.0, 1390.0],
      "WindowWidth": [3235.0, 3234.0, 3234.0, 3234.0, 3234.0, 3234.0, 3234.0, 3233.0, 3233.0, 3233.0, 3233.0, 3233.0, 3233.0, 3233.0, 3233.0, 3232.0, 3232.0, 3232.0, 3232.0, 3232.0, 3232.0, 3232.0, 3232.0, 3231.0, 3232.0, 3231.0, 3231.0, 3232.0, 3231.0, 3231.0, 3232.0, 3232.0, 3231.0, 3231.0, 3231.0, 3232.0, 3231.0, 3231.0, 3231.0, 3231.0, 3231.0, 3230.0, 3231.0, 3231.0, 3231.0, 3231.0, 3231.0, 3231.0, 3231.0, 3230.0, 3230.0, 3230.0, 3230.0, 3230.0, 3231.0, 3230.0, 3230.0, 3230.0, 3230.0, 3229.0, 3229.0, 3229.0, 3229.0, 3229.0, 3229.0, 3229.0, 3229.0, 3229.0, 3229.0, 3229.0, 3229.0, 3229.0, 3229.0, 3229.0, 3229.0, 3229.0, 3228.0, 3229.0, 3228.0, 3228.0, 3228.0, 3228.0, 3228.0, 3228.0, 3228.0, 3227.0, 3228.0, 3228.0, 3228.0, 3227.0, 3227.0, 3227.0, 3228.0, 3227.0, 3227.0, 3227.0, 3227.0, 3227.0, 3227.0, 3227.0, 3227.0, 3227.0, 3227.0, 3227.0, 3227.0, 3227.0, 3226.0, 3226.0, 3226.0, 3226.0, 3226.0, 3226.0, 3226.0, 3226.0, 3226.0, 3226.0, 3226.0, 3226.0, 3226.0, 3226.0, 3226.0, 3226.0, 3226.0, 3226.0, 3226.0, 3225.0, 3226.0, 3226.0, 3226.0, 3226.0, 3225.0, 3225.0, 3225.0, 3225.0, 3225.0, 3225.0, 3225.0, 3225.0, 3225.0, 3225.0, 3225.0, 3225.0, 3225.0, 3225.0, 3225.0, 3225.0, 3225.0, 3225.0, 3224.0, 3224.0, 3225.0, 3225.0, 3224.0, 3225.0, 3225.0, 3225.0, 3225.0, 3225.0, 3225.0, 3225.0, 3225.0, 3225.0, 3224.0, 3224.0, 3225.0, 3225.0, 3224.0, 3225.0, 3225.0, 3225.0, 3224.0, 3224.0, 3224.0, 3224.0, 3224.0, 3224.0, 3224.0, 3225.0, 3224.0, 3224.0, 3224.0, 3224.0, 3224.0, 3224.0, 3224.0, 3224.0, 3224.0, 3224.0, 3224.0, 3223.0, 3224.0, 3224.0, 3223.0, 3223.0, 3223.0, 3223.0, 3223.0, 3223.0, 3223.0, 3224.0]
    },
    "slices": {}
  }
}