{
  "AcquisitionMatrixPE": 80,
  "AcquisitionNumber": 1,
  "AcquisitionTime": "09:44:49.455000",
  "BandwidthPerPixelPhaseEncode": 25,
  "BaseResolution": 80,
  "BodyPartExamined": "BRAIN",
  "CoilCombinationMethod": "Sum of Squares",
  "ConsistencyInfo": "N4_VE11E_LATEST_20181129",
  "ConversionSoftware": "dcm2niix",
  "ConversionSoftwareVersion": "v1.0.20220720",
  "DerivedVendorReportedEchoSpacing": 0.0005,
  "DeviceSerialNumber": "66112",
  "DwellTime": 2.7e-06,
  "EchoTime": 0.03,
  "EchoTrainLength": 80,
  "EffectiveEchoSpacing": 0.0005,
  "FlipAngle": 10,
  "HeudiconvVersion": "0.13.1",
  "ImageOrientationPatientDICOM": [0.986365, 0.164283, 0.00978408, -0.159403, 0.938893, 0.305076],
  "ImageOrientationText": "Tra>Cor(17.6)>Sag(-2.3)",
  "ImageType": [
    "ORIGINAL",
    "PRIMARY",
    "M",
    "ND",
    "NORM",
    "MOSAIC"
],
  "ImagingFrequency": 123.259,
  "InPlanePhaseEncodingDirectionDICOM": "COL",
  "InstitutionAddress": "Maynard 3,Hanover,NH,US,03755",
  "InstitutionName": "Dartmouth College - PBS",
  "InstitutionalDepartmentName": "Department",
  "MRAcquisitionType": "2D",
  "MagneticFieldStrength": 3,
  "Manufacturer": "Siemens",
  "ManufacturersModelName": "Prisma",
  "MatrixCoilMode": "SENSE",
  "Modality": "MR",
  "NonlinearGradientCorrection": false,
  "PartialFourier": 1,
  "PatientPosition": "HFS",
  "PercentPhaseFOV": 100,
  "PercentSampling": 100,
  "PhaseEncodingDirection": "j-",
  "PhaseEncodingSteps": 80,
  "PhaseResolution": 1,
  "PixelBandwidth": 2315,
  "ProcedureStepDescription": "dbic^QA",
  "ProtocolName": "func-bold_fa-10",
  "PulseSequenceDetails": "%SiemensSeq%\\ep2d_bold",
  "ReceiveCoilActiveElements": "HEA;HEP",
  "ReceiveCoilName": "Head_32",
  "ReconMatrixPE": 80,
  "RepetitionTime": 2,
  "SAR": 0.0115487,
  "ScanOptions": "FS",
  "ScanningSequence": "EP",
  "SequenceName": "*epfid2d1_80",
  "SequenceVariant": "SK",
  "SeriesDescription": "func-bold_fa-10",
  "SeriesNumber": 8,
  "ShimSetting": [4218, -7743, -7497, -22, -157, -48, 5, 83],
  "SliceThickness": 3.5,
  "SliceTiming": [0.99, 0, 1.055, 0.065, 1.1225, 0.1325, 1.1875, 0.1975, 1.2525, 0.265, 1.32, 0.33, 1.385, 0.395, 1.4525, 0.4625, 1.5175, 0.5275, 1.5825, 0.595, 1.65, 0.66, 1.715, 0.725, 1.7825, 0.7925, 1.8475, 0.8575, 1.9125, 0.9225],
  "SoftwareVersions": "syngo MR E11",
  "SpacingBetweenSlices": 3.99,
  "StationName": "AWP66112",
  "TotalReadoutTime": 0.0395,
  "TxRefAmp": 224.384,
  "dcmmeta_affine": [
    [-2.9590940475463867, -0.47820863127708435, -0.1633213311433792, 140.80526733398438],
    [-0.4928501844406128, 2.816678285598755, 1.2068769931793213, -105.16277313232422],
    [0.029352232813835144, -0.915226936340332, 3.799588680267334, -22.89114761352539],
    [0.0, 0.0, 0.0, 1.0]
],
  "dcmmeta_reorient_transform": [
    [0.0, -1.0, 0.0, 79.0],
    [1.0, 0.0, 0.0, 0.0],
    [0.0, 0.0, 1.0, 0.0],
    [0.0, 0.0, 0.0, 1.0]
],
  "dcmmeta_shape": [80, 80, 30, 200],
  "dcmmeta_slice_dim": 2,
  "dcmmeta_version": 0.6,
  "global": {
    "const": {
      "AccessionNumber": "qa",
      "AcquisitionMatrix": [80, 0, 0, 80],
      "AngioFlag": "N",
      "BitsAllocated": 16,
      "BitsStored": 12,
      "BodyPartExamined": "BRAIN",
      "Columns": 480,
      "EchoNumbers": 1,
      "EchoTime": 30.0,
      "EchoTrainLength": 80,
      "FlipAngle": 10.0,
      "HighBit": 11,
      "ImageOrientationPatient": [0.98636465793097, 0.16428339358794, 0.00978407767542, -0.1594028818298, 0.93889273807491, 0.30507564251274],
      "ImagePositionPatient": [-599.20384370108, -779.26048480305, -284.10990628084],
      "ImageType": [
        "ORIGINAL",
        "PRIMARY",
        "M",
        "ND",
        "NORM",
        "MOSAIC"
],
      "ImagedNucleus": "1H",
      "ImagingFrequency": 123.259101,
      "InPlanePhaseEncodingDirection": "COL",
      "MRAcquisitionType": "2D",
      "MagneticFieldStrength": 3.0,
      "Manufacturer": "SIEMENS",
      "ManufacturerModelName": "Prisma",
      "Modality": "MR",
      "NumberOfAverages": 1.0,
      "NumberOfPhaseEncodingSteps": 80,
      "PercentPhaseFieldOfView": 100.0,
      "PercentSampling": 100.0,
      "PerformedProcedureStepStartTime": "092229.296000",
      "PhotometricInterpretation": "MONOCHROME2",
      "PixelBandwidth": 2315.0,
      "PixelRepresentation": 0,
      "PixelSpacing": [3.0, 3.0],
      "ProtocolName": "func-bold_fa-10",
      "RepetitionTime": 2000.0,
      "Rows": 480,
      "SAR": 0.01154866717239,
      "SamplesPerPixel": 1,
      "ScanOptions": "FS",
      "ScanningSequence": "EP",
      "SequenceName": "*epfid2d1_80",
      "SequenceVariant": "SK",
      "SeriesDescription": "func-bold_fa-10",
      "SeriesNumber": 8,
      "SeriesTime": "094531.094000",
      "SliceLocation": -59.371422879904,
      "SliceThickness": 3.5,
      "SmallestImagePixelValue": 0,
      "SoftwareVersions": "syngo MR E11",
      "SpacingBetweenSlices": 3.9900000417824,
      "SpecificCharacterSet": "ISO_IR 100",
      "StudyID": "29",
      "StudyTime": "092229.244000",
      "TransmitCoilName": "Body",
      "VariableFlipAngleFlag": "N",
      "WindowCenterWidthExplanation": "Algo1"
    },
    "slices": {}
  },
  "time": {
    "samples": {
      "AcquisitionNumber": [1, 2, 3, 4, 5, 6, 7, 8, 9, 10, 11, 12, 13, 14, 15, 16, 17, 18, 19, 20, 21, 22, 23, 24, 25, 26, 27, 28, 29, 30, 31, 32, 33, 34, 35, 36, 37, 38, 39, 40, 41, 42, 43, 44, 45, 46, 47, 48, 49, 50, 51, 52, 53, 54, 55, 56, 57, 58, 59, 60, 61, 62, 63, 64, 65, 66, 67, 68, 69, 70, 71, 72, 73, 74, 75, 76, 77, 78, 79, 80, 81, 82, 83, 84, 85, 86, 87, 88, 89, 90, 91, 92, 93, 94, 95, 96, 97, 98, 99, 100, 101, 102, 103, 104, 105, 106, 107, 108, 109, 110, 111, 112, 113, 114, 115, 116, 117, 118, 119, 120, 121, 122, 123, 124, 125, 126, 127, 128, 129, 130, 131, 132, 133, 134, 135, 136, 137, 138, 139, 140, 141, 142, 143, 144, 145, 146, 147, 148, 149, 150, 151, 152, 153, 154, 155, 156, 157, 158, 159, 160, 161, 162, 163, 164, 165, 166, 167, 168, 169, 170, 171, 172, 173, 174, 175, 176, 177, 178, 179, 180, 181, 182, 183, 184, 185, 186, 187, 188, 189, 190, 191, 192, 193, 194, 195, 196, 197, 198, 199, 200],
      "AcquisitionTime": ["094449.455000", "094451.455000", "094453.455000", "094455.455000", "094457.455000", "094459.455000", "094501.455000", "094503.455000", "094505.455000", "094507.455000", "094509.455000", "094511.455000", "094513.455000", "094515.455000", "094517.455000", "094519.455000", "094521.455000", "094523.455000", "094525.455000", "094527.455000", "094529.455000", "094531.455000", "094533.455000", "094535.455000", "094537.455000", "094539.455000", "094541.455000", "094543.455000", "094545.455000", "094547.455000", "094549.455000", "094551.455000", "094553.455000", "094555.455000", "094557.455000", "094559.455000", "094601.455000", "094603.455000", "094605.455000", "094607.455000", "094609.455000", "094611.455000", "094613.455000", "094615.455000", "094617.455000", "094619.455000", "094621.455000", "094623.455000", "094625.455000", "094627.455000", "094629.455000", "094631.455000", "094633.455000", "094635.455000", "094637.455000", "094639.455000", "094641.455000", "094643.455000", "094645.455000", "094647.455000", "094649.455000", "094651.455000", "094653.455000", "094655.455000", "094657.455000", "094659.455000", "094701.455000", "094703.455000", "094705.455000", "094707.455000", "094709.455000", "094711.455000", "094713.455000", "094715.455000", "094717.455000", "094719.455000", "094721.455000", "094723.455000", "094725.455000", "094727.455000", "094729.455000", "094731.455000", "094733.455000", "094735.455000", "094737.455000", "094739.455000", "094741.455000", "094743.455000", "094745.455000", "094747.455000", "094749.455000", "094751.455000", "094753.455000", "094755.455000", "094757.455000", "094759.455000", "094801.455000", "094803.455000", "094805.455000", "094807.455000", "094809.455000", "094811.455000", "094813.455000", "094815.455000", "094817.455000", "094819.455000", "094821.455000", "094823.455000", "094825.455000", "094827.455000", "094829.455000", "094831.455000", "094833.455000", "094835.455000", "094837.455000", "094839.455000", "094841.455000", "094843.455000", "094845.455000", "094847.455000", "094849.455000", "094851.455000", "094853.455000", "094855.455000", "094857.455000", "094859.455000", "094901.455000", "094903.455000", "094905.455000", "094907.455000", "094909.455000", "094911.455000", "094913.455000", "094915.455000", "094917.455000", "094919.455000", "094921.455000", "094923.455000", "094925.455000", "094927.455000", "094929.455000", "094931.455000", "094933.455000", "094935.455000", "094937.455000", "094939.455000", "094941.455000", "094943.455000", "094945.455000", "094947.455000", "094949.455000", "094951.455000", "094953.455000", "094955.455000", "094957.455000", "094959.455000", "095001.455000", "095003.455000", "095005.455000", "095007.455000", "095009.455000", "095011.455000", "095013.455000", "095015.455000", "095017.455000", "095019.455000", "095021.455000", "095023.455000", "095025.455000", "095027.455000", "095029.455000", "095031.455000", "095033.455000", "095035.455000", "095037.455000", "095039.455000", "095041.455000", "095043.455000", "095045.455000", "095047.455000", "095049.455000", "095051.455000", "095053.455000", "095055.455000", "095057.455000", "095059.455000", "095101.455000", "095103.455000", "095105.455000", "095107.455000", "095109.455000", "095111.455000", "095113.455000", "095115.455000", "095117.455000", "095119.455000", "095121.455000", "095123.455000", "095125.455000", "095127.455000"],
      "ContentTime": ["094531.097000", "094531.100000", "094531.102000", "094531.105000", "094531.107000", "094531.109000", "094531.111000", "094531.114000", "094531.120000", "094531.123000", "094531.125000", "094531.127000", "094531.129000", "094531.132000", "094531.134000", "094531.136000", "094531.138000", "094531.141000", "094531.143000", "094531.145000", "094531.147000", "094611.093000", "094611.108000", "094611.110000", "094611.112000", "094611.114000", "094611.117000", "094611.119000", "094611.121000", "094611.123000", "094611.126000", "094611.128000", "094611.130000", "094611.132000", "094611.135000", "094611.137000", "094611.139000", "094611.141000", "094611.144000", "094611.146000", "094611.148000", "094651.092000", "094651.095000", "094651.097000", "094651.100000", "094651.102000", "094651.104000", "094651.107000", "094651.109000", "094651.111000", "094651.113000", "094651.116000", "094651.118000", "094651.120000", "094651.122000", "094651.125000", "094651.127000", "094651.129000", "094651.131000", "094651.134000", "094651.136000", "094731.092000", "094731.095000", "094731.097000", "094731.099000", "094731.102000", "094731.104000", "094731.106000", "094731.109000", "094731.111000", "094731.113000", "094731.115000", "094731.118000", "094731.120000", "094731.125000", "094731.128000", "094731.130000", "094731.132000", "094731.143000", "094731.146000", "094731.148000", "094811.092000", "094811.095000", "094811.097000", "094811.100000", "094811.102000", "094811.104000", "094811.106000", "094811.109000", "094811.111000", "094811.125000", "094811.127000", "094811.130000", "094811.132000", "094811.134000", "094811.136000", "094811.139000", "094811.141000", "094811.143000", "094811.145000", "094811.148000", "094851.093000", "094851.096000", "094851.098000", "094851.100000", "094851.103000", "094851.105000", "094851.107000", "094851.109000", "094851.112000", "094851.114000", "094851.116000", "094851.119000", "094851.121000", "094851.123000", "094851.125000", "094851.128000", "094851.130000", "094851.132000", "094851.134000", "094851.137000", "094911.092000", "094911.095000", "094911.097000", "094911.099000", "094911.102000", "094911.104000", "094911.106000", "094911.109000", "094911.111000", "094911.113000", "094951.092000", "094951.095000", "094951.097000", "094951.100000", "094951.102000", "094951.104000", "094951.106000", "094951.109000", "094951.111000", "094951.113000", "094951.115000", "094951.118000", "094951.120000", "094951.122000", "094951.124000", "094951.127000", "094951.129000", "094951.131000", "094951.134000", "094951.136000", "095031.092000", "095031.095000", "095031.097000", "095031.099000", "095031.102000", "095031.104000", "095031.106000", "095031.109000", "095031.111000", "095031.113000", "095031.115000", "095031.118000", "095031.120000", "095031.122000", "095031.125000", "095031.127000", "095031.129000", "095031.131000", "095031.134000", "095031.136000", "095111.093000", "095111.096000", "095111.098000", "095111.100000", "095111.103000", "095111.105000", "095111.107000", "095111.110000", "095111.112000", "095111.114000", "095111.116000", "095111.119000", "095111.121000", "095111.123000", "095111.125000", "095111.128000", "095111.130000", "095111.132000", "095111.134000", "095111.137000", "095129.055000", "095129.058000", "095129.061000", "095129.063000", "095129.066000", "095129.068000", "095129.070000", "095129.072000", "095129.075000"],
      "InstanceCreationTime": ["094531.097000", "094531.100000", "094531.102000", "094531.105000", "094531.107000", "094531.109000", "094531.111000", "094531.114000", "094531.120000", "094531.123000", "094531.125000", "094531.127000", "094531.129000", "094531.132000", "094531.134000", "094531.136000", "094531.138000", "094531.141000", "094531.143000", "094531.145000", "094531.147000", "094611.093000", "094611.108000", "094611.110000", "094611.112000", "094611.114000", "094611.117000", "094611.119000", "094611.121000", "094611.123000", "094611.126000", "094611.128000", "094611.130000", "094611.132000", "094611.135000", "094611.137000", "094611.139000", "094611.141000", "094611.144000", "094611.146000", "094611.148000", "094651.092000", "094651.095000", "094651.097000", "094651.100000", "094651.102000", "094651.104000", "094651.107000", "094651.109000", "094651.111000", "094651.113000", "094651.116000", "094651.118000", "094651.120000", "094651.122000", "094651.125000", "094651.127000", "094651.129000", "094651.131000", "094651.134000", "094651.136000", "094731.092000", "094731.095000", "094731.097000", "094731.099000", "094731.102000", "094731.104000", "094731.106000", "094731.109000", "094731.111000", "094731.113000", "094731.115000", "094731.118000", "094731.120000", "094731.125000", "094731.128000", "094731.130000", "094731.132000", "094731.143000", "094731.146000", "094731.148000", "094811.092000", "094811.095000", "094811.097000", "094811.100000", "094811.102000", "094811.104000", "094811.106000", "094811.109000", "094811.111000", "094811.125000", "094811.127000", "094811.130000", "094811.132000", "094811.134000", "094811.136000", "094811.139000", "094811.141000", "094811.143000", "094811.145000", "094811.148000", "094851.093000", "094851.096000", "094851.098000", "094851.100000", "094851.103000", "094851.105000", "094851.107000", "094851.109000", "094851.112000", "094851.114000", "094851.116000", "094851.119000", "094851.121000", "094851.123000", "094851.125000", "094851.128000", "094851.130000", "094851.132000", "094851.134000", "094851.137000", "094911.092000", "094911.095000", "094911.097000", "094911.099000", "094911.102000", "094911.104000", "094911.106000", "094911.109000", "094911.111000", "094911.113000", "094951.092000", "094951.095000", "094951.097000", "094951.100000", "094951.102000", "094951.104000", "094951.106000", "094951.109000", "094951.111000", "094951.113000", "094951.115000", "094951.118000", "094951.120000", "094951.122000", "094951.124000", "094951.127000", "094951.129000", "094951.131000", "094951.134000", "094951.136000", "095031.092000", "095031.095000", "095031.097000", "095031.099000", "095031.102000", "095031.104000", "095031.106000", "095031.109000", "095031.111000", "095031.113000", "095031.115000", "095031.118000", "095031.120000", "095031.122000", "095031.125000", "095031.127000", "095031.129000", "095031.131000", "095031.134000", "095031.136000", "095111.093000", "095111.096000", "095111.098000", "095111.100000", "095111.103000", "095111.105000", "095111.107000", "095111.110000", "095111.112000", "095111.114000", "095111.116000", "095111.119000", "095111.121000", "095111.123000", "095111.125000", "095111.128000", "095111.130000", "095111.132000", "095111.134000", "095111.137000", "095129.055000", "095129.058000", "095129.061000", "095129.063000", "095129.066000", "095129.068000", "095129.070000", "095129.072000", "095129.075000"],
      "InstanceNumber": [1, 2, 3, 4, 5, 6, 7, 8, 9, 10, 11, 12, 13, 14, 15, 16, 17, 18, 19, 20, 21, 22, 23, 24, 25, 26, 27, 28, 29, 30, 31, 32, 33, 34, 35, 36, 37, 38, 39, 40, 41, 42, 43, 44, 45, 46, 47, 48, 49, 50, 51, 52, 53, 54, 55, 56, 57, 58, 59, 60, 61, 62, 63, 64, 65, 66, 67, 68, 69, 70, 71, 72, 73, 74, 75, 76, 77, 78, 79, 80, 81, 82, 83, 84, 85, 86, 87, 88, 89, 90, 91, 92, 93, 94, 95, 96, 97, 98, 99, 100, 101, 102, 103, 104, 105, 106, 107, 108, 109, 110, 111, 112, 113, 114, 115, 116, 117, 118, 119, 120, 121, 122, 123, 124, 125, 126, 127, 128, 129, 130, 131, 132, 133, 134, 135, 136, 137, 138, 139, 140, 141, 142, 143, 144, 145, 146, 147, 148, 149, 150, 151, 152, 153, 154, 155, 156, 157, 158, 159, 160, 161, 162, 163, 164, 165, 166, 167, 168, 169, 170, 171, 172, 173, 174, 175, 176, 177, 178, 179, 180, 181, 182, 183, 184, 185, 186, 187, 188, 189, 190, 191, 192, 193, 194, 195, 196, 197, 198, 199, 200],
      "LargestImagePixelValue": [363, 360, 359, 359, 360, 361, 360, 361, 361, 361, 363, 363, 361, 361, 361, 360, 362, 361, 359, 360, 360, 361, 359, 362, 361, 361, 362, 361, 361, 362, 360, 361, 361, 359, 359, 359, 358, 361, 360, 362, 362, 361, 361, 361, 361, 362, 361, 362, 362, 361, 360, 360, 361, 364, 362, 362, 363, 363, 361, 360, 361, 359, 360, 361, 360, 360, 361, 360, 362, 361, 360, 361, 360, 361, 361, 361, 361, 359, 360, 361, 359, 361, 363, 363, 361, 361, 360, 361, 361, 360, 359, 360, 361, 358, 362, 360, 361, 361, 363, 361, 362, 360, 363, 360, 360, 359, 360, 360, 361, 361, 364, 362, 361, 361, 360, 362, 362, 361, 360, 359, 359, 358, 362, 361, 360, 361, 361, 362, 362, 362, 361, 361, 361, 360, 359, 359, 359, 361, 359, 361, 360, 362, 360, 362, 363, 361, 361, 359, 360, 361, 360, 360, 359, 359, 361, 360, 362, 361, 361, 361, 361, 358, 360, 360, 362, 360, 361, 362, 363, 361, 360, 362, 359, 361, 361, 360, 361, 361, 360, 360, 359, 360, 360, 363, 360, 361, 361, 360, 362, 359, 362, 360, 360, 360, 360, 358, 361, 362, 362, 361],
      "WindowCenter": [295.0, 295.0, 295.0, 295.0, 295.0, 295.0, 294.0, 295.0, 296.0, 295.0, 295.0, 295.0, 295.0, 295.0, 295.0, 295.0, 295.0, 295.0, 295.0, 295.0, 295.0, 295.0, 294.0, 295.0, 295.0, 295.0, 295.0, 295.0, 295.0, 295.0, 295.0, 295.0, 295.0, 295.0, 294.0, 294.0, 295.0, 295.0, 295.0, 294.0, 295.0, 295.0, 295.0, 295.0, 295.0, 295.0, 294.0, 295.0, 294.0, 295.0, 294.0, 295.0, 294.0, 294.0, 295.0, 295.0, 294.0, 295.0, 295.0, 295.0, 295.0, 294.0, 295.0, 295.0, 295.0, 294.0, 295.0, 295.0, 294.0, 294.0, 295.0, 295.0, 294.0, 294.0, 295.0, 294.0, 295.0, 295.0, 294.0, 295.0, 295.0, 295.0, 294.0, 295.0, 295.0, 294.0, 294.0, 295.0, 295.0, 295.0, 295.0, 295.0, 294.0, 295.0, 295.0, 295.0, 295.0, 295.0, 295.0, 294.0, 295.0, 295.0, 294.0, 295.0, 295.0, 294.0, 294.0, 295.0, 294.0, 294.0, 294.0, 294.0, 295.0, 295.0, 294.0, 294.0, 294.0, 294.0, 294.0, 294.0, 294.0, 294.0, 294.0, 294.0, 294.0, 295.0, 294.0, 294.0, 294.0, 295.0, 294.0, 294.0, 294.0, 294.0, 295.0, 294.0, 294.0, 294.0, 294.0, 294.0, 294.0, 295.0, 294.0, 294.0, 294.0, 295.0, 294.0, 294.0, 294.0, 295.0, 295.0, 294.0, 295.0, 294.0, 294.0, 295.0, 294.0, 293.0, 294.0, 295.0, 294.0, 295.0, 294.0, 294.0, 294.0, 294.0, 294.0, 294.0, 294.0, 295.0, 294.0, 294.0, 294.0, 294.0, 294.0, 294.0, 295.0, 294.0, 294.0, 294.0, 294.0, 294.0, 294.0, 295.0, 295.0, 295.0, 294.0, 294.0, 294.0, 294.0, 294.0, 294.0, 295.0, 294.0, 295.0, 294.0, 294.0, 294.0, 294.0, 294.0],
      "WindowWidth": [642.0, 641.0, 642.0, 642.0, 642.0, 642.0, 641.0, 642.0, 642.0, 642.0, 642.0, 642.0, 641.0, 642.0, 642.0, 641.0, 641.0, 642.0, 642.0, 641.0, 642.0, 641.0, 640.0, 641.0, 642.0, 642.0, 642.0, 641.0, 642.0, 642.0, 641.0, 641.0, 642.0, 641.0, 640.0, 640.0, 642.0, 641.0, 642.0, 640.0, 641.0, 642.0, 641.0, 642.0, 642.0, 641.0, 640.0, 641.0, 640.0, 641.0, 640.0, 641.0, 641.0, 641.0, 641.0, 641.0, 640.0, 641.0, 642.0, 641.0, 641.0, 640.0, 641.0, 641.0, 641.0, 640.0, 641.0, 641.0, 641.0, 641.0, 641.0, 641.0, 640.0, 640.0, 641.0, 640.0, 641.0, 641.0, 640.0, 641.0, 641.0, 641.0, 640.0, 641.0, 641.0, 640.0, 640.0, 641.0, 640.0, 640.0, 640.0, 641.0, 640.0, 641.0, 641.0, 641.0, 641.0, 641.0, 641.0, 640.0, 641.0, 641.0, 640.0, 641.0, 641.0, 640.0, 640.0, 641.0, 640.0, 640.0, 640.0, 640.0, 640.0, 641.0, 640.0, 640.0, 640.0, 640.0, 640.0, 640.0, 640.0, 640.0, 640.0, 639.0, 640.0, 641.0, 640.0, 640.0, 640.0, 641.0, 640.0, 640.0, 640.0, 640.0, 640.0, 640.0, 640.0, 640.0, 640.0, 640.0, 640.0, 640.0, 640.0, 640.0, 640.0, 640.0, 640.0, 640.0, 640.0, 640.0, 640.0, 640.0, 641.0, 640.0, 640.0, 640.0, 640.0, 639.0, 640.0, 640.0, 640.0, 640.0, 640.0, 640.0, 640.0, 640.0, 639.0, 640.0, 640.0, 640.0, 640.0, 640.0, 639.0, 640.0, 640.0, 640.0, 640.0, 640.0, 640.0, 640.0, 640.0, 640.0, 640.0, 640.0, 640.0, 640.0, 639.0, 640.0, 640.0, 640.0, 640.0, 640.0, 640.0, 640.0, 640.0, 640.0, 640.0, 640.0, 640.0, 640.0]
    },
    "slices": {}
  }
}