{
  "AcquisitionMatrixPE": 80,
  "AcquisitionNumber": 1,
  "AcquisitionTime": "09:51:1.157500",
  "BandwidthPerPixelPhaseEncode": 44.643,
  "BaseResolution": 80,
  "BodyPartExamined": "BRAIN",
  "CoilCombinationMethod": "Sum of Squares",
  "ConsistencyInfo": "N4_VE11C_LATEST_20160120",
  "ConversionSoftware": "dcm2niix",
  "ConversionSoftwareVersion": "v1.0.20220720",
  "DerivedVendorReportedEchoSpacing": 0.000559998,
  "DeviceSerialNumber": "66112",
  "DwellTime": 2.7e-06,
  "EchoTime": 0.035,
  "EchoTrainLength": 39,
  "EffectiveEchoSpacing": 0.000279999,
  "FlipAngle": 90,
  "HeudiconvVersion": "0.13.1",
  "ImageOrientationPatientDICOM": [0.981206, 0.192673, 0.0105745, -0.18682, 0.934825, 0.301994],
  "ImageOrientationText": "Tra>Cor(17.4)>Sag(-2.8)",
  "ImageType": [
    "ORIGINAL",
    "PRIMARY",
    "M",
    "ND",
    "NORM",
    "MOSAIC"
],
  "ImagingFrequency": 123.252,
  "InPlanePhaseEncodingDirectionDICOM": "COL",
  "InstitutionAddress": "Maynard 3,Hanover,NH,US,03755",
  "InstitutionName": "Dartmouth College - PBS",
  "InstitutionalDepartmentName": "Department",
  "MRAcquisitionType": "2D",
  "MagneticFieldStrength": 3,
  "Manufacturer": "Siemens",
  "ManufacturersModelName": "Prisma",
  "Modality": "MR",
  "MultibandAccelerationFactor": 4,
  "NonlinearGradientCorrection": false,
  "ParallelReductionFactorInPlane": 2,
  "PartialFourier": 1,
  "PatientPosition": "HFS",
  "PercentPhaseFOV": 100,
  "PercentSampling": 100,
  "PhaseEncodingDirection": "j-",
  "PhaseEncodingSteps": 79,
  "PhaseResolution": 1,
  "PixelBandwidth": 2315,
  "ProcedureStepDescription": "dbic^QA",
  "ProtocolName": "func-bold_task-rest_acq-p2-s4-3.5mm",
  "PulseSequenceDetails": "%SiemensSeq%\\ep2d_bold",
  "ReceiveCoilActiveElements": "HEA;HEP",
  "ReceiveCoilName": "Head_32",
  "ReconMatrixPE": 80,
  "RefLinesPE": 24,
  "RepetitionTime": 2,
  "SAR": 0.0209021,
  "ScanOptions": "FS",
  "ScanningSequence": "EP",
  "SequenceName": "*epfid2d1_80",
  "SequenceVariant": "SK",
  "SeriesDescription": "func-bold_task-rest_acq-p2-s4-3.5mm",
  "SeriesNumber": 7,
  "ShimSetting": [4150, -7692, -7516, 243, 1, -244, -49, 77],
  "SliceThickness": 3.5,
  "SliceTiming": [1.485, 0, 0.99, 0.2475, 1.2375, 0.7425, 1.7325, 0.495, 1.485, 0, 0.99, 0.2475, 1.2375, 0.7425, 1.7325, 0.495, 1.485, 0, 0.99, 0.2475, 1.2375, 0.7425, 1.7325, 0.495, 1.485, 0, 0.99, 0.2475, 1.2375, 0.7425, 1.7325, 0.495],
  "SoftwareVersions": "syngo MR E11",
  "SpacingBetweenSlices": 3.99,
  "StationName": "AWP66112",
  "TaskName": "rest",
  "TotalReadoutTime": 0.0221199,
  "TxRefAmp": 230.27,
  "dcmmeta_affine": [
    [-2.943618059158325, -0.5604603886604309, -0.1927199512720108, 144.09873962402344],
    [-0.5780191421508789, 2.8044755458831787, 1.1901906728744507, -94.52410125732422],
    [0.031723376363515854, -0.9059805870056152, 3.8034727573394775, -28.115232467651367],
    [0.0, 0.0, 0.0, 1.0]
],
  "dcmmeta_reorient_transform": [
    [0.0, -1.0, 0.0, 79.0],
    [1.0, 0.0, 0.0, 0.0],
    [0.0, 0.0, 1.0, 0.0],
    [0.0, 0.0, 0.0, 1.0]
],
  "dcmmeta_shape": [80, 80, 32, 200],
  "dcmmeta_slice_dim": 2,
  "dcmmeta_version": 0.6,
  "global": {
    "const": {
      "AccessionNumber": "qa",
      "AcquisitionMatrix": [80, 0, 0, 80],
      "AngioFlag": "N",
      "BitsAllocated": 16,
      "BitsStored": 12,
      "BodyPartExamined": "BRAIN",
      "Columns": 480,
      "EchoNumbers": 1,
      "EchoTime": 35.0,
      "EchoTrainLength": 39,
      "FlipAngle": 90.0,
      "HighBit": 11,
      "ImageOrientationPatient": [0.98120603388846, 0.19267303882582, 0.01057445840213, -0.1868201210612, 0.9348252002348, 0.30199352207066],
      "ImagePositionPatient": [-576.45391569966, -803.52841599968, -287.22848466722],
      "ImageType": [
        "ORIGINAL",
        "PRIMARY",
        "M",
        "ND",
        "NORM",
        "MOSAIC"
],
      "ImagedNucleus": "1H",
      "ImagingFrequency": 123.252453,
      "InPlanePhaseEncodingDirection": "COL",
      "MRAcquisitionType": "2D",
      "MagneticFieldStrength": 3.0,
      "Manufacturer": "SIEMENS",
      "ManufacturerModelName": "Prisma",
      "Modality": "MR",
      "NumberOfAverages": 1.0,
      "NumberOfPhaseEncodingSteps": 79,
      "PercentPhaseFieldOfView": 100.0,
      "PercentSampling": 100.0,
      "PerformedProcedureStepStartTime": "094238.303000",
      "PhotometricInterpretation": "MONOCHROME2",
      "PixelBandwidth": 2315.0,
      "PixelRepresentation": 0,
      "PixelSpacing": [3.0, 3.0],
      "ProtocolName": "func-bold_task-rest_acq-p2-s4-3.5mm",
      "RepetitionTime": 2000.0,
      "Rows": 480,
      "SAR": 0.02090205586715,
      "SamplesPerPixel": 1,
      "ScanOptions": "FS",
      "ScanningSequence": "EP",
      "SequenceName": "*epfid2d1_80",
      "SequenceVariant": "SK",
      "SeriesDescription": "func-bold_task-rest_acq-p2-s4-3.5mm",
      "SeriesNumber": 7,
      "SeriesTime": "095127.830000",
      "SliceLocation": -61.956871398951,
      "SliceThickness": 3.5,
      "SmallestImagePixelValue": 0,
      "SoftwareVersions": "syngo MR E11",
      "SpacingBetweenSlices": 3.9900000118431,
      "SpecificCharacterSet": "ISO_IR 100",
      "StudyID": "41",
      "StudyTime": "094238.213000",
      "TransmitCoilName": "Body",
      "VariableFlipAngleFlag": "N",
      "WindowCenterWidthExplanation": "Algo1",
      "dBdt": 0.0},
    "slices": {}
  },
  "time": {
    "samples": {
      "AcquisitionNumber": [1, 2, 3, 4, 5, 6, 7, 8, 9, 10, 11, 12, 13, 14, 15, 16, 17, 18, 19, 20, 21, 22, 23, 24, 25, 26, 27, 28, 29, 30, 31, 32, 33, 34, 35, 36, 37, 38, 39, 40, 41, 42, 43, 44, 45, 46, 47, 48, 49, 50, 51, 52, 53, 54, 55, 56, 57, 58, 59, 60, 61, 62, 63, 64, 65, 66, 67, 68, 69, 70, 71, 72, 73, 74, 75, 76, 77, 78, 79, 80, 81, 82, 83, 84, 85, 86, 87, 88, 89, 90, 91, 92, 93, 94, 95, 96, 97, 98, 99, 100, 101, 102, 103, 104, 105, 106, 107, 108, 109, 110, 111, 112, 113, 114, 115, 116, 117, 118, 119, 120, 121, 122, 123, 124, 125, 126, 127, 128, 129, 130, 131, 132, 133, 134, 135, 136, 137, 138, 139, 140, 141, 142, 143, 144, 145, 146, 147, 148, 149, 150, 151, 152, 153, 154, 155, 156, 157, 158, 159, 160, 161, 162, 163, 164, 165, 166, 167, 168, 169, 170, 171, 172, 173, 174, 175, 176, 177, 178, 179, 180, 181, 182, 183, 184, 185, 186, 187, 188, 189, 190, 191, 192, 193, 194, 195, 196, 197, 198, 199, 200],
      "AcquisitionTime": ["095101.157500", "095103.157500", "095105.157500", "095107.157500", "095109.157500", "095111.157500", "095113.157500", "095115.157500", "095117.157500", "095119.157500", "095121.157500", "095123.157500", "095125.157500", "095127.157500", "095129.157500", "095131.157500", "095133.157500", "095135.157500", "095137.157500", "095139.157500", "095141.157500", "095143.157500", "095145.157500", "095147.157500", "095149.157500", "095151.157500", "095153.157500", "095155.157500", "095157.157500", "095159.157500", "095201.157500", "095203.157500", "095205.157500", "095207.157500", "095209.157500", "095211.157500", "095213.157500", "095215.157500", "095217.157500", "095219.157500", "095221.157500", "095223.157500", "095225.157500", "095227.157500", "095229.157500", "095231.157500", "095233.157500", "095235.157500", "095237.157500", "095239.157500", "095241.157500", "095243.157500", "095245.157500", "095247.157500", "095249.157500", "095251.157500", "095253.157500", "095255.157500", "095257.157500", "095259.157500", "095301.157500", "095303.157500", "095305.157500", "095307.157500", "095309.157500", "095311.157500", "095313.157500", "095315.157500", "095317.157500", "095319.157500", "095321.157500", "095323.157500", "095325.157500", "095327.157500", "095329.157500", "095331.157500", "095333.157500", "095335.157500", "095337.157500", "095339.157500", "095341.157500", "095343.157500", "095345.157500", "095347.157500", "095349.157500", "095351.157500", "095353.157500", "095355.157500", "095357.157500", "095359.157500", "095401.157500", "095403.157500", "095405.157500", "095407.157500", "095409.157500", "095411.157500", "095413.157500", "095415.157500", "095417.157500", "095419.157500", "095421.157500", "095423.157500", "095425.157500", "095427.157500", "095429.157500", "095431.157500", "095433.157500", "095435.157500", "095437.157500", "095439.157500", "095441.157500", "095443.157500", "095445.157500", "095447.157500", "095449.157500", "095451.157500", "095453.157500", "095455.157500", "095457.157500", "095459.157500", "095501.157500", "095503.157500", "095505.157500", "095507.157500", "095509.157500", "095511.157500", "095513.157500", "095515.157500", "095517.157500", "095519.157500", "095521.157500", "095523.157500", "095525.157500", "095527.157500", "095529.157500", "095531.157500", "095533.157500", "095535.157500", "095537.157500", "095539.157500", "095541.157500", "095543.157500", "095545.157500", "095547.157500", "095549.157500", "095551.157500", "095553.157500", "095555.157500", "095557.157500", "095559.157500", "095601.157500", "095603.157500", "095605.157500", "095607.157500", "095609.157500", "095611.157500", "095613.157500", "095615.157500", "095617.157500", "095619.157500", "095621.157500", "095623.157500", "095625.157500", "095627.157500", "095629.157500", "095631.157500", "095633.157500", "095635.157500", "095637.157500", "095639.157500", "095641.157500", "095643.157500", "095645.157500", "095647.157500", "095649.157500", "095651.157500", "095653.157500", "095655.157500", "095657.157500", "095659.157500", "095701.157500", "095703.157500", "095705.157500", "095707.157500", "095709.157500", "095711.157500", "095713.157500", "095715.157500", "095717.157500", "095719.157500", "095721.157500", "095723.157500", "095725.157500", "095727.157500", "095729.157500", "095731.157500", "095733.157500", "095735.157500", "095737.157500", "095739.157500"],
      "ContentTime": ["095127.833000", "095127.837000", "095127.840000", "095127.842000", "095127.845000", "095127.848000", "095127.850000", "095127.853000", "095127.859000", "095127.866000", "095127.868000", "095127.871000", "095127.873000", "095207.828000", "095207.832000", "095207.834000", "095207.837000", "095207.840000", "095207.842000", "095207.845000", "095207.847000", "095207.850000", "095207.852000", "095207.855000", "095207.858000", "095207.860000", "095207.863000", "095207.865000", "095207.868000", "095207.870000", "095207.873000", "095207.876000", "095207.882000", "095247.828000", "095247.831000", "095247.834000", "095247.836000", "095247.839000", "095247.842000", "095247.844000", "095247.847000", "095247.850000", "095247.853000", "095247.856000", "095247.858000", "095247.861000", "095247.863000", "095247.866000", "095247.869000", "095247.872000", "095247.875000", "095247.878000", "095247.880000", "095327.828000", "095327.831000", "095327.834000", "095327.836000", "095327.846000", "095327.848000", "095327.851000", "095327.854000", "095327.857000", "095327.859000", "095327.862000", "095327.865000", "095327.867000", "095327.870000", "095327.872000", "095327.875000", "095327.878000", "095327.880000", "095327.883000", "095327.885000", "095407.829000", "095407.832000", "095407.834000", "095407.837000", "095407.839000", "095407.842000", "095407.845000", "095407.847000", "095407.850000", "095407.852000", "095407.855000", "095407.857000", "095407.860000", "095407.863000", "095407.865000", "095407.868000", "095407.870000", "095407.873000", "095407.884000", "095407.887000", "095447.828000", "095447.831000", "095447.834000", "095447.836000", "095447.839000", "095447.841000", "095447.844000", "095447.846000", "095447.849000", "095447.851000", "095447.854000", "095447.856000", "095447.859000", "095447.873000", "095447.876000", "095447.879000", "095447.882000", "095447.884000", "095447.887000", "095447.890000", "095527.828000", "095527.831000", "095527.834000", "095527.853000", "095527.856000", "095527.858000", "095527.861000", "095527.863000", "095527.866000", "095527.868000", "095527.871000", "095527.873000", "095527.876000", "095527.878000", "095527.881000", "095527.883000", "095527.886000", "095527.888000", "095527.891000", "095527.893000", "095607.829000", "095607.831000", "095607.834000", "095607.836000", "095607.839000", "095607.841000", "095607.844000", "095607.846000", "095607.849000", "095607.851000", "095607.854000", "095607.856000", "095607.859000", "095607.861000", "095607.864000", "095607.866000", "095607.869000", "095607.871000", "095607.874000", "095607.877000", "095647.828000", "095647.831000", "095647.834000", "095647.836000", "095647.839000", "095647.841000", "095647.844000", "095647.846000", "095647.849000", "095647.851000", "095647.854000", "095647.856000", "095647.859000", "095647.861000", "095647.864000", "095647.866000", "095647.869000", "095647.872000", "095647.874000", "095647.877000", "095727.828000", "095727.831000", "095727.836000", "095727.839000", "095727.841000", "095727.844000", "095727.846000", "095727.849000", "095727.852000", "095727.854000", "095727.857000", "095727.859000", "095727.862000", "095727.864000", "095727.867000", "095727.870000", "095727.872000", "095727.877000", "095727.880000", "095727.882000", "095740.005000", "095740.007000", "095740.010000", "095740.013000", "095740.015000", "095740.018000", "095740.021000"],
      "InstanceCreationTime": ["095127.833000", "095127.837000", "095127.840000", "095127.842000", "095127.845000", "095127.848000", "095127.850000", "095127.853000", "095127.859000", "095127.866000", "095127.868000", "095127.871000", "095127.873000", "095207.828000", "095207.832000", "095207.834000", "095207.837000", "095207.840000", "095207.842000", "095207.845000", "095207.847000", "095207.850000", "095207.852000", "095207.855000", "095207.858000", "095207.860000", "095207.863000", "095207.865000", "095207.868000", "095207.870000", "095207.873000", "095207.876000", "095207.882000", "095247.828000", "095247.831000", "095247.834000", "095247.836000", "095247.839000", "095247.842000", "095247.844000", "095247.847000", "095247.850000", "095247.853000", "095247.856000", "095247.858000", "095247.861000", "095247.863000", "095247.866000", "095247.869000", "095247.872000", "095247.875000", "095247.878000", "095247.880000", "095327.828000", "095327.831000", "095327.834000", "095327.836000", "095327.846000", "095327.848000", "095327.851000", "095327.854000", "095327.857000", "095327.859000", "095327.862000", "095327.865000", "095327.867000", "095327.870000", "095327.872000", "095327.875000", "095327.878000", "095327.880000", "095327.883000", "095327.885000", "095407.829000", "095407.832000", "095407.834000", "095407.837000", "095407.839000", "095407.842000", "095407.845000", "095407.847000", "095407.850000", "095407.852000", "095407.855000", "095407.857000", "095407.860000", "095407.863000", "095407.865000", "095407.868000", "095407.870000", "095407.873000", "095407.884000", "095407.887000", "095447.828000", "095447.831000", "095447.834000", "095447.836000", "095447.839000", "095447.841000", "095447.844000", "095447.846000", "095447.849000", "095447.851000", "095447.854000", "095447.856000", "095447.859000", "095447.873000", "095447.876000", "095447.879000", "095447.882000", "095447.884000", "095447.887000", "095447.890000", "095527.828000", "095527.831000", "095527.834000", "095527.853000", "095527.856000", "095527.858000", "095527.861000", "095527.863000", "095527.866000", "095527.868000", "095527.871000", "095527.873000", "095527.876000", "095527.878000", "095527.881000", "095527.883000", "095527.886000", "095527.888000", "095527.891000", "095527.893000", "095607.829000", "095607.831000", "095607.834000", "095607.836000", "095607.839000", "095607.841000", "095607.844000", "095607.846000", "095607.849000", "095607.851000", "095607.854000", "095607.856000", "095607.859000", "095607.861000", "095607.864000", "095607.866000", "095607.869000", "095607.871000", "095607.874000", "095607.877000", "095647.828000", "095647.831000", "095647.834000", "095647.836000", "095647.839000", "095647.841000", "095647.844000", "095647.846000", "095647.849000", "095647.851000", "095647.854000", "095647.856000", "095647.859000", "095647.861000", "095647.864000", "095647.866000", "095647.869000", "095647.872000", "095647.874000", "095647.877000", "095727.828000", "095727.831000", "095727.836000", "095727.839000", "095727.841000", "095727.844000", "095727.846000", "095727.849000", "095727.852000", "095727.854000", "095727.857000", "095727.859000", "095727.862000", "095727.864000", "095727.867000", "095727.870000", "095727.872000", "095727.877000", "095727.880000", "095727.882000", "095740.005000", "095740.007000", "095740.010000", "095740.013000", "095740.015000", "095740.018000", "095740.021000"],
      "InstanceNumber": [1, 2, 3, 4, 5, 6, 7, 8, 9, 10, 11, 12, 13, 14, 15, 16, 17, 18, 19, 20, 21, 22, 23, 24, 25, 26, 27, 28, 29, 30, 31, 32, 33, 34, 35, 36, 37, 38, 39, 40, 41, 42, 43, 44, 45, 46, 47, 48, 49, 50, 51, 52, 53, 54, 55, 56, 57, 58, 59, 60, 61, 62, 63, 64, 65, 66, 67, 68, 69, 70, 71, 72, 73, 74, 75, 76, 77, 78, 79, 80, 81, 82, 83, 84, 85, 86, 87, 88, 89, 90, 91, 92, 93, 94, 95, 96, 97, 98, 99, 100, 101, 102, 103, 104, 105, 106, 107, 108, 109, 110, 111, 112, 113, 114, 115, 116, 117, 118, 119, 120, 121, 122, 123, 124, 125, 126, 127, 128, 129, 130, 131, 132, 133, 134, 135, 136, 137, 138, 139, 140, 141, 142, 143, 144, 145, 146, 147, 148, 149, 150, 151, 152, 153, 154, 155, 156, 157, 158, 159, 160, 161, 162, 163, 164, 165, 166, 167, 168, 169, 170, 171, 172, 173, 174, 175, 176, 177, 178, 179, 180, 181, 182, 183, 184, 185, 186, 187, 188, 189, 190, 191, 192, 193, 194, 195, 196, 197, 198, 199, 200],
      "LargestImagePixelValue": [1923, 1920, 1933, 1925, 1924, 1927, 1923, 1923, 1925, 1926, 1923, 1932, 1925, 1923, 1917, 1911, 1916, 1917, 1925, 1931, 1930, 1926, 1920, 1927, 1928, 1928, 1927, 1926, 1924, 1931, 1926, 1920, 1925, 1924, 1928, 1927, 1925, 1929, 1921, 1926, 1922, 1921, 1923, 1926, 1922, 1921, 1921, 1922, 1923, 1924, 1927, 1924, 1927, 1928, 1927, 1923, 1922, 1921, 1927, 1921, 1923, 1922, 1925, 1931, 1931, 1928, 1926, 1929, 1921, 1931, 1930, 1932, 1923, 1926, 1923, 1928, 1925, 1919, 1927, 1926, 1925, 1926, 1928, 1924, 1922, 1927, 1929, 1931, 1930, 1924, 1925, 1931, 1920, 1922, 1926, 1924, 1923, 1928, 1930, 1921, 1919, 1920, 1919, 1916, 1928, 1924, 1929, 1924, 1921, 1926, 1922, 1928, 1929, 1924, 1922, 1923, 1924, 1922, 1919, 1923, 1924, 1926, 1927, 1921, 1918, 1922, 1925, 1925, 1928, 1926, 1924, 1925, 1926, 1925, 1926, 1930, 1923, 1918, 1925, 1924, 1930, 1930, 1929, 1925, 1931, 1919, 1928, 1927, 1928, 1928, 1928, 1929, 1931, 1920, 1930, 1926, 1927, 1929, 1926, 1923, 1920, 1927, 1919, 1924, 1931, 1922, 1938, 1926, 1932, 1927, 1927, 1928, 1924, 1922, 1925, 1921, 1926, 1924, 1927, 1920, 1915, 1923, 1926, 1930, 1931, 1927, 1922, 1924, 1926, 1926, 1924, 1927, 1929, 1926, 1928, 1921, 1923, 1924, 1926, 1934],
      "WindowCenter": [898.0, 898.0, 898.0, 898.0, 898.0, 898.0, 898.0, 898.0, 898.0, 898.0, 898.0, 898.0, 898.0, 898.0, 898.0, 898.0, 898.0, 898.0, 898.0, 898.0, 898.0, 898.0, 898.0, 898.0, 898.0, 898.0, 898.0, 898.0, 898.0, 898.0, 898.0, 898.0, 898.0, 898.0, 898.0, 898.0, 898.0, 898.0, 898.0, 898.0, 898.0, 898.0, 898.0, 898.0, 898.0, 898.0, 898.0, 898.0, 898.0, 898.0, 898.0, 898.0, 898.0, 898.0, 898.0, 898.0, 898.0, 898.0, 898.0, 898.0, 898.0, 898.0, 898.0, 898.0, 898.0, 898.0, 898.0, 898.0, 898.0, 898.0, 898.0, 898.0, 898.0, 898.0, 898.0, 898.0, 898.0, 898.0, 898.0, 898.0, 898.0, 898.0, 898.0, 898.0, 898.0, 898.0, 898.0, 898.0, 898.0, 898.0, 898.0, 898.0, 898.0, 898.0, 898.0, 898.0, 898.0, 898.0, 898.0, 898.0, 898.0, 898.0, 898.0, 898.0, 898.0, 898.0, 898.0, 898.0, 898.0, 898.0, 898.0, 898.0, 898.0, 898.0, 898.0, 899.0, 898.0, 898.0, 898.0, 898.0, 898.0, 898.0, 898.0, 898.0, 898.0, 898.0, 898.0, 898.0, 898.0, 898.0, 898.0, 898.0, 898.0, 898.0, 898.0, 898.0, 898.0, 898.0, 898.0, 898.0, 898.0, 898.0, 898.0, 898.0, 898.0, 898.0, 898.0, 898.0, 898.0, 898.0, 898.0, 898.0, 898.0, 898.0, 898.0, 898.0, 898.0, 898.0, 898.0, 898.0, 898.0, 898.0, 898.0, 898.0, 898.0, 898.0, 898.0, 898.0, 898.0, 898.0, 898.0, 898.0, 898.0, 898.0, 898.0, 898.0, 898.0, 898.0, 898.0, 898.0, 898.0, 898.0, 898.0, 898.0, 898.0, 898.0, 898.0, 898.0, 898.0, 898.0, 898.0, 898.0, 898.0, 898.0, 898.0, 898.0, 898.0, 898.0, 898.0, 898.0],
      "WindowWidth": [2020.0, 2020.0, 2020.0, 2020.0, 2020.0, 2020.0, 2020.0, 2020.0, 2020.0, 2020.0, 2020.0, 2020.0, 2020.0, 2020.0, 2021.0, 2020.0, 2020.0, 2020.0, 2020.0, 2020.0, 2021.0, 2020.0, 2020.0, 2020.0, 2021.0, 2020.0, 2021.0, 2021.0, 2020.0, 2020.0, 2020.0, 2020.0, 2020.0, 2021.0, 2020.0, 2021.0, 2020.0, 2020.0, 2020.0, 2020.0, 2020.0, 2020.0, 2021.0, 2020.0, 2020.0, 2021.0, 2020.0, 2021.0, 2021.0, 2020.0, 2020.0, 2020.0, 2020.0, 2020.0, 2020.0, 2020.0, 2020.0, 2021.0, 2020.0, 2021.0, 2021.0, 2020.0, 2021.0, 2021.0, 2021.0, 2021.0, 2021.0, 2021.0, 2021.0, 2021.0, 2021.0, 2021.0, 2021.0, 2021.0, 2021.0, 2021.0, 2021.0, 2021.0, 2021.0, 2021.0, 2021.0, 2021.0, 2021.0, 2021.0, 2021.0, 2021.0, 2021.0, 2021.0, 2021.0, 2021.0, 2021.0, 2021.0, 2021.0, 2021.0, 2021.0, 2021.0, 2021.0, 2021.0, 2021.0, 2021.0, 2021.0, 2021.0, 2021.0, 2021.0, 2021.0, 2021.0, 2021.0, 2021.0, 2021.0, 2021.0, 2021.0, 2021.0, 2021.0, 2021.0, 2021.0, 2022.0, 2021.0, 2021.0, 2021.0, 2021.0, 2021.0, 2021.0, 2021.0, 2021.0, 2021.0, 2021.0, 2021.0, 2021.0, 2021.0, 2021.0, 2021.0, 2021.0, 2021.0, 2021.0, 2021.0, 2021.0, 2021.0, 2021.0, 2021.0, 2021.0, 2021.0, 2021.0, 2021.0, 2021.0, 2021.0, 2021.0, 2021.0, 2021.0, 2021.0, 2021.0, 2021.0, 2021.0, 2021.0, 2021.0, 2021.0, 2021.0, 2021.0, 2021.0, 2021.0, 2021.0, 2022.0, 2021.0, 2021.0, 2021.0, 2021.0, 2021.0, 2021.0, 2021.0, 2021.0, 2021.0, 2021.0, 2022.0, 2021.0, 2021.0, 2022.0, 2021.0, 2021.0, 2021.0, 2022.0, 2021.0, 2021.0, 2022.0, 2021.0, 2022.0, 2021.0, 2021.0, 2021.0, 2021.0, 2021.0, 2022.0, 2021.0, 2021.0, 2021.0, 2021.0, 2021.0, 2021.0, 2021.0, 2022.0, 2021.0, 2021.0]
    },
    "slices": {}
  }
}