{
  "AcquisitionMatrixPE": 80,
  "AcquisitionNumber": 1,
  "AcquisitionTime": "09:01:6.125000",
  "BandwidthPerPixelPhaseEncode": 44.643,
  "BaseResolution": 80,
  "BodyPartExamined": "BRAIN",
  "CoilCombinationMethod": "Sum of Squares",
  "ConsistencyInfo": "N4_VE11C_LATEST_20160120",
  "ConversionSoftware": "dcm2niix",
  "ConversionSoftwareVersion": "v1.0.20220720",
  "DerivedVendorReportedEchoSpacing": 0.000559998,
  "DeviceSerialNumber": "66112",
  "DwellTime": 2.7e-06,
  "EchoTime": 0.035,
  "EchoTrainLength": 39,
  "EffectiveEchoSpacing": 0.000279999,
  "FlipAngle": 90,
  "HeudiconvVersion": "0.13.1",
  "ImageOrientationPatientDICOM": [0.988368, 0.151674, 0.0111088, -0.147889, 0.941533, 0.302727],
  "ImageOrientationText": "Tra>Cor(17.5)>Sag(-2.0)",
  "ImageType": [
    "ORIGINAL",
    "PRIMARY",
    "M",
    "ND",
    "NORM",
    "MOSAIC"
],
  "ImagingFrequency": 123.252,
  "InPlanePhaseEncodingDirectionDICOM": "COL",
  "InstitutionAddress": "Maynard 3,Hanover,NH,US,03755",
  "InstitutionName": "Dartmouth College - PBS",
  "InstitutionalDepartmentName": "Department",
  "MRAcquisitionType": "2D",
  "MagneticFieldStrength": 3,
  "Manufacturer": "Siemens",
  "ManufacturersModelName": "Prisma",
  "Modality": "MR",
  "MultibandAccelerationFactor": 4,
  "NonlinearGradientCorrection": false,
  "ParallelReductionFactorInPlane": 2,
  "PartialFourier": 1,
  "PatientPosition": "HFS",
  "PercentPhaseFOV": 100,
  "PercentSampling": 100,
  "PhaseEncodingDirection": "j-",
  "PhaseEncodingSteps": 79,
  "PhaseResolution": 1,
  "PixelBandwidth": 2315,
  "ProcedureStepDescription": "dbic^QA",
  "ProtocolName": "func-bold_task-rest_acq-p2-s4-3.5mm",
  "PulseSequenceDetails": "%SiemensSeq%\\ep2d_bold",
  "ReceiveCoilActiveElements": "HEA;HEP",
  "ReceiveCoilName": "Head_32",
  "ReconMatrixPE": 80,
  "RefLinesPE": 24,
  "RepetitionTime": 2,
  "SAR": 0.0208624,
  "ScanOptions": "FS",
  "ScanningSequence": "EP",
  "SequenceName": "*epfid2d1_80",
  "SequenceVariant": "SK",
  "SeriesDescription": "func-bold_task-rest_acq-p2-s4-3.5mm",
  "SeriesNumber": 7,
  "ShimSetting": [4145, -7694, -7507, 348, -32, -173, -50, 49],
  "SliceThickness": 3.5,
  "SliceTiming": [1.485, 0, 0.99, 0.2475, 1.2375, 0.7425, 1.7325, 0.495, 1.485, 0, 0.99, 0.2475, 1.2375, 0.7425, 1.7325, 0.495, 1.485, 0, 0.99, 0.2475, 1.2375, 0.7425, 1.7325, 0.495, 1.485, 0, 0.99, 0.2475, 1.2375, 0.7425, 1.7325, 0.495],
  "SoftwareVersions": "syngo MR E11",
  "SpacingBetweenSlices": 3.99,
  "StationName": "AWP66112",
  "TaskName": "rest",
  "TotalReadoutTime": 0.0221199,
  "TxRefAmp": 237.643,
  "dcmmeta_affine": [
    [-2.965104579925537, -0.4436669945716858, -0.14147111773490906, 141.45303344726562],
    [-0.45502108335494995, 2.8246002197265625, 1.2003860473632812, -112.31289672851562],
    [0.033326406031847, -0.9081811308860779, 3.8025200366973877, -25.043813705444336],
    [0.0, 0.0, 0.0, 1.0]
],
  "dcmmeta_reorient_transform": [
    [0.0, -1.0, 0.0, 79.0],
    [1.0, 0.0, 0.0, 0.0],
    [0.0, 0.0, 1.0, 0.0],
    [0.0, 0.0, 0.0, 1.0]
],
  "dcmmeta_shape": [80, 80, 32, 200],
  "dcmmeta_slice_dim": 2,
  "dcmmeta_version": 0.6,
  "global": {
    "const": {
      "AccessionNumber": "qa",
      "AcquisitionMatrix": [80, 0, 0, 80],
      "AngioFlag": "N",
      "BitsAllocated": 16,
      "BitsStored": 12,
      "BodyPartExamined": "BRAIN",
      "Columns": 480,
      "EchoNumbers": 1,
      "EchoTime": 35.0,
      "EchoTrainLength": 39,
      "FlipAngle": 90.0,
      "HighBit": 11,
      "ImageOrientationPatient": [0.98836819309418, 0.15167369382246, 0.01110880200596, -0.1478890027272, 0.94153341970162, 0.30272704282458],
      "ImagePositionPatient": [-610.69085303603, -766.75479167447, -285.09163005533],
      "ImageType": [
        "ORIGINAL",
        "PRIMARY",
        "M",
        "ND",
        "NORM",
        "MOSAIC"
],
      "ImagedNucleus": "1H",
      "ImagingFrequency": 123.252485,
      "InPlanePhaseEncodingDirection": "COL",
      "MRAcquisitionType": "2D",
      "MagneticFieldStrength": 3.0,
      "Manufacturer": "SIEMENS",
      "ManufacturerModelName": "Prisma",
      "Modality": "MR",
      "NumberOfAverages": 1.0,
      "NumberOfPhaseEncodingSteps": 79,
      "PercentPhaseFieldOfView": 100.0,
      "PercentSampling": 100.0,
      "PerformedProcedureStepStartTime": "085230.912000",
      "PhotometricInterpretation": "MONOCHROME2",
      "PixelBandwidth": 2315.0,
      "PixelRepresentation": 0,
      "PixelSpacing": [3.0, 3.0],
      "ProtocolName": "func-bold_task-rest_acq-p2-s4-3.5mm",
      "RepetitionTime": 2000.0,
      "Rows": 480,
      "SAR": 0.02086237503925,
      "SamplesPerPixel": 1,
      "ScanOptions": "FS",
      "ScanningSequence": "EP",
      "SequenceName": "*epfid2d1_80",
      "SequenceVariant": "SK",
      "SeriesDescription": "func-bold_task-rest_acq-p2-s4-3.5mm",
      "SeriesNumber": 7,
      "SeriesTime": "090152.233000",
      "SliceLocation": -62.671670805477,
      "SliceThickness": 3.5,
      "SmallestImagePixelValue": 0,
      "SoftwareVersions": "syngo MR E11",
      "SpacingBetweenSlices": 3.9899998986748,
      "SpecificCharacterSet": "ISO_IR 100",
      "StudyID": "45",
      "StudyTime": "085230.832000",
      "TransmitCoilName": "Body",
      "VariableFlipAngleFlag": "N",
      "WindowCenterWidthExplanation": "Algo1",
      "dBdt": 0.0},
    "slices": {}
  },
  "time": {
    "samples": {
      "AcquisitionNumber": [1, 2, 3, 4, 5, 6, 7, 8, 9, 10, 11, 12, 13, 14, 15, 16, 17, 18, 19, 20, 21, 22, 23, 24, 25, 26, 27, 28, 29, 30, 31, 32, 33, 34, 35, 36, 37, 38, 39, 40, 41, 42, 43, 44, 45, 46, 47, 48, 49, 50, 51, 52, 53, 54, 55, 56, 57, 58, 59, 60, 61, 62, 63, 64, 65, 66, 67, 68, 69, 70, 71, 72, 73, 74, 75, 76, 77, 78, 79, 80, 81, 82, 83, 84, 85, 86, 87, 88, 89, 90, 91, 92, 93, 94, 95, 96, 97, 98, 99, 100, 101, 102, 103, 104, 105, 106, 107, 108, 109, 110, 111, 112, 113, 114, 115, 116, 117, 118, 119, 120, 121, 122, 123, 124, 125, 126, 127, 128, 129, 130, 131, 132, 133, 134, 135, 136, 137, 138, 139, 140, 141, 142, 143, 144, 145, 146, 147, 148, 149, 150, 151, 152, 153, 154, 155, 156, 157, 158, 159, 160, 161, 162, 163, 164, 165, 166, 167, 168, 169, 170, 171, 172, 173, 174, 175, 176, 177, 178, 179, 180, 181, 182, 183, 184, 185, 186, 187, 188, 189, 190, 191, 192, 193, 194, 195, 196, 197, 198, 199, 200],
      "AcquisitionTime": ["090106.125000", "090108.125000", "090110.125000", "090112.125000", "090114.125000", "090116.125000", "090118.125000", "090120.125000", "090122.125000", "090124.125000", "090126.125000", "090128.125000", "090130.125000", "090132.125000", "090134.125000", "090136.125000", "090138.125000", "090140.125000", "090142.125000", "090144.125000", "090146.125000", "090148.125000", "090150.125000", "090152.125000", "090154.125000", "090156.125000", "090158.125000", "090200.125000", "090202.125000", "090204.125000", "090206.125000", "090208.125000", "090210.125000", "090212.125000", "090214.125000", "090216.125000", "090218.125000", "090220.125000", "090222.125000", "090224.125000", "090226.125000", "090228.125000", "090230.125000", "090232.125000", "090234.125000", "090236.125000", "090238.125000", "090240.125000", "090242.125000", "090244.125000", "090246.125000", "090248.125000", "090250.125000", "090252.125000", "090254.125000", "090256.125000", "090258.125000", "090300.125000", "090302.125000", "090304.125000", "090306.125000", "090308.125000", "090310.125000", "090312.125000", "090314.125000", "090316.125000", "090318.125000", "090320.125000", "090322.125000", "090324.125000", "090326.125000", "090328.125000", "090330.125000", "090332.125000", "090334.125000", "090336.125000", "090338.125000", "090340.125000", "090342.125000", "090344.125000", "090346.125000", "090348.125000", "090350.125000", "090352.125000", "090354.125000", "090356.125000", "090358.125000", "090400.125000", "090402.125000", "090404.125000", "090406.125000", "090408.125000", "090410.125000", "090412.125000", "090414.125000", "090416.125000", "090418.125000", "090420.125000", "090422.125000", "090424.125000", "090426.125000", "090428.125000", "090430.125000", "090432.125000", "090434.125000", "090436.125000", "090438.125000", "090440.125000", "090442.125000", "090444.125000", "090446.125000", "090448.125000", "090450.125000", "090452.125000", "090454.125000", "090456.125000", "090458.125000", "090500.125000", "090502.125000", "090504.125000", "090506.125000", "090508.125000", "090510.125000", "090512.125000", "090514.125000", "090516.125000", "090518.125000", "090520.125000", "090522.125000", "090524.125000", "090526.125000", "090528.125000", "090530.125000", "090532.125000", "090534.125000", "090536.125000", "090538.125000", "090540.125000", "090542.125000", "090544.125000", "090546.125000", "090548.125000", "090550.125000", "090552.125000", "090554.125000", "090556.125000", "090558.125000", "090600.125000", "090602.125000", "090604.125000", "090606.125000", "090608.125000", "090610.125000", "090612.125000", "090614.125000", "090616.125000", "090618.125000", "090620.125000", "090622.125000", "090624.125000", "090626.125000", "090628.125000", "090630.125000", "090632.125000", "090634.125000", "090636.125000", "090638.125000", "090640.125000", "090642.125000", "090644.125000", "090646.125000", "090648.125000", "090650.125000", "090652.125000", "090654.125000", "090656.125000", "090658.125000", "090700.125000", "090702.125000", "090704.125000", "090706.125000", "090708.125000", "090710.125000", "090712.125000", "090714.125000", "090716.125000", "090718.125000", "090720.125000", "090722.125000", "090724.125000", "090726.125000", "090728.125000", "090730.125000", "090732.125000", "090734.125000", "090736.125000", "090738.125000", "090740.125000", "090742.125000", "090744.125000"],
      "ContentTime": ["090152.236000", "090152.240000", "090152.242000", "090152.245000", "090152.247000", "090152.250000", "090152.252000", "090152.255000", "090152.257000", "090152.260000", "090152.262000", "090152.265000", "090152.267000", "090152.276000", "090152.279000", "090152.287000", "090152.299000", "090152.301000", "090152.304000", "090152.306000", "090152.309000", "090152.312000", "090152.314000", "090232.231000", "090232.234000", "090232.237000", "090232.239000", "090232.242000", "090232.245000", "090232.247000", "090232.250000", "090232.252000", "090232.255000", "090232.257000", "090232.260000", "090232.262000", "090232.265000", "090232.267000", "090232.270000", "090232.272000", "090232.275000", "090232.277000", "090232.280000", "090312.231000", "090312.234000", "090312.237000", "090312.239000", "090312.242000", "090312.244000", "090312.247000", "090312.249000", "090312.252000", "090312.254000", "090312.257000", "090312.259000", "090312.262000", "090312.265000", "090312.267000", "090312.270000", "090312.272000", "090312.275000", "090312.277000", "090312.280000", "090352.231000", "090352.234000", "090352.237000", "090352.239000", "090352.242000", "090352.244000", "090352.247000", "090352.249000", "090352.252000", "090352.255000", "090352.257000", "090352.260000", "090352.262000", "090352.265000", "090352.267000", "090352.270000", "090352.272000", "090352.275000", "090352.277000", "090352.280000", "090432.231000", "090432.234000", "090432.237000", "090432.239000", "090432.242000", "090432.245000", "090432.247000", "090432.250000", "090432.252000", "090432.255000", "090432.257000", "090432.260000", "090432.262000", "090432.265000", "090432.267000", "090432.270000", "090432.272000", "090432.275000", "090432.277000", "090432.280000", "090512.232000", "090512.235000", "090512.237000", "090512.240000", "090512.242000", "090512.251000", "090512.253000", "090512.256000", "090512.258000", "090512.261000", "090512.263000", "090512.266000", "090512.268000", "090512.271000", "090512.274000", "090512.276000", "090512.278000", "090512.281000", "090512.284000", "090512.286000", "090532.231000", "090532.234000", "090532.237000", "090532.239000", "090532.242000", "090532.245000", "090532.247000", "090532.250000", "090532.252000", "090532.255000", "090612.231000", "090612.234000", "090612.237000", "090612.240000", "090612.242000", "090612.245000", "090612.247000", "090612.250000", "090612.252000", "090612.255000", "090612.257000", "090612.260000", "090612.262000", "090612.265000", "090612.267000", "090612.277000", "090612.279000", "090612.282000", "090612.284000", "090612.287000", "090652.231000", "090652.234000", "090652.237000", "090652.239000", "090652.242000", "090652.244000", "090652.247000", "090652.250000", "090652.252000", "090652.255000", "090652.257000", "090652.260000", "090652.262000", "090652.265000", "090652.267000", "090652.270000", "090652.272000", "090652.275000", "090652.277000", "090652.280000", "090732.231000", "090732.234000", "090732.237000", "090732.239000", "090732.242000", "090732.244000", "090732.247000", "090732.249000", "090732.252000", "090732.254000", "090732.257000", "090732.260000", "090732.262000", "090732.264000", "090732.267000", "090732.270000", "090732.272000", "090732.275000", "090732.277000", "090732.280000", "090745.514000", "090745.517000", "090745.519000", "090745.522000", "090745.525000", "090745.527000", "090745.530000"],
      "InstanceCreationTime": ["090152.236000", "090152.240000", "090152.242000", "090152.245000", "090152.247000", "090152.250000", "090152.252000", "090152.255000", "090152.257000", "090152.260000", "090152.262000", "090152.265000", "090152.267000", "090152.276000", "090152.279000", "090152.287000", "090152.299000", "090152.301000", "090152.304000", "090152.306000", "090152.309000", "090152.312000", "090152.314000", "090232.231000", "090232.234000", "090232.237000", "090232.239000", "090232.242000", "090232.245000", "090232.247000", "090232.250000", "090232.252000", "090232.255000", "090232.257000", "090232.260000", "090232.262000", "090232.265000", "090232.267000", "090232.270000", "090232.272000", "090232.275000", "090232.277000", "090232.280000", "090312.231000", "090312.234000", "090312.237000", "090312.239000", "090312.242000", "090312.244000", "090312.247000", "090312.249000", "090312.252000", "090312.254000", "090312.257000", "090312.259000", "090312.262000", "090312.265000", "090312.267000", "090312.270000", "090312.272000", "090312.275000", "090312.277000", "090312.280000", "090352.231000", "090352.234000", "090352.237000", "090352.239000", "090352.242000", "090352.244000", "090352.247000", "090352.249000", "090352.252000", "090352.255000", "090352.257000", "090352.260000", "090352.262000", "090352.265000", "090352.267000", "090352.270000", "090352.272000", "090352.275000", "090352.277000", "090352.280000", "090432.231000", "090432.234000", "090432.237000", "090432.239000", "090432.242000", "090432.245000", "090432.247000", "090432.250000", "090432.252000", "090432.255000", "090432.257000", "090432.260000", "090432.262000", "090432.265000", "090432.267000", "090432.270000", "090432.272000", "090432.275000", "090432.277000", "090432.280000", "090512.232000", "090512.235000", "090512.237000", "090512.240000", "090512.242000", "090512.251000", "090512.253000", "090512.256000", "090512.258000", "090512.261000", "090512.263000", "090512.266000", "090512.268000", "090512.271000", "090512.274000", "090512.276000", "090512.278000", "090512.281000", "090512.284000", "090512.286000", "090532.231000", "090532.234000", "090532.237000", "090532.239000", "090532.242000", "090532.245000", "090532.247000", "090532.250000", "090532.252000", "090532.255000", "090612.231000", "090612.234000", "090612.237000", "090612.240000", "090612.242000", "090612.245000", "090612.247000", "090612.250000", "090612.252000", "090612.255000", "090612.257000", "090612.260000", "090612.262000", "090612.265000", "090612.267000", "090612.277000", "090612.279000", "090612.282000", "090612.284000", "090612.287000", "090652.231000", "090652.234000", "090652.237000", "090652.239000", "090652.242000", "090652.244000", "090652.247000", "090652.250000", "090652.252000", "090652.255000", "090652.257000", "090652.260000", "090652.262000", "090652.265000", "090652.267000", "090652.270000", "090652.272000", "090652.275000", "090652.277000", "090652.280000", "090732.231000", "090732.234000", "090732.237000", "090732.239000", "090732.242000", "090732.244000", "090732.247000", "090732.249000", "090732.252000", "090732.254000", "090732.257000", "090732.260000", "090732.262000", "090732.264000", "090732.267000", "090732.270000", "090732.272000", "090732.275000", "090732.277000", "090732.280000", "090745.514000", "090745.517000", "090745.519000", "090745.522000", "090745.525000", "090745.527000", "090745.530000"],
      "InstanceNumber": [1, 2, 3, 4, 5, 6, 7, 8, 9, 10, 11, 12, 13, 14, 15, 16, 17, 18, 19, 20, 21, 22, 23, 24, 25, 26, 27, 28, 29, 30, 31, 32, 33, 34, 35, 36, 37, 38, 39, 40, 41, 42, 43, 44, 45, 46, 47, 48, 49, 50, 51, 52, 53, 54, 55, 56, 57, 58, 59, 60, 61, 62, 63, 64, 65, 66, 67, 68, 69, 70, 71, 72, 73, 74, 75, 76, 77, 78, 79, 80, 81, 82, 83, 84, 85, 86, 87, 88, 89, 90, 91, 92, 93, 94, 95, 96, 97, 98, 99, 100, 101, 102, 103, 104, 105, 106, 107, 108, 109, 110, 111, 112, 113, 114, 115, 116, 117, 118, 119, 120, 121, 122, 123, 124, 125, 126, 127, 128, 129, 130, 131, 132, 133, 134, 135, 136, 137, 138, 139, 140, 141, 142, 143, 144, 145, 146, 147, 148, 149, 150, 151, 152, 153, 154, 155, 156, 157, 158, 159, 160, 161, 162, 163, 164, 165, 166, 167, 168, 169, 170, 171, 172, 173, 174, 175, 176, 177, 178, 179, 180, 181, 182, 183, 184, 185, 186, 187, 188, 189, 190, 191, 192, 193, 194, 195, 196, 197, 198, 199, 200],
      "LargestImagePixelValue": [2132, 2135, 2129, 2132, 2133, 2136, 2135, 2136, 2136, 2135, 2135, 2135, 2135, 2138, 2137, 2131, 2132, 2130, 2134, 2133, 2132, 2132, 2130, 2131, 2128, 2133, 2135, 2134, 2134, 2133, 2128, 2132, 2134, 2134, 2133, 2137, 2130, 2137, 2137, 2134, 2137, 2135, 2134, 2140, 2134, 2131, 2131, 2137, 2129, 2136, 2137, 2139, 2134, 2136, 2135, 2135, 2137, 2138, 2135, 2131, 2136, 2136, 2134, 2128, 2140, 2135, 2135, 2132, 2135, 2131, 2133, 2139, 2138, 2132, 2137, 2132, 2136, 2131, 2135, 2137, 2134, 2132, 2139, 2135, 2143, 2138, 2139, 2135, 2134, 2136, 2140, 2138, 2138, 2134, 2137, 2132, 2133, 2142, 2138, 2140, 2138, 2138, 2141, 2143, 2136, 2138, 2136, 2132, 2139, 2139, 2135, 2135, 2132, 2133, 2139, 2139, 2141, 2139, 2141, 2136, 2134, 2133, 2135, 2138, 2133, 2147, 2139, 2136, 2138, 2133, 2135, 2138, 2134, 2143, 2135, 2139, 2140, 2140, 2135, 2136, 2139, 2135, 2139, 2137, 2141, 2138, 2136, 2139, 2138, 2140, 2141, 2138, 2139, 2133, 2138, 2134, 2138, 2139, 2131, 2140, 2140, 2140, 2135, 2131, 2136, 2133, 2133, 2141, 2140, 2137, 2134, 2137, 2135, 2138, 2142, 2142, 2139, 2133, 2137, 2138, 2133, 2142, 2138, 2136, 2139, 2139, 2136, 2138, 2138, 2137, 2142, 2140, 2142, 2140, 2141, 2140, 2143, 2136, 2137, 2134],
      "WindowCenter": [922.0, 922.0, 922.0, 922.0, 922.0, 922.0, 922.0, 922.0, 923.0, 922.0, 922.0, 923.0, 923.0, 922.0, 923.0, 923.0, 923.0, 923.0, 923.0, 922.0, 922.0, 923.0, 923.0, 923.0, 923.0, 922.0, 922.0, 923.0, 923.0, 923.0, 922.0, 923.0, 922.0, 923.0, 923.0, 923.0, 923.0, 923.0, 923.0, 923.0, 923.0, 923.0, 923.0, 922.0, 923.0, 923.0, 923.0, 923.0, 923.0, 923.0, 923.0, 923.0, 923.0, 923.0, 923.0, 923.0, 923.0, 923.0, 923.0, 923.0, 923.0, 923.0, 923.0, 923.0, 923.0, 923.0, 923.0, 923.0, 923.0, 923.0, 923.0, 923.0, 923.0, 923.0, 923.0, 923.0, 923.0, 923.0, 923.0, 923.0, 923.0, 923.0, 923.0, 923.0, 923.0, 923.0, 923.0, 923.0, 923.0, 923.0, 923.0, 923.0, 923.0, 923.0, 923.0, 923.0, 923.0, 923.0, 923.0, 923.0, 923.0, 923.0, 923.0, 923.0, 923.0, 923.0, 923.0, 923.0, 923.0, 923.0, 923.0, 923.0, 923.0, 923.0, 923.0, 923.0, 923.0, 923.0, 923.0, 923.0, 923.0, 923.0, 923.0, 923.0, 923.0, 923.0, 923.0, 923.0, 923.0, 923.0, 923.0, 923.0, 923.0, 923.0, 923.0, 923.0, 923.0, 923.0, 923.0, 923.0, 923.0, 923.0, 923.0, 923.0, 923.0, 923.0, 923.0, 923.0, 923.0, 923.0, 923.0, 923.0, 923.0, 923.0, 923.0, 923.0, 923.0, 923.0, 923.0, 923.0, 923.0, 923.0, 923.0, 923.0, 923.0, 923.0, 923.0, 923.0, 923.0, 923.0, 923.0, 923.0, 923.0, 923.0, 923.0, 923.0, 923.0, 923.0, 923.0, 923.0, 923.0, 923.0, 923.0, 923.0, 923.0, 923.0, 923.0, 923.0, 923.0, 923.0, 923.0, 923.0, 923.0, 923.0, 923.0, 923.0, 923.0, 923.0, 923.0, 923.0],
      "WindowWidth": [2097.0, 2097.0, 2097.0, 2097.0, 2097.0, 2097.0, 2097.0, 2097.0, 2098.0, 2097.0, 2097.0, 2097.0, 2097.0, 2097.0, 2097.0, 2098.0, 2097.0, 2097.0, 2097.0, 2097.0, 2097.0, 2097.0, 2097.0, 2097.0, 2097.0, 2097.0, 2098.0, 2098.0, 2097.0, 2097.0, 2097.0, 2097.0, 2097.0, 2097.0, 2097.0, 2097.0, 2098.0, 2098.0, 2097.0, 2098.0, 2097.0, 2098.0, 2097.0, 2097.0, 2097.0, 2098.0, 2098.0, 2097.0, 2097.0, 2097.0, 2098.0, 2097.0, 2098.0, 2098.0, 2098.0, 2097.0, 2098.0, 2098.0, 2097.0, 2098.0, 2098.0, 2098.0, 2098.0, 2098.0, 2097.0, 2098.0, 2098.0, 2097.0, 2098.0, 2098.0, 2098.0, 2098.0, 2098.0, 2098.0, 2098.0, 2098.0, 2098.0, 2098.0, 2098.0, 2098.0, 2098.0, 2098.0, 2097.0, 2098.0, 2098.0, 2098.0, 2098.0, 2098.0, 2098.0, 2098.0, 2098.0, 2098.0, 2098.0, 2098.0, 2098.0, 2098.0, 2098.0, 2098.0, 2098.0, 2098.0, 2098.0, 2098.0, 2098.0, 2098.0, 2098.0, 2098.0, 2098.0, 2098.0, 2098.0, 2098.0, 2098.0, 2098.0, 2098.0, 2098.0, 2098.0, 2098.0, 2098.0, 2098.0, 2097.0, 2098.0, 2098.0, 2098.0, 2098.0, 2098.0, 2098.0, 2098.0, 2098.0, 2098.0, 2099.0, 2098.0, 2098.0, 2098.0, 2098.0, 2098.0, 2098.0, 2098.0, 2098.0, 2098.0, 2098.0, 2098.0, 2098.0, 2098.0, 2098.0, 2098.0, 2098.0, 2098.0, 2098.0, 2098.0, 2098.0, 2098.0, 2098.0, 2098.0, 2098.0, 2098.0, 2098.0, 2098.0, 2098.0, 2098.0, 2098.0, 2098.0, 2098.0, 2098.0, 2098.0, 2098.0, 2098.0, 2098.0, 2098.0, 2098.0, 2098.0, 2098.0, 2098.0, 2098.0, 2098.0, 2098.0, 2098.0, 2098.0, 2098.0, 2098.0, 2098.0, 2098.0, 2098.0, 2098.0, 2098.0, 2098.0, 2098.0, 2098.0, 2098.0, 2098.0, 2098.0, 2098.0, 2098.0, 2098.0, 2098.0, 2098.0, 2098.0, 2098.0, 2098.0, 2098.0, 2098.0, 2098.0]
    },
    "slices": {}
  }
}