{
  "AcquisitionMatrixPE": 80,
  "AcquisitionNumber": 1,
  "AcquisitionTime": "08:54:12.205000",
  "BandwidthPerPixelPhaseEncode": 48.077,
  "BaseResolution": 80,
  "BodyPartExamined": "BRAIN",
  "CoilCombinationMethod": "Sum of Squares",
  "ConsistencyInfo": "N4_VE11C_LATEST_20160120",
  "ConversionSoftware": "dcm2niix",
  "ConversionSoftwareVersion": "v1.0.20220720",
  "DerivedVendorReportedEchoSpacing": 0.000519999,
  "DeviceSerialNumber": "66112",
  "DwellTime": 2.7e-06,
  "EchoTime": 0.035,
  "EchoTrainLength": 39,
  "EffectiveEchoSpacing": 0.00026,
  "FlipAngle": 90,
  "HeudiconvVersion": "0.13.1",
  "ImageOrientationPatientDICOM": [0.988368, 0.151674, 0.0111088, -0.147889, 0.941533, 0.302727],
  "ImageOrientationText": "Tra>Cor(17.5)>Sag(-2.0)",
  "ImageType": [
    "ORIGINAL",
    "PRIMARY",
    "M",
    "ND",
    "NORM",
    "MOSAIC"
],
  "ImagingFrequency": 123.252,
  "InPlanePhaseEncodingDirectionDICOM": "COL",
  "InstitutionAddress": "Maynard 3,Hanover,NH,US,03755",
  "InstitutionName": "Dartmouth College - PBS",
  "InstitutionalDepartmentName": "Department",
  "MRAcquisitionType": "2D",
  "MagneticFieldStrength": 3,
  "Manufacturer": "Siemens",
  "ManufacturersModelName": "Prisma",
  "MatrixCoilMode": "GRAPPA",
  "Modality": "MR",
  "NonlinearGradientCorrection": false,
  "ParallelReductionFactorInPlane": 2,
  "PartialFourier": 1,
  "PatientPosition": "HFS",
  "PercentPhaseFOV": 100,
  "PercentSampling": 100,
  "PhaseEncodingDirection": "j-",
  "PhaseEncodingSteps": 79,
  "PhaseResolution": 1,
  "PixelBandwidth": 2315,
  "ProcedureStepDescription": "dbic^QA",
  "ProtocolName": "func-bold_task-rest_acq-p2",
  "PulseSequenceDetails": "%SiemensSeq%\\ep2d_bold",
  "ReceiveCoilActiveElements": "HEA;HEP",
  "ReceiveCoilName": "Head_32",
  "ReconMatrixPE": 80,
  "RefLinesPE": 24,
  "RepetitionTime": 2,
  "SAR": 0.0554807,
  "ScanOptions": "FS",
  "ScanningSequence": "EP",
  "SequenceName": "*epfid2d1_80",
  "SequenceVariant": "SK",
  "SeriesDescription": "func-bold_task-rest_acq-p2",
  "SeriesNumber": 5,
  "ShimSetting": [4145, -7693, -7508, 352, -31, -174, -53, 50],
  "SliceThickness": 3.5,
  "SliceTiming": [0.99, 0, 1.0575, 0.0675, 1.1225, 0.1325, 1.1875, 0.1975, 1.255, 0.265, 1.32, 0.33, 1.3875, 0.3975, 1.4525, 0.4625, 1.5175, 0.5275, 1.585, 0.595, 1.65, 0.66, 1.7175, 0.7275, 1.7825, 0.7925, 1.8475, 0.8575, 1.915, 0.925],
  "SoftwareVersions": "syngo MR E11",
  "SpacingBetweenSlices": 3.99,
  "StationName": "AWP66112",
  "TaskName": "rest",
  "TotalReadoutTime": 0.02054,
  "TxRefAmp": 237.643,
  "dcmmeta_affine": [
    [-2.965104579925537, -0.4436669945716858, -0.14147111773490906, 141.31155395507812],
    [-0.45502108335494995, 2.8246002197265625, 1.2003861665725708, -111.11251068115234],
    [0.033326406031847, -0.9081811308860779, 3.8025200366973877, -21.24129295349121],
    [0.0, 0.0, 0.0, 1.0]
],
  "dcmmeta_reorient_transform": [
    [0.0, -1.0, 0.0, 79.0],
    [1.0, 0.0, 0.0, 0.0],
    [0.0, 0.0, 1.0, 0.0],
    [0.0, 0.0, 0.0, 1.0]
],
  "dcmmeta_shape": [80, 80, 30, 200],
  "dcmmeta_slice_dim": 2,
  "dcmmeta_version": 0.6,
  "global": {
    "const": {
      "AccessionNumber": "qa",
      "AcquisitionMatrix": [80, 0, 0, 80],
      "AngioFlag": "N",
      "BitsAllocated": 16,
      "BitsStored": 12,
      "BodyPartExamined": "BRAIN",
      "Columns": 480,
      "EchoNumbers": 1,
      "EchoTime": 35.0,
      "EchoTrainLength": 39,
      "FlipAngle": 90.0,
      "HighBit": 11,
      "ImageOrientationPatient": [0.98836819309418, 0.15167369382246, 0.01110880200596, -0.1478890027272, 0.94153341970162, 0.30272704282458],
      "ImagePositionPatient": [-610.54938212691, -767.95517772183, -281.28910930338],
      "ImageType": [
        "ORIGINAL",
        "PRIMARY",
        "M",
        "ND",
        "NORM",
        "MOSAIC"
],
      "ImagedNucleus": "1H",
      "ImagingFrequency": 123.252487,
      "InPlanePhaseEncodingDirection": "COL",
      "MRAcquisitionType": "2D",
      "MagneticFieldStrength": 3.0,
      "Manufacturer": "SIEMENS",
      "ManufacturerModelName": "Prisma",
      "Modality": "MR",
      "NumberOfAverages": 1.0,
      "NumberOfPhaseEncodingSteps": 79,
      "PercentPhaseFieldOfView": 100.0,
      "PercentSampling": 100.0,
      "PerformedProcedureStepStartTime": "085230.912000",
      "PhotometricInterpretation": "MONOCHROME2",
      "PixelBandwidth": 2315.0,
      "PixelRepresentation": 0,
      "PixelSpacing": [3.0, 3.0],
      "ProtocolName": "func-bold_task-rest_acq-p2",
      "RepetitionTime": 2000.0,
      "Rows": 480,
      "SAR": 0.05548074084208,
      "SamplesPerPixel": 1,
      "ScanOptions": "FS",
      "ScanningSequence": "EP",
      "SequenceName": "*epfid2d1_80",
      "SequenceVariant": "SK",
      "SeriesDescription": "func-bold_task-rest_acq-p2",
      "SeriesNumber": 5,
      "SeriesTime": "085452.163000",
      "SliceLocation": -58.681670210256,
      "SliceThickness": 3.5,
      "SmallestImagePixelValue": 0,
      "SoftwareVersions": "syngo MR E11",
      "SpacingBetweenSlices": 3.9899999855997,
      "SpecificCharacterSet": "ISO_IR 100",
      "StudyID": "45",
      "StudyTime": "085230.832000",
      "TransmitCoilName": "Body",
      "VariableFlipAngleFlag": "N",
      "WindowCenterWidthExplanation": "Algo1",
      "dBdt": 0.0},
    "slices": {}
  },
  "time": {
    "samples": {
      "AcquisitionNumber": [1, 2, 3, 4, 5, 6, 7, 8, 9, 10, 11, 12, 13, 14, 15, 16, 17, 18, 19, 20, 21, 22, 23, 24, 25, 26, 27, 28, 29, 30, 31, 32, 33, 34, 35, 36, 37, 38, 39, 40, 41, 42, 43, 44, 45, 46, 47, 48, 49, 50, 51, 52, 53, 54, 55, 56, 57, 58, 59, 60, 61, 62, 63, 64, 65, 66, 67, 68, 69, 70, 71, 72, 73, 74, 75, 76, 77, 78, 79, 80, 81, 82, 83, 84, 85, 86, 87, 88, 89, 90, 91, 92, 93, 94, 95, 96, 97, 98, 99, 100, 101, 102, 103, 104, 105, 106, 107, 108, 109, 110, 111, 112, 113, 114, 115, 116, 117, 118, 119, 120, 121, 122, 123, 124, 125, 126, 127, 128, 129, 130, 131, 132, 133, 134, 135, 136, 137, 138, 139, 140, 141, 142, 143, 144, 145, 146, 147, 148, 149, 150, 151, 152, 153, 154, 155, 156, 157, 158, 159, 160, 161, 162, 163, 164, 165, 166, 167, 168, 169, 170, 171, 172, 173, 174, 175, 176, 177, 178, 179, 180, 181, 182, 183, 184, 185, 186, 187, 188, 189, 190, 191, 192, 193, 194, 195, 196, 197, 198, 199, 200],
      "AcquisitionTime": ["085412.205000", "085414.205000", "085416.205000", "085418.205000", "085420.205000", "085422.205000", "085424.205000", "085426.205000", "085428.205000", "085430.205000", "085432.205000", "085434.205000", "085436.205000", "085438.205000", "085440.205000", "085442.205000", "085444.205000", "085446.205000", "085448.205000", "085450.205000", "085452.205000", "085454.205000", "085456.205000", "085458.205000", "085500.205000", "085502.205000", "085504.205000", "085506.205000", "085508.205000", "085510.205000", "085512.205000", "085514.205000", "085516.205000", "085518.205000", "085520.205000", "085522.205000", "085524.205000", "085526.205000", "085528.205000", "085530.205000", "085532.205000", "085534.205000", "085536.205000", "085538.205000", "085540.205000", "085542.205000", "085544.205000", "085546.205000", "085548.205000", "085550.205000", "085552.205000", "085554.205000", "085556.205000", "085558.205000", "085600.205000", "085602.205000", "085604.205000", "085606.205000", "085608.205000", "085610.205000", "085612.205000", "085614.205000", "085616.205000", "085618.205000", "085620.205000", "085622.205000", "085624.205000", "085626.205000", "085628.205000", "085630.205000", "085632.205000", "085634.205000", "085636.205000", "085638.205000", "085640.205000", "085642.205000", "085644.205000", "085646.205000", "085648.205000", "085650.205000", "085652.205000", "085654.205000", "085656.205000", "085658.205000", "085700.205000", "085702.205000", "085704.205000", "085706.205000", "085708.205000", "085710.205000", "085712.205000", "085714.205000", "085716.205000", "085718.205000", "085720.205000", "085722.205000", "085724.205000", "085726.205000", "085728.205000", "085730.205000", "085732.205000", "085734.205000", "085736.205000", "085738.205000", "085740.205000", "085742.205000", "085744.205000", "085746.205000", "085748.205000", "085750.205000", "085752.205000", "085754.205000", "085756.205000", "085758.205000", "085800.205000", "085802.205000", "085804.205000", "085806.205000", "085808.205000", "085810.205000", "085812.205000", "085814.205000", "085816.205000", "085818.205000", "085820.205000", "085822.205000", "085824.205000", "085826.205000", "085828.205000", "085830.205000", "085832.205000", "085834.205000", "085836.205000", "085838.205000", "085840.205000", "085842.205000", "085844.205000", "085846.205000", "085848.205000", "085850.205000", "085852.205000", "085854.205000", "085856.205000", "085858.205000", "085900.205000", "085902.205000", "085904.205000", "085906.205000", "085908.205000", "085910.205000", "085912.205000", "085914.205000", "085916.205000", "085918.205000", "085920.205000", "085922.205000", "085924.205000", "085926.205000", "085928.205000", "085930.205000", "085932.205000", "085934.205000", "085936.205000", "085938.205000", "085940.205000", "085942.205000", "085944.205000", "085946.205000", "085948.205000", "085950.205000", "085952.205000", "085954.205000", "085956.205000", "085958.205000", "090000.205000", "090002.205000", "090004.205000", "090006.205000", "090008.205000", "090010.205000", "090012.205000", "090014.205000", "090016.205000", "090018.205000", "090020.205000", "090022.205000", "090024.205000", "090026.205000", "090028.205000", "090030.205000", "090032.205000", "090034.205000", "090036.205000", "090038.205000", "090040.205000", "090042.205000", "090044.205000", "090046.205000", "090048.205000", "090050.205000"],
      "ContentTime": ["085452.166000", "085452.169000", "085452.172000", "085452.175000", "085452.177000", "085452.179000", "085452.182000", "085452.185000", "085452.187000", "085452.190000", "085452.192000", "085452.195000", "085452.205000", "085452.207000", "085452.210000", "085452.212000", "085452.215000", "085452.217000", "085452.220000", "085452.222000", "085512.161000", "085512.164000", "085512.180000", "085512.182000", "085512.185000", "085512.187000", "085512.190000", "085512.192000", "085512.195000", "085512.197000", "085552.162000", "085552.164000", "085552.167000", "085552.169000", "085552.172000", "085552.174000", "085552.177000", "085552.179000", "085552.182000", "085552.190000", "085552.193000", "085552.195000", "085552.198000", "085552.200000", "085552.203000", "085552.205000", "085552.208000", "085552.210000", "085552.213000", "085552.215000", "085632.161000", "085632.164000", "085632.167000", "085632.169000", "085632.172000", "085632.174000", "085632.177000", "085632.179000", "085632.182000", "085632.184000", "085632.187000", "085632.189000", "085632.192000", "085632.195000", "085632.197000", "085632.205000", "085632.208000", "085632.210000", "085632.213000", "085632.215000", "085712.161000", "085712.164000", "085712.167000", "085712.169000", "085712.172000", "085712.174000", "085712.177000", "085712.179000", "085712.182000", "085712.184000", "085712.187000", "085712.189000", "085712.192000", "085712.194000", "085712.197000", "085712.199000", "085712.202000", "085712.205000", "085712.207000", "085712.209000", "085752.161000", "085752.164000", "085752.167000", "085752.169000", "085752.172000", "085752.174000", "085752.177000", "085752.179000", "085752.182000", "085752.184000", "085752.187000", "085752.189000", "085752.192000", "085752.195000", "085752.197000", "085752.200000", "085752.202000", "085752.205000", "085752.207000", "085752.210000", "085832.161000", "085832.164000", "085832.167000", "085832.169000", "085832.172000", "085832.174000", "085832.177000", "085832.179000", "085832.182000", "085832.184000", "085832.187000", "085832.189000", "085832.192000", "085832.195000", "085832.197000", "085832.200000", "085832.202000", "085832.205000", "085832.207000", "085832.210000", "085912.161000", "085912.164000", "085912.167000", "085912.169000", "085912.172000", "085912.174000", "085912.177000", "085912.179000", "085912.182000", "085912.184000", "085912.187000", "085912.189000", "085912.192000", "085912.194000", "085912.197000", "085912.199000", "085912.202000", "085912.204000", "085912.207000", "085912.209000", "085952.161000", "085952.164000", "085952.167000", "085952.169000", "085952.172000", "085952.174000", "085952.177000", "085952.179000", "085952.182000", "085952.184000", "085952.187000", "085952.189000", "085952.192000", "085952.195000", "085952.197000", "085952.200000", "085952.202000", "085952.205000", "085952.207000", "085952.210000", "090032.162000", "090032.164000", "090032.167000", "090032.170000", "090032.172000", "090032.175000", "090032.177000", "090032.180000", "090032.183000", "090032.185000", "090032.188000", "090032.190000", "090032.193000", "090032.195000", "090032.198000", "090032.200000", "090032.203000", "090032.205000", "090032.208000", "090032.210000", "090051.556000", "090051.559000", "090051.561000", "090051.564000", "090051.571000", "090051.574000", "090051.576000", "090051.579000", "090051.582000", "090051.586000"],
      "InstanceCreationTime": ["085452.166000", "085452.169000", "085452.172000", "085452.175000", "085452.177000", "085452.179000", "085452.182000", "085452.185000", "085452.187000", "085452.190000", "085452.192000", "085452.195000", "085452.205000", "085452.207000", "085452.210000", "085452.212000", "085452.215000", "085452.217000", "085452.220000", "085452.222000", "085512.161000", "085512.164000", "085512.180000", "085512.182000", "085512.185000", "085512.187000", "085512.190000", "085512.192000", "085512.195000", "085512.197000", "085552.162000", "085552.164000", "085552.167000", "085552.169000", "085552.172000", "085552.174000", "085552.177000", "085552.179000", "085552.182000", "085552.190000", "085552.193000", "085552.195000", "085552.198000", "085552.200000", "085552.203000", "085552.205000", "085552.208000", "085552.210000", "085552.213000", "085552.215000", "085632.161000", "085632.164000", "085632.167000", "085632.169000", "085632.172000", "085632.174000", "085632.177000", "085632.179000", "085632.182000", "085632.184000", "085632.187000", "085632.189000", "085632.192000", "085632.195000", "085632.197000", "085632.205000", "085632.208000", "085632.210000", "085632.213000", "085632.215000", "085712.161000", "085712.164000", "085712.167000", "085712.169000", "085712.172000", "085712.174000", "085712.177000", "085712.179000", "085712.182000", "085712.184000", "085712.187000", "085712.189000", "085712.192000", "085712.194000", "085712.197000", "085712.199000", "085712.202000", "085712.205000", "085712.207000", "085712.209000", "085752.161000", "085752.164000", "085752.167000", "085752.169000", "085752.172000", "085752.174000", "085752.177000", "085752.179000", "085752.182000", "085752.184000", "085752.187000", "085752.189000", "085752.192000", "085752.195000", "085752.197000", "085752.200000", "085752.202000", "085752.205000", "085752.207000", "085752.210000", "085832.161000", "085832.164000", "085832.167000", "085832.169000", "085832.172000", "085832.174000", "085832.177000", "085832.179000", "085832.182000", "085832.184000", "085832.187000", "085832.189000", "085832.192000", "085832.195000", "085832.197000", "085832.200000", "085832.202000", "085832.205000", "085832.207000", "085832.210000", "085912.161000", "085912.164000", "085912.167000", "085912.169000", "085912.172000", "085912.174000", "085912.177000", "085912.179000", "085912.182000", "085912.184000", "085912.187000", "085912.189000", "085912.192000", "085912.194000", "085912.197000", "085912.199000", "085912.202000", "085912.204000", "085912.207000", "085912.209000", "085952.161000", "085952.164000", "085952.167000", "085952.169000", "085952.172000", "085952.174000", "085952.177000", "085952.179000", "085952.182000", "085952.184000", "085952.187000", "085952.189000", "085952.192000", "085952.195000", "085952.197000", "085952.200000", "085952.202000", "085952.205000", "085952.207000", "085952.210000", "090032.162000", "090032.164000", "090032.167000", "090032.170000", "090032.172000", "090032.175000", "090032.177000", "090032.180000", "090032.183000", "090032.185000", "090032.188000", "090032.190000", "090032.193000", "090032.195000", "090032.198000", "090032.200000", "090032.203000", "090032.205000", "090032.208000", "090032.210000", "090051.556000", "090051.559000", "090051.561000", "090051.564000", "090051.571000", "090051.574000", "090051.576000", "090051.579000", "090051.582000", "090051.586000"],
      "InstanceNumber": [1, 2, 3, 4, 5, 6, 7, 8, 9, 10, 11, 12, 13, 14, 15, 16, 17, 18, 19, 20, 21, 22, 23, 24, 25, 26, 27, 28, 29, 30, 31, 32, 33, 34, 35, 36, 37, 38, 39, 40, 41, 42, 43, 44, 45, 46, 47, 48, 49, 50, 51, 52, 53, 54, 55, 56, 57, 58, 59, 60, 61, 62, 63, 64, 65, 66, 67, 68, 69, 70, 71, 72, 73, 74, 75, 76, 77, 78, 79, 80, 81, 82, 83, 84, 85, 86, 87, 88, 89, 90, 91, 92, 93, 94, 95, 96, 97, 98, 99, 100, 101, 102, 103, 104, 105, 106, 107, 108, 109, 110, 111, 112, 113, 114, 115, 116, 117, 118, 119, 120, 121, 122, 123, 124, 125, 126, 127, 128, 129, 130, 131, 132, 133, 134, 135, 136, 137, 138, 139, 140, 141, 142, 143, 144, 145, 146, 147, 148, 149, 150, 151, 152, 153, 154, 155, 156, 157, 158, 159, 160, 161, 162, 163, 164, 165, 166, 167, 168, 169, 170, 171, 172, 173, 174, 175, 176, 177, 178, 179, 180, 181, 182, 183, 184, 185, 186, 187, 188, 189, 190, 191, 192, 193, 194, 195, 196, 197, 198, 199, 200],
      "LargestImagePixelValue": [2140, 2126, 2131, 2141, 2135, 2129, 2137, 2134, 2130, 2134, 2138, 2130, 2135, 2135, 2130, 2126, 2134, 2130, 2142, 2122, 2129, 2132, 2135, 2138, 2136, 2122, 2127, 2127, 2133, 2125, 2132, 2127, 2127, 2127, 2123, 2121, 2121, 2132, 2126, 2117, 2121, 2135, 2130, 2128, 2126, 2128, 2126, 2122, 2124, 2125, 2125, 2128, 2120, 2128, 2125, 2122, 2131, 2130, 2127, 2128, 2120, 2120, 2120, 2128, 2127, 2122, 2125, 2127, 2117, 2127, 2128, 2126, 2120, 2123, 2126, 2130, 2131, 2123, 2127, 2122, 2113, 2122, 2118, 2114, 2124, 2117, 2125, 2125, 2117, 2124, 2122, 2110, 2121, 2122, 2123, 2123, 2121, 2112, 2128, 2121, 2122, 2119, 2126, 2117, 2127, 2116, 2117, 2121, 2122, 2119, 2122, 2125, 2119, 2121, 2130, 2111, 2123, 2121, 2121, 2124, 2116, 2123, 2128, 2120, 2118, 2126, 2123, 2115, 2113, 2120, 2117, 2122, 2121, 2125, 2119, 2124, 2119, 2124, 2125, 2119, 2117, 2118, 2114, 2127, 2123, 2121, 2124, 2119, 2116, 2118, 2123, 2118, 2114, 2125, 2118, 2115, 2121, 2120, 2122, 2118, 2118, 2120, 2122, 2117, 2120, 2122, 2121, 2119, 2120, 2120, 2121, 2120, 2120, 2118, 2121, 2119, 2117, 2122, 2117, 2115, 2122, 2118, 2113, 2118, 2121, 2117, 2118, 2122, 2117, 2119, 2116, 2118, 2115, 2119, 2115, 2112, 2118, 2120, 2121, 2124],
      "WindowCenter": [988.0, 988.0, 988.0, 988.0, 988.0, 988.0, 988.0, 988.0, 988.0, 988.0, 988.0, 988.0, 988.0, 988.0, 988.0, 988.0, 988.0, 988.0, 988.0, 988.0, 988.0, 988.0, 988.0, 988.0, 988.0, 988.0, 988.0, 988.0, 988.0, 988.0, 988.0, 988.0, 988.0, 988.0, 988.0, 988.0, 988.0, 988.0, 988.0, 988.0, 988.0, 988.0, 988.0, 988.0, 988.0, 988.0, 987.0, 988.0, 988.0, 988.0, 988.0, 988.0, 987.0, 988.0, 987.0, 988.0, 988.0, 987.0, 987.0, 987.0, 988.0, 987.0, 988.0, 988.0, 987.0, 987.0, 987.0, 988.0, 987.0, 987.0, 987.0, 987.0, 987.0, 988.0, 987.0, 987.0, 987.0, 987.0, 987.0, 987.0, 987.0, 987.0, 987.0, 987.0, 987.0, 988.0, 987.0, 987.0, 987.0, 987.0, 987.0, 987.0, 987.0, 987.0, 987.0, 987.0, 987.0, 987.0, 987.0, 987.0, 987.0, 987.0, 987.0, 987.0, 987.0, 987.0, 987.0, 987.0, 987.0, 988.0, 987.0, 987.0, 987.0, 987.0, 987.0, 987.0, 987.0, 987.0, 987.0, 987.0, 987.0, 987.0, 987.0, 987.0, 987.0, 987.0, 987.0, 987.0, 987.0, 987.0, 987.0, 987.0, 987.0, 987.0, 987.0, 987.0, 987.0, 987.0, 987.0, 987.0, 987.0, 988.0, 987.0, 987.0, 987.0, 987.0, 987.0, 987.0, 987.0, 987.0, 987.0, 987.0, 987.0, 987.0, 987.0, 987.0, 987.0, 987.0, 987.0, 987.0, 987.0, 987.0, 987.0, 987.0, 987.0, 989.0, 987.0, 987.0, 987.0, 987.0, 987.0, 987.0, 987.0, 987.0, 987.0, 988.0, 987.0, 987.0, 987.0, 988.0, 987.0, 987.0, 987.0, 987.0, 987.0, 987.0, 987.0, 987.0, 987.0, 987.0, 987.0, 987.0, 987.0, 987.0, 987.0, 987.0, 987.0, 987.0, 987.0, 987.0],
      "WindowWidth": [2160.0, 2159.0, 2159.0, 2159.0, 2159.0, 2159.0, 2159.0, 2159.0, 2159.0, 2159.0, 2159.0, 2158.0, 2159.0, 2159.0, 2159.0, 2159.0, 2158.0, 2159.0, 2159.0, 2158.0, 2158.0, 2159.0, 2159.0, 2159.0, 2159.0, 2159.0, 2158.0, 2158.0, 2159.0, 2159.0, 2159.0, 2158.0, 2158.0, 2158.0, 2158.0, 2158.0, 2158.0, 2158.0, 2159.0, 2158.0, 2158.0, 2158.0, 2158.0, 2158.0, 2158.0, 2158.0, 2158.0, 2158.0, 2158.0, 2158.0, 2158.0, 2158.0, 2158.0, 2158.0, 2158.0, 2158.0, 2158.0, 2158.0, 2158.0, 2158.0, 2158.0, 2158.0, 2158.0, 2159.0, 2158.0, 2158.0, 2158.0, 2159.0, 2158.0, 2158.0, 2158.0, 2158.0, 2158.0, 2159.0, 2158.0, 2158.0, 2158.0, 2158.0, 2158.0, 2158.0, 2158.0, 2158.0, 2158.0, 2157.0, 2157.0, 2158.0, 2158.0, 2157.0, 2157.0, 2157.0, 2158.0, 2157.0, 2157.0, 2157.0, 2157.0, 2157.0, 2157.0, 2157.0, 2157.0, 2158.0, 2157.0, 2157.0, 2157.0, 2158.0, 2157.0, 2157.0, 2157.0, 2158.0, 2157.0, 2158.0, 2157.0, 2157.0, 2157.0, 2157.0, 2157.0, 2157.0, 2157.0, 2157.0, 2157.0, 2157.0, 2157.0, 2158.0, 2157.0, 2157.0, 2157.0, 2157.0, 2157.0, 2157.0, 2157.0, 2157.0, 2158.0, 2157.0, 2157.0, 2157.0, 2157.0, 2157.0, 2157.0, 2157.0, 2156.0, 2157.0, 2157.0, 2158.0, 2157.0, 2157.0, 2157.0, 2157.0, 2157.0, 2157.0, 2157.0, 2157.0, 2157.0, 2156.0, 2156.0, 2157.0, 2157.0, 2156.0, 2156.0, 2157.0, 2157.0, 2157.0, 2157.0, 2157.0, 2156.0, 2157.0, 2157.0, 2158.0, 2157.0, 2156.0, 2156.0, 2156.0, 2156.0, 2156.0, 2156.0, 2156.0, 2157.0, 2157.0, 2157.0, 2156.0, 2156.0, 2157.0, 2156.0, 2156.0, 2157.0, 2157.0, 2156.0, 2156.0, 2156.0, 2156.0, 2156.0, 2156.0, 2156.0, 2156.0, 2156.0, 2156.0, 2156.0, 2156.0, 2156.0, 2156.0, 2156.0, 2156.0]
    },
    "slices": {}
  }
}