{
  "AcquisitionMatrixPE": 122,
  "AcquisitionNumber": 1,
  "AcquisitionTime": "13:09:49.480000",
  "BandwidthPerPixelPhaseEncode": 27.785,
  "BaseResolution": 122,
  "BodyPartExamined": "BRAIN",
  "CoilCombinationMethod": "Adaptive Combine",
  "ConsistencyInfo": "N4_VE11C_LATEST_20160120",
  "ConversionSoftware": "dcm2niix",
  "ConversionSoftwareVersion": "v1.0.20220720",
  "DerivedVendorReportedEchoSpacing": 0.000590011,
  "DeviceSerialNumber": "66112",
  "DiffusionScheme": "Monopolar",
  "DwellTime": 2e-06,
  "EchoTime": 0.068,
  "EchoTrainLength": 61,
  "EffectiveEchoSpacing": 0.000295005,
  "FlipAngle": 90,
  "HeudiconvVersion": "0.13.1",
  "ImageOrientationPatientDICOM": [0.977067, 0.212614, 0.0116096, -0.2059, 0.929504, 0.305985],
  "ImageOrientationText": "Tra>Cor(17.6)>Sag(-3.1)",
  "ImageType": [
    "ORIGINAL",
    "PRIMARY",
    "DIFFUSION",
    "NONE",
    "ND",
    "NORM"
],
  "ImagingFrequency": 123.252,
  "InPlanePhaseEncodingDirectionDICOM": "COL",
  "InstitutionAddress": "Maynard 3,Hanover,NH,US,03755",
  "InstitutionName": "Dartmouth College - PBS",
  "InstitutionalDepartmentName": "Department",
  "MRAcquisitionType": "2D",
  "MagneticFieldStrength": 3,
  "Manufacturer": "Siemens",
  "ManufacturersModelName": "Prisma",
  "Modality": "MR",
  "MultibandAccelerationFactor": 4,
  "NonlinearGradientCorrection": false,
  "ParallelReductionFactorInPlane": 2,
  "PartialFourier": 1,
  "PatientPosition": "HFS",
  "PercentPhaseFOV": 100,
  "PercentSampling": 100,
  "PhaseEncodingDirection": "j-",
  "PhaseEncodingSteps": 122,
  "PhaseResolution": 1,
  "PixelBandwidth": 2050,
  "ProcedureStepDescription": "dbic^QA",
  "ProtocolName": "dwi_acq-DTI-30-p2-s4",
  "PulseSequenceDetails": "%SiemensSeq%\\ep2d_diff",
  "ReceiveCoilActiveElements": "HEA;HEP",
  "ReceiveCoilName": "Head_32",
  "ReconMatrixPE": 122,
  "RefLinesPE": 38,
  "RepetitionTime": 3.6,
  "SAR": 0.16017,
  "ScanOptions": "FS",
  "ScanningSequence": "EP",
  "SequenceName": "*ep_b0",
  "SequenceVariant": "SK\\SP",
  "SeriesDescription": "dwi_acq-DTI-30-p2-s4",
  "SeriesNumber": 9,
  "ShimSetting": [4145, -7691, -7506, 310, -21, -164, -76, 44],
  "SliceThickness": 2,
  "SliceTiming": [2.58594, 0, 1.78906, 0.20312, 1.99219, 0.39844, 2.1875, 0.60156, 2.39062, 1, 2.78906, 1.19531, 2.98438, 1.39062, 3.1875, 1.59375, 3.38281, 0.79688, 2.58594, 0, 1.78906, 0.20312, 1.99219, 0.39844, 2.1875, 0.60156, 2.39062, 1, 2.78906, 1.19531, 2.98438, 1.39062, 3.1875, 1.59375, 3.38281, 0.79688, 2.58594, 0, 1.78906, 0.20312, 1.99219, 0.39844, 2.1875, 0.60156, 2.39062, 1, 2.78906, 1.19531, 2.98438, 1.39062, 3.1875, 1.59375, 3.38281, 0.79688, 2.58594, 0, 1.78906, 0.20312, 1.99219, 0.39844, 2.1875, 0.60156, 2.39062, 1, 2.78906, 1.19531, 2.98438, 1.39062, 3.1875, 1.59375, 3.38281, 0.79688],
  "SoftwareVersions": "syngo MR E11",
  "SpacingBetweenSlices": 2,
  "SpoilingState": true,
  "StationName": "AWP66112",
  "TotalReadoutTime": 0.0356956,
  "TxRefAmp": 234.145,
  "dcmmeta_affine": [
    [-1.9220994710922241, -0.4050498604774475, -0.10853111743927002, 147.95542907714844],
    [-0.41825801134109497, 1.8285332918167114, 0.6027164459228516, -101.71145629882812],
    [0.02283860556781292, -0.6019371151924133, 1.9039344787597656, -37.236854553222656],
    [0.0, 0.0, 0.0, 1.0]
],
  "dcmmeta_reorient_transform": [
    [0.0, -1.0, 0.0, 121.0],
    [1.0, 0.0, 0.0, 0.0],
    [0.0, 0.0, -1.0, 71.0],
    [0.0, 0.0, 0.0, 1.0]
],
  "dcmmeta_shape": [122, 122, 72, 31],
  "dcmmeta_slice_dim": 2,
  "dcmmeta_version": 0.6,
  "global": {
    "const": {
      "AccessionNumber": "qa",
      "AcquisitionMatrix": [122, 0, 0, 122],
      "AngioFlag": "N",
      "BitsAllocated": 16,
      "BitsStored": 12,
      "BodyPartExamined": "BRAIN",
      "Columns": 122,
      "EchoNumbers": 1,
      "EchoTime": 68.0,
      "EchoTrainLength": 61,
      "FlipAngle": 90.0,
      "HighBit": 11,
      "ImageOrientationPatient": [0.9770671926293, 0.21261448142341, 0.01160962430724, -0.2059003343961, 0.92950439186375, 0.30598470190775],
      "ImageType": [
        "ORIGINAL",
        "PRIMARY",
        "DIFFUSION",
        "NONE",
        "ND",
        "NORM"
],
      "ImagedNucleus": "1H",
      "ImagingFrequency": 123.25244,
      "InPlanePhaseEncodingDirection": "COL",
      "MRAcquisitionType": "2D",
      "MagneticFieldStrength": 3.0,
      "Manufacturer": "SIEMENS",
      "ManufacturerModelName": "Prisma",
      "Modality": "MR",
      "NumberOfAverages": 1.0,
      "NumberOfPhaseEncodingSteps": 122,
      "PercentPhaseFieldOfView": 100.0,
      "PercentSampling": 100.0,
      "PerformedProcedureStepStartTime": "115415.689000",
      "PhotometricInterpretation": "MONOCHROME2",
      "PixelBandwidth": 2050.0,
      "PixelRepresentation": 0,
      "PixelSpacing": [1.9672131538391, 1.9672131538391],
      "ProtocolName": "dwi_acq-DTI-30-p2-s4",
      "RepetitionTime": 3600.0,
      "Rows": 122,
      "SAR": 0.16017011373398,
      "SamplesPerPixel": 1,
      "ScanOptions": "FS",
      "ScanningSequence": "EP",
      "SequenceVariant": [
        "SK",
        "SP"
],
      "SeriesDescription": "dwi_acq-DTI-30-p2-s4",
      "SeriesNumber": 9,
      "SeriesTime": "130958.415000",
      "SliceThickness": 2.0,
      "SmallestImagePixelValue": 0,
      "SoftwareVersions": "syngo MR E11",
      "SpacingBetweenSlices": 2.0,
      "SpecificCharacterSet": "ISO_IR 100",
      "StudyID": "66",
      "StudyTime": "115415.627000",
      "TransmitCoilName": "Body",
      "VariableFlipAngleFlag": "N",
      "WindowCenterWidthExplanation": "Algo1",
      "dBdt": 0.0},
    "slices": {
      "AcquisitionTime": ["130949.480000", "130946.892500", "130948.682500", "130947.092500", "130948.882500", "130947.290000", "130949.080000", "130947.490000", "130949.280000", "130947.887500", "130949.677500", "130948.087500", "130949.877500", "130948.285000", "130950.075000", "130948.485000", "130950.275000", "130947.690000", "130949.480000", "130946.892500", "130948.682500", "130947.092500", "130948.882500", "130947.290000", "130949.080000", "130947.490000", "130949.280000", "130947.887500", "130949.677500", "130948.087500", "130949.877500", "130948.285000", "130950.075000", "130948.485000", "130950.275000", "130947.690000", "130949.480000", "130946.892500", "130948.682500", "130947.092500", "130948.882500", "130947.290000", "130949.080000", "130947.490000", "130949.280000", "130947.887500", "130949.677500", "130948.087500", "130949.877500", "130948.285000", "130950.075000", "130948.485000", "130950.275000", "130947.690000", "130949.480000", "130946.892500", "130948.682500", "130947.092500", "130948.882500", "130947.290000", "130949.080000", "130947.490000", "130949.280000", "130947.887500", "130949.677500", "130948.087500", "130949.877500", "130948.285000", "130950.075000", "130948.485000", "130950.275000", "130947.690000", "130953.080000", "130950.492500", "130952.282500", "130950.692500", "130952.482500", "130950.890000", "130952.680000", "130951.090000", "130952.880000", "130951.487500", "130953.277500", "130951.687500", "130953.477500", "130951.885000", "130953.675000", "130952.085000", "130953.875000", "130951.290000", "130953.080000", "130950.492500", "130952.282500", "130950.692500", "130952.482500", "130950.890000", "130952.680000", "130951.090000", "130952.880000", "130951.487500", "130953.277500", "130951.687500", "130953.477500", "130951.885000", "130953.675000", "130952.085000", "130953.875000", "130951.290000", "130953.080000", "130950.492500", "130952.282500", "130950.692500", "130952.482500", "130950.890000", "130952.680000", "130951.090000", "130952.880000", "130951.487500", "130953.277500", "130951.687500", "130953.477500", "130951.885000", "130953.675000", "130952.085000", "130953.875000", "130951.290000", "130953.080000", "130950.492500", "130952.282500", "130950.692500", "130952.482500", "130950.890000", "130952.680000", "130951.090000", "130952.880000", "130951.487500", "130953.277500", "130951.687500", "130953.477500", "130951.885000", "130953.675000", "130952.085000", "130953.875000", "130951.290000", "130956.680000", "130954.092500", "130955.882500", "130954.292500", "130956.082500", "130954.490000", "130956.280000", "130954.690000", "130956.480000", "130955.087500", "130956.877500", "130955.287500", "130957.077500", "130955.485000", "130957.275000", "130955.685000", "130957.475000", "130954.890000", "130956.680000", "130954.092500", "130955.882500", "130954.292500", "130956.082500", "130954.490000", "130956.280000", "130954.690000", "130956.480000", "130955.087500", "130956.877500", "130955.287500", "130957.077500", "130955.485000", "130957.275000", "130955.685000", "130957.475000", "130954.890000", "130956.680000", "130954.092500", "130955.882500", "130954.292500", "130956.082500", "130954.490000", "130956.280000", "130954.690000", "130956.480000", "130955.087500", "130956.877500", "130955.287500", "130957.077500", "130955.485000", "130957.275000", "130955.685000", "130957.475000", "130954.890000", "130956.680000", "130954.092500", "130955.882500", "130954.292500", "130956.082500", "130954.490000", "130956.280000", "130954.690000", "130956.480000", "130955.087500", "130956.877500", "130955.287500", "130957.077500", "130955.485000", "130957.275000", "130955.685000", "130957.475000", "130954.890000", "131000.280000", "130957.692500", "130959.482500", "130957.892500", "130959.682500", "130958.090000", "130959.880000", "130958.290000", "131000.080000", "130958.687500", "131000.477500", "130958.887500", "131000.677500", "130959.085000", "131000.875000", "130959.285000", "131001.075000", "130958.490000", "131000.280000", "130957.692500", "130959.482500", "130957.892500", "130959.682500", "130958.090000", "130959.880000", "130958.290000", "131000.080000", "130958.687500", "131000.477500", "130958.887500", "131000.677500", "130959.085000", "131000.875000", "130959.285000", "131001.075000", "130958.490000", "131000.280000", "130957.692500", "130959.482500", "130957.892500", "130959.682500", "130958.090000", "130959.880000", "130958.290000", "131000.080000", "130958.687500", "131000.477500", "130958.887500", "131000.677500", "130959.085000", "131000.875000", "130959.285000", "131001.075000", "130958.490000", "131000.280000", "130957.692500", "130959.482500", "130957.892500", "130959.682500", "130958.090000", "130959.880000", "130958.290000", "131000.080000", "130958.687500", "131000.477500", "130958.887500", "131000.677500", "130959.085000", "131000.875000", "130959.285000", "131001.075000", "130958.490000", "131003.880000", "131001.292500", "131003.082500", "131001.492500", "131003.282500", "131001.690000", "131003.480000", "131001.890000", "131003.680000", "131002.287500", "131004.077500", "131002.487500", "131004.277500", "131002.685000", "131004.475000", "131002.885000", "131004.675000", "131002.090000", "131003.880000", "131001.292500", "131003.082500", "131001.492500", "131003.282500", "131001.690000", "131003.480000", "131001.890000", "131003.680000", "131002.287500", "131004.077500", "131002.487500", "131004.277500", "131002.685000", "131004.475000", "131002.885000", "131004.675000", "131002.090000", "131003.880000", "131001.292500", "131003.082500", "131001.492500", "131003.282500", "131001.690000", "131003.480000", "131001.890000", "131003.680000", "131002.287500", "131004.077500", "131002.487500", "131004.277500", "131002.685000", "131004.475000", "131002.885000", "131004.675000", "131002.090000", "131003.880000", "131001.292500", "131003.082500", "131001.492500", "131003.282500", "131001.690000", "131003.480000", "131001.890000", "131003.680000", "131002.287500", "131004.077500", "131002.487500", "131004.277500", "131002.685000", "131004.475000", "131002.885000", "131004.675000", "131002.090000", "131007.480000", "131004.892500", "131006.682500", "131005.092500", "131006.882500", "131005.290000", "131007.080000", "131005.490000", "131007.280000", "131005.887500", "131007.677500", "131006.087500", "131007.877500", "131006.285000", "131008.075000", "131006.485000", "131008.275000", "131005.690000", "131007.480000", "131004.892500", "131006.682500", "131005.092500", "131006.882500", "131005.290000", "131007.080000", "131005.490000", "131007.280000", "131005.887500", "131007.677500", "131006.087500", "131007.877500", "131006.285000", "131008.075000", "131006.485000", "131008.275000", "131005.690000", "131007.480000", "131004.892500", "131006.682500", "131005.092500", "131006.882500", "131005.290000", "131007.080000", "131005.490000", "131007.280000", "131005.887500", "131007.677500", "131006.087500", "131007.877500", "131006.285000", "131008.075000", "131006.485000", "131008.275000", "131005.690000", "131007.480000", "131004.892500", "131006.682500", "131005.092500", "131006.882500", "131005.290000", "131007.080000", "131005.490000", "131007.280000", "131005.887500", "131007.677500", "131006.087500", "131007.877500", "131006.285000", "131008.075000", "131006.485000", "131008.275000", "131005.690000", "131011.080000", "131008.492500", "131010.282500", "131008.692500", "131010.482500", "131008.890000", "131010.680000", "131009.090000", "131010.880000", "131009.487500", "131011.277500", "131009.687500", "131011.477500", "131009.885000", "131011.675000", "131010.085000", "131011.875000", "131009.290000", "131011.080000", "131008.492500", "131010.282500", "131008.692500", "131010.482500", "131008.890000", "131010.680000", "131009.090000", "131010.880000", "131009.487500", "131011.277500", "131009.687500", "131011.477500", "131009.885000", "131011.675000", "131010.085000", "131011.875000", "131009.290000", "131011.080000", "131008.492500", "131010.282500", "131008.692500", "131010.482500", "131008.890000", "131010.680000", "131009.090000", "131010.880000", "131009.487500", "131011.277500", "131009.687500", "131011.477500", "131009.885000", "131011.675000", "131010.085000", "131011.875000", "131009.290000", "131011.080000", "131008.492500", "131010.282500", "131008.692500", "131010.482500", "131008.890000", "131010.680000", "131009.090000", "131010.880000", "131009.487500", "131011.277500", "131009.687500", "131011.477500", "131009.885000", "131011.675000", "131010.085000", "131011.875000", "131009.290000", "131014.680000", "131012.092500", "131013.882500", "131012.292500", "131014.082500", "131012.490000", "131014.280000", "131012.690000", "131014.480000", "131013.087500", "131014.877500", "131013.287500", "131015.077500", "131013.485000", "131015.275000", "131013.685000", "131015.475000", "131012.890000", "131014.680000", "131012.092500", "131013.882500", "131012.292500", "131014.082500", "131012.490000", "131014.280000", "131012.690000", "131014.480000", "131013.087500", "131014.877500", "131013.287500", "131015.077500", "131013.485000", "131015.275000", "131013.685000", "131015.475000", "131012.890000", "131014.680000", "131012.092500", "131013.882500", "131012.292500", "131014.082500", "131012.490000", "131014.280000", "131012.690000", "131014.480000", "131013.087500", "131014.877500", "131013.287500", "131015.077500", "131013.485000", "131015.275000", "131013.685000", "131015.475000", "131012.890000", "131014.680000", "131012.092500", "131013.882500", "131012.292500", "131014.082500", "131012.490000", "131014.280000", "131012.690000", "131014.480000", "131013.087500", "131014.877500", "131013.287500", "131015.077500", "131013.485000", "131015.275000", "131013.685000", "131015.475000", "131012.890000", "131018.280000", "131015.692500", "131017.482500", "131015.892500", "131017.682500", "131016.090000", "131017.880000", "131016.290000", "131018.080000", "131016.687500", "131018.477500", "131016.887500", "131018.677500", "131017.085000", "131018.875000", "131017.285000", "131019.075000", "131016.490000", "131018.280000", "131015.692500", "131017.482500", "131015.892500", "131017.682500", "131016.090000", "131017.880000", "131016.290000", "131018.080000", "131016.687500", "131018.477500", "131016.887500", "131018.677500", "131017.085000", "131018.875000", "131017.285000", "131019.075000", "131016.490000", "131018.280000", "131015.692500", "131017.482500", "131015.892500", "131017.682500", "131016.090000", "131017.880000", "131016.290000", "131018.080000", "131016.687500", "131018.477500", "131016.887500", "131018.677500", "131017.085000", "131018.875000", "131017.285000", "131019.075000", "131016.490000", "131018.280000", "131015.692500", "131017.482500", "131015.892500", "131017.682500", "131016.090000", "131017.880000", "131016.290000", "131018.080000", "131016.687500", "131018.477500", "131016.887500", "131018.677500", "131017.085000", "131018.875000", "131017.285000", "131019.075000", "131016.490000", "131021.880000", "131019.292500", "131021.082500", "131019.492500", "131021.282500", "131019.690000", "131021.480000", "131019.890000", "131021.680000", "131020.287500", "131022.077500", "131020.487500", "131022.277500", "131020.685000", "131022.475000", "131020.885000", "131022.675000", "131020.090000", "131021.880000", "131019.292500", "131021.082500", "131019.492500", "131021.282500", "131019.690000", "131021.480000", "131019.890000", "131021.680000", "131020.287500", "131022.077500", "131020.487500", "131022.277500", "131020.685000", "131022.475000", "131020.885000", "131022.675000", "131020.090000", "131021.880000", "131019.292500", "131021.082500", "131019.492500", "131021.282500", "131019.690000", "131021.480000", "131019.890000", "131021.680000", "131020.287500", "131022.077500", "131020.487500", "131022.277500", "131020.685000", "131022.475000", "131020.885000", "131022.675000", "131020.090000", "131021.880000", "131019.292500", "131021.082500", "131019.492500", "131021.282500", "131019.690000", "131021.480000", "131019.890000", "131021.680000", "131020.287500", "131022.077500", "131020.487500", "131022.277500", "131020.685000", "131022.475000", "131020.885000", "131022.675000", "131020.090000", "131025.480000", "131022.892500", "131024.682500", "131023.092500", "131024.882500", "131023.290000", "131025.080000", "131023.490000", "131025.280000", "131023.887500", "131025.677500", "131024.087500", "131025.877500", "131024.285000", "131026.075000", "131024.485000", "131026.275000", "131023.690000", "131025.480000", "131022.892500", "131024.682500", "131023.092500", "131024.882500", "131023.290000", "131025.080000", "131023.490000", "131025.280000", "131023.887500", "131025.677500", "131024.087500", "131025.877500", "131024.285000", "131026.075000", "131024.485000", "131026.275000", "131023.690000", "131025.480000", "131022.892500", "131024.682500", "131023.092500", "131024.882500", "131023.290000", "131025.080000", "131023.490000", "131025.280000", "131023.887500", "131025.677500", "131024.087500", "131025.877500", "131024.285000", "131026.075000", "131024.485000", "131026.275000", "131023.690000", "131025.480000", "131022.892500", "131024.682500", "131023.092500", "131024.882500", "131023.290000", "131025.080000", "131023.490000", "131025.280000", "131023.887500", "131025.677500", "131024.087500", "131025.877500", "131024.285000", "131026.075000", "131024.485000", "131026.275000", "131023.690000", "131029.080000", "131026.492500", "131028.282500", "131026.692500", "131028.482500", "131026.890000", "131028.680000", "131027.090000", "131028.880000", "131027.487500", "131029.277500", "131027.687500", "131029.477500", "131027.885000", "131029.675000", "131028.085000", "131029.875000", "131027.290000", "131029.080000", "131026.492500", "131028.282500", "131026.692500", "131028.482500", "131026.890000", "131028.680000", "131027.090000", "131028.880000", "131027.487500", "131029.277500", "131027.687500", "131029.477500", "131027.885000", "131029.675000", "131028.085000", "131029.875000", "131027.290000", "131029.080000", "131026.492500", "131028.282500", "131026.692500", "131028.482500", "131026.890000", "131028.680000", "131027.090000", "131028.880000", "131027.487500", "131029.277500", "131027.687500", "131029.477500", "131027.885000", "131029.675000", "131028.085000", "131029.875000", "131027.290000", "131029.080000", "131026.492500", "131028.282500", "131026.692500", "131028.482500", "131026.890000", "131028.680000", "131027.090000", "131028.880000", "131027.487500", "131029.277500", "131027.687500", "131029.477500", "131027.885000", "131029.675000", "131028.085000", "131029.875000", "131027.290000", "131032.680000", "131030.092500", "131031.882500", "131030.292500", "131032.082500", "131030.490000", "131032.280000", "131030.690000", "131032.480000", "131031.087500", "131032.877500", "131031.287500", "131033.077500", "131031.485000", "131033.275000", "131031.685000", "131033.475000", "131030.890000", "131032.680000", "131030.092500", "131031.882500", "131030.292500", "131032.082500", "131030.490000", "131032.280000", "131030.690000", "131032.480000", "131031.087500", "131032.877500", "131031.287500", "131033.077500", "131031.485000", "131033.275000", "131031.685000", "131033.475000", "131030.890000", "131032.680000", "131030.092500", "131031.882500", "131030.292500", "131032.082500", "131030.490000", "131032.280000", "131030.690000", "131032.480000", "131031.087500", "131032.877500", "131031.287500", "131033.077500", "131031.485000", "131033.275000", "131031.685000", "131033.475000", "131030.890000", "131032.680000", "131030.092500", "131031.882500", "131030.292500", "131032.082500", "131030.490000", "131032.280000", "131030.690000", "131032.480000", "131031.087500", "131032.877500", "131031.287500", "131033.077500", "131031.485000", "131033.275000", "131031.685000", "131033.475000", "131030.890000", "131036.280000", "131033.692500", "131035.482500", "131033.892500", "131035.682500", "131034.090000", "131035.880000", "131034.290000", "131036.080000", "131034.687500", "131036.477500", "131034.887500", "131036.677500", "131035.085000", "131036.875000", "131035.285000", "131037.075000", "131034.490000", "131036.280000", "131033.692500", "131035.482500", "131033.892500", "131035.682500", "131034.090000", "131035.880000", "131034.290000", "131036.080000", "131034.687500", "131036.477500", "131034.887500", "131036.677500", "131035.085000", "131036.875000", "131035.285000", "131037.075000", "131034.490000", "131036.280000", "131033.692500", "131035.482500", "131033.892500", "131035.682500", "131034.090000", "131035.880000", "131034.290000", "131036.080000", "131034.687500", "131036.477500", "131034.887500", "131036.677500", "131035.085000", "131036.875000", "131035.285000", "131037.075000", "131034.490000", "131036.280000", "131033.692500", "131035.482500", "131033.892500", "131035.682500", "131034.090000", "131035.880000", "131034.290000", "131036.080000", "131034.687500", "131036.477500", "131034.887500", "131036.677500", "131035.085000", "131036.875000", "131035.285000", "131037.075000", "131034.490000", "131039.880000", "131037.292500", "131039.082500", "131037.492500", "131039.282500", "131037.690000", "131039.480000", "131037.890000", "131039.680000", "131038.287500", "131040.077500", "131038.487500", "131040.277500", "131038.685000", "131040.475000", "131038.885000", "131040.675000", "131038.090000", "131039.880000", "131037.292500", "131039.082500", "131037.492500", "131039.282500", "131037.690000", "131039.480000", "131037.890000", "131039.680000", "131038.287500", "131040.077500", "131038.487500", "131040.277500", "131038.685000", "131040.475000", "131038.885000", "131040.675000", "131038.090000", "131039.880000", "131037.292500", "131039.082500", "131037.492500", "131039.282500", "131037.690000", "131039.480000", "131037.890000", "131039.680000", "131038.287500", "131040.077500", "131038.487500", "131040.277500", "131038.685000", "131040.475000", "131038.885000", "131040.675000", "131038.090000", "131039.880000", "131037.292500", "131039.082500", "131037.492500", "131039.282500", "131037.690000", "131039.480000", "131037.890000", "131039.680000", "131038.287500", "131040.077500", "131038.487500", "131040.277500", "131038.685000", "131040.475000", "131038.885000", "131040.675000", "131038.090000", "131043.480000", "131040.892500", "131042.682500", "131041.092500", "131042.882500", "131041.290000", "131043.080000", "131041.490000", "131043.280000", "131041.887500", "131043.677500", "131042.087500", "131043.877500", "131042.285000", "131044.075000", "131042.485000", "131044.275000", "131041.690000", "131043.480000", "131040.892500", "131042.682500", "131041.092500", "131042.882500", "131041.290000", "131043.080000", "131041.490000", "131043.280000", "131041.887500", "131043.677500", "131042.087500", "131043.877500", "131042.285000", "131044.075000", "131042.485000", "131044.275000", "131041.690000", "131043.480000", "131040.892500", "131042.682500", "131041.092500", "131042.882500", "131041.290000", "131043.080000", "131041.490000", "131043.280000", "131041.887500", "131043.677500", "131042.087500", "131043.877500", "131042.285000", "131044.075000", "131042.485000", "131044.275000", "131041.690000", "131043.480000", "131040.892500", "131042.682500", "131041.092500", "131042.882500", "131041.290000", "131043.080000", "131041.490000", "131043.280000", "131041.887500", "131043.677500", "131042.087500", "131043.877500", "131042.285000", "131044.075000", "131042.485000", "131044.275000", "131041.690000", "131047.080000", "131044.492500", "131046.282500", "131044.692500", "131046.482500", "131044.890000", "131046.680000", "131045.090000", "131046.880000", "131045.487500", "131047.277500", "131045.687500", "131047.477500", "131045.885000", "131047.675000", "131046.085000", "131047.875000", "131045.290000", "131047.080000", "131044.492500", "131046.282500", "131044.692500", "131046.482500", "131044.890000", "131046.680000", "131045.090000", "131046.880000", "131045.487500", "131047.277500", "131045.687500", "131047.477500", "131045.885000", "131047.675000", "131046.085000", "131047.875000", "131045.290000", "131047.080000", "131044.492500", "131046.282500", "131044.692500", "131046.482500", "131044.890000", "131046.680000", "131045.090000", "131046.880000", "131045.487500", "131047.277500", "131045.687500", "131047.477500", "131045.885000", "131047.675000", "131046.085000", "131047.875000", "131045.290000", "131047.080000", "131044.492500", "131046.282500", "131044.692500", "131046.482500", "131044.890000", "131046.680000", "131045.090000", "131046.880000", "131045.487500", "131047.277500", "131045.687500", "131047.477500", "131045.885000", "131047.675000", "131046.085000", "131047.875000", "131045.290000", "131050.680000", "131048.092500", "131049.882500", "131048.292500", "131050.082500", "131048.490000", "131050.280000", "131048.690000", "131050.480000", "131049.087500", "131050.877500", "131049.287500", "131051.077500", "131049.485000", "131051.275000", "131049.685000", "131051.475000", "131048.890000", "131050.680000", "131048.092500", "131049.882500", "131048.292500", "131050.082500", "131048.490000", "131050.280000", "131048.690000", "131050.480000", "131049.087500", "131050.877500", "131049.287500", "131051.077500", "131049.485000", "131051.275000", "131049.685000", "131051.475000", "131048.890000", "131050.680000", "131048.092500", "131049.882500", "131048.292500", "131050.082500", "131048.490000", "131050.280000", "131048.690000", "131050.480000", "131049.087500", "131050.877500", "131049.287500", "131051.077500", "131049.485000", "131051.275000", "131049.685000", "131051.475000", "131048.890000", "131050.680000", "131048.092500", "131049.882500", "131048.292500", "131050.082500", "131048.490000", "131050.280000", "131048.690000", "131050.480000", "131049.087500", "131050.877500", "131049.287500", "131051.077500", "131049.485000", "131051.275000", "131049.685000", "131051.475000", "131048.890000", "131054.280000", "131051.692500", "131053.482500", "131051.892500", "131053.682500", "131052.090000", "131053.880000", "131052.290000", "131054.080000", "131052.687500", "131054.477500", "131052.887500", "131054.677500", "131053.085000", "131054.875000", "131053.285000", "131055.075000", "131052.490000", "131054.280000", "131051.692500", "131053.482500", "131051.892500", "131053.682500", "131052.090000", "131053.880000", "131052.290000", "131054.080000", "131052.687500", "131054.477500", "131052.887500", "131054.677500", "131053.085000", "131054.875000", "131053.285000", "131055.075000", "131052.490000", "131054.280000", "131051.692500", "131053.482500", "131051.892500", "131053.682500", "131052.090000", "131053.880000", "131052.290000", "131054.080000", "131052.687500", "131054.477500", "131052.887500", "131054.677500", "131053.085000", "131054.875000", "131053.285000", "131055.075000", "131052.490000", "131054.280000", "131051.692500", "131053.482500", "131051.892500", "131053.682500", "131052.090000", "131053.880000", "131052.290000", "131054.080000", "131052.687500", "131054.477500", "131052.887500", "131054.677500", "131053.085000", "131054.875000", "131053.285000", "131055.075000", "131052.490000", "131057.880000", "131055.292500", "131057.082500", "131055.492500", "131057.282500", "131055.690000", "131057.480000", "131055.890000", "131057.680000", "131056.287500", "131058.077500", "131056.487500", "131058.277500", "131056.685000", "131058.475000", "131056.885000", "131058.675000", "131056.090000", "131057.880000", "131055.292500", "131057.082500", "131055.492500", "131057.282500", "131055.690000", "131057.480000", "131055.890000", "131057.680000", "131056.287500", "131058.077500", "131056.487500", "131058.277500", "131056.685000", "131058.475000", "131056.885000", "131058.675000", "131056.090000", "131057.880000", "131055.292500", "131057.082500", "131055.492500", "131057.282500", "131055.690000", "131057.480000", "131055.890000", "131057.680000", "131056.287500", "131058.077500", "131056.487500", "131058.277500", "131056.685000", "131058.475000", "131056.885000", "131058.675000", "131056.090000", "131057.880000", "131055.292500", "131057.082500", "131055.492500", "131057.282500", "131055.690000", "131057.480000", "131055.890000", "131057.680000", "131056.287500", "131058.077500", "131056.487500", "131058.277500",