{
  "AcquisitionMatrixPE": 122,
  "AcquisitionNumber": 1,
  "AcquisitionTime": "13:05:27.587500",
  "BandwidthPerPixelPhaseEncode": 28.76,
  "BaseResolution": 122,
  "BodyPartExamined": "BRAIN",
  "CoilCombinationMethod": "Adaptive Combine",
  "ConsistencyInfo": "N4_VE11C_LATEST_20160120",
  "ConversionSoftware": "dcm2niix",
  "ConversionSoftwareVersion": "v1.0.20220720",
  "DerivedVendorReportedEchoSpacing": 0.000570008,
  "DeviceSerialNumber": "66112",
  "DiffusionScheme": "Monopolar",
  "DwellTime": 2e-06,
  "EchoTime": 0.075,
  "EchoTrainLength": 61,
  "EffectiveEchoSpacing": 0.000285004,
  "FlipAngle": 90,
  "HeudiconvVersion": "0.13.1",
  "ImageOrientationPatientDICOM": [0.977067, 0.212614, 0.0116096, -0.2059, 0.929504, 0.305985],
  "ImageOrientationText": "Tra>Cor(17.6)>Sag(-3.1)",
  "ImageType": [
    "ORIGINAL",
    "PRIMARY",
    "DIFFUSION",
    "NONE",
    "ND",
    "NORM"
],
  "ImagingFrequency": 123.252,
  "InPlanePhaseEncodingDirectionDICOM": "COL",
  "InstitutionAddress": "Maynard 3,Hanover,NH,US,03755",
  "InstitutionName": "Dartmouth College - PBS",
  "InstitutionalDepartmentName": "Department",
  "MRAcquisitionType": "2D",
  "MagneticFieldStrength": 3,
  "Manufacturer": "Siemens",
  "ManufacturersModelName": "Prisma",
  "MatrixCoilMode": "GRAPPA",
  "Modality": "MR",
  "NonlinearGradientCorrection": false,
  "ParallelReductionFactorInPlane": 2,
  "PartialFourier": 1,
  "PatientPosition": "HFS",
  "PercentPhaseFOV": 100,
  "PercentSampling": 100,
  "PhaseEncodingDirection": "j-",
  "PhaseEncodingSteps": 122,
  "PhaseResolution": 1,
  "PixelBandwidth": 2050,
  "ProcedureStepDescription": "dbic^QA",
  "ProtocolName": "dwi_acq-DTI-30-p2",
  "PulseSequenceDetails": "%SiemensSeq%\\ep2d_diff",
  "ReceiveCoilActiveElements": "HEA;HEP",
  "ReceiveCoilName": "Head_32",
  "ReconMatrixPE": 122,
  "RefLinesPE": 38,
  "RepetitionTime": 7.7,
  "SAR": 0.101519,
  "ScanOptions": "FS",
  "ScanningSequence": "EP",
  "SequenceName": "*ep_b0",
  "SequenceVariant": "SK\\SP",
  "SeriesDescription": "dwi_acq-DTI-30-p2",
  "SeriesNumber": 8,
  "ShimSetting": [4145, -7690, -7506, 312, -20, -165, -76, 44],
  "SliceThickness": 2,
  "SliceTiming": [3.83594, 0, 3.94531, 0.10938, 4.05469, 0.21875, 4.16406, 0.32812, 4.28125, 0.4375, 4.39062, 0.54688, 4.5, 0.65625, 4.60938, 0.76562, 4.71875, 0.875, 4.82812, 0.98438, 4.9375, 1.09375, 5.04688, 1.20312, 5.15625, 1.3125, 5.26562, 1.42188, 5.375, 1.53125, 5.48438, 1.64844, 5.59375, 1.75781, 5.70312, 1.86719, 5.8125, 1.96875, 5.92188, 2.08594, 6.03125, 2.19531, 6.14062, 2.30469, 6.25, 2.41406, 6.35938, 2.52344, 6.46875, 2.63281, 6.58594, 2.74219, 6.6875, 2.85156, 6.79688, 2.96094, 6.90625, 3.07031, 7.02344, 3.17969, 7.13281, 3.28906, 7.24219, 3.39844, 7.35156, 3.50781, 7.46094, 3.61719, 7.57031, 3.72656],
  "SoftwareVersions": "syngo MR E11",
  "SpacingBetweenSlices": 2,
  "SpoilingState": true,
  "StationName": "AWP66112",
  "TotalReadoutTime": 0.0344855,
  "TxRefAmp": 234.145,
  "dcmmeta_affine": [
    [-1.9220994710922241, -0.4050498604774475, -0.10853123664855957, 147.84690856933594],
    [-0.41825801134109497, 1.8285332918167114, 0.6027164459228516, -101.1087417602539],
    [0.02283860556781292, -0.6019371151924133, 1.9039306640625, -35.33265686035156],
    [0.0, 0.0, 0.0, 1.0]
],
  "dcmmeta_reorient_transform": [
    [0.0, -1.0, 0.0, 121.0],
    [1.0, 0.0, 0.0, 0.0],
    [0.0, 0.0, -1.0, 69.0],
    [0.0, 0.0, 0.0, 1.0]
],
  "dcmmeta_shape": [122, 122, 70, 31],
  "dcmmeta_slice_dim": 2,
  "dcmmeta_version": 0.6,
  "global": {
    "const": {
      "AccessionNumber": "qa",
      "AcquisitionMatrix": [122, 0, 0, 122],
      "AngioFlag": "N",
      "BitsAllocated": 16,
      "BitsStored": 12,
      "BodyPartExamined": "BRAIN",
      "Columns": 122,
      "EchoNumbers": 1,
      "EchoTime": 75.0,
      "EchoTrainLength": 61,
      "FlipAngle": 90.0,
      "HighBit": 11,
      "ImageOrientationPatient": [0.9770671926293, 0.21261448142341, 0.01160962430724, -0.2059003343961, 0.92950439186375, 0.30598470190775],
      "ImageType": [
        "ORIGINAL",
        "PRIMARY",
        "DIFFUSION",
        "NONE",
        "ND",
        "NORM"
],
      "ImagedNucleus": "1H",
      "ImagingFrequency": 123.252435,
      "InPlanePhaseEncodingDirection": "COL",
      "MRAcquisitionType": "2D",
      "MagneticFieldStrength": 3.0,
      "Manufacturer": "SIEMENS",
      "ManufacturerModelName": "Prisma",
      "Modality": "MR",
      "NumberOfAverages": 1.0,
      "NumberOfPhaseEncodingSteps": 122,
      "PercentPhaseFieldOfView": 100.0,
      "PercentSampling": 100.0,
      "PerformedProcedureStepStartTime": "115415.689000",
      "PhotometricInterpretation": "MONOCHROME2",
      "PixelBandwidth": 2050.0,
      "PixelRepresentation": 0,
      "PixelSpacing": [1.9672131538391, 1.9672131538391],
      "ProtocolName": "dwi_acq-DTI-30-p2",
      "RepetitionTime": 7700.0,
      "Rows": 122,
      "SAR": 0.10151917255277,
      "SamplesPerPixel": 1,
      "ScanOptions": "FS",
      "ScanningSequence": "EP",
      "SequenceVariant": [
        "SK",
        "SP"
],
      "SeriesDescription": "dwi_acq-DTI-30-p2",
      "SeriesNumber": 8,
      "SeriesTime": "130538.989000",
      "SliceThickness": 2.0,
      "SmallestImagePixelValue": 0,
      "SoftwareVersions": "syngo MR E11",
      "SpacingBetweenSlices": 2.0,
      "SpecificCharacterSet": "ISO_IR 100",
      "StudyID": "66",
      "StudyTime": "115415.627000",
      "TransmitCoilName": "Body",
      "VariableFlipAngleFlag": "N",
      "WindowCenterWidthExplanation": "Algo1",
      "dBdt": 0.0},
    "slices": {
      "AcquisitionTime": ["130527.587500", "130523.750000", "130527.697500", "130523.857500", "130527.807500", "130523.967500", "130527.917500", "130524.077500", "130528.027500", "130524.187500", "130528.137500", "130524.297500", "130528.247500", "130524.407500", "130528.357500", "130524.517500", "130528.467500", "130524.627500", "130528.575000", "130524.735000", "130528.685000", "130524.845000", "130528.795000", "130524.955000", "130528.905000", "130525.065000", "130529.015000", "130525.175000", "130529.125000", "130525.285000", "130529.235000", "130525.395000", "130529.345000", "130525.505000", "130529.452500", "130525.615000", "130529.562500", "130525.722500", "130529.672500", "130525.832500", "130529.782500", "130525.942500", "130529.892500", "130526.052500", "130530.002500", "130526.162500", "130530.112500", "130526.272500", "130530.222500", "130526.382500", "130530.332500", "130526.492500", "130530.440000", "130526.602500", "130530.550000", "130526.710000", "130530.660000", "130526.820000", "130530.770000", "130526.930000", "130530.880000", "130527.040000", "130530.990000", "130527.150000", "130531.100000", "130527.260000", "130531.210000", "130527.370000", "130531.320000", "130527.480000", "130535.287500", "130531.450000", "130535.397500", "130531.557500", "130535.507500", "130531.667500", "130535.617500", "130531.777500", "130535.727500", "130531.887500", "130535.837500", "130531.997500", "130535.947500", "130532.107500", "130536.057500", "130532.217500", "130536.167500", "130532.327500", "130536.275000", "130532.435000", "130536.385000", "130532.545000", "130536.495000", "130532.655000", "130536.605000", "130532.765000", "130536.715000", "130532.875000", "130536.825000", "130532.985000", "130536.935000", "130533.095000", "130537.045000", "130533.205000", "130537.152500", "130533.315000", "130537.262500", "130533.422500", "130537.372500", "130533.532500", "130537.482500", "130533.642500", "130537.592500", "130533.752500", "130537.702500", "130533.862500", "130537.812500", "130533.972500", "130537.922500", "130534.082500", "130538.032500", "130534.192500", "130538.140000", "130534.302500", "130538.250000", "130534.410000", "130538.360000", "130534.520000", "130538.470000", "130534.630000", "130538.580000", "130534.740000", "130538.690000", "130534.850000", "130538.800000", "130534.960000", "130538.910000", "130535.070000", "130539.020000", "130535.180000", "130542.987500", "130539.150000", "130543.097500", "130539.257500", "130543.207500", "130539.367500", "130543.317500", "130539.477500", "130543.427500", "130539.587500", "130543.537500", "130539.697500", "130543.647500", "130539.807500", "130543.757500", "130539.917500", "130543.867500", "130540.027500", "130543.975000", "130540.135000", "130544.085000", "130540.245000", "130544.195000", "130540.355000", "130544.305000", "130540.465000", "130544.415000", "130540.575000", "130544.525000", "130540.685000", "130544.635000", "130540.795000", "130544.745000", "130540.905000", "130544.852500", "130541.015000", "130544.962500", "130541.122500", "130545.072500", "130541.232500", "130545.182500", "130541.342500", "130545.292500", "130541.452500", "130545.402500", "130541.562500", "130545.512500", "130541.672500", "130545.622500", "130541.782500", "130545.732500", "130541.892500", "130545.840000", "130542.002500", "130545.950000", "130542.110000", "130546.060000", "130542.220000", "130546.170000", "130542.330000", "130546.280000", "130542.440000", "130546.390000", "130542.550000", "130546.500000", "130542.660000", "130546.610000", "130542.770000", "130546.720000", "130542.880000", "130550.687500", "130546.850000", "130550.797500", "130546.957500", "130550.907500", "130547.067500", "130551.017500", "130547.177500", "130551.127500", "130547.287500", "130551.237500", "130547.397500", "130551.347500", "130547.507500", "130551.457500", "130547.617500", "130551.567500", "130547.727500", "130551.675000", "130547.835000", "130551.785000", "130547.945000", "130551.895000", "130548.055000", "130552.005000", "130548.165000", "130552.115000", "130548.275000", "130552.225000", "130548.385000", "130552.335000", "130548.495000", "130552.445000", "130548.605000", "130552.552500", "130548.715000", "130552.662500", "130548.822500", "130552.772500", "130548.932500", "130552.882500", "130549.042500", "130552.992500", "130549.152500", "130553.102500", "130549.262500", "130553.212500", "130549.372500", "130553.322500", "130549.482500", "130553.432500", "130549.592500", "130553.540000", "130549.702500", "130553.650000", "130549.810000", "130553.760000", "130549.920000", "130553.870000", "130550.030000", "130553.980000", "130550.140000", "130554.090000", "130550.250000", "130554.200000", "130550.360000", "130554.310000", "130550.470000", "130554.420000", "130550.580000", "130558.387500", "130554.550000", "130558.497500", "130554.657500", "130558.607500", "130554.767500", "130558.717500", "130554.877500", "130558.827500", "130554.987500", "130558.937500", "130555.097500", "130559.047500", "130555.207500", "130559.157500", "130555.317500", "130559.267500", "130555.427500", "130559.375000", "130555.535000", "130559.485000", "130555.645000", "130559.595000", "130555.755000", "130559.705000", "130555.865000", "130559.815000", "130555.975000", "130559.925000", "130556.085000", "130600.035000", "130556.195000", "130600.145000", "130556.305000", "130600.252500", "130556.415000", "130600.362500", "130556.522500", "130600.472500", "130556.632500", "130600.582500", "130556.742500", "130600.692500", "130556.852500", "130600.802500", "130556.962500", "130600.912500", "130557.072500", "130601.022500", "130557.182500", "130601.132500", "130557.292500", "130601.240000", "130557.402500", "130601.350000", "130557.510000", "130601.460000", "130557.620000", "130601.570000", "130557.730000", "130601.680000", "130557.840000", "130601.790000", "130557.950000", "130601.900000", "130558.060000", "130602.010000", "130558.170000", "130602.120000", "130558.280000", "130606.087500", "130602.250000", "130606.197500", "130602.357500", "130606.307500", "130602.467500", "130606.417500", "130602.577500", "130606.527500", "130602.687500", "130606.637500", "130602.797500", "130606.747500", "130602.907500", "130606.857500", "130603.017500", "130606.967500", "130603.127500", "130607.075000", "130603.235000", "130607.185000", "130603.345000", "130607.295000", "130603.455000", "130607.405000", "130603.565000", "130607.515000", "130603.675000", "130607.625000", "130603.785000", "130607.735000", "130603.895000", "130607.845000", "130604.005000", "130607.952500", "130604.115000", "130608.062500", "130604.222500", "130608.172500", "130604.332500", "130608.282500", "130604.442500", "130608.392500", "130604.552500", "130608.502500", "130604.662500", "130608.612500", "130604.772500", "130608.722500", "130604.882500", "130608.832500", "130604.992500", "130608.940000", "130605.102500", "130609.050000", "130605.210000", "130609.160000", "130605.320000", "130609.270000", "130605.430000", "130609.380000", "130605.540000", "130609.490000", "130605.650000", "130609.600000", "130605.760000", "130609.710000", "130605.870000", "130609.820000", "130605.980000", "130613.787500", "130609.950000", "130613.897500", "130610.057500", "130614.007500", "130610.167500", "130614.117500", "130610.277500", "130614.227500", "130610.387500", "130614.337500", "130610.497500", "130614.447500", "130610.607500", "130614.557500", "130610.717500", "130614.667500", "130610.827500", "130614.775000", "130610.935000", "130614.885000", "130611.045000", "130614.995000", "130611.155000", "130615.105000", "130611.265000", "130615.215000", "130611.375000", "130615.325000", "130611.485000", "130615.435000", "130611.595000", "130615.545000", "130611.705000", "130615.652500", "130611.815000", "130615.762500", "130611.922500", "130615.872500", "130612.032500", "130615.982500", "130612.142500", "130616.092500", "130612.252500", "130616.202500", "130612.362500", "130616.312500", "130612.472500", "130616.422500", "130612.582500", "130616.532500", "130612.692500", "130616.640000", "130612.802500", "130616.750000", "130612.910000", "130616.860000", "130613.020000", "130616.970000", "130613.130000", "130617.080000", "130613.240000", "130617.190000", "130613.350000", "130617.300000", "130613.460000", "130617.410000", "130613.570000", "130617.520000", "130613.680000", "130621.487500", "130617.650000", "130621.597500", "130617.757500", "130621.707500", "130617.867500", "130621.817500", "130617.977500", "130621.927500", "130618.087500", "130622.037500", "130618.197500", "130622.147500", "130618.307500", "130622.257500", "130618.417500", "130622.367500", "130618.527500", "130622.475000", "130618.635000", "130622.585000", "130618.745000", "130622.695000", "130618.855000", "130622.805000", "130618.965000", "130622.915000", "130619.075000", "130623.025000", "130619.185000", "130623.135000", "130619.295000", "130623.245000", "130619.405000", "130623.352500", "130619.515000", "130623.462500", "130619.622500", "130623.572500", "130619.732500", "130623.682500", "130619.842500", "130623.792500", "130619.952500", "130623.902500", "130620.062500", "130624.012500", "130620.172500", "130624.122500", "130620.282500", "130624.232500", "130620.392500", "130624.340000", "130620.502500", "130624.450000", "130620.610000", "130624.560000", "130620.720000", "130624.670000", "130620.830000", "130624.780000", "130620.940000", "130624.890000", "130621.050000", "130625.000000", "130621.160000", "130625.110000", "130621.270000", "130625.220000", "130621.380000", "130629.187500", "130625.350000", "130629.297500", "130625.457500", "130629.407500", "130625.567500", "130629.517500", "130625.677500", "130629.627500", "130625.787500", "130629.737500", "130625.897500", "130629.847500", "130626.007500", "130629.957500", "130626.117500", "130630.067500", "130626.227500", "130630.175000", "130626.335000", "130630.285000", "130626.445000", "130630.395000", "130626.555000", "130630.505000", "130626.665000", "130630.615000", "130626.775000", "130630.725000", "130626.885000", "130630.835000", "130626.995000", "130630.945000", "130627.105000", "130631.052500", "130627.215000", "130631.162500", "130627.322500", "130631.272500", "130627.432500", "130631.382500", "130627.542500", "130631.492500", "130627.652500", "130631.602500", "130627.762500", "130631.712500", "130627.872500", "130631.822500", "130627.982500", "130631.932500", "130628.092500", "130632.040000", "130628.202500", "130632.150000", "130628.310000", "130632.260000", "130628.420000", "130632.370000", "130628.530000", "130632.480000", "130628.640000", "130632.590000", "130628.750000", "130632.700000", "130628.860000", "130632.810000", "130628.970000", "130632.920000", "130629.080000", "130636.887500", "130633.050000", "130636.997500", "130633.157500", "130637.107500", "130633.267500", "130637.217500", "130633.377500", "130637.327500", "130633.487500", "130637.437500", "130633.597500", "130637.547500", "130633.707500", "130637.657500", "130633.817500", "130637.767500", "130633.927500", "130637.875000", "130634.035000", "130637.985000", "130634.145000", "130638.095000", "130634.255000", "130638.205000", "130634.365000", "130638.315000", "130634.475000", "130638.425000", "130634.585000", "130638.535000", "130634.695000", "130638.645000", "130634.805000", "130638.752500", "130634.915000", "130638.862500", "130635.022500", "130638.972500", "130635.132500", "130639.082500", "130635.242500", "130639.192500", "130635.352500", "130639.302500", "130635.462500", "130639.412500", "130635.572500", "130639.522500", "130635.682500", "130639.632500", "130635.792500", "130639.740000", "130635.902500", "130639.850000", "130636.010000", "130639.960000", "130636.120000", "130640.070000", "130636.230000", "130640.180000", "130636.340000", "130640.290000", "130636.450000", "130640.400000", "130636.560000", "130640.510000", "130636.670000", "130640.620000", "130636.780000", "130644.587500", "130640.750000", "130644.697500", "130640.857500", "130644.807500", "130640.967500", "130644.917500", "130641.077500", "130645.027500", "130641.187500", "130645.137500", "130641.297500", "130645.247500", "130641.407500", "130645.357500", "130641.517500", "130645.467500", "130641.627500", "130645.575000", "130641.735000", "130645.685000", "130641.845000", "130645.795000", "130641.955000", "130645.905000", "130642.065000", "130646.015000", "130642.175000", "130646.125000", "130642.285000", "130646.235000", "130642.395000", "130646.345000", "130642.505000", "130646.452500", "130642.615000", "130646.562500", "130642.722500", "130646.672500", "130642.832500", "130646.782500", "130642.942500", "130646.892500", "130643.052500", "130647.002500", "130643.162500", "130647.112500", "130643.272500", "130647.222500", "130643.382500", "130647.332500", "130643.492500", "130647.440000", "130643.602500", "130647.550000", "130643.710000", "130647.660000", "130643.820000", "130647.770000", "130643.930000", "130647.880000", "130644.040000", "130647.990000", "130644.150000", "130648.100000", "130644.260000", "130648.210000", "130644.370000", "130648.320000", "130644.480000", "130652.287500", "130648.450000", "130652.397500", "130648.557500", "130652.507500", "130648.667500", "130652.617500", "130648.777500", "130652.727500", "130648.887500", "130652.837500", "130648.997500", "130652.947500", "130649.107500", "130653.057500", "130649.217500", "130653.167500", "130649.327500", "130653.275000", "130649.435000", "130653.385000", "130649.545000", "130653.495000", "130649.655000", "130653.605000", "130649.765000", "130653.715000", "130649.875000", "130653.825000", "130649.985000", "130653.935000", "130650.095000", "130654.045000", "130650.205000", "130654.152500", "130650.315000", "130654.262500", "130650.422500", "130654.372500", "130650.532500", "130654.482500", "130650.642500", "130654.592500", "130650.752500", "130654.702500", "130650.862500", "130654.812500", "130650.972500", "130654.922500", "130651.082500", "130655.032500", "130651.192500", "130655.140000", "130651.302500", "130655.250000", "130651.410000", "130655.360000", "130651.520000", "130655.470000", "130651.630000", "130655.580000", "130651.740000", "130655.690000", "130651.850000", "130655.800000", "130651.960000", "130655.910000", "130652.070000", "130656.020000", "130652.180000", "130659.987500", "130656.150000", "130700.097500", "130656.257500", "130700.207500", "130656.367500", "130700.317500", "130656.477500", "130700.427500", "130656.587500", "130700.537500", "130656.697500", "130700.647500", "130656.807500", "130700.757500", "130656.917500", "130700.867500", "130657.027500", "130700.975000", "130657.135000", "130701.085000", "130657.245000", "130701.195000", "130657.355000", "130701.305000", "130657.465000", "130701.415000", "130657.575000", "130701.525000", "130657.685000", "130701.635000", "130657.795000", "130701.745000", "130657.905000", "130701.852500", "130658.015000", "130701.962500", "130658.122500", "130702.072500", "130658.232500", "130702.182500", "130658.342500", "130702.292500", "130658.452500", "130702.402500", "130658.562500", "130702.512500", "130658.672500", "130702.622500", "130658.782500", "130702.732500", "130658.892500", "130702.840000", "130659.002500", "130702.950000", "130659.110000", "130703.060000", "130659.220000", "130703.170000", "130659.330000", "130703.280000", "130659.440000", "130703.390000", "130659.550000", "130703.500000", "130659.660000", "130703.610000", "130659.770000", "130703.720000", "130659.880000", "130707.687500", "130703.850000", "130707.797500", "130703.957500", "130707.907500", "130704.067500", "130708.017500", "130704.177500", "130708.127500", "130704.287500", "130708.237500", "130704.397500", "130708.347500", "130704.507500", "130708.457500", "130704.617500", "130708.567500", "130704.727500", "130708.675000", "130704.835000", "130708.785000", "130704.945000", "130708.895000", "130705.055000", "130709.005000", "130705.165000", "130709.115000", "130705.275000", "130709.225000", "130705.385000", "130709.335000", "130705.495000", "130709.445000", "130705.605000", "130709.552500", "130705.715000", "130709.662500", "130705.822500", "130709.772500", "130705.932500", "130709.882500", "130706.042500", "130709.992500", "130706.152500", "130710.102500", "130706.262500", "130710.212500", "130706.372500", "130710.322500", "130706.482500", "130710.432500", "130706.592500", "130710.540000", "130706.702500", "130710.650000", "130706.810000", "130710.760000", "130706.920000", "130710.870000", "130707.030000", "130710.980000", "130707.140000", "130711.090000", "130707.250000", "130711.200000", "130707.360000", "130711.310000", "130707.470000", "130711.420000", "130707.580000", "130715.387500", "130711.550000", "130715.497500", "130711.657500", "130715.607500", "130711.767500", "130715.717500", "130711.877500", "130715.827500", "130711.987500", "130715.937500", "130712.097500", "130716.047500", "130712.207500", "130716.157500", "130712.317500", "130716.267500", "130712.427500", "130716.375000", "130712.535000", "130716.485000", "130712.645000", "130716.595000", "130712.755000", "130716.705000", "130712.865000", "130716.815000", "130712.975000", "130716.925000", "130713.085000", "130717.035000", "130713.195000", "130717.145000", "130713.305000", "130717.252500", "130713.415000", "130717.362500", "130713.522500", "130717.472500", "130713.632500", "130717.582500", "130713.742500", "130717.692500", "130713.852500", "130717.802500", "130713.962500", "130717.912500", "130714.072500", "130718.022500", "130714.182500", "130718.132500", "130714.292500", "130718.240000", "130714.402500", "130718.350000", "130714.510000", "130718.460000", "130714.620000", "130718.570000", "130714.730000", "130718.680000", "130714.840000", "130718.790000", "130714.950000", "130718.900000", "130715.060000", "130719.010000", "130715.170000", "130719.120000", "130715.280000", "130723.087500", "130719.250000", "130723.197500", "130719.357500", "130723.307500", "130719.467500", "130723.417500", "130719.577500", "130723.527500", "130719.687500", "130723.637500", "130719.797500", "130723.747500", "130719.907500", "130723.857500", "130720.017500", "130723.967500", "130720.127500", "130724.075000", "130720.235000", "130724.185000", "130720.345000", "130724.295000", "130720.455000", "130724.405000", "130720.565000", "130724.515000", "130720.675000", "130724.625000", "130720.785000", "130724.735000", "130720.895000", "130724.845000", "130721.005000", "130724.952500", "130721.115000", "130725.062500", "130721.222500", "130725.172500", "130721.332500", "130725.282500", "130721.442500", "130725.392500", "130721.552500", "130725.502500", "130721.662500", "130725.612500", "130721.772500", "130725.722500", "130721.882500", "130725.832500", "130721.992500", "130725.940000", "130722.102500", "130726.050000", "130722.210000", "130726.160000", "130722.320000", "130726.270000", "130722.430000", "130726.380000", "130722.540000", "130726.490000", "130722.650000", "130726.600000", "130722.760000", "130726.710000", "130722.870000", "130726.820000", "130722.980000", "130730.787500", "130726.950000", "130730.897500", "130727.057500", "130731.007500", "130727.167500", "130731.117500", "130727.277500", "130731.227500", "130727.387500", "130731.337500", "130727.497500", "130731.447500", "130727.607500", "130731.557500", "130727.717500", "130731.667500", "130727.827500", "130731.775000", "130727.935000", "130731.885000", "130728.045000", "130731.995000", "130728.155000", "130732.105000", "130728.265000", "130732.215000", "130728.375000", "130732.325000", "130728.485000", "130732.435000", "130728.595000", "130732.545000", "130728.705000", "130732.652500", "130728.815000", "130732.762500", "130728.922500", "130732.872500", "130729.032500", "130732.982500", "130729.142500", "130733.092500", "130729.252500", "130733.202500", "130729.362500", "130733.312500", "130729.472500", "130733.422500", "130729.582500", "130733.532500", "130729.692500", "130733.640000", "130729.802500", "130733.750000", "130729.910000", "130733.860000", "130730.020000", "130733.970000", "130730.130000", "130734.080000", "130730.240000", "130734.190000", "130730.350000", "130734.300000", "130730.460000", "130734.410000", "130730.570000", "130734.520000", "130730.680000", "130738.487500", "130734.650000", "130738.597500", "130734.757500", "130738.707500", "130734.867500", "130738.817500", "130734.977500", "130738.927500", "130735.087500", "130739.037500", "130735.197500", "130739.147500", "130735.307500", "130739.257500", "130735.417500", "130739.367500", "130735.527500", "130739.475000", "130735.635000", "130739.585000", "130735.745000", "130739.695000", "130735.855000", "130739.805000", "130735.965000", "130739.915000", "130736.075000", "130740.025000", "130736.185000", "130740.135000", "130736.295000", "130740.245000", "130736.405000", "130740.352500", "130736.515000", "130740.462500", "130736.622500", "130740.572500", "130736.732500", "130740.682500", "130736.842500", "130740.792500", "130736.952500", "130740.902500", "130737.062500", "130741.012500", "130737.172500", "130741.122500", "130737.282500", "130741.232500", "130737.392500", "130741.340000", "130737.502500", "130741.450000", "130737.610000", "130741.560000", "130737.720000", "130741.670000", "130737.830000", "130741.780000", "130737.940000", "130741.890000", "130738.050000", "130742.000000", "130738.160000", "130742.110000", "130738.270000", "130742.220000", "130738.380000", "130746.187500", "130742.350000", "130746.297500", "130742.457500", "130746.407500", "130742.567500", "130746.517500", "130742.677500", "130746.627500", "130742.787500", "130746.737500", "130742.897500", "130746.847500", "130743.007500", "130746.957500", "130743.117500", "130747.067500", "130743.227500", "130747.175000", "130743.335000", "130747.285000", "130743.445000", "130747.395000", "130743.555000", "130747.505000", "130743.665000", "130747.615000", "130743.775000", "130747.725000", "130743.885000", "130747.835000", "130743.995000", "130747.945000", "130744.105000", "130748.052500", "130744.215000", "130748.162500", "130744.322500", "130748.272500", "130744.432500", "130748.382500", "130744.542500", "130748.492500", "130744.652500", "130748.602500", "130744.762500", "130748.712500", "130744.872500", "130748.822500", "130744.982500", "130748.932500", "130745.092500", "130749.040000", "130745.202500", "130749.150000", "130745.310000", "130749.260000", "130745.420000", "130749.370000", "130745.530000", "130749.480000", "130745.640000", "130749.590000", "130745.750000", "130749.700000", "130745.860000", "130749.810000", "130745.970000", "130749.920000", "130746.080000", "130753.887500", "130750.050000", "130753.997500", "130750.157500", "130754.107500", "130750.267500", "130754.217500", "130750.377500", "130754.327500", "130750.487500", "130754.437500", "130750.597500", "130754.547500", "130750.707500", "130754.657500", "130750.817500", "130754.767500", "130750.927500", "130754.875000", "130751.035000", "130754.985000", "130751.145000", "130755.095000", "130751.255000", "130755.205000", "130751.365000", "130755.315000", "130751.475000", "130755.425000", "130751.585000", "130755.535000", "130751.695000", "130755.645000", "130751.805000", "130755.752500", "130751.915000", "130755.862500", "130752.022500", "130755.972500", "130752.132500", "130756.082500", "130752.242500", "130756.192500", "130752.352500", "130756.302500", "130752.462500", "130756.412500", "130752.572500", "130756.522500", "130752.682500", "130756.632500", "130752.792500", "130756.740000", "130752.902500", "130756.850000", "130753.010000", "130756.960000", "130753.120000", "130757.070000", "130753.230000", "130757.180000", "130753.340000", "130757.290000", "130753.450000", "130757.400000", "130753.560000", "130757.510000", "130753.670000", "130757.620000", "130753.780000", "130801.587500", "130757.750000", "130801.697500", "130757.857500", "130801.807500", "130757.967500", "130801.917500", "130758.077500", "130802.027500", "130758.187500", "130802.137500", "130758.297500", "130802.247500", "130758.407500", "130802.357500", "130758.517500", "130802.467500", "130758.627500", "130802.575000", "130758.735000", "130802.685000", "130758.845000", "130802.795000", "130758.955000", "130802.905000", "130759.065000", "130803.015000", "130759.175000", "130803.125000", "130759.285000", "130803.235000", "130759.395000", "130803.345000", "130759.505000", "130803.452500", "1307