{
  "AcquisitionMatrixPE": 122,
  "AcquisitionNumber": 1,
  "AcquisitionTime": "09:54:3.490000",
  "BandwidthPerPixelPhaseEncode": 27.785,
  "BaseResolution": 122,
  "BodyPartExamined": "BRAIN",
  "CoilCombinationMethod": "Adaptive Combine",
  "ConsistencyInfo": "N4_VE11C_LATEST_20160120",
  "ConversionSoftware": "dcm2niix",
  "ConversionSoftwareVersion": "v1.0.20220720",
  "DerivedVendorReportedEchoSpacing": 0.000590011,
  "DeviceSerialNumber": "66112",
  "DiffusionScheme": "Monopolar",
  "DwellTime": 2e-06,
  "EchoTime": 0.068,
  "EchoTrainLength": 61,
  "EffectiveEchoSpacing": 0.000295005,
  "FlipAngle": 90,
  "HeudiconvVersion": "0.13.1",
  "ImageOrientationPatientDICOM": [0.982727, 0.184725, 0.011112, -0.179301, 0.935569, 0.30424],
  "ImageOrientationText": "Tra>Cor(17.5)>Sag(-2.6)",
  "ImageType": [
    "ORIGINAL",
    "PRIMARY",
    "DIFFUSION",
    "NONE",
    "ND",
    "NORM"
],
  "ImagingFrequency": 123.252,
  "InPlanePhaseEncodingDirectionDICOM": "COL",
  "InstitutionAddress": "Maynard 3,Hanover,NH,US,03755",
  "InstitutionName": "Dartmouth College - PBS",
  "InstitutionalDepartmentName": "Department",
  "MRAcquisitionType": "2D",
  "MagneticFieldStrength": 3,
  "Manufacturer": "Siemens",
  "ManufacturersModelName": "Prisma",
  "Modality": "MR",
  "MultibandAccelerationFactor": 4,
  "NonlinearGradientCorrection": false,
  "ParallelReductionFactorInPlane": 2,
  "PartialFourier": 1,
  "PatientPosition": "HFS",
  "PercentPhaseFOV": 100,
  "PercentSampling": 100,
  "PhaseEncodingDirection": "j-",
  "PhaseEncodingSteps": 122,
  "PhaseResolution": 1,
  "PixelBandwidth": 2050,
  "ProcedureStepDescription": "dbic^QA",
  "ProtocolName": "dwi_acq-DTI-30-p2-s4",
  "PulseSequenceDetails": "%SiemensSeq%\\ep2d_diff",
  "ReceiveCoilActiveElements": "HEA;HEP",
  "ReceiveCoilName": "Head_32",
  "ReconMatrixPE": 122,
  "RefLinesPE": 38,
  "RepetitionTime": 3.6,
  "SAR": 0.136536,
  "ScanOptions": "FS",
  "ScanningSequence": "EP",
  "SequenceName": "*ep_b0",
  "SequenceVariant": "SK\\SP",
  "SeriesDescription": "dwi_acq-DTI-30-p2-s4",
  "SeriesNumber": 13,
  "ShimSetting": [4147, -7706, -7523, 302, -47, -62, -59, 64],
  "SliceThickness": 2,
  "SliceTiming": [2.58594, 0, 1.78906, 0.19531, 1.98438, 0.39844, 2.1875, 0.59375, 2.38281, 0.99219, 2.78125, 1.1875, 2.98438, 1.39062, 3.17969, 1.58594, 3.375, 0.79688, 2.58594, 0, 1.78906, 0.19531, 1.98438, 0.39844, 2.1875, 0.59375, 2.38281, 0.99219, 2.78125, 1.1875, 2.98438, 1.39062, 3.17969, 1.58594, 3.375, 0.79688, 2.58594, 0, 1.78906, 0.19531, 1.98438, 0.39844, 2.1875, 0.59375, 2.38281, 0.99219, 2.78125, 1.1875, 2.98438, 1.39062, 3.17969, 1.58594, 3.375, 0.79688, 2.58594, 0, 1.78906, 0.19531, 1.98438, 0.39844, 2.1875, 0.59375, 2.38281, 0.99219, 2.78125, 1.1875, 2.98438, 1.39062, 3.17969, 1.58594, 3.375, 0.79688],
  "SoftwareVersions": "syngo MR E11",
  "SpacingBetweenSlices": 2,
  "SpoilingState": true,
  "StationName": "AWP66112",
  "TotalReadoutTime": 0.0356956,
  "TxRefAmp": 225.303,
  "dcmmeta_affine": [
    [-1.9332343339920044, -0.35272255539894104, -0.09160947799682617, 146.04660034179688],
    [-0.3633933663368225, 1.840463638305664, 0.6019535064697266, -110.34967041015625],
    [0.021859608590602875, -0.5985049605369568, 1.905059814453125, -45.67030715942383],
    [0.0, 0.0, 0.0, 1.0]
],
  "dcmmeta_reorient_transform": [
    [0.0, -1.0, 0.0, 121.0],
    [1.0, 0.0, 0.0, 0.0],
    [0.0, 0.0, -1.0, 71.0],
    [0.0, 0.0, 0.0, 1.0]
],
  "dcmmeta_shape": [122, 122, 72, 31],
  "dcmmeta_slice_dim": 2,
  "dcmmeta_version": 0.6,
  "global": {
    "const": {
      "AccessionNumber": "qa",
      "AcquisitionMatrix": [122, 0, 0, 122],
      "AngioFlag": "N",
      "BitsAllocated": 16,
      "BitsStored": 12,
      "BodyPartExamined": "BRAIN",
      "Columns": 122,
      "EchoNumbers": 1,
      "EchoTime": 68.0,
      "EchoTrainLength": 61,
      "FlipAngle": 90.0,
      "HighBit": 11,
      "ImageOrientationPatient": [0.98272743576288, 0.18472496089486, 0.01111196748118, -0.1793006277613, 0.93556896727678, 0.30424002424576],
      "ImageType": [
        "ORIGINAL",
        "PRIMARY",
        "DIFFUSION",
        "NONE",
        "ND",
        "NORM"
],
      "ImagedNucleus": "1H",
      "ImagingFrequency": 123.252358,
      "InPlanePhaseEncodingDirection": "COL",
      "MRAcquisitionType": "2D",
      "MagneticFieldStrength": 3.0,
      "Manufacturer": "SIEMENS",
      "ManufacturerModelName": "Prisma",
      "Modality": "MR",
      "NumberOfAverages": 1.0,
      "NumberOfPhaseEncodingSteps": 122,
      "PercentPhaseFieldOfView": 100.0,
      "PercentSampling": 100.0,
      "PerformedProcedureStepStartTime": "091639.671000",
      "PhotometricInterpretation": "MONOCHROME2",
      "PixelBandwidth": 2050.0,
      "PixelRepresentation": 0,
      "PixelSpacing": [1.9672131538391, 1.9672131538391],
      "ProtocolName": "dwi_acq-DTI-30-p2-s4",
      "RepetitionTime": 3600.0,
      "Rows": 122,
      "SAR": 0.13653559427216,
      "SamplesPerPixel": 1,
      "ScanOptions": "FS",
      "ScanningSequence": "EP",
      "SequenceVariant": [
        "SK",
        "SP"
],
      "SeriesDescription": "dwi_acq-DTI-30-p2-s4",
      "SeriesNumber": 13,
      "SeriesTime": "095412.634000",
      "SliceThickness": 2.0,
      "SmallestImagePixelValue": 0,
      "SoftwareVersions": "syngo MR E11",
      "SpacingBetweenSlices": 2.0,
      "SpecificCharacterSet": "ISO_IR 100",
      "StudyID": "11",
      "StudyTime": "091639.606000",
      "TransmitCoilName": "Body",
      "VariableFlipAngleFlag": "N",
      "WindowCenterWidthExplanation": "Algo1",
      "dBdt": 0.0},
    "slices": {
      "AcquisitionTime": ["095403.490000", "095400.905000", "095402.695000", "095401.102500", "095402.892500", "095401.302500", "095403.092500", "095401.500000", "095403.290000", "095401.897500", "095403.687500", "095402.097500", "095403.887500", "095402.295000", "095404.085000", "095402.495000", "095404.285000", "095401.700000", "095403.490000", "095400.905000", "095402.695000", "095401.102500", "095402.892500", "095401.302500", "095403.092500", "095401.500000", "095403.290000", "095401.897500", "095403.687500", "095402.097500", "095403.887500", "095402.295000", "095404.085000", "095402.495000", "095404.285000", "095401.700000", "095403.490000", "095400.905000", "095402.695000", "095401.102500", "095402.892500", "095401.302500", "095403.092500", "095401.500000", "095403.290000", "095401.897500", "095403.687500", "095402.097500", "095403.887500", "095402.295000", "095404.085000", "095402.495000", "095404.285000", "095401.700000", "095403.490000", "095400.905000", "095402.695000", "095401.102500", "095402.892500", "095401.302500", "095403.092500", "095401.500000", "095403.290000", "095401.897500", "095403.687500", "095402.097500", "095403.887500", "095402.295000", "095404.085000", "095402.495000", "095404.285000", "095401.700000", "095407.090000", "095404.505000", "095406.295000", "095404.702500", "095406.492500", "095404.902500", "095406.692500", "095405.100000", "095406.890000", "095405.497500", "095407.287500", "095405.697500", "095407.487500", "095405.895000", "095407.685000", "095406.095000", "095407.885000", "095405.300000", "095407.090000", "095404.505000", "095406.295000", "095404.702500", "095406.492500", "095404.902500", "095406.692500", "095405.100000", "095406.890000", "095405.497500", "095407.287500", "095405.697500", "095407.487500", "095405.895000", "095407.685000", "095406.095000", "095407.885000", "095405.300000", "095407.090000", "095404.505000", "095406.295000", "095404.702500", "095406.492500", "095404.902500", "095406.692500", "095405.100000", "095406.890000", "095405.497500", "095407.287500", "095405.697500", "095407.487500", "095405.895000", "095407.685000", "095406.095000", "095407.885000", "095405.300000", "095407.090000", "095404.505000", "095406.295000", "095404.702500", "095406.492500", "095404.902500", "095406.692500", "095405.100000", "095406.890000", "095405.497500", "095407.287500", "095405.697500", "095407.487500", "095405.895000", "095407.685000", "095406.095000", "095407.885000", "095405.300000", "095410.690000", "095408.105000", "095409.895000", "095408.302500", "095410.092500", "095408.502500", "095410.292500", "095408.700000", "095410.490000", "095409.097500", "095410.887500", "095409.297500", "095411.087500", "095409.495000", "095411.285000", "095409.695000", "095411.485000", "095408.900000", "095410.690000", "095408.105000", "095409.895000", "095408.302500", "095410.092500", "095408.502500", "095410.292500", "095408.700000", "095410.490000", "095409.097500", "095410.887500", "095409.297500", "095411.087500", "095409.495000", "095411.285000", "095409.695000", "095411.485000", "095408.900000", "095410.690000", "095408.105000", "095409.895000", "095408.302500", "095410.092500", "095408.502500", "095410.292500", "095408.700000", "095410.490000", "095409.097500", "095410.887500", "095409.297500", "095411.087500", "095409.495000", "095411.285000", "095409.695000", "095411.485000", "095408.900000", "095410.690000", "095408.105000", "095409.895000", "095408.302500", "095410.092500", "095408.502500", "095410.292500", "095408.700000", "095410.490000", "095409.097500", "095410.887500", "095409.297500", "095411.087500", "095409.495000", "095411.285000", "095409.695000", "095411.485000", "095408.900000", "095414.290000", "095411.705000", "095413.495000", "095411.902500", "095413.692500", "095412.102500", "095413.892500", "095412.300000", "095414.090000", "095412.697500", "095414.487500", "095412.897500", "095414.687500", "095413.095000", "095414.885000", "095413.295000", "095415.085000", "095412.500000", "095414.290000", "095411.705000", "095413.495000", "095411.902500", "095413.692500", "095412.102500", "095413.892500", "095412.300000", "095414.090000", "095412.697500", "095414.487500", "095412.897500", "095414.687500", "095413.095000", "095414.885000", "095413.295000", "095415.085000", "095412.500000", "095414.290000", "095411.705000", "095413.495000", "095411.902500", "095413.692500", "095412.102500", "095413.892500", "095412.300000", "095414.090000", "095412.697500", "095414.487500", "095412.897500", "095414.687500", "095413.095000", "095414.885000", "095413.295000", "095415.085000", "095412.500000", "095414.290000", "095411.705000", "095413.495000", "095411.902500", "095413.692500", "095412.102500", "095413.892500", "095412.300000", "095414.090000", "095412.697500", "095414.487500", "095412.897500", "095414.687500", "095413.095000", "095414.885000", "095413.295000", "095415.085000", "095412.500000", "095417.890000", "095415.305000", "095417.095000", "095415.502500", "095417.292500", "095415.702500", "095417.492500", "095415.900000", "095417.690000", "095416.297500", "095418.087500", "095416.497500", "095418.287500", "095416.695000", "095418.485000", "095416.895000", "095418.685000", "095416.100000", "095417.890000", "095415.305000", "095417.095000", "095415.502500", "095417.292500", "095415.702500", "095417.492500", "095415.900000", "095417.690000", "095416.297500", "095418.087500", "095416.497500", "095418.287500", "095416.695000", "095418.485000", "095416.895000", "095418.685000", "095416.100000", "095417.890000", "095415.305000", "095417.095000", "095415.502500", "095417.292500", "095415.702500", "095417.492500", "095415.900000", "095417.690000", "095416.297500", "095418.087500", "095416.497500", "095418.287500", "095416.695000", "095418.485000", "095416.895000", "095418.685000", "095416.100000", "095417.890000", "095415.305000", "095417.095000", "095415.502500", "095417.292500", "095415.702500", "095417.492500", "095415.900000", "095417.690000", "095416.297500", "095418.087500", "095416.497500", "095418.287500", "095416.695000", "095418.485000", "095416.895000", "095418.685000", "095416.100000", "095421.490000", "095418.905000", "095420.695000", "095419.102500", "095420.892500", "095419.302500", "095421.092500", "095419.500000", "095421.290000", "095419.897500", "095421.687500", "095420.097500", "095421.887500", "095420.295000", "095422.085000", "095420.495000", "095422.285000", "095419.700000", "095421.490000", "095418.905000", "095420.695000", "095419.102500", "095420.892500", "095419.302500", "095421.092500", "095419.500000", "095421.290000", "095419.897500", "095421.687500", "095420.097500", "095421.887500", "095420.295000", "095422.085000", "095420.495000", "095422.285000", "095419.700000", "095421.490000", "095418.905000", "095420.695000", "095419.102500", "095420.892500", "095419.302500", "095421.092500", "095419.500000", "095421.290000", "095419.897500", "095421.687500", "095420.097500", "095421.887500", "095420.295000", "095422.085000", "095420.495000", "095422.285000", "095419.700000", "095421.490000", "095418.905000", "095420.695000", "095419.102500", "095420.892500", "095419.302500", "095421.092500", "095419.500000", "095421.290000", "095419.897500", "095421.687500", "095420.097500", "095421.887500", "095420.295000", "095422.085000", "095420.495000", "095422.285000", "095419.700000", "095425.090000", "095422.505000", "095424.295000", "095422.702500", "095424.492500", "095422.902500", "095424.692500", "095423.100000", "095424.890000", "095423.497500", "095425.287500", "095423.697500", "095425.487500", "095423.895000", "095425.685000", "095424.095000", "095425.885000", "095423.300000", "095425.090000", "095422.505000", "095424.295000", "095422.702500", "095424.492500", "095422.902500", "095424.692500", "095423.100000", "095424.890000", "095423.497500", "095425.287500", "095423.697500", "095425.487500", "095423.895000", "095425.685000", "095424.095000", "095425.885000", "095423.300000", "095425.090000", "095422.505000", "095424.295000", "095422.702500", "095424.492500", "095422.902500", "095424.692500", "095423.100000", "095424.890000", "095423.497500", "095425.287500", "095423.697500", "095425.487500", "095423.895000", "095425.685000", "095424.095000", "095425.885000", "095423.300000", "095425.090000", "095422.505000", "095424.295000", "095422.702500", "095424.492500", "095422.902500", "095424.692500", "095423.100000", "095424.890000", "095423.497500", "095425.287500", "095423.697500", "095425.487500", "095423.895000", "095425.685000", "095424.095000", "095425.885000", "095423.300000", "095428.690000", "095426.105000", "095427.895000", "095426.302500", "095428.092500", "095426.502500", "095428.292500", "095426.700000", "095428.490000", "095427.097500", "095428.887500", "095427.297500", "095429.087500", "095427.495000", "095429.285000", "095427.695000", "095429.485000", "095426.900000", "095428.690000", "095426.105000", "095427.895000", "095426.302500", "095428.092500", "095426.502500", "095428.292500", "095426.700000", "095428.490000", "095427.097500", "095428.887500", "095427.297500", "095429.087500", "095427.495000", "095429.285000", "095427.695000", "095429.485000", "095426.900000", "095428.690000", "095426.105000", "095427.895000", "095426.302500", "095428.092500", "095426.502500", "095428.292500", "095426.700000", "095428.490000", "095427.097500", "095428.887500", "095427.297500", "095429.087500", "095427.495000", "095429.285000", "095427.695000", "095429.485000", "095426.900000", "095428.690000", "095426.105000", "095427.895000", "095426.302500", "095428.092500", "095426.502500", "095428.292500", "095426.700000", "095428.490000", "095427.097500", "095428.887500", "095427.297500", "095429.087500", "095427.495000", "095429.285000", "095427.695000", "095429.485000", "095426.900000", "095432.290000", "095429.705000", "095431.495000", "095429.902500", "095431.692500", "095430.102500", "095431.892500", "095430.300000", "095432.090000", "095430.697500", "095432.487500", "095430.897500", "095432.687500", "095431.095000", "095432.885000", "095431.295000", "095433.085000", "095430.500000", "095432.290000", "095429.705000", "095431.495000", "095429.902500", "095431.692500", "095430.102500", "095431.892500", "095430.300000", "095432.090000", "095430.697500", "095432.487500", "095430.897500", "095432.687500", "095431.095000", "095432.885000", "095431.295000", "095433.085000", "095430.500000", "095432.290000", "095429.705000", "095431.495000", "095429.902500", "095431.692500", "095430.102500", "095431.892500", "095430.300000", "095432.090000", "095430.697500", "095432.487500", "095430.897500", "095432.687500", "095431.095000", "095432.885000", "095431.295000", "095433.085000", "095430.500000", "095432.290000", "095429.705000", "095431.495000", "095429.902500", "095431.692500", "095430.102500", "095431.892500", "095430.300000", "095432.090000", "095430.697500", "095432.487500", "095430.897500", "095432.687500", "095431.095000", "095432.885000", "095431.295000", "095433.085000", "095430.500000", "095435.890000", "095433.305000", "095435.095000", "095433.502500", "095435.292500", "095433.702500", "095435.492500", "095433.900000", "095435.690000", "095434.297500", "095436.087500", "095434.497500", "095436.287500", "095434.695000", "095436.485000", "095434.895000", "095436.685000", "095434.100000", "095435.890000", "095433.305000", "095435.095000", "095433.502500", "095435.292500", "095433.702500", "095435.492500", "095433.900000", "095435.690000", "095434.297500", "095436.087500", "095434.497500", "095436.287500", "095434.695000", "095436.485000", "095434.895000", "095436.685000", "095434.100000", "095435.890000", "095433.305000", "095435.095000", "095433.502500", "095435.292500", "095433.702500", "095435.492500", "095433.900000", "095435.690000", "095434.297500", "095436.087500", "095434.497500", "095436.287500", "095434.695000", "095436.485000", "095434.895000", "095436.685000", "095434.100000", "095435.890000", "095433.305000", "095435.095000", "095433.502500", "095435.292500", "095433.702500", "095435.492500", "095433.900000", "095435.690000", "095434.297500", "095436.087500", "095434.497500", "095436.287500", "095434.695000", "095436.485000", "095434.895000", "095436.685000", "095434.100000", "095439.490000", "095436.905000", "095438.695000", "095437.102500", "095438.892500", "095437.302500", "095439.092500", "095437.500000", "095439.290000", "095437.897500", "095439.687500", "095438.097500", "095439.887500", "095438.295000", "095440.085000", "095438.495000", "095440.285000", "095437.700000", "095439.490000", "095436.905000", "095438.695000", "095437.102500", "095438.892500", "095437.302500", "095439.092500", "095437.500000", "095439.290000", "095437.897500", "095439.687500", "095438.097500", "095439.887500", "095438.295000", "095440.085000", "095438.495000", "095440.285000", "095437.700000", "095439.490000", "095436.905000", "095438.695000", "095437.102500", "095438.892500", "095437.302500", "095439.092500", "095437.500000", "095439.290000", "095437.897500", "095439.687500", "095438.097500", "095439.887500", "095438.295000", "095440.085000", "095438.495000", "095440.285000", "095437.700000", "095439.490000", "095436.905000", "095438.695000", "095437.102500", "095438.892500", "095437.302500", "095439.092500", "095437.500000", "095439.290000", "095437.897500", "095439.687500", "095438.097500", "095439.887500", "095438.295000", "095440.085000", "095438.495000", "095440.285000", "095437.700000", "095443.090000", "095440.505000", "095442.295000", "095440.702500", "095442.492500", "095440.902500", "095442.692500", "095441.100000", "095442.890000", "095441.497500", "095443.287500", "095441.697500", "095443.487500", "095441.895000", "095443.685000", "095442.095000", "095443.885000", "095441.300000", "095443.090000", "095440.505000", "095442.295000", "095440.702500", "095442.492500", "095440.902500", "095442.692500", "095441.100000", "095442.890000", "095441.497500", "095443.287500", "095441.697500", "095443.487500", "095441.895000", "095443.685000", "095442.095000", "095443.885000", "095441.300000", "095443.090000", "095440.505000", "095442.295000", "095440.702500", "095442.492500", "095440.902500", "095442.692500", "095441.100000", "095442.890000", "095441.497500", "095443.287500", "095441.697500", "095443.487500", "095441.895000", "095443.685000", "095442.095000", "095443.885000", "095441.300000", "095443.090000", "095440.505000", "095442.295000", "095440.702500", "095442.492500", "095440.902500", "095442.692500", "095441.100000", "095442.890000", "095441.497500", "095443.287500", "095441.697500", "095443.487500", "095441.895000", "095443.685000", "095442.095000", "095443.885000", "095441.300000", "095446.690000", "095444.105000", "095445.895000", "095444.302500", "095446.092500", "095444.502500", "095446.292500", "095444.700000", "095446.490000", "095445.097500", "095446.887500", "095445.297500", "095447.087500", "095445.495000", "095447.285000", "095445.695000", "095447.485000", "095444.900000", "095446.690000", "095444.105000", "095445.895000", "095444.302500", "095446.092500", "095444.502500", "095446.292500", "095444.700000", "095446.490000", "095445.097500", "095446.887500", "095445.297500", "095447.087500", "095445.495000", "095447.285000", "095445.695000", "095447.485000", "095444.900000", "095446.690000", "095444.105000", "095445.895000", "095444.302500", "095446.092500", "095444.502500", "095446.292500", "095444.700000", "095446.490000", "095445.097500", "095446.887500", "095445.297500", "095447.087500", "095445.495000", "095447.285000", "095445.695000", "095447.485000", "095444.900000", "095446.690000", "095444.105000", "095445.895000", "095444.302500", "095446.092500", "095444.502500", "095446.292500", "095444.700000", "095446.490000", "095445.097500", "095446.887500", "095445.297500", "095447.087500", "095445.495000", "095447.285000", "095445.695000", "095447.485000", "095444.900000", "095450.290000", "095447.705000", "095449.495000", "095447.902500", "095449.692500", "095448.102500", "095449.892500", "095448.300000", "095450.090000", "095448.697500", "095450.487500", "095448.897500", "095450.687500", "095449.095000", "095450.885000", "095449.295000", "095451.085000", "095448.500000", "095450.290000", "095447.705000", "095449.495000", "095447.902500", "095449.692500", "095448.102500", "095449.892500", "095448.300000", "095450.090000", "095448.697500", "095450.487500", "095448.897500", "095450.687500", "095449.095000", "095450.885000", "095449.295000", "095451.085000", "095448.500000", "095450.290000", "095447.705000", "095449.495000", "095447.902500", "095449.692500", "095448.102500", "095449.892500", "095448.300000", "095450.090000", "095448.697500", "095450.487500", "095448.897500", "095450.687500", "095449.095000", "095450.885000", "095449.295000", "095451.085000", "095448.500000", "095450.290000", "095447.705000", "095449.495000", "095447.902500", "095449.692500", "095448.102500", "095449.892500", "095448.300000", "095450.090000", "095448.697500", "095450.487500", "095448.897500", "095450.687500", "095449.095000", "095450.885000", "095449.295000", "095451.085000", "095448.500000", "095453.890000", "095451.305000", "095453.095000", "095451.502500", "095453.292500", "095451.702500", "095453.492500", "095451.900000", "095453.690000", "095452.297500", "095454.087500", "095452.497500", "095454.287500", "095452.695000", "095454.485000", "095452.895000", "095454.685000", "095452.100000", "095453.890000", "095451.305000", "095453.095000", "095451.502500", "095453.292500", "095451.702500", "095453.492500", "095451.900000", "095453.690000", "095452.297500", "095454.087500", "095452.497500", "095454.287500", "095452.695000", "095454.485000", "095452.895000", "095454.685000", "095452.100000", "095453.890000", "095451.305000", "095453.095000", "095451.502500", "095453.292500", "095451.702500", "095453.492500", "095451.900000", "095453.690000", "095452.297500", "095454.087500", "095452.497500", "095454.287500", "095452.695000", "095454.485000", "095452.895000", "095454.685000", "095452.100000", "095453.890000", "095451.305000", "095453.095000", "095451.502500", "095453.292500", "095451.702500", "095453.492500", "095451.900000", "095453.690000", "095452.297500", "095454.087500", "095452.497500", "095454.287500", "095452.695000", "095454.485000", "095452.895000", "095454.685000", "095452.100000", "095457.490000", "095454.905000", "095456.695000", "095455.102500", "095456.892500", "095455.302500", "095457.092500", "095455.500000", "095457.290000", "095455.897500", "095457.687500", "095456.097500", "095457.887500", "095456.295000", "095458.085000", "095456.495000", "095458.285000", "095455.700000", "095457.490000", "095454.905000", "095456.695000", "095455.102500", "095456.892500", "095455.302500", "095457.092500", "095455.500000", "095457.290000", "095455.897500", "095457.687500", "095456.097500", "095457.887500", "095456.295000", "095458.085000", "095456.495000", "095458.285000", "095455.700000", "095457.490000", "095454.905000", "095456.695000", "095455.102500", "095456.892500", "095455.302500", "095457.092500", "095455.500000", "095457.290000", "095455.897500", "095457.687500", "095456.097500", "095457.887500", "095456.295000", "095458.085000", "095456.495000", "095458.285000", "095455.700000", "095457.490000", "095454.905000", "095456.695000", "095455.102500", "095456.892500", "095455.302500", "095457.092500", "095455.500000", "095457.290000", "095455.897500", "095457.687500", "095456.097500", "095457.887500", "095456.295000", "095458.085000", "095456.495000", "095458.285000", "095455.700000", "095501.090000", "095458.505000", "095500.295000", "095458.702500", "095500.492500", "095458.902500", "095500.692500", "095459.100000", "095500.890000", "095459.497500", "095501.287500", "095459.697500", "095501.487500", "095459.895000", "095501.685000", "095500.095000", "095501.885000", "095459.300000", "095501.090000", "095458.505000", "095500.295000", "095458.702500", "095500.492500", "095458.902500", "095500.692500", "095459.100000", "095500.890000", "095459.497500", "095501.287500", "095459.697500", "095501.487500", "095459.895000", "095501.685000", "095500.095000", "095501.885000", "095459.300000", "095501.090000", "095458.505000", "095500.295000", "095458.702500", "095500.492500", "095458.902500", "095500.692500", "095459.100000", "095500.890000", "095459.497500", "095501.287500", "095459.697500", "095501.487500", "095459.895000", "095501.685000", "095500.095000", "095501.885000", "095459.300000", "095501.090000", "095458.505000", "095500.295000", "095458.702500", "095500.492500", "095458.902500", "095500.692500", "095459.100000", "095500.890000", "095459.497500", "095501.287500", "095459.697500", "095501.487500", "095459.895000", "095501.685000", "095500.095000", "095501.885000", "095459.300000", "095504.690000", "095502.105000", "095503.895000", "095502.302500", "095504.092500", "095502.502500", "095504.292500", "095502.700000", "095504.490000", "095503.097500", "095504.887500", "095503.297500", "095505.087500", "095503.495000", "095505.285000", "095503.695000", "095505.485000", "095502.900000", "095504.690000", "095502.105000", "095503.895000", "095502.302500", "095504.092500", "095502.502500", "095504.292500", "095502.700000", "095504.490000", "095503.097500", "095504.887500", "095503.297500", "095505.087500", "095503.495000", "095505.285000", "095503.695000", "095505.485000", "095502.900000", "095504.690000", "095502.105000", "095503.895000", "095502.302500", "095504.092500", "095502.502500", "095504.292500", "095502.700000", "095504.490000", "095503.097500", "095504.887500", "095503.297500", "095505.087500", "095503.495000", "095505.285000", "095503.695000", "095505.485000", "095502.900000", "095504.690000", "095502.105000", "095503.895000", "095502.302500", "095504.092500", "095502.502500", "095504.292500", "095502.700000", "095504.490000", "095503.097500", "095504.887500", "095503.297500", "095505.087500", "095503.495000", "095505.285000", "095503.695000", "095505.485000", "095502.900000", "095508.290000", "095505.705000", "095507.495000", "095505.902500", "095507.692500", "095506.102500", "095507.892500", "095506.300000", "095508.090000", "095506.697500", "095508.487500", "095506.897500", "095508.687500", "095507.095000", "095508.885000", "095507.295000", "095509.085000", "095506.500000", "095508.290000", "095505.705000", "095507.495000", "095505.902500", "095507.692500", "095506.102500", "095507.892500", "095506.300000", "095508.090000", "095506.697500", "095508.487500", "095506.897500", "095508.687500", "095507.095000", "095508.885000", "095507.295000", "095509.085000", "095506.500000", "095508.290000", "095505.705000", "095507.495000", "095505.902500", "095507.692500", "095506.102500", "095507.892500", "095506.300000", "095508.090000", "095506.697500", "095508.487500", "095506.897500", "095508.687500", "095507.095000", "095508.885000", "095507.295000", "095509.085000", "095506.500000", "095508.290000", "095505.705000", "095507.495000", "095505.902500", "095507.692500", "095506.102500", "095507.892500", "095506.300000", "095508.090000", "095506.697500", "095508.487500", "095506.897500", "095508.687500", "095507.095000", "095508.885000", "095507.295000", "095509.085000", "095506.500000", "095511.890000", "095509.305000", "095511.095000", "095509.502500", "095511.292500", "095509.702500", "095511.492500", "095509.900000", "095511.690000", "095510.297500", "095512.087500", "095510.497500", "095512.287500", "095510.695000", "095512.485000", "095510.895000", "095512.685000", "095510.100000", "095511.890000", "095509.305000", "095511.095000", "095509.502500", "095511.292500", "095509.702500", "095511.492500", "095509.900000", "095511.690000", "095510.297500", "095512.087500", "095510.497500", "095512.287500", "095510.695000", "095512.485000", "095510.895000", "095512.685000", "095510.100000", "095511.890000", "095509.305000", "095511.095000", "095509.502500", "095511.292500", "095509.702500", "095511.492500", "095509.900000", "095511.690000", "095510.297500", "095512.087500", "095510.497500", "095512.287500", "095510.695000", "095512.485000", "095510.895000", "095512.685000", "095510.100000", "095511.890000", "095509.305000", "095511.095000", "095509.502500", "095511.292500", "095509.702500", "095511.492500", "095509.900000", "095511.690000", "095510.297500", "095512.087500", "095510.497500",