{
  "AcquisitionMatrixPE": 122,
  "AcquisitionNumber": 1,
  "AcquisitionTime": "09:49:41.990000",
  "BandwidthPerPixelPhaseEncode": 28.76,
  "BaseResolution": 122,
  "BodyPartExamined": "BRAIN",
  "CoilCombinationMethod": "Adaptive Combine",
  "ConsistencyInfo": "N4_VE11C_LATEST_20160120",
  "ConversionSoftware": "dcm2niix",
  "ConversionSoftwareVersion": "v1.0.20220720",
  "DerivedVendorReportedEchoSpacing": 0.000570008,
  "DeviceSerialNumber": "66112",
  "DiffusionScheme": "Monopolar",
  "DwellTime": 2e-06,
  "EchoTime": 0.075,
  "EchoTrainLength": 61,
  "EffectiveEchoSpacing": 0.000285004,
  "FlipAngle": 90,
  "HeudiconvVersion": "0.13.1",
  "ImageOrientationPatientDICOM": [0.982727, 0.184725, 0.011112, -0.179301, 0.935569, 0.30424],
  "ImageOrientationText": "Tra>Cor(17.5)>Sag(-2.6)",
  "ImageType": [
    "ORIGINAL",
    "PRIMARY",
    "DIFFUSION",
    "NONE",
    "ND",
    "NORM"
],
  "ImagingFrequency": 123.252,
  "InPlanePhaseEncodingDirectionDICOM": "COL",
  "InstitutionAddress": "Maynard 3,Hanover,NH,US,03755",
  "InstitutionName": "Dartmouth College - PBS",
  "InstitutionalDepartmentName": "Department",
  "MRAcquisitionType": "2D",
  "MagneticFieldStrength": 3,
  "Manufacturer": "Siemens",
  "ManufacturersModelName": "Prisma",
  "MatrixCoilMode": "GRAPPA",
  "Modality": "MR",
  "NonlinearGradientCorrection": false,
  "ParallelReductionFactorInPlane": 2,
  "PartialFourier": 1,
  "PatientPosition": "HFS",
  "PercentPhaseFOV": 100,
  "PercentSampling": 100,
  "PhaseEncodingDirection": "j-",
  "PhaseEncodingSteps": 122,
  "PhaseResolution": 1,
  "PixelBandwidth": 2050,
  "ProcedureStepDescription": "dbic^QA",
  "ProtocolName": "dwi_acq-DTI-30-p2",
  "PulseSequenceDetails": "%SiemensSeq%\\ep2d_diff",
  "ReceiveCoilActiveElements": "HEA;HEP",
  "ReceiveCoilName": "Head_32",
  "ReconMatrixPE": 122,
  "RefLinesPE": 38,
  "RepetitionTime": 7.7,
  "SAR": 0.0870709,
  "ScanOptions": "FS",
  "ScanningSequence": "EP",
  "SequenceName": "*ep_b0",
  "SequenceVariant": "SK\\SP",
  "SeriesDescription": "dwi_acq-DTI-30-p2",
  "SeriesNumber": 12,
  "ShimSetting": [4147, -7706, -7524, 305, -47, -64, -58, 64],
  "SliceThickness": 2,
  "SliceTiming": [3.84375, 0, 3.95312, 0.10938, 4.0625, 0.21875, 4.17188, 0.32812, 4.28125, 0.44531, 4.39062, 0.54688, 4.5, 0.65625, 4.60938, 0.76562, 4.71875, 0.88281, 4.82812, 0.99219, 4.9375, 1.10156, 5.04688, 1.21094, 5.15625, 1.32031, 5.26562, 1.42969, 5.375, 1.53906, 5.48438, 1.64844, 5.59375, 1.75781, 5.70312, 1.86719, 5.82031, 1.97656, 5.92969, 2.08594, 6.03906, 2.19531, 6.14844, 2.30469, 6.25781, 2.41406, 6.36719, 2.52344, 6.47656, 2.63281, 6.58594, 2.74219, 6.69531, 2.85156, 6.80469, 2.96094, 6.91406, 3.07031, 7.02344, 3.1875, 7.13281, 3.29688, 7.24219, 3.39844, 7.35156, 3.50781, 7.46094, 3.625, 7.57031, 3.73438],
  "SoftwareVersions": "syngo MR E11",
  "SpacingBetweenSlices": 2,
  "SpoilingState": true,
  "StationName": "AWP66112",
  "TotalReadoutTime": 0.0344855,
  "TxRefAmp": 225.303,
  "dcmmeta_affine": [
    [-1.9332343339920044, -0.35272255539894104, -0.0916094183921814, 145.95498657226562],
    [-0.3633933663368225, 1.840463638305664, 0.6019554138183594, -109.74784851074219],
    [0.021859608590602875, -0.5985049605369568, 1.905059814453125, -43.7652473449707],
    [0.0, 0.0, 0.0, 1.0]
],
  "dcmmeta_reorient_transform": [
    [0.0, -1.0, 0.0, 121.0],
    [1.0, 0.0, 0.0, 0.0],
    [0.0, 0.0, -1.0, 69.0],
    [0.0, 0.0, 0.0, 1.0]
],
  "dcmmeta_shape": [122, 122, 70, 31],
  "dcmmeta_slice_dim": 2,
  "dcmmeta_version": 0.6,
  "global": {
    "const": {
      "AccessionNumber": "qa",
      "AcquisitionMatrix": [122, 0, 0, 122],
      "AngioFlag": "N",
      "BitsAllocated": 16,
      "BitsStored": 12,
      "BodyPartExamined": "BRAIN",
      "Columns": 122,
      "EchoNumbers": 1,
      "EchoTime": 75.0,
      "EchoTrainLength": 61,
      "FlipAngle": 90.0,
      "HighBit": 11,
      "ImageOrientationPatient": [0.98272743576288, 0.18472496089486, 0.01111196748118, -0.1793006277613, 0.93556896727678, 0.30424002424576],
      "ImageType": [
        "ORIGINAL",
        "PRIMARY",
        "DIFFUSION",
        "NONE",
        "ND",
        "NORM"
],
      "ImagedNucleus": "1H",
      "ImagingFrequency": 123.252356,
      "InPlanePhaseEncodingDirection": "COL",
      "MRAcquisitionType": "2D",
      "MagneticFieldStrength": 3.0,
      "Manufacturer": "SIEMENS",
      "ManufacturerModelName": "Prisma",
      "Modality": "MR",
      "NumberOfAverages": 1.0,
      "NumberOfPhaseEncodingSteps": 122,
      "PercentPhaseFieldOfView": 100.0,
      "PercentSampling": 100.0,
      "PerformedProcedureStepStartTime": "091639.671000",
      "PhotometricInterpretation": "MONOCHROME2",
      "PixelBandwidth": 2050.0,
      "PixelRepresentation": 0,
      "PixelSpacing": [1.9672131538391, 1.9672131538391],
      "ProtocolName": "dwi_acq-DTI-30-p2",
      "RepetitionTime": 7700.0,
      "Rows": 122,
      "SAR": 0.08707093935054,
      "SamplesPerPixel": 1,
      "ScanOptions": "FS",
      "ScanningSequence": "EP",
      "SequenceVariant": [
        "SK",
        "SP"
],
      "SeriesDescription": "dwi_acq-DTI-30-p2",
      "SeriesNumber": 12,
      "SeriesTime": "094941.657000",
      "SliceThickness": 2.0,
      "SmallestImagePixelValue": 0,
      "SoftwareVersions": "syngo MR E11",
      "SpacingBetweenSlices": 2.0,
      "SpecificCharacterSet": "ISO_IR 100",
      "StudyID": "11",
      "StudyTime": "091639.606000",
      "TransmitCoilName": "Body",
      "VariableFlipAngleFlag": "N",
      "WindowCenterWidthExplanation": "Algo1",
      "dBdt": 0.0},
    "slices": {
      "AcquisitionTime": ["094941.990000", "094938.150000", "094942.100000", "094938.260000", "094942.210000", "094938.370000", "094942.320000", "094938.480000", "094942.430000", "094938.590000", "094942.537500", "094938.697500", "094942.647500", "094938.807500", "094942.757500", "094938.917500", "094942.867500", "094939.027500", "094942.977500", "094939.137500", "094943.087500", "094939.247500", "094943.197500", "094939.357500", "094943.307500", "094939.467500", "094943.415000", "094939.577500", "094943.525000", "094939.685000", "094943.635000", "094939.795000", "094943.745000", "094939.905000", "094943.855000", "094940.015000", "094943.965000", "094940.125000", "094944.075000", "094940.235000", "094944.185000", "094940.345000", "094944.295000", "094940.455000", "094944.402500", "094940.562500", "094944.512500", "094940.672500", "094944.622500", "094940.782500", "094944.732500", "094940.892500", "094944.842500", "094941.002500", "094944.952500", "094941.112500", "094945.062500", "094941.222500", "094945.172500", "094941.332500", "094945.282500", "094941.442500", "094945.390000", "094941.550000", "094945.500000", "094941.660000", "094945.610000", "094941.770000", "094945.720000", "094941.880000", "094949.690000", "094945.850000", "094949.800000", "094945.960000", "094949.910000", "094946.070000", "094950.020000", "094946.180000", "094950.130000", "094946.290000", "094950.237500", "094946.397500", "094950.347500", "094946.507500", "094950.457500", "094946.617500", "094950.567500", "094946.727500", "094950.677500", "094946.837500", "094950.787500", "094946.947500", "094950.897500", "094947.057500", "094951.007500", "094947.167500", "094951.115000", "094947.277500", "094951.225000", "094947.385000", "094951.335000", "094947.495000", "094951.445000", "094947.605000", "094951.555000", "094947.715000", "094951.665000", "094947.825000", "094951.775000", "094947.935000", "094951.885000", "094948.045000", "094951.995000", "094948.155000", "094952.102500", "094948.262500", "094952.212500", "094948.372500", "094952.322500", "094948.482500", "094952.432500", "094948.592500", "094952.542500", "094948.702500", "094952.652500", "094948.812500", "094952.762500", "094948.922500", "094952.872500", "094949.032500", "094952.982500", "094949.142500", "094953.090000", "094949.250000", "094953.200000", "094949.360000", "094953.310000", "094949.470000", "094953.420000", "094949.580000", "094957.390000", "094953.550000", "094957.500000", "094953.660000", "094957.610000", "094953.770000", "094957.720000", "094953.880000", "094957.830000", "094953.990000", "094957.937500", "094954.097500", "094958.047500", "094954.207500", "094958.157500", "094954.317500", "094958.267500", "094954.427500", "094958.377500", "094954.537500", "094958.487500", "094954.647500", "094958.597500", "094954.757500", "094958.707500", "094954.867500", "094958.815000", "094954.977500", "094958.925000", "094955.085000", "094959.035000", "094955.195000", "094959.145000", "094955.305000", "094959.255000", "094955.415000", "094959.365000", "094955.525000", "094959.475000", "094955.635000", "094959.585000", "094955.745000", "094959.695000", "094955.855000", "094959.802500", "094955.962500", "094959.912500", "094956.072500", "095000.022500", "094956.182500", "095000.132500", "094956.292500", "095000.242500", "094956.402500", "095000.352500", "094956.512500", "095000.462500", "094956.622500", "095000.572500", "094956.732500", "095000.682500", "094956.842500", "095000.790000", "094956.950000", "095000.900000", "094957.060000", "095001.010000", "094957.170000", "095001.120000", "094957.280000", "095005.090000", "095001.250000", "095005.200000", "095001.360000", "095005.310000", "095001.470000", "095005.420000", "095001.580000", "095005.530000", "095001.690000", "095005.637500", "095001.797500", "095005.747500", "095001.907500", "095005.857500", "095002.017500", "095005.967500", "095002.127500", "095006.077500", "095002.237500", "095006.187500", "095002.347500", "095006.297500", "095002.457500", "095006.407500", "095002.567500", "095006.515000", "095002.677500", "095006.625000", "095002.785000", "095006.735000", "095002.895000", "095006.845000", "095003.005000", "095006.955000", "095003.115000", "095007.065000", "095003.225000", "095007.175000", "095003.335000", "095007.285000", "095003.445000", "095007.395000", "095003.555000", "095007.502500", "095003.662500", "095007.612500", "095003.772500", "095007.722500", "095003.882500", "095007.832500", "095003.992500", "095007.942500", "095004.102500", "095008.052500", "095004.212500", "095008.162500", "095004.322500", "095008.272500", "095004.432500", "095008.382500", "095004.542500", "095008.490000", "095004.650000", "095008.600000", "095004.760000", "095008.710000", "095004.870000", "095008.820000", "095004.980000", "095012.790000", "095008.950000", "095012.900000", "095009.060000", "095013.010000", "095009.170000", "095013.120000", "095009.280000", "095013.230000", "095009.390000", "095013.337500", "095009.497500", "095013.447500", "095009.607500", "095013.557500", "095009.717500", "095013.667500", "095009.827500", "095013.777500", "095009.937500", "095013.887500", "095010.047500", "095013.997500", "095010.157500", "095014.107500", "095010.267500", "095014.215000", "095010.377500", "095014.325000", "095010.485000", "095014.435000", "095010.595000", "095014.545000", "095010.705000", "095014.655000", "095010.815000", "095014.765000", "095010.925000", "095014.875000", "095011.035000", "095014.985000", "095011.145000", "095015.095000", "095011.255000", "095015.202500", "095011.362500", "095015.312500", "095011.472500", "095015.422500", "095011.582500", "095015.532500", "095011.692500", "095015.642500", "095011.802500", "095015.752500", "095011.912500", "095015.862500", "095012.022500", "095015.972500", "095012.132500", "095016.082500", "095012.242500", "095016.190000", "095012.350000", "095016.300000", "095012.460000", "095016.410000", "095012.570000", "095016.520000", "095012.680000", "095020.490000", "095016.650000", "095020.600000", "095016.760000", "095020.710000", "095016.870000", "095020.820000", "095016.980000", "095020.930000", "095017.090000", "095021.037500", "095017.197500", "095021.147500", "095017.307500", "095021.257500", "095017.417500", "095021.367500", "095017.527500", "095021.477500", "095017.637500", "095021.587500", "095017.747500", "095021.697500", "095017.857500", "095021.807500", "095017.967500", "095021.915000", "095018.077500", "095022.025000", "095018.185000", "095022.135000", "095018.295000", "095022.245000", "095018.405000", "095022.355000", "095018.515000", "095022.465000", "095018.625000", "095022.575000", "095018.735000", "095022.685000", "095018.845000", "095022.795000", "095018.955000", "095022.902500", "095019.062500", "095023.012500", "095019.172500", "095023.122500", "095019.282500", "095023.232500", "095019.392500", "095023.342500", "095019.502500", "095023.452500", "095019.612500", "095023.562500", "095019.722500", "095023.672500", "095019.832500", "095023.782500", "095019.942500", "095023.890000", "095020.050000", "095024.000000", "095020.160000", "095024.110000", "095020.270000", "095024.220000", "095020.380000", "095028.190000", "095024.350000", "095028.300000", "095024.460000", "095028.410000", "095024.570000", "095028.520000", "095024.680000", "095028.630000", "095024.790000", "095028.737500", "095024.897500", "095028.847500", "095025.007500", "095028.957500", "095025.117500", "095029.067500", "095025.227500", "095029.177500", "095025.337500", "095029.287500", "095025.447500", "095029.397500", "095025.557500", "095029.507500", "095025.667500", "095029.615000", "095025.777500", "095029.725000", "095025.885000", "095029.835000", "095025.995000", "095029.945000", "095026.105000", "095030.055000", "095026.215000", "095030.165000", "095026.325000", "095030.275000", "095026.435000", "095030.385000", "095026.545000", "095030.495000", "095026.655000", "095030.602500", "095026.762500", "095030.712500", "095026.872500", "095030.822500", "095026.982500", "095030.932500", "095027.092500", "095031.042500", "095027.202500", "095031.152500", "095027.312500", "095031.262500", "095027.422500", "095031.372500", "095027.532500", "095031.482500", "095027.642500", "095031.590000", "095027.750000", "095031.700000", "095027.860000", "095031.810000", "095027.970000", "095031.920000", "095028.080000", "095035.890000", "095032.050000", "095036.000000", "095032.160000", "095036.110000", "095032.270000", "095036.220000", "095032.380000", "095036.330000", "095032.490000", "095036.437500", "095032.597500", "095036.547500", "095032.707500", "095036.657500", "095032.817500", "095036.767500", "095032.927500", "095036.877500", "095033.037500", "095036.987500", "095033.147500", "095037.097500", "095033.257500", "095037.207500", "095033.367500", "095037.315000", "095033.477500", "095037.425000", "095033.585000", "095037.535000", "095033.695000", "095037.645000", "095033.805000", "095037.755000", "095033.915000", "095037.865000", "095034.025000", "095037.975000", "095034.135000", "095038.085000", "095034.245000", "095038.195000", "095034.355000", "095038.302500", "095034.462500", "095038.412500", "095034.572500", "095038.522500", "095034.682500", "095038.632500", "095034.792500", "095038.742500", "095034.902500", "095038.852500", "095035.012500", "095038.962500", "095035.122500", "095039.072500", "095035.232500", "095039.182500", "095035.342500", "095039.290000", "095035.450000", "095039.400000", "095035.560000", "095039.510000", "095035.670000", "095039.620000", "095035.780000", "095043.590000", "095039.750000", "095043.700000", "095039.860000", "095043.810000", "095039.970000", "095043.920000", "095040.080000", "095044.030000", "095040.190000", "095044.137500", "095040.297500", "095044.247500", "095040.407500", "095044.357500", "095040.517500", "095044.467500", "095040.627500", "095044.577500", "095040.737500", "095044.687500", "095040.847500", "095044.797500", "095040.957500", "095044.907500", "095041.067500", "095045.015000", "095041.177500", "095045.125000", "095041.285000", "095045.235000", "095041.395000", "095045.345000", "095041.505000", "095045.455000", "095041.615000", "095045.565000", "095041.725000", "095045.675000", "095041.835000", "095045.785000", "095041.945000", "095045.895000", "095042.055000", "095046.002500", "095042.162500", "095046.112500", "095042.272500", "095046.222500", "095042.382500", "095046.332500", "095042.492500", "095046.442500", "095042.602500", "095046.552500", "095042.712500", "095046.662500", "095042.822500", "095046.772500", "095042.932500", "095046.882500", "095043.042500", "095046.990000", "095043.150000", "095047.100000", "095043.260000", "095047.210000", "095043.370000", "095047.320000", "095043.480000", "095051.290000", "095047.450000", "095051.400000", "095047.560000", "095051.510000", "095047.670000", "095051.620000", "095047.780000", "095051.730000", "095047.890000", "095051.837500", "095047.997500", "095051.947500", "095048.107500", "095052.057500", "095048.217500", "095052.167500", "095048.327500", "095052.277500", "095048.437500", "095052.387500", "095048.547500", "095052.497500", "095048.657500", "095052.607500", "095048.767500", "095052.715000", "095048.877500", "095052.825000", "095048.985000", "095052.935000", "095049.095000", "095053.045000", "095049.205000", "095053.155000", "095049.315000", "095053.265000", "095049.425000", "095053.375000", "095049.535000", "095053.485000", "095049.645000", "095053.595000", "095049.755000", "095053.702500", "095049.862500", "095053.812500", "095049.972500", "095053.922500", "095050.082500", "095054.032500", "095050.192500", "095054.142500", "095050.302500", "095054.252500", "095050.412500", "095054.362500", "095050.522500", "095054.472500", "095050.632500", "095054.582500", "095050.742500", "095054.690000", "095050.850000", "095054.800000", "095050.960000", "095054.910000", "095051.070000", "095055.020000", "095051.180000", "095058.990000", "095055.150000", "095059.100000", "095055.260000", "095059.210000", "095055.370000", "095059.320000", "095055.480000", "095059.430000", "095055.590000", "095059.537500", "095055.697500", "095059.647500", "095055.807500", "095059.757500", "095055.917500", "095059.867500", "095056.027500", "095059.977500", "095056.137500", "095100.087500", "095056.247500", "095100.197500", "095056.357500", "095100.307500", "095056.467500", "095100.415000", "095056.577500", "095100.525000", "095056.685000", "095100.635000", "095056.795000", "095100.745000", "095056.905000", "095100.855000", "095057.015000", "095100.965000", "095057.125000", "095101.075000", "095057.235000", "095101.185000", "095057.345000", "095101.295000", "095057.455000", "095101.402500", "095057.562500", "095101.512500", "095057.672500", "095101.622500", "095057.782500", "095101.732500", "095057.892500", "095101.842500", "095058.002500", "095101.952500", "095058.112500", "095102.062500", "095058.222500", "095102.172500", "095058.332500", "095102.282500", "095058.442500", "095102.390000", "095058.550000", "095102.500000", "095058.660000", "095102.610000", "095058.770000", "095102.720000", "095058.880000", "095106.690000", "095102.850000", "095106.800000", "095102.960000", "095106.910000", "095103.070000", "095107.020000", "095103.180000", "095107.130000", "095103.290000", "095107.237500", "095103.397500", "095107.347500", "095103.507500", "095107.457500", "095103.617500", "095107.567500", "095103.727500", "095107.677500", "095103.837500", "095107.787500", "095103.947500", "095107.897500", "095104.057500", "095108.007500", "095104.167500", "095108.115000", "095104.277500", "095108.225000", "095104.385000", "095108.335000", "095104.495000", "095108.445000", "095104.605000", "095108.555000", "095104.715000", "095108.665000", "095104.825000", "095108.775000", "095104.935000", "095108.885000", "095105.045000", "095108.995000", "095105.155000", "095109.102500", "095105.262500", "095109.212500", "095105.372500", "095109.322500", "095105.482500", "095109.432500", "095105.592500", "095109.542500", "095105.702500", "095109.652500", "095105.812500", "095109.762500", "095105.922500", "095109.872500", "095106.032500", "095109.982500", "095106.142500", "095110.090000", "095106.250000", "095110.200000", "095106.360000", "095110.310000", "095106.470000", "095110.420000", "095106.580000", "095114.390000", "095110.550000", "095114.500000", "095110.660000", "095114.610000", "095110.770000", "095114.720000", "095110.880000", "095114.830000", "095110.990000", "095114.937500", "095111.097500", "095115.047500", "095111.207500", "095115.157500", "095111.317500", "095115.267500", "095111.427500", "095115.377500", "095111.537500", "095115.487500", "095111.647500", "095115.597500", "095111.757500", "095115.707500", "095111.867500", "095115.815000", "095111.977500", "095115.925000", "095112.085000", "095116.035000", "095112.195000", "095116.145000", "095112.305000", "095116.255000", "095112.415000", "095116.365000", "095112.525000", "095116.475000", "095112.635000", "095116.585000", "095112.745000", "095116.695000", "095112.855000", "095116.802500", "095112.962500", "095116.912500", "095113.072500", "095117.022500", "095113.182500", "095117.132500", "095113.292500", "095117.242500", "095113.402500", "095117.352500", "095113.512500", "095117.462500", "095113.622500", "095117.572500", "095113.732500", "095117.682500", "095113.842500", "095117.790000", "095113.950000", "095117.900000", "095114.060000", "095118.010000", "095114.170000", "095118.120000", "095114.280000", "095122.090000", "095118.250000", "095122.200000", "095118.360000", "095122.310000", "095118.470000", "095122.420000", "095118.580000", "095122.530000", "095118.690000", "095122.637500", "095118.797500", "095122.747500", "095118.907500", "095122.857500", "095119.017500", "095122.967500", "095119.127500", "095123.077500", "095119.237500", "095123.187500", "095119.347500", "095123.297500", "095119.457500", "095123.407500", "095119.567500", "095123.515000", "095119.677500", "095123.625000", "095119.785000", "095123.735000", "095119.895000", "095123.845000", "095120.005000", "095123.955000", "095120.115000", "095124.065000", "095120.225000", "095124.175000", "095120.335000", "095124.285000", "095120.445000", "095124.395000", "095120.555000", "095124.502500", "095120.662500", "095124.612500", "095120.772500", "095124.722500", "095120.882500", "095124.832500", "095120.992500", "095124.942500", "095121.102500", "095125.052500", "095121.212500", "095125.162500", "095121.322500", "095125.272500", "095121.432500", "095125.382500", "095121.542500", "095125.490000", "095121.650000", "095125.600000", "095121.760000", "095125.710000", "095121.870000", "095125.820000", "095121.980000", "095129.790000", "095125.950000", "095129.900000", "095126.060000", "095130.010000", "095126.170000", "095130.120000", "095126.280000", "095130.230000", "095126.390000", "095130.337500", "095126.497500", "095130.447500", "095126.607500", "095130.557500", "095126.717500", "095130.667500", "095126.827500", "095130.777500", "095126.937500", "095130.887500", "095127.047500", "095130.997500", "095127.157500", "095131.107500", "095127.267500", "095131.215000", "095127.377500", "095131.325000", "095127.485000", "095131.435000", "095127.595000", "095131.545000", "095127.705000", "095131.655000", "095127.815000", "095131.765000", "095127.925000", "095131.875000", "095128.035000", "095131.985000", "095128.145000", "095132.095000", "095128.255000", "095132.202500", "095128.362500", "095132.312500", "095128.472500", "095132.422500", "095128.582500", "095132.532500", "095128.692500", "095132.642500", "095128.802500", "095132.752500", "095128.912500", "095132.862500", "095129.022500", "095132.972500", "095129.132500", "095133.082500", "095129.242500", "095133.190000", "095129.350000", "095133.300000", "095129.460000", "095133.410000", "095129.570000", "095133.520000", "095129.680000", "095137.490000", "095133.650000", "095137.600000", "095133.760000", "095137.710000", "095133.870000", "095137.820000", "095133.980000", "095137.930000", "095134.090000", "095138.037500", "095134.197500", "095138.147500", "095134.307500", "095138.257500", "095134.417500", "095138.367500", "095134.527500", "095138.477500", "095134.637500", "095138.587500", "095134.747500", "095138.697500", "095134.857500", "095138.807500", "095134.967500", "095138.915000", "095135.077500", "095139.025000", "095135.185000", "095139.135000", "095135.295000", "095139.245000", "095135.405000", "095139.355000", "095135.515000", "095139.465000", "095135.625000", "095139.575000", "095135.735000", "095139.685000", "095135.845000", "095139.795000", "095135.955000", "095139.902500", "095136.062500", "095140.012500", "095136.172500", "095140.122500", "095136.282500", "095140.232500", "095136.392500", "095140.342500", "095136.502500", "095140.452500", "095136.612500", "095140.562500", "095136.722500", "095140.672500", "095136.832500", "095140.782500", "095136.942500", "095140.890000", "095137.050000", "095141.000000", "095137.160000", "095141.110000", "095137.270000", "095141.220000", "095137.380000", "095145.190000", "095141.350000", "095145.300000", "095141.460000", "095145.410000", "095141.570000", "095145.520000", "095141.680000", "095145.630000", "095141.790000", "095145.737500", "095141.897500", "095145.847500", "095142.007500", "095145.957500", "095142.117500", "095146.067500", "095142.227500", "095146.177500", "095142.337500", "095146.287500", "095142.447500", "095146.397500", "095142.557500", "095146.507500", "095142.667500", "095146.615000", "095142.777500", "095146.725000", "095142.885000", "095146.835000", "095142.995000", "095146.945000", "095143.105000", "095147.055000", "095143.215000", "095147.165000", "095143.325000", "095147.275000", "095143.435000", "095147.385000", "095143.545000", "095147.495000", "095143.655000", "095147.602500", "095143.762500", "095147.712500", "095143.872500", "095147.822500", "095143.982500", "095147.932500", "095144.092500", "095148.042500", "095144.202500", "095148.152500", "095144.312500", "095148.262500", "095144.422500", "095148.372500", "095144.532500", "095148.482500", "095144.642500", "095148.590000", "095144.750000", "095148.700000", "095144.860000", "095148.810000", "095144.970000", "095148.920000", "095145.080000", "095152.890000", "095149.050000", "095153.000000", "095149.160000", "095153.110000", "095149.270000", "095153.220000", "095149.380000", "095153.330000", "095149.490000", "095153.437500", "095149.597500", "095153.547500", "095149.707500", "095153.657500", "095149.817500", "095153.767500", "095149.927500", "095153.877500", "095150.037500", "095153.987500", "095150.147500", "095154.097500", "095150.257500", "095154.207500", "095150.367500", "095154.315000", "095150.477500", "095154.425000", "095150.585000", "095154.535000", "095150.695000", "095154.645000", "095150.805000", "095154.755000", "095150.915000", "095154.865000", "095151.025000", "095154.975000", "095151.135000", "095155.085000", "095151.245000", "095155.195000", "095151.355000", "095155.302500", "095151.462500", "095155.412500", "095151.572500", "095155.522500", "095151.682500", "095155.632500", "095151.792500", "095155.742500", "095151.902500", "095155.852500", "095152.012500", "095155.962500", "095152.122500", "095156.072500", "095152.232500", "095156.182500", "095152.342500", "095156.290000", "095152.450000", "095156.400000", "095152.560000", "095156.510000", "095152.670000", "095156.620000", "095152.780000", "095200.590000", "095156.750000", "095200.700000", "095156.860000", "095200.810000", "095156.970000", "095200.920000", "095157.080000", "095201.030000", "095157.190000", "095201.137500", "095157.297500", "095201.247500", "095157.407500", "095201.357500", "095157.517500", "095201.467500", "095157.627500", "095201.577500", "095157.737500", "095201.687500", "095157.847500", "095201.797500", "095157.957500", "095201.907500", "095158.067500", "095202.015000", "095158.177500", "095202.125000", "095158.285000", "095202.235000", "095158.395000", "095202.345000", "095158.505000", "095202.455000", "095158.615000", "095202.565000", "095158.725000", "095202.675000", "095158.835000", "095202.785000", "095158.945000", "095202.895000", "095159.055000", "095203.002500", "095159.162500", "095203.112500", "095159.272500", "095203.222500", "095159.382500", "095203.332500", "095159.492500", "095203.442500", "095159.602500", "095203.552500", "095159.712500", "095203.662500", "095159.822500", "095203.772500", "095159.932500", "095203.882500", "095200.042500", "095203.990000", "095200.150000", "095204.100000", "095200.260000", "095204.210000", "095200.370000", "095204.320000", "095200.480000", "095208.290000", "095204.450000", "095208.400000", "095204.560000", "095208.510000", "095204.670000", "095208.620000", "095204.780000", "095208.730000", "095204.890000", "095208.837500", "095204.997500", "095208.947500", "095205.107500", "095209.057500", "095205.217500", "095209.167500", "095205.327500", "095209.277500", "095205.437500", "095209.387500", "095205.547500", "095209.497500", "095205.657500", "095209.607500", "095205.767500", "095209.715000", "095205.877500", "095209.825000", "095205.985000", "095209.935000", "095206.095000", "095210.045000", "095206.205000", "095210.155000", "095206.315000", "095210.265000", "095206.425000", "095210.375000", "095206.535000", "095210.485000", "095206.645000", "095210.595000", "095206.755000", "095210.702500", "095206.862500", "095210.812500", "095206.972500", "095210.922500", "095207.082500", "095211.032500", "095207.192500", "095211.142500", "095207.302500", "095211.252500", "095207.412500", "095211.362500", "095207.522500", "095211.472500", "095207.632500", "095211.582500", "095207.742500", "095211.690000", "095207.850000", "095211.800000", "095207.960000", "095211.910000", "095208.070000", "095212.020000", "095208.180000", "095215.990000", "095212.150000", "095216.100000", "095212.260000", "095216.210000", "095212.370000", "095216.320000", "095212.480000", "095216.430000", "095212.590000", "095216.537500", "095212.697500", "095216.647500", "095212.807500", "095216.757500", "095212.917500", "095216.867500", "095213.027500", "095216.977500", "095213.137500", "095217.087500", "095213.247500", "095217.197500", "095213.357500", "095217.307500", "095213.467500", "095217.415000", "095213.577500", "095217.525000", "095213.685000", "095217.635000", "095213.795000", "095217.745000", "095213.905000", "095217.85500