{
  "AcquisitionMatrixPE": 80,
  "AcquisitionNumber": 1,
  "AcquisitionTime": "09:22:15.200000",
  "BandwidthPerPixelPhaseEncode": 48.077,
  "BaseResolution": 80,
  "BodyPartExamined": "BRAIN",
  "CoilCombinationMethod": "Sum of Squares",
  "ConsistencyInfo": "N4_VE11C_LATEST_20160120",
  "ConversionSoftware": "dcm2niix",
  "ConversionSoftwareVersion": "v1.0.20220720",
  "DerivedVendorReportedEchoSpacing": 0.000519999,
  "DeviceSerialNumber": "66112",
  "DwellTime": 2.7e-06,
  "EchoTime": 0.035,
  "EchoTrainLength": 39,
  "EffectiveEchoSpacing": 0.00026,
  "FlipAngle": 90,
  "HeudiconvVersion": "0.13.1",
  "ImageOrientationPatientDICOM": [0.971515, 0.236432, 0.0160842, -0.230194, 0.925401, 0.301072],
  "ImageOrientationText": "Tra>Cor(17.3)>Sag(-3.2)",
  "ImageType": [
    "ORIGINAL",
    "PRIMARY",
    "M",
    "ND",
    "NORM",
    "MOSAIC"
],
  "ImagingFrequency": 123.253,
  "InPlanePhaseEncodingDirectionDICOM": "COL",
  "InstitutionAddress": "Maynard 3,Hanover,NH,US,03755",
  "InstitutionName": "Dartmouth College - PBS",
  "InstitutionalDepartmentName": "Department",
  "MRAcquisitionType": "2D",
  "MagneticFieldStrength": 3,
  "Manufacturer": "Siemens",
  "ManufacturersModelName": "Prisma",
  "MatrixCoilMode": "GRAPPA",
  "Modality": "MR",
  "NonlinearGradientCorrection": false,
  "ParallelReductionFactorInPlane": 2,
  "PartialFourier": 1,
  "PatientPosition": "HFS",
  "PercentPhaseFOV": 100,
  "PercentSampling": 100,
  "PhaseEncodingDirection": "j-",
  "PhaseEncodingSteps": 79,
  "PhaseResolution": 1,
  "PixelBandwidth": 2315,
  "ProcedureStepDescription": "dbic^QA",
  "ProtocolName": "func-bold_task-rest_acq-p2",
  "PulseSequenceDetails": "%SiemensSeq%\\ep2d_bold",
  "ReceiveCoilActiveElements": "HEA;HEP",
  "ReceiveCoilName": "Head_32",
  "ReconMatrixPE": 80,
  "RefLinesPE": 24,
  "RepetitionTime": 2,
  "SAR": 0.0554864,
  "ScanOptions": "FS",
  "ScanningSequence": "EP",
  "SequenceName": "*epfid2d1_80",
  "SequenceVariant": "SK",
  "SeriesDescription": "func-bold_task-rest_acq-p2",
  "SeriesNumber": 5,
  "ShimSetting": [4151, -7686, -7515, 246, 45, -244, -53, 84],
  "SliceThickness": 3.5,
  "SliceTiming": [0.99, 0, 1.0575, 0.0675, 1.1225, 0.1325, 1.19, 0.2, 1.255, 0.265, 1.32, 0.33, 1.3875, 0.3975, 1.4525, 0.4625, 1.52, 0.53, 1.585, 0.595, 1.65, 0.66, 1.7175, 0.7275, 1.7825, 0.7925, 1.85, 0.86, 1.915, 0.925],
  "SoftwareVersions": "syngo MR E11",
  "SpacingBetweenSlices": 3.99,
  "StationName": "AWP66112",
  "TaskName": "rest",
  "TotalReadoutTime": 0.02054,
  "TxRefAmp": 226.13,
  "dcmmeta_affine": [
    [-2.9145450592041016, -0.6905807256698608, -0.22463181614875793, 152.7254180908203],
    [-0.7092949748039246, 2.7762019634246826, 1.1818329095840454, -90.63990783691406],
    [0.04825256019830704, -0.9032168984413147, 3.804327964782715, -21.452056884765625],
    [0.0, 0.0, 0.0, 1.0]
],
  "dcmmeta_reorient_transform": [
    [0.0, -1.0, 0.0, 79.0],
    [1.0, 0.0, 0.0, 0.0],
    [0.0, 0.0, 1.0, 0.0],
    [0.0, 0.0, 0.0, 1.0]
],
  "dcmmeta_shape": [80, 80, 30, 200],
  "dcmmeta_slice_dim": 2,
  "dcmmeta_version": 0.6,
  "global": {
    "const": {
      "AccessionNumber": "qa",
      "AcquisitionMatrix": [80, 0, 0, 80],
      "AngioFlag": "N",
      "BitsAllocated": 16,
      "BitsStored": 12,
      "BodyPartExamined": "BRAIN",
      "Columns": 480,
      "EchoNumbers": 1,
      "EchoTime": 35.0,
      "EchoTrainLength": 39,
      "FlipAngle": 90.0,
      "HighBit": 11,
      "ImageOrientationPatient": [0.9715149893458, 0.23643164848817, 0.01608418694205, -0.2301935744125, 0.92540066585698, 0.30107229352876],
      "ImagePositionPatient": [-542.96239630632, -825.77943631142, -283.10007957424],
      "ImageType": [
        "ORIGINAL",
        "PRIMARY",
        "M",
        "ND",
        "NORM",
        "MOSAIC"
],
      "ImagedNucleus": "1H",
      "ImagingFrequency": 123.252507,
      "InPlanePhaseEncodingDirection": "COL",
      "MRAcquisitionType": "2D",
      "MagneticFieldStrength": 3.0,
      "Manufacturer": "SIEMENS",
      "ManufacturerModelName": "Prisma",
      "Modality": "MR",
      "NumberOfAverages": 1.0,
      "NumberOfPhaseEncodingSteps": 79,
      "PercentPhaseFieldOfView": 100.0,
      "PercentSampling": 100.0,
      "PerformedProcedureStepStartTime": "092026.096000",
      "PhotometricInterpretation": "MONOCHROME2",
      "PixelBandwidth": 2315.0,
      "PixelRepresentation": 0,
      "PixelSpacing": [3.0, 3.0],
      "ProtocolName": "func-bold_task-rest_acq-p2",
      "RepetitionTime": 2000.0,
      "Rows": 480,
      "SAR": 0.05548640524148,
      "SamplesPerPixel": 1,
      "ScanOptions": "FS",
      "ScanningSequence": "EP",
      "SequenceName": "*epfid2d1_80",
      "SequenceVariant": "SK",
      "SeriesDescription": "func-bold_task-rest_acq-p2",
      "SeriesNumber": 5,
      "SeriesTime": "092259.027000",
      "SliceLocation": -55.899469116278,
      "SliceThickness": 3.5,
      "SmallestImagePixelValue": 0,
      "SoftwareVersions": "syngo MR E11",
      "SpacingBetweenSlices": 3.990000006874,
      "SpecificCharacterSet": "ISO_IR 100",
      "StudyID": "50",
      "StudyTime": "092025.913000",
      "TransmitCoilName": "Body",
      "VariableFlipAngleFlag": "N",
      "WindowCenterWidthExplanation": "Algo1",
      "dBdt": 0.0},
    "slices": {}
  },
  "time": {
    "samples": {
      "AcquisitionNumber": [1, 2, 3, 4, 5, 6, 7, 8, 9, 10, 11, 12, 13, 14, 15, 16, 17, 18, 19, 20, 21, 22, 23, 24, 25, 26, 27, 28, 29, 30, 31, 32, 33, 34, 35, 36, 37, 38, 39, 40, 41, 42, 43, 44, 45, 46, 47, 48, 49, 50, 51, 52, 53, 54, 55, 56, 57, 58, 59, 60, 61, 62, 63, 64, 65, 66, 67, 68, 69, 70, 71, 72, 73, 74, 75, 76, 77, 78, 79, 80, 81, 82, 83, 84, 85, 86, 87, 88, 89, 90, 91, 92, 93, 94, 95, 96, 97, 98, 99, 100, 101, 102, 103, 104, 105, 106, 107, 108, 109, 110, 111, 112, 113, 114, 115, 116, 117, 118, 119, 120, 121, 122, 123, 124, 125, 126, 127, 128, 129, 130, 131, 132, 133, 134, 135, 136, 137, 138, 139, 140, 141, 142, 143, 144, 145, 146, 147, 148, 149, 150, 151, 152, 153, 154, 155, 156, 157, 158, 159, 160, 161, 162, 163, 164, 165, 166, 167, 168, 169, 170, 171, 172, 173, 174, 175, 176, 177, 178, 179, 180, 181, 182, 183, 184, 185, 186, 187, 188, 189, 190, 191, 192, 193, 194, 195, 196, 197, 198, 199, 200],
      "AcquisitionTime": ["092215.200000", "092217.200000", "092219.200000", "092221.200000", "092223.200000", "092225.200000", "092227.200000", "092229.200000", "092231.200000", "092233.200000", "092235.200000", "092237.200000", "092239.200000", "092241.200000", "092243.200000", "092245.200000", "092247.200000", "092249.200000", "092251.200000", "092253.200000", "092255.200000", "092257.200000", "092259.200000", "092301.200000", "092303.200000", "092305.200000", "092307.200000", "092309.200000", "092311.200000", "092313.200000", "092315.200000", "092317.200000", "092319.200000", "092321.200000", "092323.200000", "092325.200000", "092327.200000", "092329.200000", "092331.200000", "092333.200000", "092335.200000", "092337.200000", "092339.200000", "092341.200000", "092343.200000", "092345.200000", "092347.200000", "092349.200000", "092351.200000", "092353.200000", "092355.200000", "092357.200000", "092359.200000", "092401.200000", "092403.200000", "092405.200000", "092407.200000", "092409.200000", "092411.200000", "092413.200000", "092415.200000", "092417.200000", "092419.200000", "092421.200000", "092423.200000", "092425.200000", "092427.200000", "092429.200000", "092431.200000", "092433.200000", "092435.200000", "092437.200000", "092439.200000", "092441.200000", "092443.200000", "092445.200000", "092447.200000", "092449.200000", "092451.200000", "092453.200000", "092455.200000", "092457.200000", "092459.200000", "092501.200000", "092503.200000", "092505.200000", "092507.200000", "092509.200000", "092511.200000", "092513.200000", "092515.200000", "092517.200000", "092519.200000", "092521.200000", "092523.200000", "092525.200000", "092527.200000", "092529.200000", "092531.200000", "092533.200000", "092535.200000", "092537.200000", "092539.200000", "092541.200000", "092543.200000", "092545.200000", "092547.200000", "092549.200000", "092551.200000", "092553.200000", "092555.200000", "092557.200000", "092559.200000", "092601.200000", "092603.200000", "092605.200000", "092607.200000", "092609.200000", "092611.200000", "092613.200000", "092615.200000", "092617.200000", "092619.200000", "092621.200000", "092623.200000", "092625.200000", "092627.200000", "092629.200000", "092631.200000", "092633.200000", "092635.200000", "092637.200000", "092639.200000", "092641.200000", "092643.200000", "092645.200000", "092647.200000", "092649.200000", "092651.200000", "092653.200000", "092655.200000", "092657.200000", "092659.200000", "092701.200000", "092703.200000", "092705.200000", "092707.200000", "092709.200000", "092711.200000", "092713.200000", "092715.200000", "092717.200000", "092719.200000", "092721.200000", "092723.200000", "092725.200000", "092727.200000", "092729.200000", "092731.200000", "092733.200000", "092735.200000", "092737.200000", "092739.200000", "092741.200000", "092743.200000", "092745.200000", "092747.200000", "092749.200000", "092751.200000", "092753.200000", "092755.200000", "092757.200000", "092759.200000", "092801.200000", "092803.200000", "092805.200000", "092807.200000", "092809.200000", "092811.200000", "092813.200000", "092815.200000", "092817.200000", "092819.200000", "092821.200000", "092823.200000", "092825.200000", "092827.200000", "092829.200000", "092831.200000", "092833.200000", "092835.200000", "092837.200000", "092839.200000", "092841.200000", "092843.200000", "092845.200000", "092847.200000", "092849.200000", "092851.200000", "092853.200000"],
      "ContentTime": ["092259.031000", "092259.034000", "092259.037000", "092259.047000", "092259.050000", "092259.052000", "092259.055000", "092259.057000", "092259.060000", "092259.063000", "092259.066000", "092259.068000", "092259.071000", "092259.073000", "092259.076000", "092259.078000", "092259.081000", "092259.083000", "092259.090000", "092259.093000", "092259.096000", "092259.098000", "092339.024000", "092339.027000", "092339.030000", "092339.033000", "092339.035000", "092339.038000", "092339.041000", "092339.047000", "092339.050000", "092339.052000", "092339.055000", "092339.057000", "092339.060000", "092339.063000", "092339.066000", "092339.068000", "092339.071000", "092339.074000", "092339.076000", "092339.079000", "092419.025000", "092419.028000", "092419.030000", "092419.033000", "092419.035000", "092419.038000", "092419.040000", "092419.043000", "092419.045000", "092419.048000", "092419.051000", "092419.053000", "092419.056000", "092419.058000", "092419.061000", "092419.063000", "092419.066000", "092419.068000", "092419.071000", "092419.073000", "092459.026000", "092459.028000", "092459.031000", "092459.033000", "092459.036000", "092459.038000", "092459.041000", "092459.044000", "092459.046000", "092459.049000", "092459.051000", "092459.054000", "092459.056000", "092459.059000", "092459.061000", "092459.064000", "092459.067000", "092459.069000", "092459.072000", "092459.074000", "092539.024000", "092539.028000", "092539.030000", "092539.033000", "092539.036000", "092539.038000", "092539.041000", "092539.043000", "092539.046000", "092539.048000", "092539.051000", "092539.054000", "092539.056000", "092539.059000", "092539.061000", "092539.064000", "092539.066000", "092539.069000", "092539.071000", "092539.074000", "092619.025000", "092619.027000", "092619.030000", "092619.033000", "092619.035000", "092619.038000", "092619.041000", "092619.043000", "092619.046000", "092619.048000", "092619.051000", "092619.054000", "092619.056000", "092619.059000", "092619.061000", "092619.064000", "092619.066000", "092619.069000", "092619.072000", "092619.074000", "092659.026000", "092659.028000", "092659.031000", "092659.033000", "092659.036000", "092659.038000", "092659.041000", "092659.043000", "092659.046000", "092659.048000", "092659.051000", "092659.054000", "092659.056000", "092659.059000", "092659.061000", "092659.064000", "092659.066000", "092659.069000", "092659.072000", "092659.074000", "092739.025000", "092739.028000", "092739.031000", "092739.033000", "092739.036000", "092739.038000", "092739.041000", "092739.043000", "092739.046000", "092739.049000", "092739.051000", "092739.054000", "092739.056000", "092739.071000", "092739.073000", "092739.076000", "092739.079000", "092739.081000", "092739.084000", "092739.086000", "092819.025000", "092819.027000", "092819.030000", "092819.033000", "092819.035000", "092819.038000", "092819.040000", "092819.043000", "092819.045000", "092819.048000", "092819.051000", "092819.053000", "092819.056000", "092819.058000", "092819.061000", "092819.063000", "092819.066000", "092819.069000", "092819.072000", "092819.074000", "092854.482000", "092854.485000", "092854.488000", "092854.490000", "092854.493000", "092854.496000", "092854.498000", "092854.507000", "092854.510000", "092854.516000", "092854.520000", "092854.522000", "092854.526000", "092854.529000", "092854.534000", "092854.551000", "092854.554000", "092854.558000"],
      "InstanceCreationTime": ["092259.031000", "092259.034000", "092259.037000", "092259.047000", "092259.050000", "092259.052000", "092259.055000", "092259.057000", "092259.060000", "092259.063000", "092259.066000", "092259.068000", "092259.071000", "092259.073000", "092259.076000", "092259.078000", "092259.081000", "092259.083000", "092259.090000", "092259.093000", "092259.096000", "092259.098000", "092339.024000", "092339.027000", "092339.030000", "092339.033000", "092339.035000", "092339.038000", "092339.041000", "092339.047000", "092339.050000", "092339.052000", "092339.055000", "092339.057000", "092339.060000", "092339.063000", "092339.066000", "092339.068000", "092339.071000", "092339.074000", "092339.076000", "092339.079000", "092419.025000", "092419.028000", "092419.030000", "092419.033000", "092419.035000", "092419.038000", "092419.040000", "092419.043000", "092419.045000", "092419.048000", "092419.051000", "092419.053000", "092419.056000", "092419.058000", "092419.061000", "092419.063000", "092419.066000", "092419.068000", "092419.071000", "092419.073000", "092459.026000", "092459.028000", "092459.031000", "092459.033000", "092459.036000", "092459.038000", "092459.041000", "092459.044000", "092459.046000", "092459.049000", "092459.051000", "092459.054000", "092459.056000", "092459.059000", "092459.061000", "092459.064000", "092459.067000", "092459.069000", "092459.072000", "092459.074000", "092539.024000", "092539.028000", "092539.030000", "092539.033000", "092539.036000", "092539.038000", "092539.041000", "092539.043000", "092539.046000", "092539.048000", "092539.051000", "092539.054000", "092539.056000", "092539.059000", "092539.061000", "092539.064000", "092539.066000", "092539.069000", "092539.071000", "092539.074000", "092619.025000", "092619.027000", "092619.030000", "092619.033000", "092619.035000", "092619.038000", "092619.041000", "092619.043000", "092619.046000", "092619.048000", "092619.051000", "092619.054000", "092619.056000", "092619.059000", "092619.061000", "092619.064000", "092619.066000", "092619.069000", "092619.072000", "092619.074000", "092659.026000", "092659.028000", "092659.031000", "092659.033000", "092659.036000", "092659.038000", "092659.041000", "092659.043000", "092659.046000", "092659.048000", "092659.051000", "092659.054000", "092659.056000", "092659.059000", "092659.061000", "092659.064000", "092659.066000", "092659.069000", "092659.072000", "092659.074000", "092739.025000", "092739.028000", "092739.031000", "092739.033000", "092739.036000", "092739.038000", "092739.041000", "092739.043000", "092739.046000", "092739.049000", "092739.051000", "092739.054000", "092739.056000", "092739.071000", "092739.073000", "092739.076000", "092739.079000", "092739.081000", "092739.084000", "092739.086000", "092819.025000", "092819.027000", "092819.030000", "092819.033000", "092819.035000", "092819.038000", "092819.040000", "092819.043000", "092819.045000", "092819.048000", "092819.051000", "092819.053000", "092819.056000", "092819.058000", "092819.061000", "092819.063000", "092819.066000", "092819.069000", "092819.072000", "092819.074000", "092854.482000", "092854.485000", "092854.488000", "092854.490000", "092854.493000", "092854.496000", "092854.498000", "092854.507000", "092854.510000", "092854.516000", "092854.520000", "092854.522000", "092854.526000", "092854.529000", "092854.534000", "092854.551000", "092854.554000", "092854.558000"],
      "InstanceNumber": [1, 2, 3, 4, 5, 6, 7, 8, 9, 10, 11, 12, 13, 14, 15, 16, 17, 18, 19, 20, 21, 22, 23, 24, 25, 26, 27, 28, 29, 30, 31, 32, 33, 34, 35, 36, 37, 38, 39, 40, 41, 42, 43, 44, 45, 46, 47, 48, 49, 50, 51, 52, 53, 54, 55, 56, 57, 58, 59, 60, 61, 62, 63, 64, 65, 66, 67, 68, 69, 70, 71, 72, 73, 74, 75, 76, 77, 78, 79, 80, 81, 82, 83, 84, 85, 86, 87, 88, 89, 90, 91, 92, 93, 94, 95, 96, 97, 98, 99, 100, 101, 102, 103, 104, 105, 106, 107, 108, 109, 110, 111, 112, 113, 114, 115, 116, 117, 118, 119, 120, 121, 122, 123, 124, 125, 126, 127, 128, 129, 130, 131, 132, 133, 134, 135, 136, 137, 138, 139, 140, 141, 142, 143, 144, 145, 146, 147, 148, 149, 150, 151, 152, 153, 154, 155, 156, 157, 158, 159, 160, 161, 162, 163, 164, 165, 166, 167, 168, 169, 170, 171, 172, 173, 174, 175, 176, 177, 178, 179, 180, 181, 182, 183, 184, 185, 186, 187, 188, 189, 190, 191, 192, 193, 194, 195, 196, 197, 198, 199, 200],
      "LargestImagePixelValue": [2228, 2231, 2228, 2235, 2236, 2237, 2229, 2234, 2232, 2229, 2229, 2235, 2235, 2233, 2234, 2234, 2234, 2233, 2234, 2234, 2233, 2229, 2235, 2232, 2232, 2235, 2235, 2233, 2233, 2233, 2237, 2232, 2232, 2238, 2229, 2229, 2234, 2239, 2232, 2231, 2228, 2234, 2235, 2236, 2229, 2234, 2238, 2231, 2233, 2230, 2230, 2238, 2234, 2231, 2228, 2229, 2230, 2235, 2232, 2233, 2230, 2232, 2227, 2241, 2236, 2227, 2232, 2235, 2231, 2231, 2230, 2236, 2229, 2235, 2226, 2232, 2229, 2230, 2239, 2234, 2231, 2231, 2230, 2231, 2231, 2235, 2228, 2236, 2237, 2234, 2231, 2239, 2228, 2235, 2236, 2237, 2237, 2238, 2232, 2235, 2236, 2237, 2233, 2229, 2237, 2230, 2233, 2230, 2231, 2232, 2231, 2231, 2231, 2236, 2235, 2237, 2234, 2230, 2233, 2227, 2232, 2228, 2232, 2230, 2228, 2231, 2234, 2235, 2234, 2239, 2225, 2230, 2228, 2231, 2232, 2229, 2232, 2234, 2233, 2224, 2233, 2229, 2231, 2228, 2235, 2230, 2239, 2242, 2229, 2236, 2238, 2237, 2228, 2229, 2237, 2232, 2225, 2233, 2233, 2235, 2237, 2226, 2237, 2236, 2237, 2236, 2231, 2236, 2234, 2235, 2227, 2232, 2234, 2231, 2230, 2230, 2231, 2237, 2237, 2237, 2230, 2227, 2229, 2233, 2237, 2232, 2233, 2238, 2231, 2236, 2232, 2230, 2236, 2238, 2233, 2233, 2231, 2235, 2233, 2233],
      "WindowCenter": [996.0, 996.0, 996.0, 996.0, 996.0, 996.0, 996.0, 996.0, 996.0, 996.0, 996.0, 996.0, 997.0, 996.0, 996.0, 996.0, 996.0, 996.0, 996.0, 996.0, 996.0, 996.0, 996.0, 995.0, 995.0, 995.0, 995.0, 995.0, 995.0, 995.0, 995.0, 995.0, 995.0, 995.0, 995.0, 995.0, 995.0, 995.0, 995.0, 995.0, 995.0, 995.0, 995.0, 995.0, 995.0, 995.0, 995.0, 995.0, 995.0, 995.0, 995.0, 995.0, 995.0, 995.0, 995.0, 996.0, 995.0, 995.0, 995.0, 995.0, 995.0, 996.0, 995.0, 995.0, 995.0, 996.0, 995.0, 995.0, 995.0, 995.0, 996.0, 995.0, 995.0, 995.0, 995.0, 995.0, 995.0, 995.0, 995.0, 995.0, 995.0, 995.0, 995.0, 995.0, 995.0, 995.0, 996.0, 995.0, 995.0, 995.0, 995.0, 995.0, 995.0, 995.0, 995.0, 995.0, 995.0, 995.0, 995.0, 995.0, 995.0, 995.0, 995.0, 995.0, 995.0, 995.0, 995.0, 995.0, 995.0, 995.0, 995.0, 995.0, 995.0, 995.0, 995.0, 996.0, 995.0, 995.0, 995.0, 995.0, 995.0, 995.0, 995.0, 995.0, 995.0, 995.0, 995.0, 995.0, 995.0, 996.0, 995.0, 995.0, 995.0, 995.0, 995.0, 995.0, 995.0, 995.0, 995.0, 995.0, 995.0, 995.0, 995.0, 995.0, 995.0, 995.0, 995.0, 995.0, 995.0, 995.0, 995.0, 995.0, 995.0, 995.0, 995.0, 995.0, 995.0, 995.0, 995.0, 995.0, 995.0, 995.0, 995.0, 995.0, 995.0, 995.0, 995.0, 995.0, 995.0, 995.0, 995.0, 995.0, 995.0, 995.0, 995.0, 995.0, 995.0, 995.0, 995.0, 995.0, 995.0, 995.0, 995.0, 995.0, 995.0, 995.0, 995.0, 996.0, 995.0, 995.0, 995.0, 995.0, 995.0, 995.0, 995.0, 995.0, 995.0, 995.0, 995.0, 995.0],
      "WindowWidth": [2190.0, 2189.0, 2189.0, 2190.0, 2189.0, 2190.0, 2189.0, 2189.0, 2189.0, 2189.0, 2189.0, 2189.0, 2190.0, 2189.0, 2189.0, 2189.0, 2189.0, 2189.0, 2189.0, 2189.0, 2189.0, 2189.0, 2189.0, 2189.0, 2189.0, 2189.0, 2189.0, 2189.0, 2189.0, 2189.0, 2189.0, 2189.0, 2189.0, 2189.0, 2189.0, 2189.0, 2189.0, 2189.0, 2189.0, 2189.0, 2189.0, 2189.0, 2189.0, 2189.0, 2189.0, 2189.0, 2189.0, 2189.0, 2189.0, 2189.0, 2189.0, 2189.0, 2189.0, 2189.0, 2189.0, 2190.0, 2189.0, 2189.0, 2189.0, 2189.0, 2189.0, 2190.0, 2189.0, 2189.0, 2189.0, 2189.0, 2188.0, 2189.0, 2188.0, 2188.0, 2189.0, 2188.0, 2188.0, 2188.0, 2188.0, 2188.0, 2188.0, 2188.0, 2188.0, 2188.0, 2188.0, 2188.0, 2188.0, 2188.0, 2188.0, 2188.0, 2189.0, 2188.0, 2188.0, 2188.0, 2188.0, 2188.0, 2188.0, 2188.0, 2188.0, 2188.0, 2188.0, 2188.0, 2188.0, 2188.0, 2188.0, 2188.0, 2188.0, 2188.0, 2188.0, 2188.0, 2188.0, 2188.0, 2188.0, 2188.0, 2187.0, 2187.0, 2188.0, 2188.0, 2188.0, 2188.0, 2188.0, 2188.0, 2188.0, 2188.0, 2187.0, 2188.0, 2187.0, 2187.0, 2187.0, 2187.0, 2187.0, 2187.0, 2187.0, 2188.0, 2188.0, 2188.0, 2188.0, 2187.0, 2187.0, 2187.0, 2188.0, 2187.0, 2187.0, 2187.0, 2187.0, 2187.0, 2187.0, 2187.0, 2187.0, 2187.0, 2187.0, 2187.0, 2187.0, 2187.0, 2187.0, 2187.0, 2187.0, 2187.0, 2187.0, 2187.0, 2187.0, 2187.0, 2187.0, 2187.0, 2187.0, 2187.0, 2187.0, 2187.0, 2187.0, 2187.0, 2187.0, 2187.0, 2187.0, 2187.0, 2187.0, 2187.0, 2187.0, 2187.0, 2187.0, 2187.0, 2187.0, 2187.0, 2187.0, 2187.0, 2187.0, 2187.0, 2187.0, 2187.0, 2187.0, 2187.0, 2187.0, 2188.0, 2187.0, 2187.0, 2187.0, 2187.0, 2187.0, 2187.0, 2187.0, 2187.0, 2187.0, 2187.0, 2187.0, 2187.0]
    },
    "slices": {}
  }
}