{
  "AcquisitionDateTime": "2017-04-10T92:90:9.132812", 
  "ConversionSoftware": "dcm2niix", 
  "ConversionSoftwareVersion": "v1.0.20170130", 
  "EchoTime": 0.035, 
  "EffectiveEchoSpacing": 0.000279999, 
  "FlipAngle": 90, 
  "ImageType": [
    "ORIGINAL", 
    "PRIMARY", 
    "M", 
    "ND", 
    "NORM", 
    "MOSAIC"
], 
  "MagneticFieldStrength": 3, 
  "Manufacturer": "Siemens", 
  "ManufacturersModelName": "Prisma", 
  "PhaseEncodingDirection": "j-", 
  "ProcedureStepDescription": "dbic_QA", 
  "ProtocolName": "func-bold_task-rest_acq-p2-s4-3.5mm", 
  "RepetitionTime": 2, 
  "SliceTiming": [1.485, 0, 0.99, 0.2475, 1.2375, 0.7425, 1.7325, 0.495, 1.485, 0, 0.99, 0.2475, 1.2375, 0.7425, 1.7325, 0.495, 1.485, 0, 0.99, 0.2475, 1.2375, 0.7425, 1.7325, 0.495, 1.485, 0, 0.99, 0.2475, 1.2375, 0.7425, 1.7325, 0.495], 
  "dcmmeta_affine": [
    [-2.9145450592041016, -0.6905807256698608, -0.22463181614875793, 152.95005798339844], 
    [-0.7092949748039246, 2.7762019634246826, 1.1818329095840454, -91.82174682617188], 
    [0.04825256019830704, -0.9032168984413147, 3.804327964782715, -25.256385803222656], 
    [0.0, 0.0, 0.0, 1.0]
], 
  "dcmmeta_reorient_transform": [
    [0.0, -1.0, 0.0, 79.0], 
    [1.0, 0.0, 0.0, 0.0], 
    [0.0, 0.0, 1.0, 0.0], 
    [0.0, 0.0, 0.0, 1.0]
], 
  "dcmmeta_shape": [80, 80, 32, 200], 
  "dcmmeta_slice_dim": 2, 
  "dcmmeta_version": 0.6, 
  "global": {
    "const": {
      "AccessionNumber": "qa", 
      "AcquisitionMatrix": [80, 0, 0, 80], 
      "AngioFlag": "N", 
      "BitsAllocated": 16, 
      "BitsStored": 12, 
      "BodyPartExamined": "BRAIN", 
      "Columns": 480, 
      "EchoNumbers": 1, 
      "EchoTime": 35.0, 
      "EchoTrainLength": 39, 
      "FlipAngle": 90.0, 
      "HighBit": 11, 
      "ImageOrientationPatient": [0.9715149893458, 0.23643164848817, 0.01608418694205, -0.2301935744125, 0.92540066585698, 0.30107229352876], 
      "ImagePositionPatient": [-543.1870285695, -824.59760304421, -286.90440849269], 
      "ImageType": [
        "ORIGINAL", 
        "PRIMARY", 
        "M", 
        "ND", 
        "NORM", 
        "MOSAIC"
], 
      "ImagedNucleus": "1H", 
      "ImagingFrequency": 123.252508, 
      "InPlanePhaseEncodingDirection": "COL", 
      "MRAcquisitionType": "2D", 
      "MagneticFieldStrength": 3.0, 
      "Manufacturer": "SIEMENS", 
      "ManufacturerModelName": "Prisma", 
      "Modality": "MR", 
      "NumberOfAverages": 1.0, 
      "NumberOfPhaseEncodingSteps": 79, 
      "PercentPhaseFieldOfView": 100.0, 
      "PercentSampling": 100.0, 
      "PerformedProcedureStepStartTime": "092026.096000", 
      "PhotometricInterpretation": "MONOCHROME2", 
      "PixelBandwidth": 2315.0, 
      "PixelRepresentation": 0, 
      "PixelSpacing": [3.0, 3.0], 
      "PositionReferenceIndicator": "", 
      "ProtocolName": "func-bold_task-rest_acq-p2-s4-3.5mm", 
      "RepetitionTime": 2000.0, 
      "Rows": 480, 
      "SAR": 0.02086450566846, 
      "SamplesPerPixel": 1, 
      "ScanOptions": "FS", 
      "ScanningSequence": "EP", 
      "SequenceName": "*epfid2d1_80", 
      "SequenceVariant": "SK", 
      "SeriesDescription": "func-bold_task-rest_acq-p2-s4-3.5mm", 
      "SeriesNumber": 7, 
      "SeriesTime": "092959.097000", 
      "SliceLocation": -59.889470124418, 
      "SliceThickness": 3.5, 
      "SmallestImagePixelValue": 0, 
      "SoftwareVersions": "syngo MR E11", 
      "SpacingBetweenSlices": 3.9900000710389, 
      "SpecificCharacterSet": "ISO_IR 100", 
      "StudyID": "50", 
      "StudyTime": "092025.913000", 
      "TransmitCoilName": "Body", 
      "VariableFlipAngleFlag": "N", 
      "WindowCenter": 927.0, 
      "WindowCenterWidthExplanation": "Algo1", 
      "dBdt": 0.0}, 
    "slices": {}
  }, 
  "time": {
    "samples": {
      "AcquisitionNumber": [1, 2, 3, 4, 5, 6, 7, 8, 9, 10, 11, 12, 13, 14, 15, 16, 17, 18, 19, 20, 21, 22, 23, 24, 25, 26, 27, 28, 29, 30, 31, 32, 33, 34, 35, 36, 37, 38, 39, 40, 41, 42, 43, 44, 45, 46, 47, 48, 49, 50, 51, 52, 53, 54, 55, 56, 57, 58, 59, 60, 61, 62, 63, 64, 65, 66, 67, 68, 69, 70, 71, 72, 73, 74, 75, 76, 77, 78, 79, 80, 81, 82, 83, 84, 85, 86, 87, 88, 89, 90, 91, 92, 93, 94, 95, 96, 97, 98, 99, 100, 101, 102, 103, 104, 105, 106, 107, 108, 109, 110, 111, 112, 113, 114, 115, 116, 117, 118, 119, 120, 121, 122, 123, 124, 125, 126, 127, 128, 129, 130, 131, 132, 133, 134, 135, 136, 137, 138, 139, 140, 141, 142, 143, 144, 145, 146, 147, 148, 149, 150, 151, 152, 153, 154, 155, 156, 157, 158, 159, 160, 161, 162, 163, 164, 165, 166, 167, 168, 169, 170, 171, 172, 173, 174, 175, 176, 177, 178, 179, 180, 181, 182, 183, 184, 185, 186, 187, 188, 189, 190, 191, 192, 193, 194, 195, 196, 197, 198, 199, 200], 
      "AcquisitionTime": ["092909.130000", "092911.130000", "092913.130000", "092915.130000", "092917.130000", "092919.130000", "092921.130000", "092923.130000", "092925.130000", "092927.130000", "092929.130000", "092931.130000", "092933.130000", "092935.130000", "092937.130000", "092939.130000", "092941.130000", "092943.130000", "092945.130000", "092947.130000", "092949.130000", "092951.130000", "092953.130000", "092955.130000", "092957.130000", "092959.130000", "093001.130000", "093003.130000", "093005.130000", "093007.130000", "093009.130000", "093011.130000", "093013.130000", "093015.130000", "093017.130000", "093019.130000", "093021.130000", "093023.130000", "093025.130000", "093027.130000", "093029.130000", "093031.130000", "093033.130000", "093035.130000", "093037.130000", "093039.130000", "093041.130000", "093043.130000", "093045.130000", "093047.130000", "093049.130000", "093051.130000", "093053.130000", "093055.130000", "093057.130000", "093059.130000", "093101.130000", "093103.130000", "093105.130000", "093107.130000", "093109.130000", "093111.130000", "093113.130000", "093115.130000", "093117.130000", "093119.130000", "093121.130000", "093123.130000", "093125.130000", "093127.130000", "093129.130000", "093131.130000", "093133.130000", "093135.130000", "093137.130000", "093139.130000", "093141.130000", "093143.130000", "093145.130000", "093147.130000", "093149.130000", "093151.130000", "093153.130000", "093155.130000", "093157.130000", "093159.130000", "093201.130000", "093203.130000", "093205.130000", "093207.130000", "093209.130000", "093211.130000", "093213.130000", "093215.130000", "093217.130000", "093219.130000", "093221.130000", "093223.130000", "093225.130000", "093227.130000", "093229.130000", "093231.130000", "093233.130000", "093235.130000", "093237.130000", "093239.130000", "093241.130000", "093243.130000", "093245.130000", "093247.130000", "093249.130000", "093251.130000", "093253.130000", "093255.130000", "093257.130000", "093259.130000", "093301.130000", "093303.130000", "093305.130000", "093307.130000", "093309.130000", "093311.130000", "093313.130000", "093315.130000", "093317.130000", "093319.130000", "093321.130000", "093323.130000", "093325.130000", "093327.130000", "093329.130000", "093331.130000", "093333.130000", "093335.130000", "093337.130000", "093339.130000", "093341.130000", "093343.130000", "093345.130000", "093347.130000", "093349.130000", "093351.130000", "093353.130000", "093355.130000", "093357.130000", "093359.130000", "093401.130000", "093403.130000", "093405.130000", "093407.130000", "093409.130000", "093411.130000", "093413.130000", "093415.130000", "093417.130000", "093419.130000", "093421.130000", "093423.130000", "093425.130000", "093427.130000", "093429.130000", "093431.130000", "093433.130000", "093435.130000", "093437.130000", "093439.130000", "093441.130000", "093443.130000", "093445.130000", "093447.130000", "093449.130000", "093451.130000", "093453.130000", "093455.130000", "093457.130000", "093459.130000", "093501.130000", "093503.130000", "093505.130000", "093507.130000", "093509.130000", "093511.130000", "093513.130000", "093515.130000", "093517.130000", "093519.130000", "093521.130000", "093523.130000", "093525.130000", "093527.130000", "093529.130000", "093531.130000", "093533.130000", "093535.130000", "093537.130000", "093539.130000", "093541.130000", "093543.130000", "093545.130000", "093547.130000"], 
      "ContentTime": ["092959.100000", "092959.103000", "092959.106000", "092959.109000", "092959.111000", "092959.114000", "092959.116000", "092959.119000", "092959.121000", "092959.124000", "092959.127000", "092959.129000", "092959.132000", "092959.134000", "092959.137000", "092959.139000", "092959.146000", "092959.149000", "092959.151000", "092959.154000", "092959.157000", "092959.159000", "092959.162000", "092959.170000", "092959.173000", "093039.094000", "093039.098000", "093039.100000", "093039.103000", "093039.105000", "093039.108000", "093039.110000", "093039.113000", "093039.115000", "093039.118000", "093039.120000", "093039.123000", "093039.140000", "093039.143000", "093039.145000", "093039.148000", "093039.151000", "093039.154000", "093039.156000", "093039.159000", "093119.094000", "093119.097000", "093119.100000", "093119.102000", "093119.105000", "093119.108000", "093119.110000", "093119.113000", "093119.115000", "093119.118000", "093119.121000", "093119.123000", "093119.126000", "093119.128000", "093119.131000", "093119.133000", "093119.136000", "093119.139000", "093119.141000", "093119.144000", "093159.095000", "093159.098000", "093159.101000", "093159.104000", "093159.106000", "093159.109000", "093159.111000", "093159.114000", "093159.116000", "093159.119000", "093159.121000", "093159.132000", "093159.134000", "093159.137000", "093159.139000", "093159.142000", "093159.144000", "093159.147000", "093159.150000", "093159.152000", "093239.094000", "093239.097000", "093239.100000", "093239.103000", "093239.105000", "093239.108000", "093239.110000", "093239.113000", "093239.116000", "093239.118000", "093239.121000", "093239.123000", "093239.126000", "093239.128000", "093239.131000", "093239.134000", "093239.136000", "093239.139000", "093239.141000", "093239.151000", "093319.095000", "093319.097000", "093319.100000", "093319.103000", "093319.105000", "093319.108000", "093319.111000", "093319.113000", "093319.116000", "093319.118000", "093319.121000", "093319.124000", "093319.126000", "093319.129000", "093319.131000", "093319.134000", "093319.137000", "093319.139000", "093319.142000", "093319.144000", "093359.095000", "093359.098000", "093359.101000", "093359.103000", "093359.106000", "093359.109000", "093359.111000", "093359.114000", "093359.116000", "093359.119000", "093359.121000", "093359.124000", "093359.127000", "093359.129000", "093359.132000", "093359.134000", "093359.137000", "093359.140000", "093359.142000", "093359.145000", "093439.096000", "093439.098000", "093439.101000", "093439.103000", "093439.106000", "093439.109000", "093439.111000", "093439.114000", "093439.116000", "093439.119000", "093439.121000", "093439.124000", "093439.126000", "093439.129000", "093439.131000", "093439.134000", "093439.137000", "093439.139000", "093439.142000", "093439.146000", "093519.095000", "093519.097000", "093519.100000", "093519.102000", "093519.105000", "093519.108000", "093519.110000", "093519.113000", "093519.115000", "093519.118000", "093519.120000", "093519.123000", "093519.125000", "093519.128000", "093519.130000", "093519.133000", "093519.136000", "093519.138000", "093519.141000", "093519.143000", "093548.460000", "093548.463000", "093548.466000", "093548.468000", "093548.471000", "093548.474000", "093548.476000", "093548.479000", "093548.481000", "093548.484000", "093548.487000", "093548.490000", "093548.494000", "093548.498000", "093548.500000"], 
      "InstanceCreationTime": ["092959.100000", "092959.103000", "092959.106000", "092959.109000", "092959.111000", "092959.114000", "092959.116000", "092959.119000", "092959.121000", "092959.124000", "092959.127000", "092959.129000", "092959.132000", "092959.134000", "092959.137000", "092959.139000", "092959.146000", "092959.149000", "092959.151000", "092959.154000", "092959.157000", "092959.159000", "092959.162000", "092959.170000", "092959.173000", "093039.094000", "093039.098000", "093039.100000", "093039.103000", "093039.105000", "093039.108000", "093039.110000", "093039.113000", "093039.115000", "093039.118000", "093039.120000", "093039.123000", "093039.140000", "093039.143000", "093039.145000", "093039.148000", "093039.151000", "093039.154000", "093039.156000", "093039.159000", "093119.094000", "093119.097000", "093119.100000", "093119.102000", "093119.105000", "093119.108000", "093119.110000", "093119.113000", "093119.115000", "093119.118000", "093119.121000", "093119.123000", "093119.126000", "093119.128000", "093119.131000", "093119.133000", "093119.136000", "093119.139000", "093119.141000", "093119.144000", "093159.095000", "093159.098000", "093159.101000", "093159.104000", "093159.106000", "093159.109000", "093159.111000", "093159.114000", "093159.116000", "093159.119000", "093159.121000", "093159.132000", "093159.134000", "093159.137000", "093159.139000", "093159.142000", "093159.144000", "093159.147000", "093159.150000", "093159.152000", "093239.094000", "093239.097000", "093239.100000", "093239.103000", "093239.105000", "093239.108000", "093239.110000", "093239.113000", "093239.116000", "093239.118000", "093239.121000", "093239.123000", "093239.126000", "093239.128000", "093239.131000", "093239.134000", "093239.136000", "093239.139000", "093239.141000", "093239.151000", "093319.095000", "093319.097000", "093319.100000", "093319.103000", "093319.105000", "093319.108000", "093319.111000", "093319.113000", "093319.116000", "093319.118000", "093319.121000", "093319.124000", "093319.126000", "093319.129000", "093319.131000", "093319.134000", "093319.137000", "093319.139000", "093319.142000", "093319.144000", "093359.095000", "093359.098000", "093359.101000", "093359.103000", "093359.106000", "093359.109000", "093359.111000", "093359.114000", "093359.116000", "093359.119000", "093359.121000", "093359.124000", "093359.127000", "093359.129000", "093359.132000", "093359.134000", "093359.137000", "093359.140000", "093359.142000", "093359.145000", "093439.096000", "093439.098000", "093439.101000", "093439.103000", "093439.106000", "093439.109000", "093439.111000", "093439.114000", "093439.116000", "093439.119000", "093439.121000", "093439.124000", "093439.126000", "093439.129000", "093439.131000", "093439.134000", "093439.137000", "093439.139000", "093439.142000", "093439.146000", "093519.095000", "093519.097000", "093519.100000", "093519.102000", "093519.105000", "093519.108000", "093519.110000", "093519.113000", "093519.115000", "093519.118000", "093519.120000", "093519.123000", "093519.125000", "093519.128000", "093519.130000", "093519.133000", "093519.136000", "093519.138000", "093519.141000", "093519.143000", "093548.460000", "093548.463000", "093548.466000", "093548.468000", "093548.471000", "093548.474000", "093548.476000", "093548.479000", "093548.481000", "093548.484000", "093548.487000", "093548.490000", "093548.494000", "093548.498000", "093548.500000"], 
      "InstanceNumber": [1, 2, 3, 4, 5, 6, 7, 8, 9, 10, 11, 12, 13, 14, 15, 16, 17, 18, 19, 20, 21, 22, 23, 24, 25, 26, 27, 28, 29, 30, 31, 32, 33, 34, 35, 36, 37, 38, 39, 40, 41, 42, 43, 44, 45, 46, 47, 48, 49, 50, 51, 52, 53, 54, 55, 56, 57, 58, 59, 60, 61, 62, 63, 64, 65, 66, 67, 68, 69, 70, 71, 72, 73, 74, 75, 76, 77, 78, 79, 80, 81, 82, 83, 84, 85, 86, 87, 88, 89, 90, 91, 92, 93, 94, 95, 96, 97, 98, 99, 100, 101, 102, 103, 104, 105, 106, 107, 108, 109, 110, 111, 112, 113, 114, 115, 116, 117, 118, 119, 120, 121, 122, 123, 124, 125, 126, 127, 128, 129, 130, 131, 132, 133, 134, 135, 136, 137, 138, 139, 140, 141, 142, 143, 144, 145, 146, 147, 148, 149, 150, 151, 152, 153, 154, 155, 156, 157, 158, 159, 160, 161, 162, 163, 164, 165, 166, 167, 168, 169, 170, 171, 172, 173, 174, 175, 176, 177, 178, 179, 180, 181, 182, 183, 184, 185, 186, 187, 188, 189, 190, 191, 192, 193, 194, 195, 196, 197, 198, 199, 200], 
      "LargestImagePixelValue": [2257, 2249, 2257, 2252, 2251, 2255, 2253, 2254, 2253, 2257, 2256, 2261, 2256, 2256, 2253, 2259, 2257, 2253, 2256, 2263, 2260, 2261, 2261, 2260, 2259, 2258, 2257, 2257, 2258, 2258, 2256, 2254, 2258, 2256, 2257, 2261, 2255, 2260, 2259, 2261, 2258, 2256, 2258, 2257, 2251, 2265, 2260, 2256, 2259, 2256, 2257, 2258, 2260, 2257, 2267, 2259, 2255, 2259, 2256, 2261, 2263, 2258, 2256, 2257, 2255, 2261, 2263, 2258, 2258, 2259, 2257, 2258, 2267, 2258, 2259, 2262, 2260, 2258, 2258, 2255, 2261, 2260, 2255, 2257, 2255, 2258, 2259, 2260, 2256, 2259, 2267, 2258, 2260, 2260, 2260, 2255, 2257, 2261, 2255, 2261, 2261, 2259, 2266, 2260, 2263, 2257, 2258, 2259, 2257, 2265, 2256, 2261, 2255, 2258, 2259, 2260, 2264, 2260, 2256, 2262, 2258, 2254, 2257, 2263, 2255, 2263, 2261, 2264, 2259, 2260, 2263, 2262, 2261, 2257, 2257, 2264, 2260, 2256, 2261, 2257, 2260, 2262, 2259, 2264, 2261, 2261, 2262, 2256, 2264, 2269, 2261, 2264, 2261, 2258, 2259, 2260, 2260, 2260, 2261, 2253, 2260, 2260, 2260, 2264, 2263, 2264, 2265, 2259, 2257, 2259, 2264, 2262, 2261, 2258, 2255, 2262, 2263, 2265, 2259, 2264, 2264, 2262, 2260, 2264, 2259, 2264, 2263, 2258, 2261, 2262, 2257, 2259, 2263, 2261, 2262, 2260, 2261, 2259, 2262, 2260], 
      "WindowWidth": [2120.0, 2120.0, 2120.0, 2120.0, 2120.0, 2120.0, 2120.0, 2120.0, 2120.0, 2120.0, 2120.0, 2120.0, 2120.0, 2120.0, 2120.0, 2120.0, 2120.0, 2120.0, 2120.0, 2121.0, 2120.0, 2120.0, 2120.0, 2120.0, 2120.0, 2120.0, 2120.0, 2120.0, 2120.0, 2120.0, 2120.0, 2120.0, 2120.0, 2120.0, 2120.0, 2120.0, 2120.0, 2120.0, 2120.0, 2120.0, 2120.0, 2120.0, 2120.0, 2120.0, 2120.0, 2120.0, 2120.0, 2120.0, 2120.0, 2120.0, 2120.0, 2120.0, 2120.0, 2120.0, 2120.0, 2120.0, 2120.0, 2120.0, 2120.0, 2120.0, 2120.0, 2120.0, 2120.0, 2120.0, 2120.0, 2120.0, 2120.0, 2120.0, 2120.0, 2120.0, 2121.0, 2120.0, 2120.0, 2120.0, 2120.0, 2120.0, 2120.0, 2120.0, 2120.0, 2120.0, 2120.0, 2120.0, 2120.0, 2120.0, 2120.0, 2120.0, 2120.0, 2121.0, 2120.0, 2120.0, 2120.0, 2120.0, 2121.0, 2120.0, 2120.0, 2121.0, 2120.0, 2120.0, 2120.0, 2120.0, 2120.0, 2121.0, 2120.0, 2120.0, 2121.0, 2120.0, 2120.0, 2120.0, 2120.0, 2120.0, 2120.0, 2120.0, 2120.0, 2120.0, 2120.0, 2120.0, 2120.0, 2120.0, 2120.0, 2120.0, 2120.0, 2120.0, 2120.0, 2121.0, 2120.0, 2120.0, 2120.0, 2120.0, 2120.0, 2120.0, 2120.0, 2120.0, 2120.0, 2120.0, 2120.0, 2120.0, 2120.0, 2121.0, 2120.0, 2120.0, 2120.0, 2120.0, 2120.0, 2120.0, 2120.0, 2121.0, 2120.0, 2120.0, 2120.0, 2120.0, 2120.0, 2120.0, 2120.0, 2120.0, 2120.0, 2120.0, 2120.0, 2120.0, 2120.0, 2120.0, 2120.0, 2120.0, 2120.0, 2120.0, 2120.0, 2120.0, 2120.0, 2120.0, 2120.0, 2120.0, 2120.0, 2120.0, 2120.0, 2120.0, 2120.0, 2120.0, 2120.0, 2120.0, 2120.0, 2120.0, 2120.0, 2120.0, 2120.0, 2120.0, 2120.0, 2120.0, 2120.0, 2120.0, 2120.0, 2120.0, 2120.0, 2120.0, 2120.0, 2120.0, 2120.0, 2120.0, 2120.0, 2120.0, 2120.0, 2120.0]
    }, 
    "slices": {}
  }
}