{
  "AcquisitionMatrixPE": 80,
  "AcquisitionNumber": 1,
  "AcquisitionTime": "10:05:35.197500",
  "BandwidthPerPixelPhaseEncode": 48.077,
  "BaseResolution": 80,
  "BodyPartExamined": "BRAIN",
  "CoilCombinationMethod": "Sum of Squares",
  "ConsistencyInfo": "N4_VE11C_LATEST_20160120",
  "ConversionSoftware": "dcm2niix",
  "ConversionSoftwareVersion": "v1.0.20220720",
  "DerivedVendorReportedEchoSpacing": 0.000519999,
  "DeviceSerialNumber": "66112",
  "DwellTime": 2.7e-06,
  "EchoTime": 0.035,
  "EchoTrainLength": 39,
  "EffectiveEchoSpacing": 0.00026,
  "FlipAngle": 90,
  "HeudiconvVersion": "0.13.1",
  "ImageOrientationPatientDICOM": [0.984741, 0.173734, 0.0100456, -0.168148, 0.93503, 0.312162],
  "ImageOrientationText": "Tra>Cor(18.0)>Sag(-2.6)",
  "ImageType": [
    "ORIGINAL",
    "PRIMARY",
    "M",
    "ND",
    "NORM",
    "MOSAIC"
],
  "ImagingFrequency": 123.252,
  "InPlanePhaseEncodingDirectionDICOM": "COL",
  "InstitutionAddress": "Maynard 3,Hanover,NH,US,03755",
  "InstitutionName": "Dartmouth College - PBS",
  "InstitutionalDepartmentName": "Department",
  "MRAcquisitionType": "2D",
  "MagneticFieldStrength": 3,
  "Manufacturer": "Siemens",
  "ManufacturersModelName": "Prisma",
  "MatrixCoilMode": "GRAPPA",
  "Modality": "MR",
  "NonlinearGradientCorrection": false,
  "ParallelReductionFactorInPlane": 2,
  "PartialFourier": 1,
  "PatientPosition": "HFS",
  "PercentPhaseFOV": 100,
  "PercentSampling": 100,
  "PhaseEncodingDirection": "j-",
  "PhaseEncodingSteps": 79,
  "PhaseResolution": 1,
  "PixelBandwidth": 2315,
  "ProcedureStepDescription": "dbic^QA",
  "ProtocolName": "func-bold_task-rest_acq-p2",
  "PulseSequenceDetails": "%SiemensSeq%\\ep2d_bold",
  "ReceiveCoilActiveElements": "HEA;HEP",
  "ReceiveCoilName": "Head_32",
  "ReconMatrixPE": 80,
  "RefLinesPE": 24,
  "RepetitionTime": 2,
  "SAR": 0.0656634,
  "ScanOptions": "FS",
  "ScanningSequence": "EP",
  "SequenceName": "*epfid2d1_80",
  "SequenceVariant": "SK",
  "SeriesDescription": "func-bold_task-rest_acq-p2",
  "SeriesNumber": 5,
  "ShimSetting": [4143, -7685, -7500, 277, -82, -80, -59, 58],
  "SliceThickness": 3.5,
  "SliceTiming": [0.99, 0, 1.055, 0.065, 1.1225, 0.1325, 1.1875, 0.1975, 1.255, 0.265, 1.32, 0.33, 1.385, 0.395, 1.4525, 0.4625, 1.5175, 0.5275, 1.585, 0.595, 1.65, 0.66, 1.715, 0.725, 1.7825, 0.7925, 1.8475, 0.8575, 1.915, 0.925],
  "SoftwareVersions": "syngo MR E11",
  "SpacingBetweenSlices": 3.99,
  "StationName": "AWP66112",
  "TaskName": "rest",
  "TotalReadoutTime": 0.02054,
  "TxRefAmp": 233.962,
  "dcmmeta_affine": [
    [-2.954224109649658, -0.5044440031051636, -0.17891272902488708, 140.41636657714844],
    [-0.5212018489837646, 2.8050897121429443, 1.233262300491333, -90.87220001220703],
    [0.0301367100328207, -0.9364869594573975, 3.790402889251709, -17.694875717163086],
    [0.0, 0.0, 0.0, 1.0]
],
  "dcmmeta_reorient_transform": [
    [0.0, -1.0, 0.0, 79.0],
    [1.0, 0.0, 0.0, 0.0],
    [0.0, 0.0, 1.0, 0.0],
    [0.0, 0.0, 0.0, 1.0]
],
  "dcmmeta_shape": [80, 80, 30, 200],
  "dcmmeta_slice_dim": 2,
  "dcmmeta_version": 0.6,
  "global": {
    "const": {
      "AccessionNumber": "qa",
      "AcquisitionMatrix": [80, 0, 0, 80],
      "AngioFlag": "N",
      "BitsAllocated": 16,
      "BitsStored": 12,
      "BodyPartExamined": "BRAIN",
      "Columns": 480,
      "EchoNumbers": 1,
      "EchoTime": 35.0,
      "EchoTrainLength": 39,
      "FlipAngle": 90.0,
      "HighBit": 11,
      "ImageOrientationPatient": [0.98474138657853, 0.17373395776454, 0.0100455701111, -0.168148001445, 0.93502991474205, 0.31216231058142],
      "ImagePositionPatient": [-590.52132515433, -795.98821562937, -285.00207186473],
      "ImageType": [
        "ORIGINAL",
        "PRIMARY",
        "M",
        "ND",
        "NORM",
        "MOSAIC"
],
      "ImagedNucleus": "1H",
      "ImagingFrequency": 123.252417,
      "InPlanePhaseEncodingDirection": "COL",
      "MRAcquisitionType": "2D",
      "MagneticFieldStrength": 3.0,
      "Manufacturer": "SIEMENS",
      "ManufacturerModelName": "Prisma",
      "Modality": "MR",
      "NumberOfAverages": 1.0,
      "NumberOfPhaseEncodingSteps": 79,
      "PercentPhaseFieldOfView": 100.0,
      "PercentSampling": 100.0,
      "PerformedProcedureStepStartTime": "100240.305000",
      "PhotometricInterpretation": "MONOCHROME2",
      "PixelBandwidth": 2315.0,
      "PixelRepresentation": 0,
      "PixelSpacing": [3.0, 3.0],
      "ProtocolName": "func-bold_task-rest_acq-p2",
      "RepetitionTime": 2000.0,
      "Rows": 480,
      "SAR": 0.06566340352624,
      "SamplesPerPixel": 1,
      "ScanOptions": "FS",
      "ScanningSequence": "EP",
      "SequenceName": "*epfid2d1_80",
      "SequenceVariant": "SK",
      "SeriesDescription": "func-bold_task-rest_acq-p2",
      "SeriesNumber": 5,
      "SeriesTime": "100615.169000",
      "SliceLocation": -51.193543766064,
      "SliceThickness": 3.5,
      "SmallestImagePixelValue": 0,
      "SoftwareVersions": "syngo MR E11",
      "SpacingBetweenSlices": 3.9899999723521,
      "SpecificCharacterSet": "ISO_IR 100",
      "StudyID": "103",
      "StudyTime": "100240.203000",
      "TransmitCoilName": "Body",
      "VariableFlipAngleFlag": "N",
      "WindowCenterWidthExplanation": "Algo1",
      "dBdt": 0.0},
    "slices": {}
  },
  "time": {
    "samples": {
      "AcquisitionNumber": [1, 2, 3, 4, 5, 6, 7, 8, 9, 10, 11, 12, 13, 14, 15, 16, 17, 18, 19, 20, 21, 22, 23, 24, 25, 26, 27, 28, 29, 30, 31, 32, 33, 34, 35, 36, 37, 38, 39, 40, 41, 42, 43, 44, 45, 46, 47, 48, 49, 50, 51, 52, 53, 54, 55, 56, 57, 58, 59, 60, 61, 62, 63, 64, 65, 66, 67, 68, 69, 70, 71, 72, 73, 74, 75, 76, 77, 78, 79, 80, 81, 82, 83, 84, 85, 86, 87, 88, 89, 90, 91, 92, 93, 94, 95, 96, 97, 98, 99, 100, 101, 102, 103, 104, 105, 106, 107, 108, 109, 110, 111, 112, 113, 114, 115, 116, 117, 118, 119, 120, 121, 122, 123, 124, 125, 126, 127, 128, 129, 130, 131, 132, 133, 134, 135, 136, 137, 138, 139, 140, 141, 142, 143, 144, 145, 146, 147, 148, 149, 150, 151, 152, 153, 154, 155, 156, 157, 158, 159, 160, 161, 162, 163, 164, 165, 166, 167, 168, 169, 170, 171, 172, 173, 174, 175, 176, 177, 178, 179, 180, 181, 182, 183, 184, 185, 186, 187, 188, 189, 190, 191, 192, 193, 194, 195, 196, 197, 198, 199, 200],
      "AcquisitionTime": ["100535.197500", "100537.197500", "100539.197500", "100541.197500", "100543.197500", "100545.197500", "100547.197500", "100549.197500", "100551.197500", "100553.197500", "100555.197500", "100557.197500", "100559.197500", "100601.197500", "100603.197500", "100605.197500", "100607.197500", "100609.197500", "100611.197500", "100613.197500", "100615.197500", "100617.197500", "100619.197500", "100621.197500", "100623.197500", "100625.197500", "100627.197500", "100629.197500", "100631.197500", "100633.197500", "100635.197500", "100637.197500", "100639.197500", "100641.197500", "100643.197500", "100645.197500", "100647.197500", "100649.197500", "100651.197500", "100653.197500", "100655.197500", "100657.197500", "100659.197500", "100701.197500", "100703.197500", "100705.197500", "100707.197500", "100709.197500", "100711.197500", "100713.197500", "100715.197500", "100717.197500", "100719.197500", "100721.197500", "100723.197500", "100725.197500", "100727.197500", "100729.197500", "100731.197500", "100733.197500", "100735.197500", "100737.197500", "100739.197500", "100741.197500", "100743.197500", "100745.197500", "100747.197500", "100749.197500", "100751.197500", "100753.197500", "100755.197500", "100757.197500", "100759.197500", "100801.197500", "100803.197500", "100805.197500", "100807.197500", "100809.197500", "100811.197500", "100813.197500", "100815.197500", "100817.197500", "100819.197500", "100821.197500", "100823.197500", "100825.197500", "100827.197500", "100829.197500", "100831.197500", "100833.197500", "100835.197500", "100837.197500", "100839.197500", "100841.197500", "100843.197500", "100845.197500", "100847.197500", "100849.197500", "100851.197500", "100853.197500", "100855.197500", "100857.197500", "100859.197500", "100901.197500", "100903.197500", "100905.197500", "100907.197500", "100909.197500", "100911.197500", "100913.197500", "100915.197500", "100917.197500", "100919.197500", "100921.197500", "100923.197500", "100925.197500", "100927.197500", "100929.197500", "100931.197500", "100933.197500", "100935.197500", "100937.197500", "100939.197500", "100941.197500", "100943.197500", "100945.197500", "100947.197500", "100949.197500", "100951.197500", "100953.197500", "100955.197500", "100957.197500", "100959.197500", "101001.197500", "101003.197500", "101005.197500", "101007.197500", "101009.197500", "101011.197500", "101013.197500", "101015.197500", "101017.197500", "101019.197500", "101021.197500", "101023.197500", "101025.197500", "101027.197500", "101029.197500", "101031.197500", "101033.197500", "101035.197500", "101037.197500", "101039.197500", "101041.197500", "101043.197500", "101045.197500", "101047.197500", "101049.197500", "101051.197500", "101053.197500", "101055.197500", "101057.197500", "101059.197500", "101101.197500", "101103.197500", "101105.197500", "101107.197500", "101109.197500", "101111.197500", "101113.197500", "101115.197500", "101117.197500", "101119.197500", "101121.197500", "101123.197500", "101125.197500", "101127.197500", "101129.197500", "101131.197500", "101133.197500", "101135.197500", "101137.197500", "101139.197500", "101141.197500", "101143.197500", "101145.197500", "101147.197500", "101149.197500", "101151.197500", "101153.197500", "101155.197500", "101157.197500", "101159.197500", "101201.197500", "101203.197500", "101205.197500", "101207.197500", "101209.197500", "101211.197500", "101213.197500"],
      "ContentTime": ["100615.172000", "100615.176000", "100615.178000", "100615.181000", "100615.183000", "100615.186000", "100615.198000", "100615.200000", "100615.203000", "100615.205000", "100615.208000", "100615.211000", "100615.213000", "100615.216000", "100615.218000", "100615.221000", "100615.223000", "100615.226000", "100615.229000", "100615.231000", "100655.167000", "100655.170000", "100655.173000", "100655.175000", "100655.178000", "100655.181000", "100655.183000", "100655.186000", "100655.188000", "100655.191000", "100655.194000", "100655.196000", "100655.199000", "100655.201000", "100655.204000", "100655.206000", "100655.209000", "100655.212000", "100655.214000", "100655.217000", "100735.166000", "100735.169000", "100735.172000", "100735.174000", "100735.177000", "100735.180000", "100735.182000", "100735.185000", "100735.187000", "100735.190000", "100735.192000", "100735.195000", "100735.197000", "100735.200000", "100735.203000", "100735.205000", "100735.208000", "100735.210000", "100735.213000", "100735.215000", "100815.167000", "100815.170000", "100815.173000", "100815.175000", "100815.178000", "100815.181000", "100815.183000", "100815.186000", "100815.189000", "100815.191000", "100815.194000", "100815.196000", "100815.199000", "100815.202000", "100815.204000", "100815.207000", "100815.209000", "100815.212000", "100815.215000", "100815.217000", "100855.167000", "100855.170000", "100855.173000", "100855.175000", "100855.178000", "100855.181000", "100855.183000", "100855.186000", "100855.189000", "100855.191000", "100855.194000", "100855.196000", "100855.199000", "100855.202000", "100855.204000", "100855.207000", "100855.210000", "100855.212000", "100855.215000", "100855.217000", "100935.167000", "100935.170000", "100935.173000", "100935.176000", "100935.178000", "100935.181000", "100935.183000", "100935.186000", "100935.189000", "100935.192000", "100935.194000", "100935.197000", "100935.200000", "100935.202000", "100935.205000", "100935.208000", "100935.210000", "100935.213000", "100935.216000", "100935.218000", "101015.167000", "101015.169000", "101015.172000", "101015.175000", "101015.177000", "101015.180000", "101015.183000", "101015.185000", "101015.188000", "101015.190000", "101015.193000", "101015.195000", "101015.198000", "101015.201000", "101015.203000", "101015.206000", "101015.209000", "101015.211000", "101015.214000", "101015.216000", "101035.167000", "101035.170000", "101035.173000", "101035.175000", "101035.178000", "101035.181000", "101035.183000", "101035.186000", "101035.189000", "101035.191000", "101115.168000", "101115.170000", "101115.173000", "101115.175000", "101115.178000", "101115.181000", "101115.183000", "101115.186000", "101115.194000", "101115.196000", "101115.199000", "101115.202000", "101115.204000", "101115.207000", "101115.209000", "101115.212000", "101115.215000", "101115.217000", "101115.220000", "101115.222000", "101155.168000", "101155.170000", "101155.173000", "101155.176000", "101155.178000", "101155.181000", "101155.183000", "101155.187000", "101155.189000", "101155.192000", "101155.194000", "101155.197000", "101155.200000", "101155.202000", "101155.205000", "101155.208000", "101155.210000", "101155.213000", "101155.215000", "101155.218000", "101214.468000", "101214.471000", "101214.474000", "101214.477000", "101214.480000", "101214.482000", "101214.485000", "101214.487000", "101214.490000", "101214.493000"],
      "InstanceCreationTime": ["100615.172000", "100615.176000", "100615.178000", "100615.181000", "100615.183000", "100615.186000", "100615.198000", "100615.200000", "100615.203000", "100615.205000", "100615.208000", "100615.211000", "100615.213000", "100615.216000", "100615.218000", "100615.221000", "100615.223000", "100615.226000", "100615.229000", "100615.231000", "100655.167000", "100655.170000", "100655.173000", "100655.175000", "100655.178000", "100655.181000", "100655.183000", "100655.186000", "100655.188000", "100655.191000", "100655.194000", "100655.196000", "100655.199000", "100655.201000", "100655.204000", "100655.206000", "100655.209000", "100655.212000", "100655.214000", "100655.217000", "100735.166000", "100735.169000", "100735.172000", "100735.174000", "100735.177000", "100735.180000", "100735.182000", "100735.185000", "100735.187000", "100735.190000", "100735.192000", "100735.195000", "100735.197000", "100735.200000", "100735.203000", "100735.205000", "100735.208000", "100735.210000", "100735.213000", "100735.215000", "100815.167000", "100815.170000", "100815.173000", "100815.175000", "100815.178000", "100815.181000", "100815.183000", "100815.186000", "100815.189000", "100815.191000", "100815.194000", "100815.196000", "100815.199000", "100815.202000", "100815.204000", "100815.207000", "100815.209000", "100815.212000", "100815.215000", "100815.217000", "100855.167000", "100855.170000", "100855.173000", "100855.175000", "100855.178000", "100855.181000", "100855.183000", "100855.186000", "100855.189000", "100855.191000", "100855.194000", "100855.196000", "100855.199000", "100855.202000", "100855.204000", "100855.207000", "100855.210000", "100855.212000", "100855.215000", "100855.217000", "100935.167000", "100935.170000", "100935.173000", "100935.176000", "100935.178000", "100935.181000", "100935.183000", "100935.186000", "100935.189000", "100935.192000", "100935.194000", "100935.197000", "100935.200000", "100935.202000", "100935.205000", "100935.208000", "100935.210000", "100935.213000", "100935.216000", "100935.218000", "101015.167000", "101015.169000", "101015.172000", "101015.175000", "101015.177000", "101015.180000", "101015.183000", "101015.185000", "101015.188000", "101015.190000", "101015.193000", "101015.195000", "101015.198000", "101015.201000", "101015.203000", "101015.206000", "101015.209000", "101015.211000", "101015.214000", "101015.216000", "101035.167000", "101035.170000", "101035.173000", "101035.175000", "101035.178000", "101035.181000", "101035.183000", "101035.186000", "101035.189000", "101035.191000", "101115.168000", "101115.170000", "101115.173000", "101115.175000", "101115.178000", "101115.181000", "101115.183000", "101115.186000", "101115.194000", "101115.196000", "101115.199000", "101115.202000", "101115.204000", "101115.207000", "101115.209000", "101115.212000", "101115.215000", "101115.217000", "101115.220000", "101115.222000", "101155.168000", "101155.170000", "101155.173000", "101155.176000", "101155.178000", "101155.181000", "101155.183000", "101155.187000", "101155.189000", "101155.192000", "101155.194000", "101155.197000", "101155.200000", "101155.202000", "101155.205000", "101155.208000", "101155.210000", "101155.213000", "101155.215000", "101155.218000", "101214.468000", "101214.471000", "101214.474000", "101214.477000", "101214.480000", "101214.482000", "101214.485000", "101214.487000", "101214.490000", "101214.493000"],
      "InstanceNumber": [1, 2, 3, 4, 5, 6, 7, 8, 9, 10, 11, 12, 13, 14, 15, 16, 17, 18, 19, 20, 21, 22, 23, 24, 25, 26, 27, 28, 29, 30, 31, 32, 33, 34, 35, 36, 37, 38, 39, 40, 41, 42, 43, 44, 45, 46, 47, 48, 49, 50, 51, 52, 53, 54, 55, 56, 57, 58, 59, 60, 61, 62, 63, 64, 65, 66, 67, 68, 69, 70, 71, 72, 73, 74, 75, 76, 77, 78, 79, 80, 81, 82, 83, 84, 85, 86, 87, 88, 89, 90, 91, 92, 93, 94, 95, 96, 97, 98, 99, 100, 101, 102, 103, 104, 105, 106, 107, 108, 109, 110, 111, 112, 113, 114, 115, 116, 117, 118, 119, 120, 121, 122, 123, 124, 125, 126, 127, 128, 129, 130, 131, 132, 133, 134, 135, 136, 137, 138, 139, 140, 141, 142, 143, 144, 145, 146, 147, 148, 149, 150, 151, 152, 153, 154, 155, 156, 157, 158, 159, 160, 161, 162, 163, 164, 165, 166, 167, 168, 169, 170, 171, 172, 173, 174, 175, 176, 177, 178, 179, 180, 181, 182, 183, 184, 185, 186, 187, 188, 189, 190, 191, 192, 193, 194, 195, 196, 197, 198, 199, 200],
      "LargestImagePixelValue": [1923, 1918, 1925, 1918, 1923, 1925, 1917, 1916, 1919, 1924, 1916, 1912, 1920, 1927, 1922, 1928, 1917, 1915, 1921, 1922, 1918, 1916, 1916, 1918, 1922, 1920, 1922, 1919, 1921, 1924, 1928, 1918, 1920, 1922, 1915, 1912, 1914, 1922, 1923, 1924, 1918, 1921, 1916, 1924, 1914, 1918, 1915, 1924, 1916, 1917, 1919, 1918, 1925, 1915, 1922, 1916, 1917, 1920, 1926, 1908, 1917, 1917, 1919, 1926, 1924, 1922, 1922, 1915, 1919, 1923, 1919, 1916, 1922, 1919, 1913, 1919, 1925, 1922, 1911, 1918, 1915, 1922, 1920, 1923, 1926, 1921, 1917, 1913, 1924, 1918, 1919, 1921, 1921, 1917, 1922, 1920, 1917, 1925, 1916, 1917, 1921, 1929, 1915, 1918, 1911, 1918, 1916, 1917, 1917, 1912, 1925, 1916, 1919, 1914, 1915, 1918, 1916, 1925, 1920, 1919, 1917, 1919, 1920, 1913, 1924, 1925, 1918, 1922, 1920, 1914, 1918, 1921, 1925, 1916, 1918, 1918, 1911, 1917, 1916, 1917, 1913, 1921, 1920, 1914, 1914, 1920, 1916, 1910, 1917, 1912, 1923, 1914, 1915, 1914, 1917, 1923, 1923, 1922, 1922, 1912, 1917, 1914, 1918, 1914, 1917, 1918, 1918, 1915, 1917, 1915, 1917, 1912, 1917, 1918, 1913, 1919, 1916, 1919, 1917, 1914, 1920, 1912, 1911, 1912, 1911, 1916, 1915, 1914, 1919, 1914, 1915, 1912, 1918, 1917, 1913, 1917, 1921, 1913, 1917, 1919],
      "WindowCenter": [943.0, 943.0, 943.0, 944.0, 943.0, 943.0, 944.0, 943.0, 943.0, 943.0, 943.0, 943.0, 943.0, 943.0, 944.0, 943.0, 944.0, 943.0, 943.0, 943.0, 944.0, 944.0, 943.0, 943.0, 943.0, 943.0, 943.0, 943.0, 943.0, 943.0, 943.0, 944.0, 943.0, 943.0, 944.0, 942.0, 943.0, 943.0, 943.0, 944.0, 943.0, 944.0, 943.0, 944.0, 943.0, 943.0, 943.0, 943.0, 943.0, 942.0, 943.0, 943.0, 942.0, 942.0, 943.0, 943.0, 942.0, 942.0, 943.0, 943.0, 943.0, 942.0, 942.0, 944.0, 943.0, 942.0, 943.0, 943.0, 942.0, 942.0, 942.0, 944.0, 943.0, 943.0, 943.0, 943.0, 943.0, 944.0, 942.0, 943.0, 943.0, 943.0, 942.0, 943.0, 943.0, 943.0, 942.0, 942.0, 943.0, 943.0, 943.0, 942.0, 943.0, 943.0, 943.0, 943.0, 942.0, 943.0, 943.0, 943.0, 943.0, 944.0, 944.0, 944.0, 942.0, 944.0, 943.0, 943.0, 942.0, 943.0, 943.0, 942.0, 942.0, 943.0, 943.0, 943.0, 943.0, 943.0, 943.0, 942.0, 943.0, 943.0, 943.0, 942.0, 943.0, 943.0, 943.0, 942.0, 943.0, 942.0, 943.0, 943.0, 943.0, 943.0, 943.0, 942.0, 942.0, 943.0, 942.0, 943.0, 943.0, 943.0, 942.0, 943.0, 942.0, 943.0, 943.0, 943.0, 943.0, 944.0, 943.0, 943.0, 943.0, 943.0, 943.0, 943.0, 942.0, 943.0, 943.0, 942.0, 943.0, 943.0, 944.0, 943.0, 943.0, 943.0, 943.0, 943.0, 943.0, 943.0, 943.0, 943.0, 943.0, 944.0, 943.0, 943.0, 943.0, 943.0, 944.0, 943.0, 942.0, 944.0, 943.0, 944.0, 943.0, 942.0, 943.0, 943.0, 943.0, 942.0, 942.0, 942.0, 942.0, 943.0, 943.0, 943.0, 944.0, 943.0, 943.0, 944.0],
      "WindowWidth": [2032.0, 2031.0, 2031.0, 2032.0, 2032.0, 2032.0, 2032.0, 2031.0, 2032.0, 2031.0, 2032.0, 2032.0, 2032.0, 2032.0, 2033.0, 2031.0, 2033.0, 2032.0, 2031.0, 2032.0, 2032.0, 2032.0, 2031.0, 2032.0, 2032.0, 2032.0, 2032.0, 2032.0, 2032.0, 2031.0, 2032.0, 2033.0, 2032.0, 2032.0, 2032.0, 2031.0, 2031.0, 2031.0, 2031.0, 2032.0, 2031.0, 2032.0, 2031.0, 2032.0, 2031.0, 2031.0, 2031.0, 2031.0, 2031.0, 2030.0, 2031.0, 2031.0, 2030.0, 2030.0, 2031.0, 2031.0, 2030.0, 2030.0, 2031.0, 2031.0, 2031.0, 2030.0, 2030.0, 2031.0, 2031.0, 2030.0, 2031.0, 2031.0, 2030.0, 2030.0, 2030.0, 2031.0, 2031.0, 2031.0, 2031.0, 2031.0, 2031.0, 2031.0, 2030.0, 2031.0, 2031.0, 2031.0, 2030.0, 2031.0, 2031.0, 2031.0, 2030.0, 2030.0, 2031.0, 2031.0, 2031.0, 2030.0, 2031.0, 2031.0, 2031.0, 2031.0, 2030.0, 2031.0, 2031.0, 2031.0, 2031.0, 2032.0, 2032.0, 2031.0, 2030.0, 2031.0, 2031.0, 2031.0, 2030.0, 2031.0, 2031.0, 2030.0, 2030.0, 2031.0, 2031.0, 2031.0, 2031.0, 2031.0, 2031.0, 2030.0, 2031.0, 2031.0, 2031.0, 2030.0, 2031.0, 2031.0, 2031.0, 2030.0, 2031.0, 2030.0, 2031.0, 2031.0, 2031.0, 2031.0, 2031.0, 2030.0, 2030.0, 2031.0, 2030.0, 2031.0, 2031.0, 2031.0, 2030.0, 2031.0, 2030.0, 2031.0, 2031.0, 2031.0, 2031.0, 2032.0, 2031.0, 2031.0, 2031.0, 2031.0, 2031.0, 2031.0, 2030.0, 2031.0, 2031.0, 2030.0, 2031.0, 2031.0, 2032.0, 2031.0, 2031.0, 2031.0, 2031.0, 2031.0, 2031.0, 2031.0, 2031.0, 2031.0, 2031.0, 2032.0, 2031.0, 2031.0, 2031.0, 2031.0, 2031.0, 2031.0, 2030.0, 2032.0, 2031.0, 2031.0, 2031.0, 2030.0, 2031.0, 2031.0, 2031.0, 2030.0, 2030.0, 2030.0, 2030.0, 2031.0, 2031.0, 2031.0, 2032.0, 2031.0, 2031.0, 2032.0]
    },
    "slices": {}
  }
}