{
  "AcquisitionMatrixPE": 80,
  "AcquisitionNumber": 1,
  "AcquisitionTime": "09:40:28.437500",
  "BandwidthPerPixelPhaseEncode": 25,
  "BaseResolution": 80,
  "BodyPartExamined": "BRAIN",
  "CoilCombinationMethod": "Sum of Squares",
  "ConsistencyInfo": "N4_VE11E_LATEST_20181129",
  "ConversionSoftware": "dcm2niix",
  "ConversionSoftwareVersion": "v1.0.20220720",
  "DerivedVendorReportedEchoSpacing": 0.0005,
  "DeviceSerialNumber": "66112",
  "DwellTime": 2.7e-06,
  "EchoTime": 0.03,
  "EchoTrainLength": 80,
  "EffectiveEchoSpacing": 0.0005,
  "FlipAngle": 77,
  "HeudiconvVersion": "0.13.1",
  "ImageOrientationPatientDICOM": [0.999953, 0.00967931, 0.000131379, -0.00925008, 0.951434, 0.307714],
  "ImageOrientationText": "Tra>Cor(17.9)>Sag(-0.2)",
  "ImageType": [
    "ORIGINAL",
    "PRIMARY",
    "M",
    "ND",
    "NORM",
    "MOSAIC"
],
  "ImagingFrequency": 123.261,
  "InPlanePhaseEncodingDirectionDICOM": "COL",
  "InstitutionAddress": "Maynard 3,Hanover,NH,US,03755",
  "InstitutionName": "Dartmouth College - PBS",
  "InstitutionalDepartmentName": "Department",
  "MRAcquisitionType": "2D",
  "MagneticFieldStrength": 3,
  "Manufacturer": "Siemens",
  "ManufacturersModelName": "Prisma",
  "MatrixCoilMode": "SENSE",
  "Modality": "MR",
  "NonlinearGradientCorrection": false,
  "PartialFourier": 1,
  "PatientPosition": "HFS",
  "PercentPhaseFOV": 100,
  "PercentSampling": 100,
  "PhaseEncodingDirection": "j-",
  "PhaseEncodingSteps": 80,
  "PhaseResolution": 1,
  "PixelBandwidth": 2315,
  "ProcedureStepDescription": "dbic^QA",
  "ProtocolName": "func-bold_fa-77",
  "PulseSequenceDetails": "%SiemensSeq%\\ep2d_bold",
  "ReceiveCoilActiveElements": "HC1-7;NC1,2",
  "ReceiveCoilName": "HeadNeck_64",
  "ReconMatrixPE": 80,
  "RepetitionTime": 2,
  "SAR": 0.0281611,
  "ScanOptions": "FS",
  "ScanningSequence": "EP",
  "SequenceName": "*epfid2d1_80",
  "SequenceVariant": "SK",
  "SeriesDescription": "func-bold_fa-77",
  "SeriesNumber": 6,
  "ShimSetting": [4242, -7731, -7486, -139, -202, -264, -84, 97],
  "SliceThickness": 3.5,
  "SliceTiming": [0.99, 0, 1.055, 0.065, 1.1225, 0.1325, 1.1875, 0.1975, 1.2525, 0.2625, 1.32, 0.33, 1.385, 0.395, 1.4525, 0.4625, 1.5175, 0.5275, 1.5825, 0.5925, 1.65, 0.66, 1.715, 0.725, 1.7825, 0.7925, 1.8475, 0.8575, 1.9125, 0.9225],
  "SoftwareVersions": "syngo MR E11",
  "SpacingBetweenSlices": 3.99,
  "StationName": "AWP66112",
  "TotalReadoutTime": 0.0395,
  "TxRefAmp": 209.233,
  "dcmmeta_affine": [
    [-2.99985933303833, -0.02775024250149727, -0.01138532254844904, 120.64080047607422],
    [-0.029037922620773315, 2.8543014526367188, 1.2277278900146484, -127.32256317138672],
    [0.0003941367904189974, -0.9231432676315308, 3.796400308609009, -21.657785415649414],
    [0.0, 0.0, 0.0, 1.0]
],
  "dcmmeta_reorient_transform": [
    [0.0, -1.0, 0.0, 79.0],
    [1.0, 0.0, 0.0, 0.0],
    [0.0, 0.0, 1.0, 0.0],
    [0.0, 0.0, 0.0, 1.0]
],
  "dcmmeta_shape": [80, 80, 30, 200],
  "dcmmeta_slice_dim": 2,
  "dcmmeta_version": 0.6,
  "global": {
    "const": {
      "AccessionNumber": "qa64",
      "AcquisitionMatrix": [80, 0, 0, 80],
      "AngioFlag": "N",
      "BitsAllocated": 16,
      "BitsStored": 12,
      "BodyPartExamined": "BRAIN",
      "Columns": 480,
      "EchoNumbers": 1,
      "EchoTime": 30.0,
      "EchoTrainLength": 80,
      "FlipAngle": 77.0,
      "HighBit": 11,
      "ImageOrientationPatient": [0.99995314577452, 0.00967930757951, 0.00013137893209, -0.0092500809651, 0.95143379751454, 0.30771442109397],
      "ImagePositionPatient": [-712.87037049664, -674.83510723754, -279.2935835627],
      "ImageType": [
        "ORIGINAL",
        "PRIMARY",
        "M",
        "ND",
        "NORM",
        "MOSAIC"
],
      "ImagedNucleus": "1H",
      "ImagingFrequency": 123.261243,
      "InPlanePhaseEncodingDirection": "COL",
      "LargestImagePixelValue": 4095,
      "MRAcquisitionType": "2D",
      "MagneticFieldStrength": 3.0,
      "Manufacturer": "SIEMENS",
      "ManufacturerModelName": "Prisma",
      "Modality": "MR",
      "NumberOfAverages": 1.0,
      "NumberOfPhaseEncodingSteps": 80,
      "PercentPhaseFieldOfView": 100.0,
      "PercentSampling": 100.0,
      "PerformedProcedureStepStartTime": "092434.022000",
      "PhotometricInterpretation": "MONOCHROME2",
      "PixelBandwidth": 2315.0,
      "PixelRepresentation": 0,
      "PixelSpacing": [3.0, 3.0],
      "ProtocolName": "func-bold_fa-77",
      "RepetitionTime": 2000.0,
      "Rows": 480,
      "SAR": 0.02816105854851,
      "SamplesPerPixel": 1,
      "ScanOptions": "FS",
      "ScanningSequence": "EP",
      "SequenceName": "*epfid2d1_80",
      "SequenceVariant": "SK",
      "SeriesDescription": "func-bold_fa-77",
      "SeriesNumber": 6,
      "SeriesTime": "094116.101000",
      "SliceLocation": -60.128475849232,
      "SliceThickness": 3.5,
      "SmallestImagePixelValue": 0,
      "SoftwareVersions": "syngo MR E11",
      "SpacingBetweenSlices": 3.9900000284101,
      "SpecificCharacterSet": "ISO_IR 100",
      "StudyID": "22",
      "StudyTime": "092433.904000",
      "TransmitCoilName": "Body",
      "VariableFlipAngleFlag": "N",
      "WindowCenterWidthExplanation": "Algo1"
    },
    "slices": {}
  },
  "time": {
    "samples": {
      "AcquisitionNumber": [1, 2, 3, 4, 5, 6, 7, 8, 9, 10, 11, 12, 13, 14, 15, 16, 17, 18, 19, 20, 21, 22, 23, 24, 25, 26, 27, 28, 29, 30, 31, 32, 33, 34, 35, 36, 37, 38, 39, 40, 41, 42, 43, 44, 45, 46, 47, 48, 49, 50, 51, 52, 53, 54, 55, 56, 57, 58, 59, 60, 61, 62, 63, 64, 65, 66, 67, 68, 69, 70, 71, 72, 73, 74, 75, 76, 77, 78, 79, 80, 81, 82, 83, 84, 85, 86, 87, 88, 89, 90, 91, 92, 93, 94, 95, 96, 97, 98, 99, 100, 101, 102, 103, 104, 105, 106, 107, 108, 109, 110, 111, 112, 113, 114, 115, 116, 117, 118, 119, 120, 121, 122, 123, 124, 125, 126, 127, 128, 129, 130, 131, 132, 133, 134, 135, 136, 137, 138, 139, 140, 141, 142, 143, 144, 145, 146, 147, 148, 149, 150, 151, 152, 153, 154, 155, 156, 157, 158, 159, 160, 161, 162, 163, 164, 165, 166, 167, 168, 169, 170, 171, 172, 173, 174, 175, 176, 177, 178, 179, 180, 181, 182, 183, 184, 185, 186, 187, 188, 189, 190, 191, 192, 193, 194, 195, 196, 197, 198, 199, 200],
      "AcquisitionTime": ["094028.437500", "094030.437500", "094032.437500", "094034.437500", "094036.437500", "094038.437500", "094040.437500", "094042.437500", "094044.437500", "094046.437500", "094048.437500", "094050.437500", "094052.437500", "094054.437500", "094056.437500", "094058.437500", "094100.437500", "094102.437500", "094104.437500", "094106.437500", "094108.437500", "094110.437500", "094112.437500", "094114.437500", "094116.437500", "094118.437500", "094120.437500", "094122.437500", "094124.437500", "094126.437500", "094128.437500", "094130.437500", "094132.437500", "094134.437500", "094136.437500", "094138.437500", "094140.437500", "094142.437500", "094144.437500", "094146.437500", "094148.437500", "094150.437500", "094152.437500", "094154.437500", "094156.437500", "094158.437500", "094200.437500", "094202.437500", "094204.437500", "094206.437500", "094208.437500", "094210.437500", "094212.437500", "094214.437500", "094216.437500", "094218.437500", "094220.437500", "094222.437500", "094224.437500", "094226.437500", "094228.437500", "094230.437500", "094232.437500", "094234.437500", "094236.437500", "094238.437500", "094240.437500", "094242.437500", "094244.437500", "094246.437500", "094248.437500", "094250.437500", "094252.437500", "094254.437500", "094256.437500", "094258.437500", "094300.437500", "094302.437500", "094304.437500", "094306.437500", "094308.437500", "094310.437500", "094312.437500", "094314.437500", "094316.437500", "094318.437500", "094320.437500", "094322.437500", "094324.437500", "094326.437500", "094328.437500", "094330.437500", "094332.437500", "094334.437500", "094336.437500", "094338.437500", "094340.437500", "094342.437500", "094344.437500", "094346.437500", "094348.437500", "094350.437500", "094352.437500", "094354.437500", "094356.437500", "094358.437500", "094400.437500", "094402.437500", "094404.437500", "094406.437500", "094408.437500", "094410.437500", "094412.437500", "094414.437500", "094416.437500", "094418.437500", "094420.437500", "094422.437500", "094424.437500", "094426.437500", "094428.437500", "094430.437500", "094432.437500", "094434.437500", "094436.437500", "094438.437500", "094440.437500", "094442.437500", "094444.437500", "094446.437500", "094448.437500", "094450.437500", "094452.437500", "094454.437500", "094456.437500", "094458.437500", "094500.437500", "094502.437500", "094504.437500", "094506.437500", "094508.437500", "094510.437500", "094512.437500", "094514.437500", "094516.437500", "094518.437500", "094520.437500", "094522.437500", "094524.437500", "094526.437500", "094528.437500", "094530.437500", "094532.437500", "094534.437500", "094536.437500", "094538.437500", "094540.437500", "094542.437500", "094544.437500", "094546.437500", "094548.437500", "094550.437500", "094552.437500", "094554.437500", "094556.437500", "094558.437500", "094600.437500", "094602.437500", "094604.437500", "094606.437500", "094608.437500", "094610.437500", "094612.437500", "094614.437500", "094616.437500", "094618.437500", "094620.437500", "094622.437500", "094624.437500", "094626.437500", "094628.437500", "094630.437500", "094632.437500", "094634.437500", "094636.437500", "094638.437500", "094640.437500", "094642.437500", "094644.437500", "094646.437500", "094648.437500", "094650.437500", "094652.437500", "094654.437500", "094656.437500", "094658.437500", "094700.437500", "094702.437500", "094704.437500", "094706.437500"],
      "ContentTime": ["094116.104000", "094116.107000", "094116.109000", "094116.111000", "094116.114000", "094116.116000", "094116.118000", "094116.121000", "094116.131000", "094116.134000", "094116.136000", "094116.138000", "094116.147000", "094116.149000", "094116.152000", "094116.157000", "094116.159000", "094116.166000", "094116.169000", "094116.171000", "094116.173000", "094116.176000", "094116.178000", "094116.180000", "094156.099000", "094156.102000", "094156.104000", "094156.106000", "094156.108000", "094156.111000", "094156.113000", "094156.115000", "094156.118000", "094156.120000", "094156.122000", "094156.124000", "094156.127000", "094156.129000", "094156.131000", "094156.133000", "094156.136000", "094156.138000", "094156.140000", "094156.143000", "094236.098000", "094236.101000", "094236.103000", "094236.105000", "094236.107000", "094236.110000", "094236.112000", "094236.114000", "094236.116000", "094236.119000", "094236.121000", "094236.124000", "094236.126000", "094236.128000", "094236.130000", "094236.133000", "094236.135000", "094236.137000", "094236.140000", "094236.142000", "094316.099000", "094316.102000", "094316.104000", "094316.106000", "094316.109000", "094316.112000", "094316.114000", "094316.116000", "094316.119000", "094316.121000", "094316.123000", "094316.125000", "094316.128000", "094316.130000", "094316.132000", "094316.135000", "094316.137000", "094316.139000", "094316.141000", "094316.144000", "094356.099000", "094356.102000", "094356.104000", "094356.106000", "094356.109000", "094356.111000", "094356.113000", "094356.116000", "094356.118000", "094356.120000", "094356.122000", "094356.125000", "094356.127000", "094356.129000", "094356.132000", "094356.134000", "094356.137000", "094356.139000", "094356.141000", "094356.143000", "094436.099000", "094436.102000", "094436.104000", "094436.107000", "094436.109000", "094436.111000", "094436.114000", "094436.117000", "094436.119000", "094436.121000", "094436.124000", "094436.126000", "094436.128000", "094436.131000", "094436.133000", "094436.135000", "094436.137000", "094436.140000", "094436.142000", "094436.144000", "094516.099000", "094516.102000", "094516.104000", "094516.107000", "094516.109000", "094516.111000", "094516.113000", "094516.116000", "094516.118000", "094516.120000", "094516.123000", "094516.125000", "094516.127000", "094516.129000", "094516.133000", "094516.135000", "094516.137000", "094516.140000", "094516.142000", "094516.144000", "094556.099000", "094556.102000", "094556.104000", "094556.106000", "094556.108000", "094556.111000", "094556.113000", "094556.115000", "094556.118000", "094556.120000", "094556.122000", "094556.124000", "094556.127000", "094556.129000", "094556.132000", "094556.134000", "094556.137000", "094556.139000", "094556.141000", "094556.144000", "094636.099000", "094636.102000", "094636.104000", "094636.106000", "094636.109000", "094636.112000", "094636.114000", "094636.117000", "094636.119000", "094636.121000", "094636.123000", "094636.126000", "094636.128000", "094636.130000", "094636.133000", "094636.135000", "094636.137000", "094636.139000", "094636.142000", "094636.144000", "094707.965000", "094707.968000", "094707.970000", "094707.972000", "094707.975000", "094707.977000", "094707.979000", "094707.982000", "094707.984000", "094707.986000", "094707.989000", "094707.991000", "094708.002000", "094708.005000", "094708.009000", "094708.012000"],
      "InstanceCreationTime": ["094116.104000", "094116.107000", "094116.109000", "094116.111000", "094116.114000", "094116.116000", "094116.118000", "094116.121000", "094116.131000", "094116.134000", "094116.136000", "094116.138000", "094116.147000", "094116.149000", "094116.152000", "094116.157000", "094116.159000", "094116.166000", "094116.169000", "094116.171000", "094116.173000", "094116.176000", "094116.178000", "094116.180000", "094156.099000", "094156.102000", "094156.104000", "094156.106000", "094156.108000", "094156.111000", "094156.113000", "094156.115000", "094156.118000", "094156.120000", "094156.122000", "094156.124000", "094156.127000", "094156.129000", "094156.131000", "094156.133000", "094156.136000", "094156.138000", "094156.140000", "094156.143000", "094236.098000", "094236.101000", "094236.103000", "094236.105000", "094236.107000", "094236.110000", "094236.112000", "094236.114000", "094236.116000", "094236.119000", "094236.121000", "094236.124000", "094236.126000", "094236.128000", "094236.130000", "094236.133000", "094236.135000", "094236.137000", "094236.140000", "094236.142000", "094316.099000", "094316.102000", "094316.104000", "094316.106000", "094316.109000", "094316.112000", "094316.114000", "094316.116000", "094316.119000", "094316.121000", "094316.123000", "094316.125000", "094316.128000", "094316.130000", "094316.132000", "094316.135000", "094316.137000", "094316.139000", "094316.141000", "094316.144000", "094356.099000", "094356.102000", "094356.104000", "094356.106000", "094356.109000", "094356.111000", "094356.113000", "094356.116000", "094356.118000", "094356.120000", "094356.122000", "094356.125000", "094356.127000", "094356.129000", "094356.132000", "094356.134000", "094356.137000", "094356.139000", "094356.141000", "094356.143000", "094436.099000", "094436.102000", "094436.104000", "094436.107000", "094436.109000", "094436.111000", "094436.114000", "094436.117000", "094436.119000", "094436.121000", "094436.124000", "094436.126000", "094436.128000", "094436.131000", "094436.133000", "094436.135000", "094436.137000", "094436.140000", "094436.142000", "094436.144000", "094516.099000", "094516.102000", "094516.104000", "094516.107000", "094516.109000", "094516.111000", "094516.113000", "094516.116000", "094516.118000", "094516.120000", "094516.123000", "094516.125000", "094516.127000", "094516.129000", "094516.133000", "094516.135000", "094516.137000", "094516.140000", "094516.142000", "094516.144000", "094556.099000", "094556.102000", "094556.104000", "094556.106000", "094556.108000", "094556.111000", "094556.113000", "094556.115000", "094556.118000", "094556.120000", "094556.122000", "094556.124000", "094556.127000", "094556.129000", "094556.132000", "094556.134000", "094556.137000", "094556.139000", "094556.141000", "094556.144000", "094636.099000", "094636.102000", "094636.104000", "094636.106000", "094636.109000", "094636.112000", "094636.114000", "094636.117000", "094636.119000", "094636.121000", "094636.123000", "094636.126000", "094636.128000", "094636.130000", "094636.133000", "094636.135000", "094636.137000", "094636.139000", "094636.142000", "094636.144000", "094707.965000", "094707.968000", "094707.970000", "094707.972000", "094707.975000", "094707.977000", "094707.979000", "094707.982000", "094707.984000", "094707.986000", "094707.989000", "094707.991000", "094708.002000", "094708.005000", "094708.009000", "094708.012000"],
      "InstanceNumber": [1, 2, 3, 4, 5, 6, 7, 8, 9, 10, 11, 12, 13, 14, 15, 16, 17, 18, 19, 20, 21, 22, 23, 24, 25, 26, 27, 28, 29, 30, 31, 32, 33, 34, 35, 36, 37, 38, 39, 40, 41, 42, 43, 44, 45, 46, 47, 48, 49, 50, 51, 52, 53, 54, 55, 56, 57, 58, 59, 60, 61, 62, 63, 64, 65, 66, 67, 68, 69, 70, 71, 72, 73, 74, 75, 76, 77, 78, 79, 80, 81, 82, 83, 84, 85, 86, 87, 88, 89, 90, 91, 92, 93, 94, 95, 96, 97, 98, 99, 100, 101, 102, 103, 104, 105, 106, 107, 108, 109, 110, 111, 112, 113, 114, 115, 116, 117, 118, 119, 120, 121, 122, 123, 124, 125, 126, 127, 128, 129, 130, 131, 132, 133, 134, 135, 136, 137, 138, 139, 140, 141, 142, 143, 144, 145, 146, 147, 148, 149, 150, 151, 152, 153, 154, 155, 156, 157, 158, 159, 160, 161, 162, 163, 164, 165, 166, 167, 168, 169, 170, 171, 172, 173, 174, 175, 176, 177, 178, 179, 180, 181, 182, 183, 184, 185, 186, 187, 188, 189, 190, 191, 192, 193, 194, 195, 196, 197, 198, 199, 200],
      "WindowCenter": [1465.0, 1464.0, 1465.0, 1465.0, 1465.0, 1465.0, 1465.0, 1465.0, 1465.0, 1464.0, 1465.0, 1464.0, 1464.0, 1464.0, 1464.0, 1464.0, 1464.0, 1464.0, 1463.0, 1463.0, 1465.0, 1464.0, 1463.0, 1463.0, 1463.0, 1463.0, 1464.0, 1464.0, 1463.0, 1464.0, 1463.0, 1463.0, 1464.0, 1462.0, 1462.0, 1463.0, 1463.0, 1463.0, 1463.0, 1463.0, 1463.0, 1463.0, 1462.0, 1462.0, 1463.0, 1462.0, 1462.0, 1462.0, 1463.0, 1462.0, 1462.0, 1462.0, 1461.0, 1462.0, 1462.0, 1462.0, 1462.0, 1462.0, 1462.0, 1462.0, 1462.0, 1462.0, 1462.0, 1462.0, 1461.0, 1462.0, 1461.0, 1461.0, 1460.0, 1461.0, 1461.0, 1461.0, 1461.0, 1461.0, 1461.0, 1461.0, 1461.0, 1460.0, 1462.0, 1461.0, 1461.0, 1460.0, 1460.0, 1461.0, 1460.0, 1461.0, 1460.0, 1461.0, 1460.0, 1461.0, 1460.0, 1461.0, 1460.0, 1460.0, 1461.0, 1460.0, 1461.0, 1460.0, 1461.0, 1460.0, 1460.0, 1460.0, 1460.0, 1460.0, 1460.0, 1460.0, 1460.0, 1460.0, 1461.0, 1460.0, 1461.0, 1460.0, 1460.0, 1459.0, 1460.0, 1460.0, 1460.0, 1460.0, 1460.0, 1459.0, 1459.0, 1460.0, 1460.0, 1459.0, 1460.0, 1459.0, 1459.0, 1459.0, 1459.0, 1459.0, 1460.0, 1459.0, 1459.0, 1459.0, 1460.0, 1459.0, 1460.0, 1458.0, 1460.0, 1459.0, 1459.0, 1459.0, 1459.0, 1458.0, 1459.0, 1459.0, 1459.0, 1459.0, 1459.0, 1459.0, 1459.0, 1459.0, 1459.0, 1459.0, 1459.0, 1459.0, 1457.0, 1459.0, 1459.0, 1459.0, 1458.0, 1458.0, 1458.0, 1458.0, 1458.0, 1458.0, 1458.0, 1458.0, 1458.0, 1458.0, 1458.0, 1458.0, 1458.0, 1458.0, 1458.0, 1459.0, 1458.0, 1457.0, 1458.0, 1458.0, 1457.0, 1458.0, 1458.0, 1457.0, 1458.0, 1458.0, 1458.0, 1459.0, 1458.0, 1458.0, 1458.0, 1458.0, 1457.0, 1457.0, 1457.0, 1458.0, 1457.0, 1457.0, 1457.0, 1457.0],
      "WindowWidth": [3428.0, 3428.0, 3428.0, 3428.0, 3428.0, 3428.0, 3428.0, 3428.0, 3428.0, 3428.0, 3428.0, 3428.0, 3428.0, 3428.0, 3428.0, 3428.0, 3427.0, 3427.0, 3427.0, 3427.0, 3427.0, 3427.0, 3427.0, 3427.0, 3427.0, 3427.0, 3427.0, 3427.0, 3427.0, 3427.0, 3427.0, 3427.0, 3427.0, 3427.0, 3427.0, 3427.0, 3427.0, 3427.0, 3427.0, 3426.0, 3427.0, 3427.0, 3426.0, 3426.0, 3426.0, 3427.0, 3426.0, 3426.0, 3426.0, 3426.0, 3426.0, 3426.0, 3427.0, 3426.0, 3426.0, 3426.0, 3426.0, 3426.0, 3426.0, 3426.0, 3426.0, 3426.0, 3426.0, 3426.0, 3426.0, 3426.0, 3427.0, 3427.0, 3427.0, 3426.0, 3426.0, 3426.0, 3426.0, 3426.0, 3426.0, 3426.0, 3426.0, 3426.0, 3426.0, 3425.0, 3426.0, 3426.0, 3426.0, 3426.0, 3426.0, 3426.0, 3426.0, 3426.0, 3426.0, 3425.0, 3426.0, 3425.0, 3426.0, 3426.0, 3425.0, 3426.0, 3425.0, 3426.0, 3425.0, 3425.0, 3425.0, 3425.0, 3425.0, 3425.0, 3425.0, 3425.0, 3425.0, 3425.0, 3425.0, 3425.0, 3425.0, 3425.0, 3425.0, 3425.0, 3425.0, 3425.0, 3425.0, 3425.0, 3425.0, 3425.0, 3425.0, 3425.0, 3425.0, 3425.0, 3425.0, 3425.0, 3425.0, 3425.0, 3425.0, 3425.0, 3424.0, 3425.0, 3425.0, 3425.0, 3424.0, 3425.0, 3424.0, 3425.0, 3424.0, 3425.0, 3424.0, 3424.0, 3424.0, 3425.0, 3425.0, 3424.0, 3424.0, 3424.0, 3424.0, 3424.0, 3424.0, 3424.0, 3424.0, 3424.0, 3424.0, 3424.0, 3424.0, 3424.0, 3424.0, 3424.0, 3424.0, 3424.0, 3424.0, 3424.0, 3424.0, 3424.0, 3424.0, 3424.0, 3424.0, 3424.0, 3424.0, 3424.0, 3424.0, 3424.0, 3424.0, 3424.0, 3424.0, 3424.0, 3424.0, 3424.0, 3424.0, 3423.0, 3423.0, 3424.0, 3423.0, 3423.0, 3423.0, 3423.0, 3423.0, 3423.0, 3423.0, 3423.0, 3423.0, 3423.0, 3423.0, 3423.0, 3423.0, 3423.0, 3423.0, 3423.0]
    },
    "slices": {}
  }
}