{
  "AcquisitionMatrixPE": 80,
  "AcquisitionNumber": 1,
  "AcquisitionTime": "09:47:15.487500",
  "BandwidthPerPixelPhaseEncode": 25,
  "BaseResolution": 80,
  "BodyPartExamined": "BRAIN",
  "CoilCombinationMethod": "Sum of Squares",
  "ConsistencyInfo": "N4_VE11E_LATEST_20181129",
  "ConversionSoftware": "dcm2niix",
  "ConversionSoftwareVersion": "v1.0.20220720",
  "DerivedVendorReportedEchoSpacing": 0.0005,
  "DeviceSerialNumber": "66112",
  "DwellTime": 2.7e-06,
  "EchoTime": 0.03,
  "EchoTrainLength": 80,
  "EffectiveEchoSpacing": 0.0005,
  "FlipAngle": 10,
  "HeudiconvVersion": "0.13.1",
  "ImageOrientationPatientDICOM": [0.999953, 0.00967931, 0.000131379, -0.00925008, 0.951434, 0.307714],
  "ImageOrientationText": "Tra>Cor(17.9)>Sag(-0.2)",
  "ImageType": [
    "ORIGINAL",
    "PRIMARY",
    "M",
    "ND",
    "NORM",
    "MOSAIC"
],
  "ImagingFrequency": 123.261,
  "InPlanePhaseEncodingDirectionDICOM": "COL",
  "InstitutionAddress": "Maynard 3,Hanover,NH,US,03755",
  "InstitutionName": "Dartmouth College - PBS",
  "InstitutionalDepartmentName": "Department",
  "MRAcquisitionType": "2D",
  "MagneticFieldStrength": 3,
  "Manufacturer": "Siemens",
  "ManufacturersModelName": "Prisma",
  "MatrixCoilMode": "SENSE",
  "Modality": "MR",
  "NonlinearGradientCorrection": false,
  "PartialFourier": 1,
  "PatientPosition": "HFS",
  "PercentPhaseFOV": 100,
  "PercentSampling": 100,
  "PhaseEncodingDirection": "j-",
  "PhaseEncodingSteps": 80,
  "PhaseResolution": 1,
  "PixelBandwidth": 2315,
  "ProcedureStepDescription": "dbic^QA",
  "ProtocolName": "func-bold_fa-10",
  "PulseSequenceDetails": "%SiemensSeq%\\ep2d_bold",
  "ReceiveCoilActiveElements": "HC1-7;NC1,2",
  "ReceiveCoilName": "HeadNeck_64",
  "ReconMatrixPE": 80,
  "RepetitionTime": 2,
  "SAR": 0.00755418,
  "ScanOptions": "FS",
  "ScanningSequence": "EP",
  "SequenceName": "*epfid2d1_80",
  "SequenceVariant": "SK",
  "SeriesDescription": "func-bold_fa-10",
  "SeriesNumber": 7,
  "ShimSetting": [4242, -7731, -7486, -139, -202, -264, -84, 97],
  "SliceThickness": 3.5,
  "SliceTiming": [0.99, 0, 1.0575, 0.0675, 1.1225, 0.1325, 1.1875, 0.1975, 1.255, 0.265, 1.32, 0.33, 1.3875, 0.3975, 1.4525, 0.4625, 1.5175, 0.5275, 1.585, 0.595, 1.65, 0.66, 1.7175, 0.7275, 1.7825, 0.7925, 1.8475, 0.8575, 1.915, 0.925],
  "SoftwareVersions": "syngo MR E11",
  "SpacingBetweenSlices": 3.99,
  "StationName": "AWP66112",
  "TotalReadoutTime": 0.0395,
  "TxRefAmp": 209.233,
  "dcmmeta_affine": [
    [-2.99985933303833, -0.02775024250149727, -0.01138532254844904, 120.64080047607422],
    [-0.029037922620773315, 2.8543014526367188, 1.2277278900146484, -127.32256317138672],
    [0.0003941367904189974, -0.9231432676315308, 3.796400308609009, -21.657785415649414],
    [0.0, 0.0, 0.0, 1.0]
],
  "dcmmeta_reorient_transform": [
    [0.0, -1.0, 0.0, 79.0],
    [1.0, 0.0, 0.0, 0.0],
    [0.0, 0.0, 1.0, 0.0],
    [0.0, 0.0, 0.0, 1.0]
],
  "dcmmeta_shape": [80, 80, 30, 200],
  "dcmmeta_slice_dim": 2,
  "dcmmeta_version": 0.6,
  "global": {
    "const": {
      "AccessionNumber": "qa64",
      "AcquisitionMatrix": [80, 0, 0, 80],
      "AngioFlag": "N",
      "BitsAllocated": 16,
      "BitsStored": 12,
      "BodyPartExamined": "BRAIN",
      "Columns": 480,
      "EchoNumbers": 1,
      "EchoTime": 30.0,
      "EchoTrainLength": 80,
      "FlipAngle": 10.0,
      "HighBit": 11,
      "ImageOrientationPatient": [0.99995314577452, 0.00967930757951, 0.00013137893209, -0.0092500809651, 0.95143379751454, 0.30771442109397],
      "ImagePositionPatient": [-712.87037049664, -674.83510723754, -279.2935835627],
      "ImageType": [
        "ORIGINAL",
        "PRIMARY",
        "M",
        "ND",
        "NORM",
        "MOSAIC"
],
      "ImagedNucleus": "1H",
      "ImagingFrequency": 123.261247,
      "InPlanePhaseEncodingDirection": "COL",
      "MRAcquisitionType": "2D",
      "MagneticFieldStrength": 3.0,
      "Manufacturer": "SIEMENS",
      "ManufacturerModelName": "Prisma",
      "Modality": "MR",
      "NumberOfAverages": 1.0,
      "NumberOfPhaseEncodingSteps": 80,
      "PercentPhaseFieldOfView": 100.0,
      "PercentSampling": 100.0,
      "PerformedProcedureStepStartTime": "092434.022000",
      "PhotometricInterpretation": "MONOCHROME2",
      "PixelBandwidth": 2315.0,
      "PixelRepresentation": 0,
      "PixelSpacing": [3.0, 3.0],
      "ProtocolName": "func-bold_fa-10",
      "RepetitionTime": 2000.0,
      "Rows": 480,
      "SAR": 0.00755417822389,
      "SamplesPerPixel": 1,
      "ScanOptions": "FS",
      "ScanningSequence": "EP",
      "SequenceName": "*epfid2d1_80",
      "SequenceVariant": "SK",
      "SeriesDescription": "func-bold_fa-10",
      "SeriesNumber": 7,
      "SeriesTime": "094755.929000",
      "SliceLocation": -60.128475849232,
      "SliceThickness": 3.5,
      "SmallestImagePixelValue": 0,
      "SoftwareVersions": "syngo MR E11",
      "SpacingBetweenSlices": 3.9900000284101,
      "SpecificCharacterSet": "ISO_IR 100",
      "StudyID": "22",
      "StudyTime": "092433.904000",
      "TransmitCoilName": "Body",
      "VariableFlipAngleFlag": "N",
      "WindowCenterWidthExplanation": "Algo1"
    },
    "slices": {}
  },
  "time": {
    "samples": {
      "AcquisitionNumber": [1, 2, 3, 4, 5, 6, 7, 8, 9, 10, 11, 12, 13, 14, 15, 16, 17, 18, 19, 20, 21, 22, 23, 24, 25, 26, 27, 28, 29, 30, 31, 32, 33, 34, 35, 36, 37, 38, 39, 40, 41, 42, 43, 44, 45, 46, 47, 48, 49, 50, 51, 52, 53, 54, 55, 56, 57, 58, 59, 60, 61, 62, 63, 64, 65, 66, 67, 68, 69, 70, 71, 72, 73, 74, 75, 76, 77, 78, 79, 80, 81, 82, 83, 84, 85, 86, 87, 88, 89, 90, 91, 92, 93, 94, 95, 96, 97, 98, 99, 100, 101, 102, 103, 104, 105, 106, 107, 108, 109, 110, 111, 112, 113, 114, 115, 116, 117, 118, 119, 120, 121, 122, 123, 124, 125, 126, 127, 128, 129, 130, 131, 132, 133, 134, 135, 136, 137, 138, 139, 140, 141, 142, 143, 144, 145, 146, 147, 148, 149, 150, 151, 152, 153, 154, 155, 156, 157, 158, 159, 160, 161, 162, 163, 164, 165, 166, 167, 168, 169, 170, 171, 172, 173, 174, 175, 176, 177, 178, 179, 180, 181, 182, 183, 184, 185, 186, 187, 188, 189, 190, 191, 192, 193, 194, 195, 196, 197, 198, 199, 200],
      "AcquisitionTime": ["094715.487500", "094717.487500", "094719.487500", "094721.487500", "094723.487500", "094725.487500", "094727.487500", "094729.487500", "094731.487500", "094733.487500", "094735.487500", "094737.487500", "094739.487500", "094741.487500", "094743.487500", "094745.487500", "094747.487500", "094749.487500", "094751.487500", "094753.487500", "094755.487500", "094757.487500", "094759.487500", "094801.487500", "094803.487500", "094805.487500", "094807.487500", "094809.487500", "094811.487500", "094813.487500", "094815.487500", "094817.487500", "094819.487500", "094821.487500", "094823.487500", "094825.487500", "094827.487500", "094829.487500", "094831.487500", "094833.487500", "094835.487500", "094837.487500", "094839.487500", "094841.487500", "094843.487500", "094845.487500", "094847.487500", "094849.487500", "094851.487500", "094853.487500", "094855.487500", "094857.487500", "094859.487500", "094901.487500", "094903.487500", "094905.487500", "094907.487500", "094909.487500", "094911.487500", "094913.487500", "094915.487500", "094917.487500", "094919.487500", "094921.487500", "094923.487500", "094925.487500", "094927.487500", "094929.487500", "094931.487500", "094933.487500", "094935.487500", "094937.487500", "094939.487500", "094941.487500", "094943.487500", "094945.487500", "094947.487500", "094949.487500", "094951.487500", "094953.487500", "094955.487500", "094957.487500", "094959.487500", "095001.487500", "095003.487500", "095005.487500", "095007.487500", "095009.487500", "095011.487500", "095013.487500", "095015.487500", "095017.487500", "095019.487500", "095021.487500", "095023.487500", "095025.487500", "095027.487500", "095029.487500", "095031.487500", "095033.487500", "095035.487500", "095037.487500", "095039.487500", "095041.487500", "095043.487500", "095045.487500", "095047.487500", "095049.487500", "095051.487500", "095053.487500", "095055.487500", "095057.487500", "095059.487500", "095101.487500", "095103.487500", "095105.487500", "095107.487500", "095109.487500", "095111.487500", "095113.487500", "095115.487500", "095117.487500", "095119.487500", "095121.487500", "095123.487500", "095125.487500", "095127.487500", "095129.487500", "095131.487500", "095133.487500", "095135.487500", "095137.487500", "095139.487500", "095141.487500", "095143.487500", "095145.487500", "095147.487500", "095149.487500", "095151.487500", "095153.487500", "095155.487500", "095157.487500", "095159.487500", "095201.487500", "095203.487500", "095205.487500", "095207.487500", "095209.487500", "095211.487500", "095213.487500", "095215.487500", "095217.487500", "095219.487500", "095221.487500", "095223.487500", "095225.487500", "095227.487500", "095229.487500", "095231.487500", "095233.487500", "095235.487500", "095237.487500", "095239.487500", "095241.487500", "095243.487500", "095245.487500", "095247.487500", "095249.487500", "095251.487500", "095253.487500", "095255.487500", "095257.487500", "095259.487500", "095301.487500", "095303.487500", "095305.487500", "095307.487500", "095309.487500", "095311.487500", "095313.487500", "095315.487500", "095317.487500", "095319.487500", "095321.487500", "095323.487500", "095325.487500", "095327.487500", "095329.487500", "095331.487500", "095333.487500", "095335.487500", "095337.487500", "095339.487500", "095341.487500", "095343.487500", "095345.487500", "095347.487500", "095349.487500", "095351.487500", "095353.487500"],
      "ContentTime": ["094755.933000", "094755.936000", "094755.938000", "094755.940000", "094755.943000", "094755.945000", "094755.947000", "094755.949000", "094755.952000", "094755.954000", "094755.956000", "094755.965000", "094755.967000", "094755.970000", "094755.972000", "094755.974000", "094755.981000", "094755.983000", "094755.985000", "094755.987000", "094835.928000", "094835.931000", "094835.933000", "094835.936000", "094835.938000", "094835.941000", "094835.943000", "094835.953000", "094835.955000", "094835.957000", "094835.959000", "094835.962000", "094835.964000", "094835.966000", "094835.969000", "094835.971000", "094835.973000", "094835.975000", "094835.978000", "094835.980000", "094915.927000", "094915.930000", "094915.932000", "094915.934000", "094915.945000", "094915.947000", "094915.950000", "094915.952000", "094915.954000", "094915.957000", "094915.959000", "094915.961000", "094915.964000", "094915.966000", "094915.968000", "094915.971000", "094915.973000", "094915.975000", "094915.978000", "094915.980000", "094955.928000", "094955.931000", "094955.933000", "094955.935000", "094955.938000", "094955.940000", "094955.942000", "094955.945000", "094955.947000", "094955.949000", "094955.952000", "094955.954000", "094955.956000", "094955.959000", "094955.961000", "094955.963000", "094955.965000", "094955.968000", "094955.970000", "094955.972000", "095035.928000", "095035.931000", "095035.933000", "095035.935000", "095035.945000", "095035.948000", "095035.950000", "095035.952000", "095035.955000", "095035.957000", "095035.959000", "095035.962000", "095035.964000", "095035.966000", "095035.969000", "095035.971000", "095035.973000", "095035.976000", "095035.978000", "095035.980000", "095115.928000", "095115.931000", "095115.933000", "095115.936000", "095115.938000", "095115.940000", "095115.942000", "095115.945000", "095115.947000", "095115.949000", "095115.952000", "095115.954000", "095115.956000", "095115.959000", "095115.961000", "095115.963000", "095115.965000", "095115.968000", "095115.970000", "095115.972000", "095155.927000", "095155.930000", "095155.932000", "095155.934000", "095155.937000", "095155.939000", "095155.941000", "095155.944000", "095155.946000", "095155.948000", "095155.951000", "095155.953000", "095155.955000", "095155.958000", "095155.960000", "095155.962000", "095155.965000", "095155.967000", "095155.969000", "095155.972000", "095235.928000", "095235.931000", "095235.933000", "095235.935000", "095235.938000", "095235.940000", "095235.942000", "095235.945000", "095235.947000", "095235.949000", "095235.952000", "095235.954000", "095235.956000", "095235.959000", "095235.961000", "095235.963000", "095235.966000", "095235.968000", "095235.970000", "095235.973000", "095315.928000", "095315.931000", "095315.933000", "095315.935000", "095315.938000", "095315.941000", "095315.943000", "095315.945000", "095315.948000", "095315.950000", "095315.952000", "095315.954000", "095315.957000", "095315.959000", "095315.961000", "095315.964000", "095315.966000", "095315.968000", "095315.970000", "095315.973000", "095354.633000", "095354.636000", "095354.638000", "095354.640000", "095354.643000", "095354.645000", "095354.648000", "095354.650000", "095354.652000", "095354.654000", "095354.657000", "095354.659000", "095354.661000", "095354.665000", "095354.669000", "095354.673000", "095354.676000", "095354.679000", "095354.682000", "095354.688000"],
      "InstanceCreationTime": ["094755.933000", "094755.936000", "094755.938000", "094755.940000", "094755.943000", "094755.945000", "094755.947000", "094755.949000", "094755.952000", "094755.954000", "094755.956000", "094755.965000", "094755.967000", "094755.970000", "094755.972000", "094755.974000", "094755.981000", "094755.983000", "094755.985000", "094755.987000", "094835.928000", "094835.931000", "094835.933000", "094835.936000", "094835.938000", "094835.941000", "094835.943000", "094835.953000", "094835.955000", "094835.957000", "094835.959000", "094835.962000", "094835.964000", "094835.966000", "094835.969000", "094835.971000", "094835.973000", "094835.975000", "094835.978000", "094835.980000", "094915.927000", "094915.930000", "094915.932000", "094915.934000", "094915.945000", "094915.947000", "094915.950000", "094915.952000", "094915.954000", "094915.957000", "094915.959000", "094915.961000", "094915.964000", "094915.966000", "094915.968000", "094915.971000", "094915.973000", "094915.975000", "094915.978000", "094915.980000", "094955.928000", "094955.931000", "094955.933000", "094955.935000", "094955.938000", "094955.940000", "094955.942000", "094955.945000", "094955.947000", "094955.949000", "094955.952000", "094955.954000", "094955.956000", "094955.959000", "094955.961000", "094955.963000", "094955.965000", "094955.968000", "094955.970000", "094955.972000", "095035.928000", "095035.931000", "095035.933000", "095035.935000", "095035.945000", "095035.948000", "095035.950000", "095035.952000", "095035.955000", "095035.957000", "095035.959000", "095035.962000", "095035.964000", "095035.966000", "095035.969000", "095035.971000", "095035.973000", "095035.976000", "095035.978000", "095035.980000", "095115.928000", "095115.931000", "095115.933000", "095115.936000", "095115.938000", "095115.940000", "095115.942000", "095115.945000", "095115.947000", "095115.949000", "095115.952000", "095115.954000", "095115.956000", "095115.959000", "095115.961000", "095115.963000", "095115.965000", "095115.968000", "095115.970000", "095115.972000", "095155.927000", "095155.930000", "095155.932000", "095155.934000", "095155.937000", "095155.939000", "095155.941000", "095155.944000", "095155.946000", "095155.948000", "095155.951000", "095155.953000", "095155.955000", "095155.958000", "095155.960000", "095155.962000", "095155.965000", "095155.967000", "095155.969000", "095155.972000", "095235.928000", "095235.931000", "095235.933000", "095235.935000", "095235.938000", "095235.940000", "095235.942000", "095235.945000", "095235.947000", "095235.949000", "095235.952000", "095235.954000", "095235.956000", "095235.959000", "095235.961000", "095235.963000", "095235.966000", "095235.968000", "095235.970000", "095235.973000", "095315.928000", "095315.931000", "095315.933000", "095315.935000", "095315.938000", "095315.941000", "095315.943000", "095315.945000", "095315.948000", "095315.950000", "095315.952000", "095315.954000", "095315.957000", "095315.959000", "095315.961000", "095315.964000", "095315.966000", "095315.968000", "095315.970000", "095315.973000", "095354.633000", "095354.636000", "095354.638000", "095354.640000", "095354.643000", "095354.645000", "095354.648000", "095354.650000", "095354.652000", "095354.654000", "095354.657000", "095354.659000", "095354.661000", "095354.665000", "095354.669000", "095354.673000", "095354.676000", "095354.679000", "095354.682000", "095354.688000"],
      "InstanceNumber": [1, 2, 3, 4, 5, 6, 7, 8, 9, 10, 11, 12, 13, 14, 15, 16, 17, 18, 19, 20, 21, 22, 23, 24, 25, 26, 27, 28, 29, 30, 31, 32, 33, 34, 35, 36, 37, 38, 39, 40, 41, 42, 43, 44, 45, 46, 47, 48, 49, 50, 51, 52, 53, 54, 55, 56, 57, 58, 59, 60, 61, 62, 63, 64, 65, 66, 67, 68, 69, 70, 71, 72, 73, 74, 75, 76, 77, 78, 79, 80, 81, 82, 83, 84, 85, 86, 87, 88, 89, 90, 91, 92, 93, 94, 95, 96, 97, 98, 99, 100, 101, 102, 103, 104, 105, 106, 107, 108, 109, 110, 111, 112, 113, 114, 115, 116, 117, 118, 119, 120, 121, 122, 123, 124, 125, 126, 127, 128, 129, 130, 131, 132, 133, 134, 135, 136, 137, 138, 139, 140, 141, 142, 143, 144, 145, 146, 147, 148, 149, 150, 151, 152, 153, 154, 155, 156, 157, 158, 159, 160, 161, 162, 163, 164, 165, 166, 167, 168, 169, 170, 171, 172, 173, 174, 175, 176, 177, 178, 179, 180, 181, 182, 183, 184, 185, 186, 187, 188, 189, 190, 191, 192, 193, 194, 195, 196, 197, 198, 199, 200],
      "LargestImagePixelValue": [693, 695, 691, 693, 695, 692, 693, 696, 695, 693, 694, 692, 695, 693, 694, 694, 695, 695, 692, 695, 696, 693, 697, 693, 693, 691, 695, 692, 694, 692, 694, 692, 690, 691, 694, 693, 692, 695, 689, 694, 694, 693, 690, 691, 691, 693, 694, 691, 691, 689, 692, 689, 691, 691, 691, 691, 692, 692, 694, 694, 694, 694, 691, 693, 696, 690, 691, 692, 691, 689, 692, 689, 690, 690, 692, 691, 690, 690, 690, 691, 693, 692, 693, 690, 694, 692, 693, 694, 692, 693, 690, 689, 688, 689, 688, 687, 690, 692, 692, 691, 691, 688, 692, 690, 694, 693, 691, 693, 693, 690, 693, 691, 690, 690, 690, 691, 690, 693, 689, 692, 691, 693, 694, 692, 692, 694, 691, 692, 690, 693, 690, 691, 695, 691, 693, 689, 690, 690, 689, 691, 690, 691, 692, 690, 689, 691, 691, 690, 690, 693, 693, 693, 690, 692, 694, 692, 690, 689, 693, 693, 691, 688, 688, 689, 689, 691, 689, 689, 691, 694, 690, 692, 694, 692, 693, 692, 690, 693, 688, 691, 691, 691, 691, 690, 689, 691, 692, 689, 688, 691, 689, 692, 691, 690, 691, 690, 693, 688, 692, 696],
      "WindowCenter": [474.0, 474.0, 474.0, 474.0, 474.0, 474.0, 474.0, 474.0, 475.0, 474.0, 474.0, 475.0, 474.0, 475.0, 475.0, 474.0, 474.0, 474.0, 474.0, 474.0, 474.0, 474.0, 474.0, 474.0, 474.0, 474.0, 474.0, 474.0, 474.0, 474.0, 474.0, 474.0, 474.0, 474.0, 474.0, 474.0, 474.0, 474.0, 473.0, 474.0, 473.0, 474.0, 474.0, 474.0, 473.0, 473.0, 473.0, 473.0, 473.0, 473.0, 473.0, 472.0, 473.0, 473.0, 473.0, 473.0, 474.0, 473.0, 474.0, 473.0, 473.0, 473.0, 473.0, 473.0, 474.0, 473.0, 473.0, 473.0, 473.0, 472.0, 473.0, 472.0, 473.0, 473.0, 473.0, 473.0, 473.0, 473.0, 473.0, 473.0, 473.0, 474.0, 473.0, 473.0, 473.0, 473.0, 473.0, 473.0, 473.0, 473.0, 473.0, 472.0, 472.0, 472.0, 472.0, 472.0, 473.0, 473.0, 473.0, 473.0, 473.0, 472.0, 473.0, 473.0, 473.0, 473.0, 473.0, 473.0, 473.0, 473.0, 473.0, 473.0, 473.0, 473.0, 473.0, 473.0, 473.0, 473.0, 472.0, 473.0, 473.0, 473.0, 473.0, 473.0, 473.0, 473.0, 473.0, 473.0, 473.0, 473.0, 473.0, 473.0, 473.0, 472.0, 473.0, 472.0, 473.0, 472.0, 471.0, 472.0, 472.0, 473.0, 473.0, 473.0, 471.0, 472.0, 473.0, 473.0, 473.0, 473.0, 473.0, 472.0, 473.0, 473.0, 472.0, 472.0, 473.0, 471.0, 472.0, 472.0, 472.0, 471.0, 471.0, 471.0, 471.0, 472.0, 471.0, 471.0, 473.0, 472.0, 473.0, 472.0, 472.0, 472.0, 472.0, 472.0, 472.0, 472.0, 471.0, 473.0, 472.0, 472.0, 472.0, 472.0, 471.0, 472.0, 472.0, 471.0, 471.0, 472.0, 471.0, 472.0, 472.0, 472.0, 472.0, 472.0, 472.0, 471.0, 472.0, 472.0],
      "WindowWidth": [983.0, 983.0, 983.0, 983.0, 983.0, 983.0, 983.0, 983.0, 984.0, 983.0, 983.0, 984.0, 983.0, 984.0, 984.0, 983.0, 983.0, 983.0, 983.0, 983.0, 983.0, 983.0, 983.0, 983.0, 983.0, 983.0, 983.0, 983.0, 983.0, 983.0, 983.0, 983.0, 983.0, 983.0, 983.0, 983.0, 983.0, 983.0, 981.0, 983.0, 982.0, 983.0, 982.0, 982.0, 982.0, 982.0, 982.0, 982.0, 982.0, 981.0, 982.0, 980.0, 982.0, 982.0, 982.0, 982.0, 982.0, 982.0, 982.0, 982.0, 982.0, 982.0, 982.0, 982.0, 982.0, 982.0, 982.0, 982.0, 981.0, 980.0, 981.0, 980.0, 981.0, 981.0, 981.0, 981.0, 982.0, 982.0, 982.0, 982.0, 982.0, 982.0, 981.0, 981.0, 981.0, 981.0, 981.0, 981.0, 981.0, 981.0, 981.0, 980.0, 980.0, 980.0, 980.0, 980.0, 981.0, 981.0, 981.0, 981.0, 981.0, 980.0, 981.0, 981.0, 981.0, 981.0, 981.0, 981.0, 981.0, 981.0, 981.0, 981.0, 981.0, 981.0, 981.0, 981.0, 981.0, 981.0, 980.0, 980.0, 981.0, 981.0, 981.0, 981.0, 981.0, 981.0, 981.0, 981.0, 981.0, 981.0, 981.0, 981.0, 981.0, 980.0, 981.0, 980.0, 981.0, 980.0, 979.0, 980.0, 980.0, 981.0, 981.0, 981.0, 979.0, 980.0, 981.0, 981.0, 981.0, 981.0, 981.0, 980.0, 981.0, 981.0, 980.0, 980.0, 981.0, 979.0, 980.0, 980.0, 980.0, 979.0, 979.0, 979.0, 979.0, 980.0, 979.0, 979.0, 981.0, 980.0, 981.0, 980.0, 980.0, 980.0, 980.0, 980.0, 980.0, 980.0, 979.0, 981.0, 980.0, 980.0, 980.0, 980.0, 979.0, 980.0, 980.0, 979.0, 979.0, 980.0, 979.0, 980.0, 980.0, 980.0, 980.0, 980.0, 980.0, 979.0, 980.0, 980.0]
    },
    "slices": {}
  }
}