{
  "AcquisitionMatrixPE": 80,
  "AcquisitionNumber": 1,
  "AcquisitionTime": "09:33:36.747500",
  "BandwidthPerPixelPhaseEncode": 48.077,
  "BaseResolution": 80,
  "BodyPartExamined": "BRAIN",
  "CoilCombinationMethod": "Sum of Squares",
  "ConsistencyInfo": "N4_VE11E_LATEST_20181129",
  "ConversionSoftware": "dcm2niix",
  "ConversionSoftwareVersion": "v1.0.20220720",
  "DerivedVendorReportedEchoSpacing": 0.000519999,
  "DeviceSerialNumber": "66112",
  "DwellTime": 2.7e-06,
  "EchoTime": 0.035,
  "EchoTrainLength": 39,
  "EffectiveEchoSpacing": 0.00026,
  "FlipAngle": 90,
  "HeudiconvVersion": "0.13.1",
  "ImageOrientationPatientDICOM": [0.999953, 0.00967931, 0.000131379, -0.00925008, 0.951434, 0.307714],
  "ImageOrientationText": "Tra>Cor(17.9)>Sag(-0.2)",
  "ImageType": [
    "ORIGINAL",
    "PRIMARY",
    "M",
    "ND",
    "NORM",
    "MOSAIC"
],
  "ImagingFrequency": 123.261,
  "InPlanePhaseEncodingDirectionDICOM": "COL",
  "InstitutionAddress": "Maynard 3,Hanover,NH,US,03755",
  "InstitutionName": "Dartmouth College - PBS",
  "InstitutionalDepartmentName": "Department",
  "MRAcquisitionType": "2D",
  "MagneticFieldStrength": 3,
  "Manufacturer": "Siemens",
  "ManufacturersModelName": "Prisma",
  "MatrixCoilMode": "GRAPPA",
  "Modality": "MR",
  "NonlinearGradientCorrection": false,
  "ParallelReductionFactorInPlane": 2,
  "PartialFourier": 1,
  "PatientPosition": "HFS",
  "PercentPhaseFOV": 100,
  "PercentSampling": 100,
  "PhaseEncodingDirection": "j-",
  "PhaseEncodingSteps": 79,
  "PhaseResolution": 1,
  "PixelBandwidth": 2315,
  "ProcedureStepDescription": "dbic^QA",
  "ProtocolName": "func-bold_task-rest_acq-p2",
  "PulseSequenceDetails": "%SiemensSeq%\\ep2d_bold",
  "ReceiveCoilActiveElements": "HC1-7;NC1,2",
  "ReceiveCoilName": "HeadNeck_64",
  "ReconMatrixPE": 80,
  "RefLinesPE": 24,
  "RepetitionTime": 2,
  "SAR": 0.0358352,
  "ScanOptions": "FS",
  "ScanningSequence": "EP",
  "SequenceName": "*epfid2d1_80",
  "SequenceVariant": "SK",
  "SeriesDescription": "func-bold_task-rest_acq-p2",
  "SeriesNumber": 5,
  "ShimSetting": [4242, -7731, -7486, -142, -202, -265, -87, 97],
  "SliceThickness": 3.5,
  "SliceTiming": [0.99, 0, 1.055, 0.0675, 1.1225, 0.1325, 1.1875, 0.1975, 1.255, 0.265, 1.32, 0.33, 1.385, 0.3975, 1.4525, 0.4625, 1.5175, 0.5275, 1.585, 0.595, 1.65, 0.66, 1.715, 0.725, 1.7825, 0.7925, 1.8475, 0.8575, 1.915, 0.925],
  "SoftwareVersions": "syngo MR E11",
  "SpacingBetweenSlices": 3.99,
  "StationName": "AWP66112",
  "TaskName": "rest",
  "TotalReadoutTime": 0.02054,
  "TxRefAmp": 209.233,
  "dcmmeta_affine": [
    [-2.99985933303833, -0.02775024250149727, -0.01138532254844904, 122.58219909667969],
    [-0.029037922620773315, 2.8543014526367188, 1.2277278900146484, -129.52542114257812],
    [0.0003941367904189974, -0.9231432676315308, 3.796400308609009, -22.283357620239258],
    [0.0, 0.0, 0.0, 1.0]
],
  "dcmmeta_reorient_transform": [
    [0.0, -1.0, 0.0, 79.0],
    [1.0, 0.0, 0.0, 0.0],
    [0.0, 0.0, 1.0, 0.0],
    [0.0, 0.0, 0.0, 1.0]
],
  "dcmmeta_shape": [80, 80, 30, 200],
  "dcmmeta_slice_dim": 2,
  "dcmmeta_version": 0.6,
  "global": {
    "const": {
      "AccessionNumber": "qa64",
      "AcquisitionMatrix": [80, 0, 0, 80],
      "AngioFlag": "N",
      "BitsAllocated": 16,
      "BitsStored": 12,
      "BodyPartExamined": "BRAIN",
      "Columns": 480,
      "EchoNumbers": 1,
      "EchoTime": 35.0,
      "EchoTrainLength": 39,
      "FlipAngle": 90.0,
      "HighBit": 11,
      "ImageOrientationPatient": [0.99995314577452, 0.00967930757951, 0.00013137893209, -0.0092500809651, 0.95143379751454, 0.30771442109397],
      "ImagePositionPatient": [-714.81176884903, -672.63224926635, -279.91915576729],
      "ImageType": [
        "ORIGINAL",
        "PRIMARY",
        "M",
        "ND",
        "NORM",
        "MOSAIC"
],
      "ImagedNucleus": "1H",
      "ImagingFrequency": 123.261242,
      "InPlanePhaseEncodingDirection": "COL",
      "LargestImagePixelValue": 4095,
      "MRAcquisitionType": "2D",
      "MagneticFieldStrength": 3.0,
      "Manufacturer": "SIEMENS",
      "ManufacturerModelName": "Prisma",
      "Modality": "MR",
      "NumberOfAverages": 1.0,
      "NumberOfPhaseEncodingSteps": 79,
      "PercentPhaseFieldOfView": 100.0,
      "PercentSampling": 100.0,
      "PerformedProcedureStepStartTime": "092434.022000",
      "PhotometricInterpretation": "MONOCHROME2",
      "PixelBandwidth": 2315.0,
      "PixelRepresentation": 0,
      "PixelSpacing": [3.0, 3.0],
      "ProtocolName": "func-bold_task-rest_acq-p2",
      "RepetitionTime": 2000.0,
      "Rows": 480,
      "SAR": 0.03583516141519,
      "SamplesPerPixel": 1,
      "ScanOptions": "FS",
      "ScanningSequence": "EP",
      "SequenceName": "*epfid2d1_80",
      "SequenceVariant": "SK",
      "SeriesDescription": "func-bold_task-rest_acq-p2",
      "SeriesNumber": 5,
      "SeriesTime": "093436.015000",
      "SliceLocation": -61.407056303358,
      "SliceThickness": 3.5,
      "SmallestImagePixelValue": 0,
      "SoftwareVersions": "syngo MR E11",
      "SpacingBetweenSlices": 3.9900000486448,
      "SpecificCharacterSet": "ISO_IR 100",
      "StudyID": "22",
      "StudyTime": "092433.904000",
      "TransmitCoilName": "Body",
      "VariableFlipAngleFlag": "N",
      "WindowCenterWidthExplanation": "Algo1"
    },
    "slices": {}
  },
  "time": {
    "samples": {
      "AcquisitionNumber": [1, 2, 3, 4, 5, 6, 7, 8, 9, 10, 11, 12, 13, 14, 15, 16, 17, 18, 19, 20, 21, 22, 23, 24, 25, 26, 27, 28, 29, 30, 31, 32, 33, 34, 35, 36, 37, 38, 39, 40, 41, 42, 43, 44, 45, 46, 47, 48, 49, 50, 51, 52, 53, 54, 55, 56, 57, 58, 59, 60, 61, 62, 63, 64, 65, 66, 67, 68, 69, 70, 71, 72, 73, 74, 75, 76, 77, 78, 79, 80, 81, 82, 83, 84, 85, 86, 87, 88, 89, 90, 91, 92, 93, 94, 95, 96, 97, 98, 99, 100, 101, 102, 103, 104, 105, 106, 107, 108, 109, 110, 111, 112, 113, 114, 115, 116, 117, 118, 119, 120, 121, 122, 123, 124, 125, 126, 127, 128, 129, 130, 131, 132, 133, 134, 135, 136, 137, 138, 139, 140, 141, 142, 143, 144, 145, 146, 147, 148, 149, 150, 151, 152, 153, 154, 155, 156, 157, 158, 159, 160, 161, 162, 163, 164, 165, 166, 167, 168, 169, 170, 171, 172, 173, 174, 175, 176, 177, 178, 179, 180, 181, 182, 183, 184, 185, 186, 187, 188, 189, 190, 191, 192, 193, 194, 195, 196, 197, 198, 199, 200],
      "AcquisitionTime": ["093336.747500", "093338.747500", "093340.747500", "093342.747500", "093344.747500", "093346.747500", "093348.747500", "093350.747500", "093352.747500", "093354.747500", "093356.747500", "093358.747500", "093400.747500", "093402.747500", "093404.747500", "093406.747500", "093408.747500", "093410.747500", "093412.747500", "093414.747500", "093416.747500", "093418.747500", "093420.747500", "093422.747500", "093424.747500", "093426.747500", "093428.747500", "093430.747500", "093432.747500", "093434.747500", "093436.747500", "093438.747500", "093440.747500", "093442.747500", "093444.747500", "093446.747500", "093448.747500", "093450.747500", "093452.747500", "093454.747500", "093456.747500", "093458.747500", "093500.747500", "093502.747500", "093504.747500", "093506.747500", "093508.747500", "093510.747500", "093512.747500", "093514.747500", "093516.747500", "093518.747500", "093520.747500", "093522.747500", "093524.747500", "093526.747500", "093528.747500", "093530.747500", "093532.747500", "093534.747500", "093536.747500", "093538.747500", "093540.747500", "093542.747500", "093544.747500", "093546.747500", "093548.747500", "093550.747500", "093552.747500", "093554.747500", "093556.747500", "093558.747500", "093600.747500", "093602.747500", "093604.747500", "093606.747500", "093608.747500", "093610.747500", "093612.747500", "093614.747500", "093616.747500", "093618.747500", "093620.747500", "093622.747500", "093624.747500", "093626.747500", "093628.747500", "093630.747500", "093632.747500", "093634.747500", "093636.747500", "093638.747500", "093640.747500", "093642.747500", "093644.747500", "093646.747500", "093648.747500", "093650.747500", "093652.747500", "093654.747500", "093656.747500", "093658.747500", "093700.747500", "093702.747500", "093704.747500", "093706.747500", "093708.747500", "093710.747500", "093712.747500", "093714.747500", "093716.747500", "093718.747500", "093720.747500", "093722.747500", "093724.747500", "093726.747500", "093728.747500", "093730.747500", "093732.747500", "093734.747500", "093736.747500", "093738.747500", "093740.747500", "093742.747500", "093744.747500", "093746.747500", "093748.747500", "093750.747500", "093752.747500", "093754.747500", "093756.747500", "093758.747500", "093800.747500", "093802.747500", "093804.747500", "093806.747500", "093808.747500", "093810.747500", "093812.747500", "093814.747500", "093816.747500", "093818.747500", "093820.747500", "093822.747500", "093824.747500", "093826.747500", "093828.747500", "093830.747500", "093832.747500", "093834.747500", "093836.747500", "093838.747500", "093840.747500", "093842.747500", "093844.747500", "093846.747500", "093848.747500", "093850.747500", "093852.747500", "093854.747500", "093856.747500", "093858.747500", "093900.747500", "093902.747500", "093904.747500", "093906.747500", "093908.747500", "093910.747500", "093912.747500", "093914.747500", "093916.747500", "093918.747500", "093920.747500", "093922.747500", "093924.747500", "093926.747500", "093928.747500", "093930.747500", "093932.747500", "093934.747500", "093936.747500", "093938.747500", "093940.747500", "093942.747500", "093944.747500", "093946.747500", "093948.747500", "093950.747500", "093952.747500", "093954.747500", "093956.747500", "093958.747500", "094000.747500", "094002.747500", "094004.747500", "094006.747500", "094008.747500", "094010.747500", "094012.747500", "094014.747500"],
      "ContentTime": ["093436.019000", "093436.022000", "093436.025000", "093436.027000", "093436.029000", "093436.032000", "093436.034000", "093436.043000", "093436.045000", "093436.048000", "093436.050000", "093436.058000", "093436.060000", "093436.062000", "093436.065000", "093436.067000", "093436.069000", "093436.072000", "093436.074000", "093436.083000", "093436.085000", "093436.087000", "093436.090000", "093436.092000", "093436.099000", "093436.101000", "093436.103000", "093436.106000", "093436.108000", "093516.013000", "093516.016000", "093516.018000", "093516.020000", "093516.023000", "093516.028000", "093516.030000", "093516.033000", "093516.035000", "093516.037000", "093516.040000", "093516.042000", "093516.044000", "093516.047000", "093516.049000", "093516.051000", "093516.054000", "093516.056000", "093516.058000", "093516.061000", "093556.012000", "093556.015000", "093556.017000", "093556.020000", "093556.022000", "093556.024000", "093556.026000", "093556.035000", "093556.037000", "093556.039000", "093556.042000", "093556.044000", "093556.046000", "093556.049000", "093556.051000", "093556.053000", "093556.056000", "093556.058000", "093556.060000", "093556.062000", "093636.013000", "093636.016000", "093636.018000", "093636.020000", "093636.023000", "093636.025000", "093636.027000", "093636.030000", "093636.032000", "093636.034000", "093636.036000", "093636.039000", "093636.041000", "093636.043000", "093636.046000", "093636.050000", "093636.053000", "093636.055000", "093636.057000", "093636.060000", "093716.013000", "093716.015000", "093716.018000", "093716.020000", "093716.022000", "093716.025000", "093716.027000", "093716.030000", "093716.032000", "093716.034000", "093716.037000", "093716.039000", "093716.041000", "093716.044000", "093716.046000", "093716.049000", "093716.051000", "093716.053000", "093716.056000", "093716.058000", "093756.012000", "093756.015000", "093756.017000", "093756.020000", "093756.022000", "093756.024000", "093756.026000", "093756.029000", "093756.031000", "093756.033000", "093756.036000", "093756.038000", "093756.040000", "093756.043000", "093756.045000", "093756.047000", "093756.050000", "093756.052000", "093756.054000", "093756.057000", "093836.013000", "093836.016000", "093836.018000", "093836.020000", "093836.023000", "093836.025000", "093836.027000", "093836.030000", "093836.032000", "093836.034000", "093836.037000", "093836.039000", "093836.041000", "093836.044000", "093836.046000", "093836.048000", "093836.051000", "093836.053000", "093836.055000", "093836.058000", "093856.013000", "093856.016000", "093856.018000", "093856.021000", "093856.023000", "093856.025000", "093856.028000", "093856.030000", "093856.032000", "093856.041000", "093936.013000", "093936.016000", "093936.018000", "093936.020000", "093936.023000", "093936.025000", "093936.027000", "093936.030000", "093936.032000", "093936.034000", "093936.036000", "093936.039000", "093936.041000", "093936.043000", "093936.046000", "093936.048000", "093936.050000", "093936.053000", "093936.055000", "093936.057000", "094016.012000", "094016.015000", "094016.017000", "094016.019000", "094016.022000", "094016.024000", "094016.027000", "094016.029000", "094016.031000", "094016.033000", "094016.036000", "094016.038000", "094016.040000", "094016.043000", "094016.045000", "094016.048000", "094016.050000", "094016.052000", "094016.055000", "094016.057000", "094016.641000"],
      "InstanceCreationTime": ["093436.019000", "093436.022000", "093436.025000", "093436.027000", "093436.029000", "093436.032000", "093436.034000", "093436.043000", "093436.045000", "093436.048000", "093436.050000", "093436.058000", "093436.060000", "093436.062000", "093436.065000", "093436.067000", "093436.069000", "093436.072000", "093436.074000", "093436.083000", "093436.085000", "093436.087000", "093436.090000", "093436.092000", "093436.099000", "093436.101000", "093436.103000", "093436.106000", "093436.108000", "093516.013000", "093516.016000", "093516.018000", "093516.020000", "093516.023000", "093516.028000", "093516.030000", "093516.033000", "093516.035000", "093516.037000", "093516.040000", "093516.042000", "093516.044000", "093516.047000", "093516.049000", "093516.051000", "093516.054000", "093516.056000", "093516.058000", "093516.061000", "093556.012000", "093556.015000", "093556.017000", "093556.020000", "093556.022000", "093556.024000", "093556.026000", "093556.035000", "093556.037000", "093556.039000", "093556.042000", "093556.044000", "093556.046000", "093556.049000", "093556.051000", "093556.053000", "093556.056000", "093556.058000", "093556.060000", "093556.062000", "093636.013000", "093636.016000", "093636.018000", "093636.020000", "093636.023000", "093636.025000", "093636.027000", "093636.030000", "093636.032000", "093636.034000", "093636.036000", "093636.039000", "093636.041000", "093636.043000", "093636.046000", "093636.050000", "093636.053000", "093636.055000", "093636.057000", "093636.060000", "093716.013000", "093716.015000", "093716.018000", "093716.020000", "093716.022000", "093716.025000", "093716.027000", "093716.030000", "093716.032000", "093716.034000", "093716.037000", "093716.039000", "093716.041000", "093716.044000", "093716.046000", "093716.049000", "093716.051000", "093716.053000", "093716.056000", "093716.058000", "093756.012000", "093756.015000", "093756.017000", "093756.020000", "093756.022000", "093756.024000", "093756.026000", "093756.029000", "093756.031000", "093756.033000", "093756.036000", "093756.038000", "093756.040000", "093756.043000", "093756.045000", "093756.047000", "093756.050000", "093756.052000", "093756.054000", "093756.057000", "093836.013000", "093836.016000", "093836.018000", "093836.020000", "093836.023000", "093836.025000", "093836.027000", "093836.030000", "093836.032000", "093836.034000", "093836.037000", "093836.039000", "093836.041000", "093836.044000", "093836.046000", "093836.048000", "093836.051000", "093836.053000", "093836.055000", "093836.058000", "093856.013000", "093856.016000", "093856.018000", "093856.021000", "093856.023000", "093856.025000", "093856.028000", "093856.030000", "093856.032000", "093856.041000", "093936.013000", "093936.016000", "093936.018000", "093936.020000", "093936.023000", "093936.025000", "093936.027000", "093936.030000", "093936.032000", "093936.034000", "093936.036000", "093936.039000", "093936.041000", "093936.043000", "093936.046000", "093936.048000", "093936.050000", "093936.053000", "093936.055000", "093936.057000", "094016.012000", "094016.015000", "094016.017000", "094016.019000", "094016.022000", "094016.024000", "094016.027000", "094016.029000", "094016.031000", "094016.033000", "094016.036000", "094016.038000", "094016.040000", "094016.043000", "094016.045000", "094016.048000", "094016.050000", "094016.052000", "094016.055000", "094016.057000", "094016.641000"],
      "InstanceNumber": [1, 2, 3, 4, 5, 6, 7, 8, 9, 10, 11, 12, 13, 14, 15, 16, 17, 18, 19, 20, 21, 22, 23, 24, 25, 26, 27, 28, 29, 30, 31, 32, 33, 34, 35, 36, 37, 38, 39, 40, 41, 42, 43, 44, 45, 46, 47, 48, 49, 50, 51, 52, 53, 54, 55, 56, 57, 58, 59, 60, 61, 62, 63, 64, 65, 66, 67, 68, 69, 70, 71, 72, 73, 74, 75, 76, 77, 78, 79, 80, 81, 82, 83, 84, 85, 86, 87, 88, 89, 90, 91, 92, 93, 94, 95, 96, 97, 98, 99, 100, 101, 102, 103, 104, 105, 106, 107, 108, 109, 110, 111, 112, 113, 114, 115, 116, 117, 118, 119, 120, 121, 122, 123, 124, 125, 126, 127, 128, 129, 130, 131, 132, 133, 134, 135, 136, 137, 138, 139, 140, 141, 142, 143, 144, 145, 146, 147, 148, 149, 150, 151, 152, 153, 154, 155, 156, 157, 158, 159, 160, 161, 162, 163, 164, 165, 166, 167, 168, 169, 170, 171, 172, 173, 174, 175, 176, 177, 178, 179, 180, 181, 182, 183, 184, 185, 186, 187, 188, 189, 190, 191, 192, 193, 194, 195, 196, 197, 198, 199, 200],
      "WindowCenter": [1562.0, 1562.0, 1562.0, 1562.0, 1563.0, 1562.0, 1562.0, 1562.0, 1561.0, 1563.0, 1561.0, 1562.0, 1561.0, 1562.0, 1561.0, 1561.0, 1562.0, 1561.0, 1561.0, 1561.0, 1561.0, 1561.0, 1561.0, 1562.0, 1562.0, 1561.0, 1561.0, 1561.0, 1561.0, 1562.0, 1560.0, 1561.0, 1561.0, 1561.0, 1561.0, 1561.0, 1561.0, 1561.0, 1560.0, 1561.0, 1561.0, 1561.0, 1561.0, 1560.0, 1560.0, 1561.0, 1561.0, 1561.0, 1560.0, 1560.0, 1560.0, 1560.0, 1559.0, 1560.0, 1561.0, 1560.0, 1560.0, 1560.0, 1559.0, 1561.0, 1559.0, 1560.0, 1560.0, 1560.0, 1560.0, 1559.0, 1560.0, 1560.0, 1559.0, 1559.0, 1560.0, 1560.0, 1559.0, 1559.0, 1559.0, 1560.0, 1560.0, 1559.0, 1560.0, 1560.0, 1559.0, 1560.0, 1559.0, 1560.0, 1560.0, 1560.0, 1559.0, 1560.0, 1560.0, 1559.0, 1559.0, 1560.0, 1559.0, 1560.0, 1560.0, 1559.0, 1560.0, 1559.0, 1560.0, 1560.0, 1560.0, 1560.0, 1560.0, 1560.0, 1560.0, 1560.0, 1560.0, 1560.0, 1560.0, 1560.0, 1560.0, 1560.0, 1560.0, 1561.0, 1560.0, 1561.0, 1559.0, 1559.0, 1559.0, 1560.0, 1560.0, 1559.0, 1560.0, 1559.0, 1559.0, 1559.0, 1559.0, 1560.0, 1560.0, 1560.0, 1559.0, 1560.0, 1560.0, 1559.0, 1560.0, 1560.0, 1561.0, 1559.0, 1559.0, 1559.0, 1559.0, 1560.0, 1559.0, 1559.0, 1559.0, 1560.0, 1560.0, 1559.0, 1560.0, 1559.0, 1559.0, 1559.0, 1559.0, 1560.0, 1560.0, 1559.0, 1559.0, 1559.0, 1560.0, 1559.0, 1560.0, 1559.0, 1559.0, 1560.0, 1560.0, 1560.0, 1559.0, 1560.0, 1560.0, 1560.0, 1559.0, 1560.0, 1560.0, 1560.0, 1560.0, 1560.0, 1559.0, 1560.0, 1560.0, 1559.0, 1559.0, 1559.0, 1559.0, 1560.0, 1559.0, 1559.0, 1559.0, 1559.0, 1559.0, 1559.0, 1558.0, 1559.0, 1560.0, 1559.0, 1559.0, 1560.0, 1559.0, 1560.0, 1559.0, 1559.0],
      "WindowWidth": [3474.0, 3473.0, 3473.0, 3473.0, 3473.0, 3473.0, 3473.0, 3473.0, 3473.0, 3473.0, 3473.0, 3473.0, 3473.0, 3473.0, 3473.0, 3472.0, 3472.0, 3473.0, 3472.0, 3473.0, 3473.0, 3473.0, 3473.0, 3473.0, 3473.0, 3473.0, 3473.0, 3473.0, 3473.0, 3473.0, 3473.0, 3473.0, 3473.0, 3473.0, 3473.0, 3473.0, 3473.0, 3473.0, 3473.0, 3473.0, 3473.0, 3473.0, 3473.0, 3473.0, 3473.0, 3473.0, 3473.0, 3473.0, 3473.0, 3473.0, 3473.0, 3473.0, 3473.0, 3473.0, 3472.0, 3473.0, 3473.0, 3472.0, 3473.0, 3472.0, 3473.0, 3472.0, 3473.0, 3472.0, 3472.0, 3472.0, 3472.0, 3472.0, 3472.0, 3472.0, 3471.0, 3472.0, 3472.0, 3472.0, 3472.0, 3472.0, 3472.0, 3472.0, 3472.0, 3471.0, 3472.0, 3472.0, 3472.0, 3471.0, 3472.0, 3472.0, 3472.0, 3472.0, 3472.0, 3472.0, 3472.0, 3472.0, 3472.0, 3471.0, 3471.0, 3472.0, 3471.0, 3472.0, 3471.0, 3472.0, 3471.0, 3471.0, 3471.0, 3471.0, 3471.0, 3472.0, 3471.0, 3471.0, 3471.0, 3471.0, 3471.0, 3471.0, 3471.0, 3471.0, 3471.0, 3471.0, 3472.0, 3471.0, 3471.0, 3471.0, 3471.0, 3471.0, 3471.0, 3471.0, 3471.0, 3471.0, 3471.0, 3471.0, 3471.0, 3471.0, 3471.0, 3471.0, 3471.0, 3471.0, 3471.0, 3471.0, 3470.0, 3471.0, 3471.0, 3471.0, 3471.0, 3471.0, 3471.0, 3471.0, 3471.0, 3471.0, 3471.0, 3471.0, 3471.0, 3471.0, 3471.0, 3471.0, 3471.0, 3470.0, 3471.0, 3471.0, 3471.0, 3471.0, 3470.0, 3471.0, 3470.0, 3471.0, 3471.0, 3470.0, 3470.0, 3470.0, 3471.0, 3470.0, 3470.0, 3470.0, 3471.0, 3470.0, 3470.0, 3470.0, 3470.0, 3470.0, 3470.0, 3470.0, 3470.0, 3470.0, 3470.0, 3470.0, 3470.0, 3470.0, 3470.0, 3470.0, 3470.0, 3470.0, 3470.0, 3470.0, 3470.0, 3470.0, 3470.0, 3470.0, 3470.0, 3470.0, 3470.0, 3470.0, 3470.0, 3470.0]
    },
    "slices": {}
  }
}