{
  "AcquisitionMatrixPE": 80,
  "AcquisitionNumber": 1,
  "AcquisitionTime": "09:27:43.450000",
  "BandwidthPerPixelPhaseEncode": 25,
  "BaseResolution": 80,
  "BodyPartExamined": "BRAIN",
  "CoilCombinationMethod": "Sum of Squares",
  "ConsistencyInfo": "N4_VE11E_LATEST_20181129",
  "ConversionSoftware": "dcm2niix",
  "ConversionSoftwareVersion": "v1.0.20220720",
  "DerivedVendorReportedEchoSpacing": 0.0005,
  "DeviceSerialNumber": "66112",
  "DwellTime": 2.7e-06,
  "EchoTime": 0.03,
  "EchoTrainLength": 80,
  "EffectiveEchoSpacing": 0.0005,
  "FlipAngle": 77,
  "HeudiconvVersion": "0.13.1",
  "ImageOrientationPatientDICOM": [0.988926, 0.148317, 0.00533283, -0.142859, 0.941564, 0.305038],
  "ImageOrientationText": "Tra>Cor(17.6)>Sag(-2.3)",
  "ImageType": [
    "ORIGINAL",
    "PRIMARY",
    "M",
    "ND",
    "NORM",
    "MOSAIC"
],
  "ImagingFrequency": 123.261,
  "InPlanePhaseEncodingDirectionDICOM": "COL",
  "InstitutionAddress": "Maynard 3,Hanover,NH,US,03755",
  "InstitutionName": "Dartmouth College - PBS",
  "InstitutionalDepartmentName": "Department",
  "MRAcquisitionType": "2D",
  "MagneticFieldStrength": 3,
  "Manufacturer": "Siemens",
  "ManufacturersModelName": "Prisma",
  "MatrixCoilMode": "SENSE",
  "Modality": "MR",
  "NonlinearGradientCorrection": false,
  "PartialFourier": 1,
  "PatientPosition": "HFS",
  "PercentPhaseFOV": 100,
  "PercentSampling": 100,
  "PhaseEncodingDirection": "j-",
  "PhaseEncodingSteps": 80,
  "PhaseResolution": 1,
  "PixelBandwidth": 2315,
  "ProcedureStepDescription": "dbic^QA",
  "ProtocolName": "func-bold_fa-77",
  "PulseSequenceDetails": "%SiemensSeq%\\ep2d_bold",
  "ReceiveCoilActiveElements": "HC1-7;NC1,2",
  "ReceiveCoilName": "HeadNeck_64",
  "ReconMatrixPE": 80,
  "RepetitionTime": 2,
  "SAR": 0.0320383,
  "ScanOptions": "FS",
  "ScanningSequence": "EP",
  "SequenceName": "*epfid2d1_80",
  "SequenceVariant": "SK",
  "SeriesDescription": "func-bold_fa-77",
  "SeriesNumber": 6,
  "ShimSetting": [4241, -7747, -7485, -107, -193, -265, -84, 159],
  "SliceThickness": 3.5,
  "SliceTiming": [0.99, 0, 1.0575, 0.0675, 1.1225, 0.1325, 1.1875, 0.1975, 1.255, 0.265, 1.32, 0.33, 1.3875, 0.3975, 1.4525, 0.4625, 1.5175, 0.5275, 1.585, 0.595, 1.65, 0.66, 1.7175, 0.7275, 1.7825, 0.7925, 1.8475, 0.8575, 1.915, 0.925],
  "SoftwareVersions": "syngo MR E11",
  "SpacingBetweenSlices": 3.99,
  "StationName": "AWP66112",
  "TotalReadoutTime": 0.0395,
  "TxRefAmp": 212.792,
  "dcmmeta_affine": [
    [-2.9667766094207764, -0.42857611179351807, -0.16048245131969452, 137.38406372070312],
    [-0.44495081901550293, 2.8246922492980957, 1.2066643238067627, -106.71861267089844],
    [0.015998492017388344, -0.9151153564453125, 3.7997772693634033, -21.42769432067871],
    [0.0, 0.0, 0.0, 1.0]
],
  "dcmmeta_reorient_transform": [
    [0.0, -1.0, 0.0, 79.0],
    [1.0, 0.0, 0.0, 0.0],
    [0.0, 0.0, 1.0, 0.0],
    [0.0, 0.0, 0.0, 1.0]
],
  "dcmmeta_shape": [80, 80, 30, 200],
  "dcmmeta_slice_dim": 2,
  "dcmmeta_version": 0.6,
  "global": {
    "const": {
      "AccessionNumber": "qa64",
      "AcquisitionMatrix": [80, 0, 0, 80],
      "AngioFlag": "N",
      "BitsAllocated": 16,
      "BitsStored": 12,
      "BodyPartExamined": "BRAIN",
      "Columns": 480,
      "EchoNumbers": 1,
      "EchoTime": 30.0,
      "EchoTrainLength": 80,
      "FlipAngle": 77.0,
      "HighBit": 11,
      "ImageOrientationPatient": [0.98892550142401, 0.14831693614867, 0.0053328308379, -0.1428587078078, 0.94156408847809, 0.30503845149739],
      "ImagePositionPatient": [-611.16662405655, -770.36069431391, -279.94457624161],
      "ImageType": [
        "ORIGINAL",
        "PRIMARY",
        "M",
        "ND",
        "NORM",
        "MOSAIC"
],
      "ImagedNucleus": "1H",
      "ImagingFrequency": 123.261268,
      "InPlanePhaseEncodingDirection": "COL",
      "MRAcquisitionType": "2D",
      "MagneticFieldStrength": 3.0,
      "Manufacturer": "SIEMENS",
      "ManufacturerModelName": "Prisma",
      "Modality": "MR",
      "NumberOfAverages": 1.0,
      "NumberOfPhaseEncodingSteps": 80,
      "PercentPhaseFieldOfView": 100.0,
      "PercentSampling": 100.0,
      "PerformedProcedureStepStartTime": "091916.502000",
      "PhotometricInterpretation": "MONOCHROME2",
      "PixelBandwidth": 2315.0,
      "PixelRepresentation": 0,
      "PixelSpacing": [3.0, 3.0],
      "ProtocolName": "func-bold_fa-77",
      "RepetitionTime": 2000.0,
      "Rows": 480,
      "SAR": 0.03203831495062,
      "SamplesPerPixel": 1,
      "ScanOptions": "FS",
      "ScanningSequence": "EP",
      "SequenceName": "*epfid2d1_80",
      "SequenceVariant": "SK",
      "SeriesDescription": "func-bold_fa-77",
      "SeriesNumber": 6,
      "SeriesTime": "092828.516000",
      "SliceLocation": -58.205948752672,
      "SliceThickness": 3.5,
      "SmallestImagePixelValue": 0,
      "SoftwareVersions": "syngo MR E11",
      "SpacingBetweenSlices": 3.9900000362107,
      "SpecificCharacterSet": "ISO_IR 100",
      "StudyID": "23",
      "StudyTime": "091916.304000",
      "TransmitCoilName": "Body",
      "VariableFlipAngleFlag": "N",
      "WindowCenterWidthExplanation": "Algo1"
    },
    "slices": {}
  },
  "time": {
    "samples": {
      "AcquisitionNumber": [1, 2, 3, 4, 5, 6, 7, 8, 9, 10, 11, 12, 13, 14, 15, 16, 17, 18, 19, 20, 21, 22, 23, 24, 25, 26, 27, 28, 29, 30, 31, 32, 33, 34, 35, 36, 37, 38, 39, 40, 41, 42, 43, 44, 45, 46, 47, 48, 49, 50, 51, 52, 53, 54, 55, 56, 57, 58, 59, 60, 61, 62, 63, 64, 65, 66, 67, 68, 69, 70, 71, 72, 73, 74, 75, 76, 77, 78, 79, 80, 81, 82, 83, 84, 85, 86, 87, 88, 89, 90, 91, 92, 93, 94, 95, 96, 97, 98, 99, 100, 101, 102, 103, 104, 105, 106, 107, 108, 109, 110, 111, 112, 113, 114, 115, 116, 117, 118, 119, 120, 121, 122, 123, 124, 125, 126, 127, 128, 129, 130, 131, 132, 133, 134, 135, 136, 137, 138, 139, 140, 141, 142, 143, 144, 145, 146, 147, 148, 149, 150, 151, 152, 153, 154, 155, 156, 157, 158, 159, 160, 161, 162, 163, 164, 165, 166, 167, 168, 169, 170, 171, 172, 173, 174, 175, 176, 177, 178, 179, 180, 181, 182, 183, 184, 185, 186, 187, 188, 189, 190, 191, 192, 193, 194, 195, 196, 197, 198, 199, 200],
      "AcquisitionTime": ["092743.450000", "092745.450000", "092747.450000", "092749.450000", "092751.450000", "092753.450000", "092755.450000", "092757.450000", "092759.450000", "092801.450000", "092803.450000", "092805.450000", "092807.450000", "092809.450000", "092811.450000", "092813.450000", "092815.450000", "092817.450000", "092819.450000", "092821.450000", "092823.450000", "092825.450000", "092827.450000", "092829.450000", "092831.450000", "092833.450000", "092835.450000", "092837.450000", "092839.450000", "092841.450000", "092843.450000", "092845.450000", "092847.450000", "092849.450000", "092851.450000", "092853.450000", "092855.450000", "092857.450000", "092859.450000", "092901.450000", "092903.450000", "092905.450000", "092907.450000", "092909.450000", "092911.450000", "092913.450000", "092915.450000", "092917.450000", "092919.450000", "092921.450000", "092923.450000", "092925.450000", "092927.450000", "092929.450000", "092931.450000", "092933.450000", "092935.450000", "092937.450000", "092939.450000", "092941.450000", "092943.450000", "092945.450000", "092947.450000", "092949.450000", "092951.450000", "092953.450000", "092955.450000", "092957.450000", "092959.450000", "093001.450000", "093003.450000", "093005.450000", "093007.450000", "093009.450000", "093011.450000", "093013.450000", "093015.450000", "093017.450000", "093019.450000", "093021.450000", "093023.450000", "093025.450000", "093027.450000", "093029.450000", "093031.450000", "093033.450000", "093035.450000", "093037.450000", "093039.450000", "093041.450000", "093043.450000", "093045.450000", "093047.450000", "093049.450000", "093051.450000", "093053.450000", "093055.450000", "093057.450000", "093059.450000", "093101.450000", "093103.450000", "093105.450000", "093107.450000", "093109.450000", "093111.450000", "093113.450000", "093115.450000", "093117.450000", "093119.450000", "093121.450000", "093123.450000", "093125.450000", "093127.450000", "093129.450000", "093131.450000", "093133.450000", "093135.450000", "093137.450000", "093139.450000", "093141.450000", "093143.450000", "093145.450000", "093147.450000", "093149.450000", "093151.450000", "093153.450000", "093155.450000", "093157.450000", "093159.450000", "093201.450000", "093203.450000", "093205.450000", "093207.450000", "093209.450000", "093211.450000", "093213.450000", "093215.450000", "093217.450000", "093219.450000", "093221.450000", "093223.450000", "093225.450000", "093227.450000", "093229.450000", "093231.450000", "093233.450000", "093235.450000", "093237.450000", "093239.450000", "093241.450000", "093243.450000", "093245.450000", "093247.450000", "093249.450000", "093251.450000", "093253.450000", "093255.450000", "093257.450000", "093259.450000", "093301.450000", "093303.450000", "093305.450000", "093307.450000", "093309.450000", "093311.450000", "093313.450000", "093315.450000", "093317.450000", "093319.450000", "093321.450000", "093323.450000", "093325.450000", "093327.450000", "093329.450000", "093331.450000", "093333.450000", "093335.450000", "093337.450000", "093339.450000", "093341.450000", "093343.450000", "093345.450000", "093347.450000", "093349.450000", "093351.450000", "093353.450000", "093355.450000", "093357.450000", "093359.450000", "093401.450000", "093403.450000", "093405.450000", "093407.450000", "093409.450000", "093411.450000", "093413.450000", "093415.450000", "093417.450000", "093419.450000", "093421.450000"],
      "ContentTime": ["092828.519000", "092828.522000", "092828.525000", "092828.527000", "092828.536000", "092828.539000", "092828.541000", "092828.544000", "092828.546000", "092828.548000", "092828.551000", "092828.553000", "092828.562000", "092828.565000", "092828.567000", "092828.569000", "092828.572000", "092828.574000", "092828.576000", "092828.579000", "092828.581000", "092828.584000", "092908.513000", "092908.516000", "092908.518000", "092908.521000", "092908.524000", "092908.526000", "092908.529000", "092908.534000", "092908.536000", "092908.538000", "092908.541000", "092908.543000", "092908.545000", "092908.548000", "092908.550000", "092908.552000", "092908.555000", "092908.557000", "092908.560000", "092908.562000", "092948.513000", "092948.516000", "092948.518000", "092948.521000", "092948.523000", "092948.526000", "092948.528000", "092948.531000", "092948.533000", "092948.535000", "092948.538000", "092948.540000", "092948.543000", "092948.546000", "092948.548000", "092948.550000", "092948.553000", "092948.555000", "092948.558000", "092948.560000", "093008.514000", "093008.517000", "093008.519000", "093008.522000", "093008.524000", "093008.526000", "093008.529000", "093008.531000", "093008.544000", "093008.547000", "093048.514000", "093048.517000", "093048.519000", "093048.522000", "093048.524000", "093048.541000", "093048.543000", "093048.546000", "093048.548000", "093048.551000", "093048.553000", "093048.556000", "093048.559000", "093048.561000", "093048.563000", "093048.566000", "093048.568000", "093048.570000", "093048.573000", "093048.575000", "093128.513000", "093128.516000", "093128.518000", "093128.521000", "093128.523000", "093128.525000", "093128.528000", "093128.530000", "093128.532000", "093128.535000", "093128.538000", "093128.540000", "093128.543000", "093128.545000", "093128.548000", "093128.550000", "093128.552000", "093128.555000", "093128.557000", "093128.559000", "093208.513000", "093208.516000", "093208.519000", "093208.521000", "093208.523000", "093208.526000", "093208.528000", "093208.530000", "093208.533000", "093208.535000", "093208.538000", "093208.541000", "093208.543000", "093208.562000", "093208.564000", "093208.576000", "093208.579000", "093208.581000", "093208.583000", "093208.586000", "093248.514000", "093248.517000", "093248.519000", "093248.522000", "093248.524000", "093248.526000", "093248.529000", "093248.531000", "093248.534000", "093248.537000", "093248.539000", "093248.541000", "093248.544000", "093248.546000", "093248.548000", "093248.551000", "093248.553000", "093248.555000", "093248.558000", "093248.560000", "093328.514000", "093328.517000", "093328.519000", "093328.521000", "093328.524000", "093328.526000", "093328.529000", "093328.531000", "093328.533000", "093328.536000", "093328.538000", "093328.541000", "093328.544000", "093328.546000", "093328.548000", "093328.551000", "093328.553000", "093328.555000", "093328.558000", "093328.560000", "093408.513000", "093408.516000", "093408.519000", "093408.521000", "093408.523000", "093408.526000", "093408.528000", "093408.530000", "093408.533000", "093408.536000", "093408.538000", "093408.541000", "093408.543000", "093408.546000", "093408.548000", "093408.550000", "093408.553000", "093408.555000", "093408.557000", "093408.560000", "093422.530000", "093422.533000", "093422.535000", "093422.538000", "093422.540000", "093422.543000", "093422.545000", "093422.548000"],
      "InstanceCreationTime": ["092828.519000", "092828.522000", "092828.525000", "092828.527000", "092828.536000", "092828.539000", "092828.541000", "092828.544000", "092828.546000", "092828.548000", "092828.551000", "092828.553000", "092828.562000", "092828.565000", "092828.567000", "092828.569000", "092828.572000", "092828.574000", "092828.576000", "092828.579000", "092828.581000", "092828.584000", "092908.513000", "092908.516000", "092908.518000", "092908.521000", "092908.524000", "092908.526000", "092908.529000", "092908.534000", "092908.536000", "092908.538000", "092908.541000", "092908.543000", "092908.545000", "092908.548000", "092908.550000", "092908.552000", "092908.555000", "092908.557000", "092908.560000", "092908.562000", "092948.513000", "092948.516000", "092948.518000", "092948.521000", "092948.523000", "092948.526000", "092948.528000", "092948.531000", "092948.533000", "092948.535000", "092948.538000", "092948.540000", "092948.543000", "092948.546000", "092948.548000", "092948.550000", "092948.553000", "092948.555000", "092948.558000", "092948.560000", "093008.514000", "093008.517000", "093008.519000", "093008.522000", "093008.524000", "093008.526000", "093008.529000", "093008.531000", "093008.544000", "093008.547000", "093048.514000", "093048.517000", "093048.519000", "093048.522000", "093048.524000", "093048.541000", "093048.543000", "093048.546000", "093048.548000", "093048.551000", "093048.553000", "093048.556000", "093048.559000", "093048.561000", "093048.563000", "093048.566000", "093048.568000", "093048.570000", "093048.573000", "093048.575000", "093128.513000", "093128.516000", "093128.518000", "093128.521000", "093128.523000", "093128.525000", "093128.528000", "093128.530000", "093128.532000", "093128.535000", "093128.538000", "093128.540000", "093128.543000", "093128.545000", "093128.548000", "093128.550000", "093128.552000", "093128.555000", "093128.557000", "093128.559000", "093208.513000", "093208.516000", "093208.519000", "093208.521000", "093208.523000", "093208.526000", "093208.528000", "093208.530000", "093208.533000", "093208.535000", "093208.538000", "093208.541000", "093208.543000", "093208.562000", "093208.564000", "093208.576000", "093208.579000", "093208.581000", "093208.583000", "093208.586000", "093248.514000", "093248.517000", "093248.519000", "093248.522000", "093248.524000", "093248.526000", "093248.529000", "093248.531000", "093248.534000", "093248.537000", "093248.539000", "093248.541000", "093248.544000", "093248.546000", "093248.548000", "093248.551000", "093248.553000", "093248.555000", "093248.558000", "093248.560000", "093328.514000", "093328.517000", "093328.519000", "093328.521000", "093328.524000", "093328.526000", "093328.529000", "093328.531000", "093328.533000", "093328.536000", "093328.538000", "093328.541000", "093328.544000", "093328.546000", "093328.548000", "093328.551000", "093328.553000", "093328.555000", "093328.558000", "093328.560000", "093408.513000", "093408.516000", "093408.519000", "093408.521000", "093408.523000", "093408.526000", "093408.528000", "093408.530000", "093408.533000", "093408.536000", "093408.538000", "093408.541000", "093408.543000", "093408.546000", "093408.548000", "093408.550000", "093408.553000", "093408.555000", "093408.557000", "093408.560000", "093422.530000", "093422.533000", "093422.535000", "093422.538000", "093422.540000", "093422.543000", "093422.545000", "093422.548000"],
      "InstanceNumber": [1, 2, 3, 4, 5, 6, 7, 8, 9, 10, 11, 12, 13, 14, 15, 16, 17, 18, 19, 20, 21, 22, 23, 24, 25, 26, 27, 28, 29, 30, 31, 32, 33, 34, 35, 36, 37, 38, 39, 40, 41, 42, 43, 44, 45, 46, 47, 48, 49, 50, 51, 52, 53, 54, 55, 56, 57, 58, 59, 60, 61, 62, 63, 64, 65, 66, 67, 68, 69, 70, 71, 72, 73, 74, 75, 76, 77, 78, 79, 80, 81, 82, 83, 84, 85, 86, 87, 88, 89, 90, 91, 92, 93, 94, 95, 96, 97, 98, 99, 100, 101, 102, 103, 104, 105, 106, 107, 108, 109, 110, 111, 112, 113, 114, 115, 116, 117, 118, 119, 120, 121, 122, 123, 124, 125, 126, 127, 128, 129, 130, 131, 132, 133, 134, 135, 136, 137, 138, 139, 140, 141, 142, 143, 144, 145, 146, 147, 148, 149, 150, 151, 152, 153, 154, 155, 156, 157, 158, 159, 160, 161, 162, 163, 164, 165, 166, 167, 168, 169, 170, 171, 172, 173, 174, 175, 176, 177, 178, 179, 180, 181, 182, 183, 184, 185, 186, 187, 188, 189, 190, 191, 192, 193, 194, 195, 196, 197, 198, 199, 200],
      "LargestImagePixelValue": [4087, 4086, 4091, 4092, 4088, 4089, 4088, 4090, 4091, 4090, 4091, 4088, 4090, 4089, 4089, 4085, 4086, 4091, 4087, 4089, 4089, 4092, 4086, 4090, 4086, 4094, 4087, 4092, 4092, 4092, 4095, 4089, 4087, 4093, 4091, 4090, 4089, 4089, 4088, 4089, 4091, 4092, 4090, 4091, 4088, 4095, 4095, 4095, 4095, 4095, 4095, 4095, 4095, 4095, 4095, 4095, 4095, 4095, 4095, 4095, 4095, 4095, 4095, 4095, 4095, 4095, 4095, 4095, 4095, 4095, 4095, 4095, 4095, 4095, 4095, 4095, 4095, 4095, 4095, 4095, 4095, 4095, 4095, 4095, 4095, 4095, 4095, 4095, 4095, 4095, 4095, 4095, 4095, 4095, 4095, 4095, 4095, 4095, 4095, 4095, 4095, 4095, 4095, 4095, 4095, 4095, 4095, 4095, 4095, 4095, 4095, 4095, 4095, 4095, 4095, 4095, 4095, 4095, 4095, 4095, 4095, 4095, 4095, 4095, 4095, 4095, 4095, 4095, 4095, 4095, 4095, 4095, 4095, 4095, 4095, 4095, 4095, 4095, 4095, 4095, 4095, 4095, 4095, 4095, 4095, 4095, 4095, 4095, 4095, 4095, 4095, 4095, 4095, 4095, 4095, 4095, 4095, 4095, 4095, 4095, 4095, 4095, 4095, 4095, 4095, 4095, 4095, 4095, 4095, 4095, 4095, 4095, 4095, 4095, 4095, 4095, 4095, 4095, 4095, 4095, 4095, 4095, 4095, 4095, 4095, 4095, 4095, 4095, 4095, 4095, 4095, 4095, 4095, 4095, 4095, 4095, 4095, 4095, 4095, 4095],
      "WindowCenter": [1414.0, 1414.0, 1415.0, 1415.0, 1415.0, 1415.0, 1414.0, 1414.0, 1414.0, 1415.0, 1414.0, 1414.0, 1414.0, 1414.0, 1413.0, 1414.0, 1414.0, 1414.0, 1414.0, 1414.0, 1413.0, 1413.0, 1414.0, 1413.0, 1414.0, 1413.0, 1413.0, 1413.0, 1414.0, 1413.0, 1413.0, 1414.0, 1413.0, 1413.0, 1413.0, 1412.0, 1413.0, 1413.0, 1413.0, 1413.0, 1413.0, 1413.0, 1412.0, 1412.0, 1413.0, 1412.0, 1415.0, 1414.0, 1414.0, 1414.0, 1415.0, 1414.0, 1414.0, 1414.0, 1414.0, 1414.0, 1413.0, 1413.0, 1413.0, 1414.0, 1413.0, 1413.0, 1414.0, 1413.0, 1413.0, 1413.0, 1412.0, 1413.0, 1414.0, 1413.0, 1413.0, 1413.0, 1413.0, 1414.0, 1413.0, 1413.0, 1412.0, 1412.0, 1413.0, 1412.0, 1413.0, 1413.0, 1412.0, 1413.0, 1412.0, 1413.0, 1412.0, 1412.0, 1413.0, 1413.0, 1412.0, 1412.0, 1412.0, 1411.0, 1413.0, 1412.0, 1412.0, 1411.0, 1411.0, 1412.0, 1412.0, 1412.0, 1411.0, 1412.0, 1412.0, 1412.0, 1412.0, 1412.0, 1412.0, 1412.0, 1412.0, 1412.0, 1412.0, 1412.0, 1411.0, 1412.0, 1412.0, 1412.0, 1411.0, 1411.0, 1411.0, 1412.0, 1412.0, 1412.0, 1411.0, 1411.0, 1411.0, 1411.0, 1412.0, 1411.0, 1411.0, 1411.0, 1411.0, 1411.0, 1411.0, 1411.0, 1411.0, 1411.0, 1411.0, 1410.0, 1410.0, 1410.0, 1410.0, 1410.0, 1410.0, 1410.0, 1411.0, 1410.0, 1410.0, 1410.0, 1410.0, 1410.0, 1410.0, 1411.0, 1410.0, 1410.0, 1410.0, 1410.0, 1410.0, 1410.0, 1410.0, 1410.0, 1410.0, 1410.0, 1409.0, 1410.0, 1409.0, 1410.0, 1409.0, 1410.0, 1409.0, 1409.0, 1409.0, 1409.0, 1410.0, 1410.0, 1409.0, 1409.0, 1410.0, 1410.0, 1409.0, 1408.0, 1409.0, 1409.0, 1409.0, 1409.0, 1409.0, 1409.0, 1409.0, 1409.0, 1409.0, 1409.0, 1409.0, 1409.0, 1409.0, 1409.0, 1409.0, 1409.0, 1409.0, 1409.0],
      "WindowWidth": [3353.0, 3353.0, 3353.0, 3353.0, 3353.0, 3353.0, 3353.0, 3353.0, 3353.0, 3353.0, 3353.0, 3353.0, 3353.0, 3353.0, 3353.0, 3353.0, 3353.0, 3353.0, 3352.0, 3352.0, 3352.0, 3352.0, 3352.0, 3352.0, 3352.0, 3352.0, 3352.0, 3352.0, 3352.0, 3352.0, 3352.0, 3352.0, 3352.0, 3352.0, 3352.0, 3352.0, 3352.0, 3352.0, 3352.0, 3352.0, 3352.0, 3351.0, 3351.0, 3351.0, 3351.0, 3351.0, 3358.0, 3357.0, 3357.0, 3357.0, 3356.0, 3357.0, 3356.0, 3356.0, 3356.0, 3356.0, 3357.0, 3357.0, 3357.0, 3356.0, 3356.0, 3356.0, 3356.0, 3356.0, 3356.0, 3356.0, 3356.0, 3356.0, 3356.0, 3356.0, 3356.0, 3356.0, 3356.0, 3355.0, 3355.0, 3355.0, 3356.0, 3356.0, 3355.0, 3356.0, 3355.0, 3356.0, 3356.0, 3355.0, 3355.0, 3355.0, 3356.0, 3356.0, 3355.0, 3355.0, 3356.0, 3356.0, 3356.0, 3355.0, 3355.0, 3355.0, 3355.0, 3355.0, 3355.0, 3355.0, 3355.0, 3355.0, 3355.0, 3355.0, 3355.0, 3355.0, 3355.0, 3355.0, 3355.0, 3355.0, 3355.0, 3355.0, 3355.0, 3355.0, 3355.0, 3355.0, 3355.0, 3355.0, 3355.0, 3355.0, 3355.0, 3354.0, 3354.0, 3355.0, 3355.0, 3355.0, 3355.0, 3355.0, 3354.0, 3355.0, 3355.0, 3355.0, 3355.0, 3355.0, 3354.0, 3354.0, 3354.0, 3354.0, 3354.0, 3354.0, 3354.0, 3354.0, 3354.0, 3354.0, 3354.0, 3354.0, 3354.0, 3354.0, 3354.0, 3354.0, 3354.0, 3354.0, 3354.0, 3353.0, 3354.0, 3354.0, 3353.0, 3354.0, 3354.0, 3354.0, 3354.0, 3354.0, 3354.0, 3353.0, 3354.0, 3353.0, 3354.0, 3353.0, 3354.0, 3353.0, 3354.0, 3354.0, 3354.0, 3354.0, 3353.0, 3353.0, 3353.0, 3353.0, 3353.0, 3353.0, 3353.0, 3353.0, 3353.0, 3353.0, 3353.0, 3353.0, 3353.0, 3353.0, 3353.0, 3353.0, 3353.0, 3353.0, 3353.0, 3353.0, 3353.0, 3353.0, 3353.0, 3353.0, 3353.0, 3353.0]
    },
    "slices": {}
  }
}