{
  "AcquisitionMatrixPE": 80,
  "AcquisitionNumber": 1,
  "AcquisitionTime": "09:20:52.740000",
  "BandwidthPerPixelPhaseEncode": 48.077,
  "BaseResolution": 80,
  "BodyPartExamined": "BRAIN",
  "CoilCombinationMethod": "Sum of Squares",
  "ConsistencyInfo": "N4_VE11E_LATEST_20181129",
  "ConversionSoftware": "dcm2niix",
  "ConversionSoftwareVersion": "v1.0.20220720",
  "DerivedVendorReportedEchoSpacing": 0.000519999,
  "DeviceSerialNumber": "66112",
  "DwellTime": 2.7e-06,
  "EchoTime": 0.035,
  "EchoTrainLength": 39,
  "EffectiveEchoSpacing": 0.00026,
  "FlipAngle": 90,
  "HeudiconvVersion": "0.13.1",
  "ImageOrientationPatientDICOM": [0.988926, 0.148317, 0.00533283, -0.142859, 0.941564, 0.305038],
  "ImageOrientationText": "Tra>Cor(17.6)>Sag(-2.3)",
  "ImageType": [
    "ORIGINAL",
    "PRIMARY",
    "M",
    "ND",
    "NORM",
    "MOSAIC"
],
  "ImagingFrequency": 123.261,
  "InPlanePhaseEncodingDirectionDICOM": "COL",
  "InstitutionAddress": "Maynard 3,Hanover,NH,US,03755",
  "InstitutionName": "Dartmouth College - PBS",
  "InstitutionalDepartmentName": "Department",
  "MRAcquisitionType": "2D",
  "MagneticFieldStrength": 3,
  "Manufacturer": "Siemens",
  "ManufacturersModelName": "Prisma",
  "MatrixCoilMode": "GRAPPA",
  "Modality": "MR",
  "NonlinearGradientCorrection": false,
  "ParallelReductionFactorInPlane": 2,
  "PartialFourier": 1,
  "PatientPosition": "HFS",
  "PercentPhaseFOV": 100,
  "PercentSampling": 100,
  "PhaseEncodingDirection": "j-",
  "PhaseEncodingSteps": 79,
  "PhaseResolution": 1,
  "PixelBandwidth": 2315,
  "ProcedureStepDescription": "dbic^QA",
  "ProtocolName": "func-bold_task-rest_acq-p2",
  "PulseSequenceDetails": "%SiemensSeq%\\ep2d_bold",
  "ReceiveCoilActiveElements": "HC1-7;NC1,2",
  "ReceiveCoilName": "HeadNeck_64",
  "ReconMatrixPE": 80,
  "RefLinesPE": 24,
  "RepetitionTime": 2,
  "SAR": 0.040769,
  "ScanOptions": "FS",
  "ScanningSequence": "EP",
  "SequenceName": "*epfid2d1_80",
  "SequenceVariant": "SK",
  "SeriesDescription": "func-bold_task-rest_acq-p2",
  "SeriesNumber": 5,
  "ShimSetting": [4241, -7747, -7486, -110, -196, -264, -84, 160],
  "SliceThickness": 3.5,
  "SliceTiming": [0.99, 0, 1.055, 0.065, 1.12, 0.13, 1.1875, 0.1975, 1.2525, 0.2625, 1.32, 0.33, 1.385, 0.395, 1.45, 0.46, 1.5175, 0.5275, 1.5825, 0.5925, 1.65, 0.66, 1.715, 0.725, 1.78, 0.79, 1.8475, 0.8575, 1.9125, 0.9225],
  "SoftwareVersions": "syngo MR E11",
  "SpacingBetweenSlices": 3.99,
  "StationName": "AWP66112",
  "TaskName": "rest",
  "TotalReadoutTime": 0.02054,
  "TxRefAmp": 212.792,
  "dcmmeta_affine": [
    [-2.9667766094207764, -0.42857611179351807, -0.16048245131969452, 139.60855102539062],
    [-0.44495081901550293, 2.8246922492980957, 1.2066643238067627, -108.62907409667969],
    [0.015998492017388344, -0.9151153564453125, 3.7997772693634033, -22.069242477416992],
    [0.0, 0.0, 0.0, 1.0]
],
  "dcmmeta_reorient_transform": [
    [0.0, -1.0, 0.0, 79.0],
    [1.0, 0.0, 0.0, 0.0],
    [0.0, 0.0, 1.0, 0.0],
    [0.0, 0.0, 0.0, 1.0]
],
  "dcmmeta_shape": [80, 80, 30, 200],
  "dcmmeta_slice_dim": 2,
  "dcmmeta_version": 0.6,
  "global": {
    "const": {
      "AccessionNumber": "qa64",
      "AcquisitionMatrix": [80, 0, 0, 80],
      "AngioFlag": "N",
      "BitsAllocated": 16,
      "BitsStored": 12,
      "BodyPartExamined": "BRAIN",
      "Columns": 480,
      "EchoNumbers": 1,
      "EchoTime": 35.0,
      "EchoTrainLength": 39,
      "FlipAngle": 90.0,
      "HighBit": 11,
      "ImageOrientationPatient": [0.98892550142401, 0.14831693614867, 0.0053328308379, -0.1428587078078, 0.94156408847809, 0.30503845149739],
      "ImagePositionPatient": [-613.39110623524, -768.45022716608, -280.58612439835],
      "ImageType": [
        "ORIGINAL",
        "PRIMARY",
        "M",
        "ND",
        "NORM",
        "MOSAIC"
],
      "ImagedNucleus": "1H",
      "ImagingFrequency": 123.26127,
      "InPlanePhaseEncodingDirection": "COL",
      "LargestImagePixelValue": 4095,
      "MRAcquisitionType": "2D",
      "MagneticFieldStrength": 3.0,
      "Manufacturer": "SIEMENS",
      "ManufacturerModelName": "Prisma",
      "Modality": "MR",
      "NumberOfAverages": 1.0,
      "NumberOfPhaseEncodingSteps": 79,
      "PercentPhaseFieldOfView": 100.0,
      "PercentSampling": 100.0,
      "PerformedProcedureStepStartTime": "091916.502000",
      "PhotometricInterpretation": "MONOCHROME2",
      "PixelBandwidth": 2315.0,
      "PixelRepresentation": 0,
      "PixelSpacing": [3.0, 3.0],
      "ProtocolName": "func-bold_task-rest_acq-p2",
      "RepetitionTime": 2000.0,
      "Rows": 480,
      "SAR": 0.04076900563731,
      "SamplesPerPixel": 1,
      "ScanOptions": "FS",
      "ScanningSequence": "EP",
      "SequenceName": "*epfid2d1_80",
      "SequenceVariant": "SK",
      "SeriesDescription": "func-bold_task-rest_acq-p2",
      "SeriesNumber": 5,
      "SeriesTime": "092148.697000",
      "SliceLocation": -59.484150008661,
      "SliceThickness": 3.5,
      "SmallestImagePixelValue": 0,
      "SoftwareVersions": "syngo MR E11",
      "SpacingBetweenSlices": 3.990000036004,
      "SpecificCharacterSet": "ISO_IR 100",
      "StudyID": "23",
      "StudyTime": "091916.304000",
      "TransmitCoilName": "Body",
      "VariableFlipAngleFlag": "N",
      "WindowCenterWidthExplanation": "Algo1"
    },
    "slices": {}
  },
  "time": {
    "samples": {
      "AcquisitionNumber": [1, 2, 3, 4, 5, 6, 7, 8, 9, 10, 11, 12, 13, 14, 15, 16, 17, 18, 19, 20, 21, 22, 23, 24, 25, 26, 27, 28, 29, 30, 31, 32, 33, 34, 35, 36, 37, 38, 39, 40, 41, 42, 43, 44, 45, 46, 47, 48, 49, 50, 51, 52, 53, 54, 55, 56, 57, 58, 59, 60, 61, 62, 63, 64, 65, 66, 67, 68, 69, 70, 71, 72, 73, 74, 75, 76, 77, 78, 79, 80, 81, 82, 83, 84, 85, 86, 87, 88, 89, 90, 91, 92, 93, 94, 95, 96, 97, 98, 99, 100, 101, 102, 103, 104, 105, 106, 107, 108, 109, 110, 111, 112, 113, 114, 115, 116, 117, 118, 119, 120, 121, 122, 123, 124, 125, 126, 127, 128, 129, 130, 131, 132, 133, 134, 135, 136, 137, 138, 139, 140, 141, 142, 143, 144, 145, 146, 147, 148, 149, 150, 151, 152, 153, 154, 155, 156, 157, 158, 159, 160, 161, 162, 163, 164, 165, 166, 167, 168, 169, 170, 171, 172, 173, 174, 175, 176, 177, 178, 179, 180, 181, 182, 183, 184, 185, 186, 187, 188, 189, 190, 191, 192, 193, 194, 195, 196, 197, 198, 199, 200],
      "AcquisitionTime": ["092052.740000", "092054.740000", "092056.740000", "092058.740000", "092100.740000", "092102.740000", "092104.740000", "092106.740000", "092108.740000", "092110.740000", "092112.740000", "092114.740000", "092116.740000", "092118.740000", "092120.740000", "092122.740000", "092124.740000", "092126.740000", "092128.740000", "092130.740000", "092132.740000", "092134.740000", "092136.740000", "092138.740000", "092140.740000", "092142.740000", "092144.740000", "092146.740000", "092148.740000", "092150.740000", "092152.740000", "092154.740000", "092156.740000", "092158.740000", "092200.740000", "092202.740000", "092204.740000", "092206.740000", "092208.740000", "092210.740000", "092212.740000", "092214.740000", "092216.740000", "092218.740000", "092220.740000", "092222.740000", "092224.740000", "092226.740000", "092228.740000", "092230.740000", "092232.740000", "092234.740000", "092236.740000", "092238.740000", "092240.740000", "092242.740000", "092244.740000", "092246.740000", "092248.740000", "092250.740000", "092252.740000", "092254.740000", "092256.740000", "092258.740000", "092300.740000", "092302.740000", "092304.740000", "092306.740000", "092308.740000", "092310.740000", "092312.740000", "092314.740000", "092316.740000", "092318.740000", "092320.740000", "092322.740000", "092324.740000", "092326.740000", "092328.740000", "092330.740000", "092332.740000", "092334.740000", "092336.740000", "092338.740000", "092340.740000", "092342.740000", "092344.740000", "092346.740000", "092348.740000", "092350.740000", "092352.740000", "092354.740000", "092356.740000", "092358.740000", "092400.740000", "092402.740000", "092404.740000", "092406.740000", "092408.740000", "092410.740000", "092412.740000", "092414.740000", "092416.740000", "092418.740000", "092420.740000", "092422.740000", "092424.740000", "092426.740000", "092428.740000", "092430.740000", "092432.740000", "092434.740000", "092436.740000", "092438.740000", "092440.740000", "092442.740000", "092444.740000", "092446.740000", "092448.740000", "092450.740000", "092452.740000", "092454.740000", "092456.740000", "092458.740000", "092500.740000", "092502.740000", "092504.740000", "092506.740000", "092508.740000", "092510.740000", "092512.740000", "092514.740000", "092516.740000", "092518.740000", "092520.740000", "092522.740000", "092524.740000", "092526.740000", "092528.740000", "092530.740000", "092532.740000", "092534.740000", "092536.740000", "092538.740000", "092540.740000", "092542.740000", "092544.740000", "092546.740000", "092548.740000", "092550.740000", "092552.740000", "092554.740000", "092556.740000", "092558.740000", "092600.740000", "092602.740000", "092604.740000", "092606.740000", "092608.740000", "092610.740000", "092612.740000", "092614.740000", "092616.740000", "092618.740000", "092620.740000", "092622.740000", "092624.740000", "092626.740000", "092628.740000", "092630.740000", "092632.740000", "092634.740000", "092636.740000", "092638.740000", "092640.740000", "092642.740000", "092644.740000", "092646.740000", "092648.740000", "092650.740000", "092652.740000", "092654.740000", "092656.740000", "092658.740000", "092700.740000", "092702.740000", "092704.740000", "092706.740000", "092708.740000", "092710.740000", "092712.740000", "092714.740000", "092716.740000", "092718.740000", "092720.740000", "092722.740000", "092724.740000", "092726.740000", "092728.740000", "092730.740000"],
      "ContentTime": ["092148.700000", "092148.704000", "092148.706000", "092148.708000", "092148.711000", "092148.713000", "092148.715000", "092148.718000", "092148.720000", "092148.735000", "092148.738000", "092148.740000", "092148.742000", "092148.751000", "092148.754000", "092148.756000", "092148.758000", "092148.761000", "092148.763000", "092148.765000", "092148.768000", "092148.770000", "092148.773000", "092148.775000", "092148.777000", "092148.780000", "092148.782000", "092148.785000", "092228.694000", "092228.697000", "092228.699000", "092228.702000", "092228.704000", "092228.707000", "092228.709000", "092228.711000", "092228.714000", "092228.716000", "092228.719000", "092228.721000", "092228.723000", "092228.726000", "092228.728000", "092228.730000", "092228.733000", "092228.735000", "092228.737000", "092228.740000", "092308.694000", "092308.697000", "092308.699000", "092308.708000", "092308.711000", "092308.713000", "092308.715000", "092308.718000", "092308.720000", "092308.722000", "092308.725000", "092308.727000", "092308.729000", "092308.732000", "092308.734000", "092308.736000", "092308.739000", "092308.744000", "092308.746000", "092308.749000", "092348.695000", "092348.698000", "092348.700000", "092348.702000", "092348.705000", "092348.707000", "092348.710000", "092348.712000", "092348.714000", "092348.717000", "092348.719000", "092348.721000", "092348.724000", "092348.726000", "092348.728000", "092348.731000", "092348.733000", "092348.736000", "092348.747000", "092348.749000", "092428.694000", "092428.697000", "092428.699000", "092428.701000", "092428.704000", "092428.706000", "092428.708000", "092428.711000", "092428.713000", "092428.716000", "092428.718000", "092428.720000", "092428.723000", "092428.725000", "092428.727000", "092428.730000", "092428.732000", "092428.735000", "092428.737000", "092428.739000", "092508.694000", "092508.697000", "092508.699000", "092508.701000", "092508.704000", "092508.707000", "092508.709000", "092508.711000", "092508.714000", "092508.716000", "092508.718000", "092508.721000", "092508.723000", "092508.725000", "092508.728000", "092508.730000", "092508.732000", "092508.735000", "092508.737000", "092508.752000", "092548.695000", "092548.698000", "092548.700000", "092548.702000", "092548.705000", "092548.707000", "092548.709000", "092548.712000", "092548.714000", "092548.717000", "092548.719000", "092548.721000", "092548.724000", "092548.726000", "092548.728000", "092548.731000", "092548.733000", "092548.735000", "092548.738000", "092548.740000", "092628.695000", "092628.698000", "092628.700000", "092628.702000", "092628.705000", "092628.707000", "092628.710000", "092628.712000", "092628.714000", "092628.717000", "092628.719000", "092628.721000", "092628.724000", "092628.726000", "092628.728000", "092628.731000", "092628.733000", "092628.736000", "092628.738000", "092628.740000", "092708.694000", "092708.697000", "092708.699000", "092708.702000", "092708.704000", "092708.706000", "092708.709000", "092708.711000", "092708.714000", "092708.716000", "092708.718000", "092708.721000", "092708.723000", "092708.725000", "092708.728000", "092708.730000", "092708.732000", "092708.735000", "092708.737000", "092708.740000", "092731.818000", "092731.821000", "092731.823000", "092731.826000", "092731.828000", "092731.831000", "092731.833000", "092731.835000", "092731.838000", "092731.840000", "092731.842000", "092731.845000"],
      "InstanceCreationTime": ["092148.700000", "092148.704000", "092148.706000", "092148.708000", "092148.711000", "092148.713000", "092148.715000", "092148.718000", "092148.720000", "092148.735000", "092148.738000", "092148.740000", "092148.742000", "092148.751000", "092148.754000", "092148.756000", "092148.758000", "092148.761000", "092148.763000", "092148.765000", "092148.768000", "092148.770000", "092148.773000", "092148.775000", "092148.777000", "092148.780000", "092148.782000", "092148.785000", "092228.694000", "092228.697000", "092228.699000", "092228.702000", "092228.704000", "092228.707000", "092228.709000", "092228.711000", "092228.714000", "092228.716000", "092228.719000", "092228.721000", "092228.723000", "092228.726000", "092228.728000", "092228.730000", "092228.733000", "092228.735000", "092228.737000", "092228.740000", "092308.694000", "092308.697000", "092308.699000", "092308.708000", "092308.711000", "092308.713000", "092308.715000", "092308.718000", "092308.720000", "092308.722000", "092308.725000", "092308.727000", "092308.729000", "092308.732000", "092308.734000", "092308.736000", "092308.739000", "092308.744000", "092308.746000", "092308.749000", "092348.695000", "092348.698000", "092348.700000", "092348.702000", "092348.705000", "092348.707000", "092348.710000", "092348.712000", "092348.714000", "092348.717000", "092348.719000", "092348.721000", "092348.724000", "092348.726000", "092348.728000", "092348.731000", "092348.733000", "092348.736000", "092348.747000", "092348.749000", "092428.694000", "092428.697000", "092428.699000", "092428.701000", "092428.704000", "092428.706000", "092428.708000", "092428.711000", "092428.713000", "092428.716000", "092428.718000", "092428.720000", "092428.723000", "092428.725000", "092428.727000", "092428.730000", "092428.732000", "092428.735000", "092428.737000", "092428.739000", "092508.694000", "092508.697000", "092508.699000", "092508.701000", "092508.704000", "092508.707000", "092508.709000", "092508.711000", "092508.714000", "092508.716000", "092508.718000", "092508.721000", "092508.723000", "092508.725000", "092508.728000", "092508.730000", "092508.732000", "092508.735000", "092508.737000", "092508.752000", "092548.695000", "092548.698000", "092548.700000", "092548.702000", "092548.705000", "092548.707000", "092548.709000", "092548.712000", "092548.714000", "092548.717000", "092548.719000", "092548.721000", "092548.724000", "092548.726000", "092548.728000", "092548.731000", "092548.733000", "092548.735000", "092548.738000", "092548.740000", "092628.695000", "092628.698000", "092628.700000", "092628.702000", "092628.705000", "092628.707000", "092628.710000", "092628.712000", "092628.714000", "092628.717000", "092628.719000", "092628.721000", "092628.724000", "092628.726000", "092628.728000", "092628.731000", "092628.733000", "092628.736000", "092628.738000", "092628.740000", "092708.694000", "092708.697000", "092708.699000", "092708.702000", "092708.704000", "092708.706000", "092708.709000", "092708.711000", "092708.714000", "092708.716000", "092708.718000", "092708.721000", "092708.723000", "092708.725000", "092708.728000", "092708.730000", "092708.732000", "092708.735000", "092708.737000", "092708.740000", "092731.818000", "092731.821000", "092731.823000", "092731.826000", "092731.828000", "092731.831000", "092731.833000", "092731.835000", "092731.838000", "092731.840000", "092731.842000", "092731.845000"],
      "InstanceNumber": [1, 2, 3, 4, 5, 6, 7, 8, 9, 10, 11, 12, 13, 14, 15, 16, 17, 18, 19, 20, 21, 22, 23, 24, 25, 26, 27, 28, 29, 30, 31, 32, 33, 34, 35, 36, 37, 38, 39, 40, 41, 42, 43, 44, 45, 46, 47, 48, 49, 50, 51, 52, 53, 54, 55, 56, 57, 58, 59, 60, 61, 62, 63, 64, 65, 66, 67, 68, 69, 70, 71, 72, 73, 74, 75, 76, 77, 78, 79, 80, 81, 82, 83, 84, 85, 86, 87, 88, 89, 90, 91, 92, 93, 94, 95, 96, 97, 98, 99, 100, 101, 102, 103, 104, 105, 106, 107, 108, 109, 110, 111, 112, 113, 114, 115, 116, 117, 118, 119, 120, 121, 122, 123, 124, 125, 126, 127, 128, 129, 130, 131, 132, 133, 134, 135, 136, 137, 138, 139, 140, 141, 142, 143, 144, 145, 146, 147, 148, 149, 150, 151, 152, 153, 154, 155, 156, 157, 158, 159, 160, 161, 162, 163, 164, 165, 166, 167, 168, 169, 170, 171, 172, 173, 174, 175, 176, 177, 178, 179, 180, 181, 182, 183, 184, 185, 186, 187, 188, 189, 190, 191, 192, 193, 194, 195, 196, 197, 198, 199, 200],
      "WindowCenter": [1513.0, 1513.0, 1513.0, 1512.0, 1512.0, 1511.0, 1510.0, 1511.0, 1511.0, 1511.0, 1510.0, 1510.0, 1510.0, 1510.0, 1509.0, 1510.0, 1509.0, 1509.0, 1510.0, 1509.0, 1508.0, 1508.0, 1508.0, 1509.0, 1508.0, 1507.0, 1507.0, 1508.0, 1507.0, 1507.0, 1507.0, 1507.0, 1506.0, 1507.0, 1506.0, 1506.0, 1506.0, 1505.0, 1505.0, 1505.0, 1506.0, 1505.0, 1504.0, 1505.0, 1504.0, 1505.0, 1504.0, 1505.0, 1503.0, 1504.0, 1504.0, 1504.0, 1503.0, 1503.0, 1503.0, 1503.0, 1502.0, 1502.0, 1502.0, 1502.0, 1502.0, 1501.0, 1502.0, 1502.0, 1502.0, 1501.0, 1501.0, 1502.0, 1501.0, 1501.0, 1501.0, 1501.0, 1501.0, 1501.0, 1501.0, 1500.0, 1500.0, 1500.0, 1500.0, 1500.0, 1499.0, 1500.0, 1499.0, 1499.0, 1500.0, 1500.0, 1499.0, 1498.0, 1499.0, 1499.0, 1499.0, 1499.0, 1498.0, 1498.0, 1499.0, 1499.0, 1498.0, 1499.0, 1497.0, 1498.0, 1498.0, 1498.0, 1498.0, 1497.0, 1498.0, 1498.0, 1497.0, 1498.0, 1497.0, 1497.0, 1497.0, 1497.0, 1497.0, 1497.0, 1497.0, 1495.0, 1496.0, 1496.0, 1496.0, 1496.0, 1495.0, 1496.0, 1496.0, 1496.0, 1496.0, 1496.0, 1495.0, 1495.0, 1496.0, 1496.0, 1495.0, 1496.0, 1495.0, 1495.0, 1495.0, 1496.0, 1495.0, 1495.0, 1495.0, 1494.0, 1495.0, 1495.0, 1494.0, 1494.0, 1494.0, 1494.0, 1495.0, 1494.0, 1494.0, 1494.0, 1494.0, 1495.0, 1493.0, 1493.0, 1494.0, 1494.0, 1494.0, 1494.0, 1495.0, 1493.0, 1494.0, 1494.0, 1493.0, 1494.0, 1494.0, 1494.0, 1493.0, 1494.0, 1493.0, 1492.0, 1493.0, 1492.0, 1492.0, 1493.0, 1493.0, 1493.0, 1492.0, 1492.0, 1493.0, 1493.0, 1492.0, 1492.0, 1491.0, 1492.0, 1492.0, 1492.0, 1492.0, 1492.0, 1493.0, 1493.0, 1492.0, 1491.0, 1493.0, 1492.0, 1491.0, 1492.0, 1492.0, 1492.0, 1492.0, 1492.0],
      "WindowWidth": [3416.0, 3415.0, 3415.0, 3415.0, 3415.0, 3414.0, 3414.0, 3414.0, 3414.0, 3413.0, 3413.0, 3413.0, 3413.0, 3413.0, 3413.0, 3412.0, 3412.0, 3412.0, 3412.0, 3411.0, 3412.0, 3412.0, 3411.0, 3411.0, 3411.0, 3411.0, 3411.0, 3410.0, 3410.0, 3410.0, 3410.0, 3410.0, 3410.0, 3410.0, 3410.0, 3409.0, 3409.0, 3409.0, 3409.0, 3409.0, 3409.0, 3409.0, 3409.0, 3408.0, 3409.0, 3408.0, 3408.0, 3408.0, 3408.0, 3408.0, 3408.0, 3407.0, 3407.0, 3407.0, 3407.0, 3407.0, 3407.0, 3407.0, 3407.0, 3407.0, 3407.0, 3407.0, 3406.0, 3406.0, 3406.0, 3406.0, 3406.0, 3406.0, 3406.0, 3406.0, 3406.0, 3406.0, 3406.0, 3406.0, 3406.0, 3406.0, 3405.0, 3405.0, 3405.0, 3405.0, 3405.0, 3405.0, 3405.0, 3405.0, 3405.0, 3404.0, 3405.0, 3405.0, 3405.0, 3405.0, 3405.0, 3405.0, 3404.0, 3404.0, 3404.0, 3404.0, 3404.0, 3404.0, 3404.0, 3404.0, 3404.0, 3404.0, 3404.0, 3404.0, 3404.0, 3403.0, 3403.0, 3403.0, 3404.0, 3403.0, 3403.0, 3403.0, 3403.0, 3403.0, 3403.0, 3403.0, 3403.0, 3403.0, 3403.0, 3403.0, 3403.0, 3403.0, 3403.0, 3403.0, 3402.0, 3402.0, 3403.0, 3403.0, 3402.0, 3402.0, 3402.0, 3402.0, 3402.0, 3402.0, 3402.0, 3402.0, 3402.0, 3402.0, 3401.0, 3402.0, 3402.0, 3402.0, 3402.0, 3402.0, 3402.0, 3402.0, 3401.0, 3402.0, 3402.0, 3402.0, 3401.0, 3401.0, 3402.0, 3402.0, 3401.0, 3401.0, 3401.0, 3401.0, 3401.0, 3401.0, 3401.0, 3401.0, 3401.0, 3401.0, 3401.0, 3401.0, 3401.0, 3401.0, 3401.0, 3401.0, 3401.0, 3401.0, 3401.0, 3401.0, 3400.0, 3400.0, 3400.0, 3401.0, 3400.0, 3400.0, 3400.0, 3400.0, 3401.0, 3400.0, 3400.0, 3400.0, 3400.0, 3400.0, 3400.0, 3400.0, 3400.0, 3400.0, 3400.0, 3400.0, 3400.0, 3400.0, 3400.0, 3400.0, 3400.0, 3400.0]
    },
    "slices": {}
  }
}