{
  "AcquisitionMatrixPE": 80,
  "AcquisitionNumber": 1,
  "AcquisitionTime": "09:34:29.502500",
  "BandwidthPerPixelPhaseEncode": 25,
  "BaseResolution": 80,
  "BodyPartExamined": "BRAIN",
  "CoilCombinationMethod": "Sum of Squares",
  "ConsistencyInfo": "N4_VE11E_LATEST_20181129",
  "ConversionSoftware": "dcm2niix",
  "ConversionSoftwareVersion": "v1.0.20220720",
  "DerivedVendorReportedEchoSpacing": 0.0005,
  "DeviceSerialNumber": "66112",
  "DwellTime": 2.7e-06,
  "EchoTime": 0.03,
  "EchoTrainLength": 80,
  "EffectiveEchoSpacing": 0.0005,
  "FlipAngle": 10,
  "HeudiconvVersion": "0.13.1",
  "ImageOrientationPatientDICOM": [0.988926, 0.148317, 0.00533283, -0.142859, 0.941564, 0.305038],
  "ImageOrientationText": "Tra>Cor(17.6)>Sag(-2.3)",
  "ImageType": [
    "ORIGINAL",
    "PRIMARY",
    "M",
    "ND",
    "NORM",
    "MOSAIC"
],
  "ImagingFrequency": 123.261,
  "InPlanePhaseEncodingDirectionDICOM": "COL",
  "InstitutionAddress": "Maynard 3,Hanover,NH,US,03755",
  "InstitutionName": "Dartmouth College - PBS",
  "InstitutionalDepartmentName": "Department",
  "MRAcquisitionType": "2D",
  "MagneticFieldStrength": 3,
  "Manufacturer": "Siemens",
  "ManufacturersModelName": "Prisma",
  "MatrixCoilMode": "SENSE",
  "Modality": "MR",
  "NonlinearGradientCorrection": false,
  "PartialFourier": 1,
  "PatientPosition": "HFS",
  "PercentPhaseFOV": 100,
  "PercentSampling": 100,
  "PhaseEncodingDirection": "j-",
  "PhaseEncodingSteps": 80,
  "PhaseResolution": 1,
  "PixelBandwidth": 2315,
  "ProcedureStepDescription": "dbic^QA",
  "ProtocolName": "func-bold_fa-10",
  "PulseSequenceDetails": "%SiemensSeq%\\ep2d_bold",
  "ReceiveCoilActiveElements": "HC1-7;NC1,2",
  "ReceiveCoilName": "HeadNeck_64",
  "ReconMatrixPE": 80,
  "RepetitionTime": 2,
  "SAR": 0.00859425,
  "ScanOptions": "FS",
  "ScanningSequence": "EP",
  "SequenceName": "*epfid2d1_80",
  "SequenceVariant": "SK",
  "SeriesDescription": "func-bold_fa-10",
  "SeriesNumber": 7,
  "ShimSetting": [4241, -7747, -7485, -107, -193, -265, -84, 159],
  "SliceThickness": 3.5,
  "SliceTiming": [0.99, 0, 1.055, 0.065, 1.1225, 0.1325, 1.1875, 0.1975, 1.255, 0.265, 1.32, 0.33, 1.385, 0.395, 1.4525, 0.4625, 1.5175, 0.5275, 1.585, 0.595, 1.65, 0.66, 1.715, 0.725, 1.7825, 0.7925, 1.8475, 0.8575, 1.915, 0.925],
  "SoftwareVersions": "syngo MR E11",
  "SpacingBetweenSlices": 3.99,
  "StationName": "AWP66112",
  "TotalReadoutTime": 0.0395,
  "TxRefAmp": 212.792,
  "dcmmeta_affine": [
    [-2.9667766094207764, -0.42857611179351807, -0.16048245131969452, 137.38406372070312],
    [-0.44495081901550293, 2.8246922492980957, 1.2066643238067627, -106.71861267089844],
    [0.015998492017388344, -0.9151153564453125, 3.7997772693634033, -21.42769432067871],
    [0.0, 0.0, 0.0, 1.0]
],
  "dcmmeta_reorient_transform": [
    [0.0, -1.0, 0.0, 79.0],
    [1.0, 0.0, 0.0, 0.0],
    [0.0, 0.0, 1.0, 0.0],
    [0.0, 0.0, 0.0, 1.0]
],
  "dcmmeta_shape": [80, 80, 30, 200],
  "dcmmeta_slice_dim": 2,
  "dcmmeta_version": 0.6,
  "global": {
    "const": {
      "AccessionNumber": "qa64",
      "AcquisitionMatrix": [80, 0, 0, 80],
      "AngioFlag": "N",
      "BitsAllocated": 16,
      "BitsStored": 12,
      "BodyPartExamined": "BRAIN",
      "Columns": 480,
      "EchoNumbers": 1,
      "EchoTime": 30.0,
      "EchoTrainLength": 80,
      "FlipAngle": 10.0,
      "HighBit": 11,
      "ImageOrientationPatient": [0.98892550142401, 0.14831693614867, 0.0053328308379, -0.1428587078078, 0.94156408847809, 0.30503845149739],
      "ImagePositionPatient": [-611.16662405655, -770.36069431391, -279.94457624161],
      "ImageType": [
        "ORIGINAL",
        "PRIMARY",
        "M",
        "ND",
        "NORM",
        "MOSAIC"
],
      "ImagedNucleus": "1H",
      "ImagingFrequency": 123.261268,
      "InPlanePhaseEncodingDirection": "COL",
      "MRAcquisitionType": "2D",
      "MagneticFieldStrength": 3.0,
      "Manufacturer": "SIEMENS",
      "ManufacturerModelName": "Prisma",
      "Modality": "MR",
      "NumberOfAverages": 1.0,
      "NumberOfPhaseEncodingSteps": 80,
      "PercentPhaseFieldOfView": 100.0,
      "PercentSampling": 100.0,
      "PerformedProcedureStepStartTime": "091916.502000",
      "PhotometricInterpretation": "MONOCHROME2",
      "PixelBandwidth": 2315.0,
      "PixelRepresentation": 0,
      "PixelSpacing": [3.0, 3.0],
      "ProtocolName": "func-bold_fa-10",
      "RepetitionTime": 2000.0,
      "Rows": 480,
      "SAR": 0.008594249829,
      "SamplesPerPixel": 1,
      "ScanOptions": "FS",
      "ScanningSequence": "EP",
      "SequenceName": "*epfid2d1_80",
      "SequenceVariant": "SK",
      "SeriesDescription": "func-bold_fa-10",
      "SeriesNumber": 7,
      "SeriesTime": "093528.613000",
      "SliceLocation": -58.205948752672,
      "SliceThickness": 3.5,
      "SmallestImagePixelValue": 0,
      "SoftwareVersions": "syngo MR E11",
      "SpacingBetweenSlices": 3.9900000362107,
      "SpecificCharacterSet": "ISO_IR 100",
      "StudyID": "23",
      "StudyTime": "091916.304000",
      "TransmitCoilName": "Body",
      "VariableFlipAngleFlag": "N",
      "WindowCenterWidthExplanation": "Algo1"
    },
    "slices": {}
  },
  "time": {
    "samples": {
      "AcquisitionNumber": [1, 2, 3, 4, 5, 6, 7, 8, 9, 10, 11, 12, 13, 14, 15, 16, 17, 18, 19, 20, 21, 22, 23, 24, 25, 26, 27, 28, 29, 30, 31, 32, 33, 34, 35, 36, 37, 38, 39, 40, 41, 42, 43, 44, 45, 46, 47, 48, 49, 50, 51, 52, 53, 54, 55, 56, 57, 58, 59, 60, 61, 62, 63, 64, 65, 66, 67, 68, 69, 70, 71, 72, 73, 74, 75, 76, 77, 78, 79, 80, 81, 82, 83, 84, 85, 86, 87, 88, 89, 90, 91, 92, 93, 94, 95, 96, 97, 98, 99, 100, 101, 102, 103, 104, 105, 106, 107, 108, 109, 110, 111, 112, 113, 114, 115, 116, 117, 118, 119, 120, 121, 122, 123, 124, 125, 126, 127, 128, 129, 130, 131, 132, 133, 134, 135, 136, 137, 138, 139, 140, 141, 142, 143, 144, 145, 146, 147, 148, 149, 150, 151, 152, 153, 154, 155, 156, 157, 158, 159, 160, 161, 162, 163, 164, 165, 166, 167, 168, 169, 170, 171, 172, 173, 174, 175, 176, 177, 178, 179, 180, 181, 182, 183, 184, 185, 186, 187, 188, 189, 190, 191, 192, 193, 194, 195, 196, 197, 198, 199, 200],
      "AcquisitionTime": ["093429.502500", "093431.502500", "093433.502500", "093435.502500", "093437.502500", "093439.502500", "093441.502500", "093443.502500", "093445.502500", "093447.502500", "093449.502500", "093451.502500", "093453.502500", "093455.502500", "093457.502500", "093459.502500", "093501.502500", "093503.502500", "093505.502500", "093507.502500", "093509.502500", "093511.502500", "093513.502500", "093515.502500", "093517.502500", "093519.502500", "093521.502500", "093523.502500", "093525.502500", "093527.502500", "093529.502500", "093531.502500", "093533.502500", "093535.502500", "093537.502500", "093539.502500", "093541.502500", "093543.502500", "093545.502500", "093547.502500", "093549.502500", "093551.502500", "093553.502500", "093555.502500", "093557.502500", "093559.502500", "093601.502500", "093603.502500", "093605.502500", "093607.502500", "093609.502500", "093611.502500", "093613.502500", "093615.502500", "093617.502500", "093619.502500", "093621.502500", "093623.502500", "093625.502500", "093627.502500", "093629.502500", "093631.502500", "093633.502500", "093635.502500", "093637.502500", "093639.502500", "093641.502500", "093643.502500", "093645.502500", "093647.502500", "093649.502500", "093651.502500", "093653.502500", "093655.502500", "093657.502500", "093659.502500", "093701.502500", "093703.502500", "093705.502500", "093707.502500", "093709.502500", "093711.502500", "093713.502500", "093715.502500", "093717.502500", "093719.502500", "093721.502500", "093723.502500", "093725.502500", "093727.502500", "093729.502500", "093731.502500", "093733.502500", "093735.502500", "093737.502500", "093739.502500", "093741.502500", "093743.502500", "093745.502500", "093747.502500", "093749.502500", "093751.502500", "093753.502500", "093755.502500", "093757.502500", "093759.502500", "093801.502500", "093803.502500", "093805.502500", "093807.502500", "093809.502500", "093811.502500", "093813.502500", "093815.502500", "093817.502500", "093819.502500", "093821.502500", "093823.502500", "093825.502500", "093827.502500", "093829.502500", "093831.502500", "093833.502500", "093835.502500", "093837.502500", "093839.502500", "093841.502500", "093843.502500", "093845.502500", "093847.502500", "093849.502500", "093851.502500", "093853.502500", "093855.502500", "093857.502500", "093859.502500", "093901.502500", "093903.502500", "093905.502500", "093907.502500", "093909.502500", "093911.502500", "093913.502500", "093915.502500", "093917.502500", "093919.502500", "093921.502500", "093923.502500", "093925.502500", "093927.502500", "093929.502500", "093931.502500", "093933.502500", "093935.502500", "093937.502500", "093939.502500", "093941.502500", "093943.502500", "093945.502500", "093947.502500", "093949.502500", "093951.502500", "093953.502500", "093955.502500", "093957.502500", "093959.502500", "094001.502500", "094003.502500", "094005.502500", "094007.502500", "094009.502500", "094011.502500", "094013.502500", "094015.502500", "094017.502500", "094019.502500", "094021.502500", "094023.502500", "094025.502500", "094027.502500", "094029.502500", "094031.502500", "094033.502500", "094035.502500", "094037.502500", "094039.502500", "094041.502500", "094043.502500", "094045.502500", "094047.502500", "094049.502500", "094051.502500", "094053.502500", "094055.502500", "094057.502500", "094059.502500", "094101.502500", "094103.502500", "094105.502500", "094107.502500"],
      "ContentTime": ["093528.616000", "093528.619000", "093528.622000", "093528.629000", "093528.631000", "093528.633000", "093528.636000", "093528.638000", "093528.640000", "093528.643000", "093528.645000", "093528.647000", "093528.650000", "093528.652000", "093528.654000", "093528.657000", "093528.659000", "093528.661000", "093528.664000", "093528.666000", "093528.668000", "093528.670000", "093528.673000", "093528.675000", "093528.677000", "093528.680000", "093528.682000", "093528.684000", "093528.687000", "093608.610000", "093608.613000", "093608.615000", "093608.617000", "093608.620000", "093608.622000", "093608.624000", "093608.627000", "093608.629000", "093608.631000", "093608.642000", "093608.644000", "093608.646000", "093608.649000", "093608.651000", "093608.653000", "093608.656000", "093608.658000", "093608.660000", "093608.662000", "093648.610000", "093648.613000", "093648.615000", "093648.617000", "093648.620000", "093648.622000", "093648.624000", "093648.626000", "093648.629000", "093648.631000", "093648.633000", "093648.636000", "093648.638000", "093648.640000", "093648.643000", "093648.645000", "093648.647000", "093648.650000", "093648.652000", "093648.654000", "093728.611000", "093728.614000", "093728.616000", "093728.618000", "093728.621000", "093728.623000", "093728.625000", "093728.628000", "093728.630000", "093728.632000", "093728.635000", "093728.637000", "093728.639000", "093728.641000", "093728.644000", "093728.646000", "093728.648000", "093728.651000", "093728.653000", "093728.655000", "093808.611000", "093808.613000", "093808.616000", "093808.618000", "093808.621000", "093808.623000", "093808.625000", "093808.627000", "093808.630000", "093808.632000", "093808.634000", "093808.637000", "093808.639000", "093808.641000", "093808.644000", "093808.646000", "093808.648000", "093808.651000", "093808.653000", "093808.655000", "093848.610000", "093848.613000", "093848.615000", "093848.617000", "093848.620000", "093848.622000", "093848.624000", "093848.627000", "093848.629000", "093848.631000", "093848.633000", "093848.636000", "093848.638000", "093848.640000", "093848.643000", "093848.645000", "093848.647000", "093848.649000", "093848.652000", "093848.654000", "093928.611000", "093928.614000", "093928.616000", "093928.619000", "093928.621000", "093928.624000", "093928.626000", "093928.628000", "093928.630000", "093928.633000", "093928.635000", "093928.637000", "093928.640000", "093928.642000", "093928.644000", "093928.647000", "093928.649000", "093928.651000", "093928.653000", "093928.656000", "094008.611000", "094008.614000", "094008.616000", "094008.618000", "094008.621000", "094008.623000", "094008.640000", "094008.642000", "094008.645000", "094008.647000", "094008.649000", "094008.652000", "094008.654000", "094008.656000", "094008.659000", "094008.661000", "094008.663000", "094008.665000", "094008.668000", "094008.670000", "094048.610000", "094048.613000", "094048.615000", "094048.617000", "094048.620000", "094048.622000", "094048.625000", "094048.627000", "094048.630000", "094048.632000", "094048.634000", "094048.636000", "094048.639000", "094048.641000", "094048.644000", "094048.646000", "094048.648000", "094048.651000", "094048.653000", "094048.655000", "094109.353000", "094109.356000", "094109.358000", "094109.361000", "094109.363000", "094109.365000", "094109.368000", "094109.370000", "094109.372000", "094109.375000", "094109.377000"],
      "InstanceCreationTime": ["093528.616000", "093528.619000", "093528.622000", "093528.629000", "093528.631000", "093528.633000", "093528.636000", "093528.638000", "093528.640000", "093528.643000", "093528.645000", "093528.647000", "093528.650000", "093528.652000", "093528.654000", "093528.657000", "093528.659000", "093528.661000", "093528.664000", "093528.666000", "093528.668000", "093528.670000", "093528.673000", "093528.675000", "093528.677000", "093528.680000", "093528.682000", "093528.684000", "093528.687000", "093608.610000", "093608.613000", "093608.615000", "093608.617000", "093608.620000", "093608.622000", "093608.624000", "093608.627000", "093608.629000", "093608.631000", "093608.642000", "093608.644000", "093608.646000", "093608.649000", "093608.651000", "093608.653000", "093608.656000", "093608.658000", "093608.660000", "093608.662000", "093648.610000", "093648.613000", "093648.615000", "093648.617000", "093648.620000", "093648.622000", "093648.624000", "093648.626000", "093648.629000", "093648.631000", "093648.633000", "093648.636000", "093648.638000", "093648.640000", "093648.643000", "093648.645000", "093648.647000", "093648.650000", "093648.652000", "093648.654000", "093728.611000", "093728.614000", "093728.616000", "093728.618000", "093728.621000", "093728.623000", "093728.625000", "093728.628000", "093728.630000", "093728.632000", "093728.635000", "093728.637000", "093728.639000", "093728.641000", "093728.644000", "093728.646000", "093728.648000", "093728.651000", "093728.653000", "093728.655000", "093808.611000", "093808.613000", "093808.616000", "093808.618000", "093808.621000", "093808.623000", "093808.625000", "093808.627000", "093808.630000", "093808.632000", "093808.634000", "093808.637000", "093808.639000", "093808.641000", "093808.644000", "093808.646000", "093808.648000", "093808.651000", "093808.653000", "093808.655000", "093848.610000", "093848.613000", "093848.615000", "093848.617000", "093848.620000", "093848.622000", "093848.624000", "093848.627000", "093848.629000", "093848.631000", "093848.633000", "093848.636000", "093848.638000", "093848.640000", "093848.643000", "093848.645000", "093848.647000", "093848.649000", "093848.652000", "093848.654000", "093928.611000", "093928.614000", "093928.616000", "093928.619000", "093928.621000", "093928.624000", "093928.626000", "093928.628000", "093928.630000", "093928.633000", "093928.635000", "093928.637000", "093928.640000", "093928.642000", "093928.644000", "093928.647000", "093928.649000", "093928.651000", "093928.653000", "093928.656000", "094008.611000", "094008.614000", "094008.616000", "094008.618000", "094008.621000", "094008.623000", "094008.640000", "094008.642000", "094008.645000", "094008.647000", "094008.649000", "094008.652000", "094008.654000", "094008.656000", "094008.659000", "094008.661000", "094008.663000", "094008.665000", "094008.668000", "094008.670000", "094048.610000", "094048.613000", "094048.615000", "094048.617000", "094048.620000", "094048.622000", "094048.625000", "094048.627000", "094048.630000", "094048.632000", "094048.634000", "094048.636000", "094048.639000", "094048.641000", "094048.644000", "094048.646000", "094048.648000", "094048.651000", "094048.653000", "094048.655000", "094109.353000", "094109.356000", "094109.358000", "094109.361000", "094109.363000", "094109.365000", "094109.368000", "094109.370000", "094109.372000", "094109.375000", "094109.377000"],
      "InstanceNumber": [1, 2, 3, 4, 5, 6, 7, 8, 9, 10, 11, 12, 13, 14, 15, 16, 17, 18, 19, 20, 21, 22, 23, 24, 25, 26, 27, 28, 29, 30, 31, 32, 33, 34, 35, 36, 37, 38, 39, 40, 41, 42, 43, 44, 45, 46, 47, 48, 49, 50, 51, 52, 53, 54, 55, 56, 57, 58, 59, 60, 61, 62, 63, 64, 65, 66, 67, 68, 69, 70, 71, 72, 73, 74, 75, 76, 77, 78, 79, 80, 81, 82, 83, 84, 85, 86, 87, 88, 89, 90, 91, 92, 93, 94, 95, 96, 97, 98, 99, 100, 101, 102, 103, 104, 105, 106, 107, 108, 109, 110, 111, 112, 113, 114, 115, 116, 117, 118, 119, 120, 121, 122, 123, 124, 125, 126, 127, 128, 129, 130, 131, 132, 133, 134, 135, 136, 137, 138, 139, 140, 141, 142, 143, 144, 145, 146, 147, 148, 149, 150, 151, 152, 153, 154, 155, 156, 157, 158, 159, 160, 161, 162, 163, 164, 165, 166, 167, 168, 169, 170, 171, 172, 173, 174, 175, 176, 177, 178, 179, 180, 181, 182, 183, 184, 185, 186, 187, 188, 189, 190, 191, 192, 193, 194, 195, 196, 197, 198, 199, 200],
      "LargestImagePixelValue": [686, 683, 681, 680, 679, 685, 684, 678, 685, 682, 683, 682, 682, 682, 681, 683, 683, 681, 684, 683, 684, 686, 682, 687, 685, 685, 685, 686, 684, 686, 682, 683, 685, 684, 685, 684, 683, 683, 683, 682, 683, 683, 688, 684, 688, 683, 685, 686, 683, 682, 682, 679, 685, 687, 681, 680, 683, 680, 682, 680, 682, 680, 677, 682, 683, 682, 679, 683, 681, 682, 684, 686, 678, 681, 684, 684, 681, 683, 680, 680, 684, 682, 681, 680, 680, 682, 686, 684, 683, 684, 682, 679, 683, 681, 679, 683, 681, 684, 684, 680, 683, 687, 688, 685, 678, 680, 684, 687, 681, 681, 682, 682, 684, 679, 682, 683, 680, 679, 683, 681, 686, 684, 679, 685, 684, 681, 680, 680, 686, 685, 683, 683, 680, 682, 688, 685, 682, 683, 683, 684, 684, 681, 684, 682, 682, 681, 685, 682, 681, 686, 688, 685, 681, 683, 683, 685, 687, 682, 682, 681, 685, 686, 682, 682, 680, 680, 684, 683, 682, 681, 681, 684, 685, 681, 683, 679, 683, 681, 684, 680, 680, 685, 683, 683, 681, 685, 687, 685, 683, 685, 684, 681, 683, 685, 683, 683, 682, 682, 687, 685],
      "WindowCenter": [462.0, 462.0, 463.0, 463.0, 463.0, 463.0, 462.0, 463.0, 463.0, 463.0, 463.0, 462.0, 462.0, 463.0, 463.0, 463.0, 463.0, 462.0, 463.0, 463.0, 463.0, 462.0, 463.0, 462.0, 463.0, 463.0, 462.0, 462.0, 462.0, 463.0, 463.0, 462.0, 462.0, 462.0, 463.0, 463.0, 463.0, 463.0, 462.0, 462.0, 462.0, 463.0, 462.0, 462.0, 462.0, 462.0, 462.0, 462.0, 462.0, 462.0, 462.0, 463.0, 462.0, 462.0, 462.0, 462.0, 462.0, 462.0, 462.0, 462.0, 461.0, 462.0, 462.0, 462.0, 462.0, 461.0, 462.0, 462.0, 462.0, 462.0, 461.0, 461.0, 462.0, 462.0, 462.0, 461.0, 461.0, 462.0, 462.0, 462.0, 461.0, 461.0, 461.0, 462.0, 462.0, 461.0, 461.0, 462.0, 462.0, 462.0, 462.0, 462.0, 461.0, 462.0, 462.0, 462.0, 461.0, 461.0, 461.0, 462.0, 462.0, 461.0, 461.0, 461.0, 461.0, 461.0, 462.0, 461.0, 461.0, 462.0, 461.0, 462.0, 461.0, 461.0, 461.0, 461.0, 461.0, 461.0, 461.0, 461.0, 461.0, 461.0, 461.0, 461.0, 461.0, 461.0, 461.0, 462.0, 461.0, 461.0, 461.0, 461.0, 461.0, 461.0, 461.0, 461.0, 461.0, 461.0, 461.0, 461.0, 461.0, 461.0, 461.0, 461.0, 461.0, 461.0, 461.0, 461.0, 461.0, 461.0, 461.0, 461.0, 461.0, 461.0, 461.0, 461.0, 461.0, 461.0, 461.0, 461.0, 461.0, 461.0, 461.0, 461.0, 461.0, 461.0, 461.0, 461.0, 461.0, 461.0, 461.0, 461.0, 461.0, 461.0, 461.0, 461.0, 461.0, 461.0, 461.0, 461.0, 461.0, 461.0, 461.0, 461.0, 461.0, 461.0, 461.0, 461.0, 461.0, 461.0, 461.0, 461.0, 461.0, 461.0, 461.0, 461.0, 461.0, 461.0, 461.0, 461.0],
      "WindowWidth": [960.0, 960.0, 961.0, 961.0, 961.0, 961.0, 960.0, 961.0, 961.0, 961.0, 961.0, 960.0, 960.0, 961.0, 961.0, 961.0, 961.0, 960.0, 961.0, 961.0, 961.0, 960.0, 961.0, 960.0, 961.0, 961.0, 960.0, 960.0, 960.0, 961.0, 961.0, 960.0, 960.0, 960.0, 961.0, 961.0, 961.0, 961.0, 960.0, 960.0, 960.0, 961.0, 960.0, 960.0, 960.0, 960.0, 960.0, 960.0, 960.0, 960.0, 960.0, 961.0, 960.0, 960.0, 959.0, 959.0, 960.0, 960.0, 960.0, 959.0, 959.0, 959.0, 960.0, 960.0, 959.0, 959.0, 959.0, 960.0, 960.0, 959.0, 959.0, 959.0, 959.0, 959.0, 959.0, 959.0, 959.0, 959.0, 960.0, 959.0, 959.0, 958.0, 959.0, 959.0, 959.0, 959.0, 958.0, 959.0, 959.0, 959.0, 959.0, 959.0, 958.0, 959.0, 959.0, 959.0, 959.0, 958.0, 958.0, 959.0, 959.0, 959.0, 958.0, 958.0, 958.0, 959.0, 959.0, 958.0, 958.0, 959.0, 959.0, 959.0, 958.0, 958.0, 958.0, 958.0, 959.0, 958.0, 958.0, 958.0, 958.0, 958.0, 958.0, 958.0, 958.0, 958.0, 958.0, 959.0, 958.0, 958.0, 958.0, 958.0, 958.0, 958.0, 958.0, 958.0, 958.0, 958.0, 958.0, 958.0, 958.0, 957.0, 958.0, 958.0, 958.0, 958.0, 958.0, 958.0, 958.0, 958.0, 958.0, 958.0, 958.0, 958.0, 958.0, 958.0, 958.0, 958.0, 958.0, 958.0, 958.0, 958.0, 958.0, 958.0, 958.0, 958.0, 958.0, 958.0, 957.0, 958.0, 958.0, 958.0, 957.0, 957.0, 958.0, 958.0, 958.0, 957.0, 957.0, 958.0, 958.0, 958.0, 958.0, 957.0, 957.0, 957.0, 958.0, 958.0, 957.0, 957.0, 958.0, 958.0, 958.0, 957.0, 957.0, 957.0, 958.0, 958.0, 957.0, 957.0]
    },
    "slices": {}
  }
}