{
  "AcquisitionMatrixPE": 122,
  "AcquisitionNumber": 1,
  "AcquisitionTime": "10:06:18.072500",
  "BandwidthPerPixelPhaseEncode": 28.76,
  "BaseResolution": 122,
  "BodyPartExamined": "BRAIN",
  "CoilCombinationMethod": "Adaptive Combine",
  "ConsistencyInfo": "N4_VE11C_LATEST_20160120",
  "ConversionSoftware": "dcm2niix",
  "ConversionSoftwareVersion": "v1.0.20220720",
  "DerivedVendorReportedEchoSpacing": 0.000570008,
  "DeviceSerialNumber": "66112",
  "DiffusionScheme": "Monopolar",
  "DwellTime": 2e-06,
  "EchoTime": 0.075,
  "EchoTrainLength": 61,
  "EffectiveEchoSpacing": 0.000285004,
  "FlipAngle": 90,
  "HeudiconvVersion": "0.13.1",
  "ImageOrientationPatientDICOM": [0.982499, 0.185771, 0.0135817, -0.1805, 0.931541, 0.315676],
  "ImageOrientationText": "Tra>Cor(18.2)>Sag(-2.6)",
  "ImageType": [
    "ORIGINAL",
    "PRIMARY",
    "DIFFUSION",
    "NONE",
    "ND",
    "NORM"
],
  "ImagingFrequency": 123.252,
  "InPlanePhaseEncodingDirectionDICOM": "COL",
  "InstitutionAddress": "Maynard 3,Hanover,NH,US,03755",
  "InstitutionName": "Dartmouth College - PBS",
  "InstitutionalDepartmentName": "Department",
  "MRAcquisitionType": "2D",
  "MagneticFieldStrength": 3,
  "Manufacturer": "Siemens",
  "ManufacturersModelName": "Prisma",
  "MatrixCoilMode": "GRAPPA",
  "Modality": "MR",
  "NonlinearGradientCorrection": false,
  "ParallelReductionFactorInPlane": 2,
  "PartialFourier": 1,
  "PatientPosition": "HFS",
  "PercentPhaseFOV": 100,
  "PercentSampling": 100,
  "PhaseEncodingDirection": "j-",
  "PhaseEncodingSteps": 122,
  "PhaseResolution": 1,
  "PixelBandwidth": 2050,
  "ProcedureStepDescription": "dbic^QA",
  "ProtocolName": "dwi_acq-DTI-30-p2",
  "PulseSequenceDetails": "%SiemensSeq%\\ep2d_diff",
  "ReceiveCoilActiveElements": "HEA;HEP",
  "ReceiveCoilName": "Head_32",
  "ReconMatrixPE": 122,
  "RefLinesPE": 38,
  "RepetitionTime": 7.7,
  "SAR": 0.102001,
  "ScanOptions": "FS",
  "ScanningSequence": "EP",
  "SequenceName": "*ep_b0",
  "SequenceVariant": "SK\\SP",
  "SeriesDescription": "dwi_acq-DTI-30-p2",
  "SeriesNumber": 12,
  "ShimSetting": [4143, -7699, -7521, 251, -105, -11, -4, 48],
  "SliceThickness": 2,
  "SliceTiming": [3.83594, 0, 3.94531, 0.10938, 4.05469, 0.21875, 4.17188, 0.32812, 4.28125, 0.4375, 4.39062, 0.54688, 4.49219, 0.65625, 4.60938, 0.76562, 4.71875, 0.875, 4.82812, 0.98438, 4.9375, 1.09375, 5.04688, 1.20312, 5.15625, 1.3125, 5.26562, 1.42188, 5.375, 1.53906, 5.48438, 1.64062, 5.59375, 1.75, 5.70312, 1.85938, 5.8125, 1.97656, 5.92188, 2.08594, 6.03125, 2.19531, 6.14062, 2.30469, 6.25, 2.41406, 6.35938, 2.52344, 6.46875, 2.63281, 6.57812, 2.74219, 6.6875, 2.85156, 6.79688, 2.96094, 6.91406, 3.07031, 7.02344, 3.17969, 7.13281, 3.28906, 7.24219, 3.39844, 7.35156, 3.50781, 7.46094, 3.61719, 7.57031, 3.72656],
  "SoftwareVersions": "syngo MR E11",
  "SpacingBetweenSlices": 2,
  "SpoilingState": true,
  "StationName": "AWP66112",
  "TotalReadoutTime": 0.0344855,
  "TxRefAmp": 224.411,
  "dcmmeta_affine": [
    [-1.9327852725982666, -0.3550812005996704, -0.09198331832885742, 143.8676300048828],
    [-0.36545124650001526, 1.832539439201355, 0.6252059936523438, -96.31318664550781],
    [0.026718001812696457, -0.6210026741027832, 1.8975372314453125, -23.72861671447754],
    [0.0, 0.0, 0.0, 1.0]
],
  "dcmmeta_reorient_transform": [
    [0.0, -1.0, 0.0, 121.0],
    [1.0, 0.0, 0.0, 0.0],
    [0.0, 0.0, -1.0, 69.0],
    [0.0, 0.0, 0.0, 1.0]
],
  "dcmmeta_shape": [122, 122, 70, 31],
  "dcmmeta_slice_dim": 2,
  "dcmmeta_version": 0.6,
  "global": {
    "const": {
      "AccessionNumber": "qa",
      "AcquisitionMatrix": [122, 0, 0, 122],
      "AngioFlag": "N",
      "BitsAllocated": 16,
      "BitsStored": 12,
      "BodyPartExamined": "BRAIN",
      "Columns": 122,
      "EchoNumbers": 1,
      "EchoTime": 75.0,
      "EchoTrainLength": 61,
      "FlipAngle": 90.0,
      "HighBit": 11,
      "ImageOrientationPatient": [0.98249918963187, 0.18577104494219, 0.01358165062864, -0.1804996106063, 0.93154084057901, 0.31567634200922],
      "ImageType": [
        "ORIGINAL",
        "PRIMARY",
        "DIFFUSION",
        "NONE",
        "ND",
        "NORM"
],
      "ImagedNucleus": "1H",
      "ImagingFrequency": 123.252374,
      "InPlanePhaseEncodingDirection": "COL",
      "MRAcquisitionType": "2D",
      "MagneticFieldStrength": 3.0,
      "Manufacturer": "SIEMENS",
      "ManufacturerModelName": "Prisma",
      "Modality": "MR",
      "NumberOfAverages": 1.0,
      "NumberOfPhaseEncodingSteps": 122,
      "PercentPhaseFieldOfView": 100.0,
      "PercentSampling": 100.0,
      "PerformedProcedureStepStartTime": "093652.333000",
      "PhotometricInterpretation": "MONOCHROME2",
      "PixelBandwidth": 2050.0,
      "PixelRepresentation": 0,
      "PixelSpacing": [1.9672131538391, 1.9672131538391],
      "ProtocolName": "dwi_acq-DTI-30-p2",
      "RepetitionTime": 7700.0,
      "Rows": 122,
      "SAR": 0.10200085289314,
      "SamplesPerPixel": 1,
      "ScanOptions": "FS",
      "ScanningSequence": "EP",
      "SequenceVariant": [
        "SK",
        "SP"
],
      "SeriesDescription": "dwi_acq-DTI-30-p2",
      "SeriesNumber": 12,
      "SeriesTime": "100624.779000",
      "SliceThickness": 2.0,
      "SmallestImagePixelValue": 0,
      "SoftwareVersions": "syngo MR E11",
      "SpacingBetweenSlices": 2.0,
      "SpecificCharacterSet": "ISO_IR 100",
      "StudyID": "28",
      "StudyTime": "093652.288000",
      "TransmitCoilName": "Body",
      "VariableFlipAngleFlag": "N",
      "WindowCenterWidthExplanation": "Algo1",
      "dBdt": 0.0},
    "slices": {
      "AcquisitionTime": ["100618.072500", "100614.232500", "100618.182500", "100614.342500", "100618.292500", "100614.452500", "100618.402500", "100614.562500", "100618.512500", "100614.672500", "100618.622500", "100614.782500", "100618.730000", "100614.892500", "100618.840000", "100615.000000", "100618.950000", "100615.110000", "100619.060000", "100615.220000", "100619.170000", "100615.330000", "100619.280000", "100615.440000", "100619.390000", "100615.550000", "100619.500000", "100615.660000", "100619.610000", "100615.770000", "100619.717500", "100615.877500", "100619.827500", "100615.987500", "100619.937500", "100616.097500", "100620.047500", "100616.207500", "100620.157500", "100616.317500", "100620.267500", "100616.427500", "100620.377500", "100616.537500", "100620.487500", "100616.647500", "100620.595000", "100616.757500", "100620.705000", "100616.865000", "100620.815000", "100616.975000", "100620.925000", "100617.085000", "100621.035000", "100617.195000", "100621.145000", "100617.305000", "100621.255000", "100617.415000", "100621.365000", "100617.525000", "100621.475000", "100617.635000", "100621.582500", "100617.745000", "100621.692500", "100617.852500", "100621.802500", "100617.962500", "100625.772500", "100621.932500", "100625.882500", "100622.042500", "100625.992500", "100622.152500", "100626.102500", "100622.262500", "100626.212500", "100622.372500", "100626.322500", "100622.482500", "100626.430000", "100622.592500", "100626.540000", "100622.700000", "100626.650000", "100622.810000", "100626.760000", "100622.920000", "100626.870000", "100623.030000", "100626.980000", "100623.140000", "100627.090000", "100623.250000", "100627.200000", "100623.360000", "100627.310000", "100623.470000", "100627.417500", "100623.577500", "100627.527500", "100623.687500", "100627.637500", "100623.797500", "100627.747500", "100623.907500", "100627.857500", "100624.017500", "100627.967500", "100624.127500", "100628.077500", "100624.237500", "100628.187500", "100624.347500", "100628.295000", "100624.457500", "100628.405000", "100624.565000", "100628.515000", "100624.675000", "100628.625000", "100624.785000", "100628.735000", "100624.895000", "100628.845000", "100625.005000", "100628.955000", "100625.115000", "100629.065000", "100625.225000", "100629.175000", "100625.335000", "100629.282500", "100625.445000", "100629.392500", "100625.552500", "100629.502500", "100625.662500", "100633.472500", "100629.632500", "100633.582500", "100629.742500", "100633.692500", "100629.852500", "100633.802500", "100629.962500", "100633.912500", "100630.072500", "100634.022500", "100630.182500", "100634.130000", "100630.292500", "100634.240000", "100630.400000", "100634.350000", "100630.510000", "100634.460000", "100630.620000", "100634.570000", "100630.730000", "100634.680000", "100630.840000", "100634.790000", "100630.950000", "100634.900000", "100631.060000", "100635.010000", "100631.170000", "100635.117500", "100631.277500", "100635.227500", "100631.387500", "100635.337500", "100631.497500", "100635.447500", "100631.607500", "100635.557500", "100631.717500", "100635.667500", "100631.827500", "100635.777500", "100631.937500", "100635.887500", "100632.047500", "100635.995000", "100632.157500", "100636.105000", "100632.265000", "100636.215000", "100632.375000", "100636.325000", "100632.485000", "100636.435000", "100632.595000", "100636.545000", "100632.705000", "100636.655000", "100632.815000", "100636.765000", "100632.925000", "100636.875000", "100633.035000", "100636.982500", "100633.145000", "100637.092500", "100633.252500", "100637.202500", "100633.362500", "100641.172500", "100637.332500", "100641.282500", "100637.442500", "100641.392500", "100637.552500", "100641.502500", "100637.662500", "100641.612500", "100637.772500", "100641.722500", "100637.882500", "100641.830000", "100637.992500", "100641.940000", "100638.100000", "100642.050000", "100638.210000", "100642.160000", "100638.320000", "100642.270000", "100638.430000", "100642.380000", "100638.540000", "100642.490000", "100638.650000", "100642.600000", "100638.760000", "100642.710000", "100638.870000", "100642.817500", "100638.977500", "100642.927500", "100639.087500", "100643.037500", "100639.197500", "100643.147500", "100639.307500", "100643.257500", "100639.417500", "100643.367500", "100639.527500", "100643.477500", "100639.637500", "100643.587500", "100639.747500", "100643.695000", "100639.857500", "100643.805000", "100639.965000", "100643.915000", "100640.075000", "100644.025000", "100640.185000", "100644.135000", "100640.295000", "100644.245000", "100640.405000", "100644.355000", "100640.515000", "100644.465000", "100640.625000", "100644.575000", "100640.735000", "100644.682500", "100640.845000", "100644.792500", "100640.952500", "100644.902500", "100641.062500", "100648.872500", "100645.032500", "100648.982500", "100645.142500", "100649.092500", "100645.252500", "100649.202500", "100645.362500", "100649.312500", "100645.472500", "100649.422500", "100645.582500", "100649.530000", "100645.692500", "100649.640000", "100645.800000", "100649.750000", "100645.910000", "100649.860000", "100646.020000", "100649.970000", "100646.130000", "100650.080000", "100646.240000", "100650.190000", "100646.350000", "100650.300000", "100646.460000", "100650.410000", "100646.570000", "100650.517500", "100646.677500", "100650.627500", "100646.787500", "100650.737500", "100646.897500", "100650.847500", "100647.007500", "100650.957500", "100647.117500", "100651.067500", "100647.227500", "100651.177500", "100647.337500", "100651.287500", "100647.447500", "100651.395000", "100647.557500", "100651.505000", "100647.665000", "100651.615000", "100647.775000", "100651.725000", "100647.885000", "100651.835000", "100647.995000", "100651.945000", "100648.105000", "100652.055000", "100648.215000", "100652.165000", "100648.325000", "100652.275000", "100648.435000", "100652.382500", "100648.545000", "100652.492500", "100648.652500", "100652.602500", "100648.762500", "100656.572500", "100652.732500", "100656.682500", "100652.842500", "100656.792500", "100652.952500", "100656.902500", "100653.062500", "100657.012500", "100653.172500", "100657.122500", "100653.282500", "100657.230000", "100653.392500", "100657.340000", "100653.500000", "100657.450000", "100653.610000", "100657.560000", "100653.720000", "100657.670000", "100653.830000", "100657.780000", "100653.940000", "100657.890000", "100654.050000", "100658.000000", "100654.160000", "100658.110000", "100654.270000", "100658.217500", "100654.377500", "100658.327500", "100654.487500", "100658.437500", "100654.597500", "100658.547500", "100654.707500", "100658.657500", "100654.817500", "100658.767500", "100654.927500", "100658.877500", "100655.037500", "100658.987500", "100655.147500", "100659.095000", "100655.257500", "100659.205000", "100655.365000", "100659.315000", "100655.475000", "100659.425000", "100655.585000", "100659.535000", "100655.695000", "100659.645000", "100655.805000", "100659.755000", "100655.915000", "100659.865000", "100656.025000", "100659.975000", "100656.135000", "100700.082500", "100656.245000", "100700.192500", "100656.352500", "100700.302500", "100656.462500", "100704.272500", "100700.432500", "100704.382500", "100700.542500", "100704.492500", "100700.652500", "100704.602500", "100700.762500", "100704.712500", "100700.872500", "100704.822500", "100700.982500", "100704.930000", "100701.092500", "100705.040000", "100701.200000", "100705.150000", "100701.310000", "100705.260000", "100701.420000", "100705.370000", "100701.530000", "100705.480000", "100701.640000", "100705.590000", "100701.750000", "100705.700000", "100701.860000", "100705.810000", "100701.970000", "100705.917500", "100702.077500", "100706.027500", "100702.187500", "100706.137500", "100702.297500", "100706.247500", "100702.407500", "100706.357500", "100702.517500", "100706.467500", "100702.627500", "100706.577500", "100702.737500", "100706.687500", "100702.847500", "100706.795000", "100702.957500", "100706.905000", "100703.065000", "100707.015000", "100703.175000", "100707.125000", "100703.285000", "100707.235000", "100703.395000", "100707.345000", "100703.505000", "100707.455000", "100703.615000", "100707.565000", "100703.725000", "100707.675000", "100703.835000", "100707.782500", "100703.945000", "100707.892500", "100704.052500", "100708.002500", "100704.162500", "100711.972500", "100708.132500", "100712.082500", "100708.242500", "100712.192500", "100708.352500", "100712.302500", "100708.462500", "100712.412500", "100708.572500", "100712.522500", "100708.682500", "100712.630000", "100708.792500", "100712.740000", "100708.900000", "100712.850000", "100709.010000", "100712.960000", "100709.120000", "100713.070000", "100709.230000", "100713.180000", "100709.340000", "100713.290000", "100709.450000", "100713.400000", "100709.560000", "100713.510000", "100709.670000", "100713.617500", "100709.777500", "100713.727500", "100709.887500", "100713.837500", "100709.997500", "100713.947500", "100710.107500", "100714.057500", "100710.217500", "100714.167500", "100710.327500", "100714.277500", "100710.437500", "100714.387500", "100710.547500", "100714.495000", "100710.657500", "100714.605000", "100710.765000", "100714.715000", "100710.875000", "100714.825000", "100710.985000", "100714.935000", "100711.095000", "100715.045000", "100711.205000", "100715.155000", "100711.315000", "100715.265000", "100711.425000", "100715.375000", "100711.535000", "100715.482500", "100711.645000", "100715.592500", "100711.752500", "100715.702500", "100711.862500", "100719.672500", "100715.832500", "100719.782500", "100715.942500", "100719.892500", "100716.052500", "100720.002500", "100716.162500", "100720.112500", "100716.272500", "100720.222500", "100716.382500", "100720.330000", "100716.492500", "100720.440000", "100716.600000", "100720.550000", "100716.710000", "100720.660000", "100716.820000", "100720.770000", "100716.930000", "100720.880000", "100717.040000", "100720.990000", "100717.150000", "100721.100000", "100717.260000", "100721.210000", "100717.370000", "100721.317500", "100717.477500", "100721.427500", "100717.587500", "100721.537500", "100717.697500", "100721.647500", "100717.807500", "100721.757500", "100717.917500", "100721.867500", "100718.027500", "100721.977500", "100718.137500", "100722.087500", "100718.247500", "100722.195000", "100718.357500", "100722.305000", "100718.465000", "100722.415000", "100718.575000", "100722.525000", "100718.685000", "100722.635000", "100718.795000", "100722.745000", "100718.905000", "100722.855000", "100719.015000", "100722.965000", "100719.125000", "100723.075000", "100719.235000", "100723.182500", "100719.345000", "100723.292500", "100719.452500", "100723.402500", "100719.562500", "100727.372500", "100723.532500", "100727.482500", "100723.642500", "100727.592500", "100723.752500", "100727.702500", "100723.862500", "100727.812500", "100723.972500", "100727.922500", "100724.082500", "100728.030000", "100724.192500", "100728.140000", "100724.300000", "100728.250000", "100724.410000", "100728.360000", "100724.520000", "100728.470000", "100724.630000", "100728.580000", "100724.740000", "100728.690000", "100724.850000", "100728.800000", "100724.960000", "100728.910000", "100725.070000", "100729.017500", "100725.177500", "100729.127500", "100725.287500", "100729.237500", "100725.397500", "100729.347500", "100725.507500", "100729.457500", "100725.617500", "100729.567500", "100725.727500", "100729.677500", "100725.837500", "100729.787500", "100725.947500", "100729.895000", "100726.057500", "100730.005000", "100726.165000", "100730.115000", "100726.275000", "100730.225000", "100726.385000", "100730.335000", "100726.495000", "100730.445000", "100726.605000", "100730.555000", "100726.715000", "100730.665000", "100726.825000", "100730.775000", "100726.935000", "100730.882500", "100727.045000", "100730.992500", "100727.152500", "100731.102500", "100727.262500", "100735.072500", "100731.232500", "100735.182500", "100731.342500", "100735.292500", "100731.452500", "100735.402500", "100731.562500", "100735.512500", "100731.672500", "100735.622500", "100731.782500", "100735.730000", "100731.892500", "100735.840000", "100732.000000", "100735.950000", "100732.110000", "100736.060000", "100732.220000", "100736.170000", "100732.330000", "100736.280000", "100732.440000", "100736.390000", "100732.550000", "100736.500000", "100732.660000", "100736.610000", "100732.770000", "100736.717500", "100732.877500", "100736.827500", "100732.987500", "100736.937500", "100733.097500", "100737.047500", "100733.207500", "100737.157500", "100733.317500", "100737.267500", "100733.427500", "100737.377500", "100733.537500", "100737.487500", "100733.647500", "100737.595000", "100733.757500", "100737.705000", "100733.865000", "100737.815000", "100733.975000", "100737.925000", "100734.085000", "100738.035000", "100734.195000", "100738.145000", "100734.305000", "100738.255000", "100734.415000", "100738.365000", "100734.525000", "100738.475000", "100734.635000", "100738.582500", "100734.745000", "100738.692500", "100734.852500", "100738.802500", "100734.962500", "100742.772500", "100738.932500", "100742.882500", "100739.042500", "100742.992500", "100739.152500", "100743.102500", "100739.262500", "100743.212500", "100739.372500", "100743.322500", "100739.482500", "100743.430000", "100739.592500", "100743.540000", "100739.700000", "100743.650000", "100739.810000", "100743.760000", "100739.920000", "100743.870000", "100740.030000", "100743.980000", "100740.140000", "100744.090000", "100740.250000", "100744.200000", "100740.360000", "100744.310000", "100740.470000", "100744.417500", "100740.577500", "100744.527500", "100740.687500", "100744.637500", "100740.797500", "100744.747500", "100740.907500", "100744.857500", "100741.017500", "100744.967500", "100741.127500", "100745.077500", "100741.237500", "100745.187500", "100741.347500", "100745.295000", "100741.457500", "100745.405000", "100741.565000", "100745.515000", "100741.675000", "100745.625000", "100741.785000", "100745.735000", "100741.895000", "100745.845000", "100742.005000", "100745.955000", "100742.115000", "100746.065000", "100742.225000", "100746.175000", "100742.335000", "100746.282500", "100742.445000", "100746.392500", "100742.552500", "100746.502500", "100742.662500", "100750.472500", "100746.632500", "100750.582500", "100746.742500", "100750.692500", "100746.852500", "100750.802500", "100746.962500", "100750.912500", "100747.072500", "100751.022500", "100747.182500", "100751.130000", "100747.292500", "100751.240000", "100747.400000", "100751.350000", "100747.510000", "100751.460000", "100747.620000", "100751.570000", "100747.730000", "100751.680000", "100747.840000", "100751.790000", "100747.950000", "100751.900000", "100748.060000", "100752.010000", "100748.170000", "100752.117500", "100748.277500", "100752.227500", "100748.387500", "100752.337500", "100748.497500", "100752.447500", "100748.607500", "100752.557500", "100748.717500", "100752.667500", "100748.827500", "100752.777500", "100748.937500", "100752.887500", "100749.047500", "100752.995000", "100749.157500", "100753.105000", "100749.265000", "100753.215000", "100749.375000", "100753.325000", "100749.485000", "100753.435000", "100749.595000", "100753.545000", "100749.705000", "100753.655000", "100749.815000", "100753.765000", "100749.925000", "100753.875000", "100750.035000", "100753.982500", "100750.145000", "100754.092500", "100750.252500", "100754.202500", "100750.362500", "100758.172500", "100754.332500", "100758.282500", "100754.442500", "100758.392500", "100754.552500", "100758.502500", "100754.662500", "100758.612500", "100754.772500", "100758.722500", "100754.882500", "100758.830000", "100754.992500", "100758.940000", "100755.100000", "100759.050000", "100755.210000", "100759.160000", "100755.320000", "100759.270000", "100755.430000", "100759.380000", "100755.540000", "100759.490000", "100755.650000", "100759.600000", "100755.760000", "100759.710000", "100755.870000", "100759.817500", "100755.977500", "100759.927500", "100756.087500", "100800.037500", "100756.197500", "100800.147500", "100756.307500", "100800.257500", "100756.417500", "100800.367500", "100756.527500", "100800.477500", "100756.637500", "100800.587500", "100756.747500", "100800.695000", "100756.857500", "100800.805000", "100756.965000", "100800.915000", "100757.075000", "100801.025000", "100757.185000", "100801.135000", "100757.295000", "100801.245000", "100757.405000", "100801.355000", "100757.515000", "100801.465000", "100757.625000", "100801.575000", "100757.735000", "100801.682500", "100757.845000", "100801.792500", "100757.952500", "100801.902500", "100758.062500", "100805.872500", "100802.032500", "100805.982500", "100802.142500", "100806.092500", "100802.252500", "100806.202500", "100802.362500", "100806.312500", "100802.472500", "100806.422500", "100802.582500", "100806.530000", "100802.692500", "100806.640000", "100802.800000", "100806.750000", "100802.910000", "100806.860000", "100803.020000", "100806.970000", "100803.130000", "100807.080000", "100803.240000", "100807.190000", "100803.350000", "100807.300000", "100803.460000", "100807.410000", "100803.570000", "100807.517500", "100803.677500", "100807.627500", "100803.787500", "100807.737500", "100803.897500", "100807.847500", "100804.007500", "100807.957500", "100804.117500", "100808.067500", "100804.227500", "100808.177500", "100804.337500", "100808.287500", "100804.447500", "100808.395000", "100804.557500", "100808.505000", "100804.665000", "100808.615000", "100804.775000", "100808.725000", "100804.885000", "100808.835000", "100804.995000", "100808.945000", "100805.105000", "100809.055000", "100805.215000", "100809.165000", "100805.325000", "100809.275000", "100805.435000", "100809.382500", "100805.545000", "100809.492500", "100805.652500", "100809.602500", "100805.762500", "100813.572500", "100809.732500", "100813.682500", "100809.842500", "100813.792500", "100809.952500", "100813.902500", "100810.062500", "100814.012500", "100810.172500", "100814.122500", "100810.282500", "100814.230000", "100810.392500", "100814.340000", "100810.500000", "100814.450000", "100810.610000", "100814.560000", "100810.720000", "100814.670000", "100810.830000", "100814.780000", "100810.940000", "100814.890000", "100811.050000", "100815.000000", "100811.160000", "100815.110000", "100811.270000", "100815.217500", "100811.377500", "100815.327500", "100811.487500", "100815.437500", "100811.597500", "100815.547500", "100811.707500", "100815.657500", "100811.817500", "100815.767500", "100811.927500", "100815.877500", "100812.037500", "100815.987500", "100812.147500", "100816.095000", "100812.257500", "100816.205000", "100812.365000", "100816.315000", "100812.475000", "100816.425000", "100812.585000", "100816.535000", "100812.695000", "100816.645000", "100812.805000", "100816.755000", "100812.915000", "100816.865000", "100813.025000", "100816.975000", "100813.135000", "100817.082500", "100813.245000", "100817.192500", "100813.352500", "100817.302500", "100813.462500", "100821.272500", "100817.432500", "100821.382500", "100817.542500", "100821.492500", "100817.652500", "100821.602500", "100817.762500", "100821.712500", "100817.872500", "100821.822500", "100817.982500", "100821.930000", "100818.092500", "100822.040000", "100818.200000", "100822.150000", "100818.310000", "100822.260000", "100818.420000", "100822.370000", "100818.530000", "100822.480000", "100818.640000", "100822.590000", "100818.750000", "100822.700000", "100818.860000", "100822.810000", "100818.970000", "100822.917500", "100819.077500", "100823.027500", "100819.187500", "100823.137500", "100819.297500", "100823.247500", "100819.407500", "100823.357500", "100819.517500", "100823.467500", "100819.627500", "100823.577500", "100819.737500", "100823.687500", "100819.847500", "100823.795000", "100819.957500", "100823.905000", "100820.065000", "100824.015000", "100820.175000", "100824.125000", "100820.285000", "100824.235000", "100820.395000", "100824.345000", "100820.505000", "100824.455000", "100820.615000", "100824.565000", "100820.725000", "100824.675000", "100820.835000", "100824.782500", "100820.945000", "100824.892500", "100821.052500", "100825.002500", "100821.162500", "100828.972500", "100825.132500", "100829.082500", "100825.242500", "100829.192500", "100825.352500", "100829.302500", "100825.462500", "100829.412500", "100825.572500", "100829.522500", "100825.682500", "100829.630000", "100825.792500", "100829.740000", "100825.900000", "100829.850000", "100826.010000", "100829.960000", "100826.120000", "100830.070000", "100826.230000", "100830.180000", "100826.340000", "100830.290000", "100826.450000", "100830.400000", "100826.560000", "100830.510000", "100826.670000", "100830.617500", "100826.777500", "100830.727500", "100826.887500", "100830.837500", "100826.997500", "100830.947500", "100827.107500", "100831.057500", "100827.217500", "100831.167500", "100827.327500", "100831.277500", "100827.437500", "100831.387500", "100827.547500", "100831.495000", "100827.657500", "100831.605000", "100827.765000", "100831.715000", "100827.875000", "100831.825000", "100827.985000", "100831.935000", "100828.095000", "100832.045000", "100828.205000", "100832.155000", "100828.315000", "100832.265000", "100828.425000", "100832.375000", "100828.535000", "100832.482500", "100828.645000", "100832.592500", "100828.752500", "100832.702500", "100828.862500", "100836.672500", "100832.832500", "100836.782500", "100832.942500", "100836.892500", "100833.052500", "100837.002500", "100833.162500", "100837.112500", "100833.272500", "100837.222500", "100833.382500", "100837.330000", "100833.492500", "100837.440000", "100833.600000", "100837.550000", "100833.710000", "100837.660000", "100833.820000", "100837.770000", "100833.930000", "100837.880000", "100834.040000", "100837.990000", "100834.150000", "100838.100000", "100834.260000", "100838.210000", "100834.370000", "100838.317500", "100834.477500", "100838.427500", "100834.587500", "100838.537500", "100834.697500", "100838.647500", "100834.807500", "100838.757500", "100834.917500", "100838.867500", "100835.027500", "100838.977500", "100835.137500", "100839.087500", "100835.247500", "100839.195000", "100835.357500", "100839.305000", "100835.465000", "100839.415000", "100835.575000", "100839.525000", "100835.685000", "100839.635000", "100835.795000", "100839.745000", "100835.905000", "100839.855000", "100836.015000", "100839.965000", "100836.125000", "100840.075000", "100836.235000", "100840.182500", "100836.345000", "100840.292500", "100836.452500", "100840.402500", "100836.562500", "100844.372500", "100840.532500", "100844.482500", "100840.642500", "100844.592500", "100840.752500", "100844.702500", "100840.862500", "100844.812500", "100840.972500", "100844.922500", "100841.082500", "100845.030000", "100841.192500", "100845.140000", "100841.300000", "100845.250000", "100841.410000", "100845.360000", "100841.520000", "100845.470000", "100841.630000", "100845.580000", "100841.740000", "100845.690000", "100841.850000", "100845.800000", "100841.960000", "100845.910000", "100842.070000", "100846.017500", "100842.177500", "100846.127500", "100842.287500", "100846.237500", "100842.397500", "100846.347500", "100842.507500", "100846.457500", "100842.617500", "100846.567500", "100842.727500", "100846.677500", "100842.837500", "100846.787500", "100842.947500", "100846.895000", "100843.057500", "100847.005000", "100843.165000", "100847.115000", "100843.275000", "100847.225000", "100843.385000", "100847.335000", "100843.495000", "100847.445000", "100843.605000", "100847.555000", "100843.715000", "100847.665000", "100843.825000", "100847.775000", "100843.935000", "100847.882500", "100844.045000", "100847.992500", "100844.152500", "100848.102500", "100844.262500", "100852.072500", "100848.232500", "100852.182500", "100848.342500", "100852.292500", "100848.452500", "100852.402500", "100848.562500", "100852.512500", "100848.672500", "100852.622500", "100848.782500", "100852.730000", "100848.892500", "100852.840000", "100849.000000", "100852.950000", "100849.110000", "100853.060000", "100849.220000", "100853.170000", "100849.330000", "100853.280000", "100849.440000", "100853.390000", "100849.550000", "100853.500000", "100849.660000", "100853.610000", "100849.770000", "100853.717500", "100849.877500", "100853.827500", "100849.987500", "100853.937500", 