{
  "AcquisitionMatrixPE": 122,
  "AcquisitionNumber": 1,
  "AcquisitionTime": "10:10:40.485000",
  "BandwidthPerPixelPhaseEncode": 27.785,
  "BaseResolution": 122,
  "BodyPartExamined": "BRAIN",
  "CoilCombinationMethod": "Adaptive Combine",
  "ConsistencyInfo": "N4_VE11C_LATEST_20160120",
  "ConversionSoftware": "dcm2niix",
  "ConversionSoftwareVersion": "v1.0.20220720",
  "DerivedVendorReportedEchoSpacing": 0.000590011,
  "DeviceSerialNumber": "66112",
  "DiffusionScheme": "Monopolar",
  "DwellTime": 2e-06,
  "EchoTime": 0.068,
  "EchoTrainLength": 61,
  "EffectiveEchoSpacing": 0.000295005,
  "FlipAngle": 90,
  "HeudiconvVersion": "0.13.1",
  "ImageOrientationPatientDICOM": [0.982499, 0.185771, 0.0135817, -0.1805, 0.931541, 0.315676],
  "ImageOrientationText": "Tra>Cor(18.2)>Sag(-2.6)",
  "ImageType": [
    "ORIGINAL",
    "PRIMARY",
    "DIFFUSION",
    "NONE",
    "ND",
    "NORM"
],
  "ImagingFrequency": 123.252,
  "InPlanePhaseEncodingDirectionDICOM": "COL",
  "InstitutionAddress": "Maynard 3,Hanover,NH,US,03755",
  "InstitutionName": "Dartmouth College - PBS",
  "InstitutionalDepartmentName": "Department",
  "MRAcquisitionType": "2D",
  "MagneticFieldStrength": 3,
  "Manufacturer": "Siemens",
  "ManufacturersModelName": "Prisma",
  "Modality": "MR",
  "MultibandAccelerationFactor": 4,
  "NonlinearGradientCorrection": false,
  "ParallelReductionFactorInPlane": 2,
  "PartialFourier": 1,
  "PatientPosition": "HFS",
  "PercentPhaseFOV": 100,
  "PercentSampling": 100,
  "PhaseEncodingDirection": "j-",
  "PhaseEncodingSteps": 122,
  "PhaseResolution": 1,
  "PixelBandwidth": 2050,
  "ProcedureStepDescription": "dbic^QA",
  "ProtocolName": "dwi_acq-DTI-30-p2-s4",
  "PulseSequenceDetails": "%SiemensSeq%\\ep2d_diff",
  "ReceiveCoilActiveElements": "HEA;HEP",
  "ReceiveCoilName": "Head_32",
  "ReconMatrixPE": 122,
  "RefLinesPE": 38,
  "RepetitionTime": 3.6,
  "SAR": 0.160779,
  "ScanOptions": "FS",
  "ScanningSequence": "EP",
  "SequenceName": "*ep_b0",
  "SequenceVariant": "SK\\SP",
  "SeriesDescription": "dwi_acq-DTI-30-p2-s4",
  "SeriesNumber": 13,
  "ShimSetting": [4143, -7699, -7521, 248, -105, -11, -4, 48],
  "SliceThickness": 2,
  "SliceTiming": [2.58594, 0, 1.78906, 0.19531, 1.99219, 0.39844, 2.1875, 0.59375, 2.38281, 0.99219, 2.78125, 1.19531, 2.98438, 1.39062, 3.17969, 1.59375, 3.38281, 0.79688, 2.58594, 0, 1.78906, 0.19531, 1.99219, 0.39844, 2.1875, 0.59375, 2.38281, 0.99219, 2.78125, 1.19531, 2.98438, 1.39062, 3.17969, 1.59375, 3.38281, 0.79688, 2.58594, 0, 1.78906, 0.19531, 1.99219, 0.39844, 2.1875, 0.59375, 2.38281, 0.99219, 2.78125, 1.19531, 2.98438, 1.39062, 3.17969, 1.59375, 3.38281, 0.79688, 2.58594, 0, 1.78906, 0.19531, 1.99219, 0.39844, 2.1875, 0.59375, 2.38281, 0.99219, 2.78125, 1.19531, 2.98438, 1.39062, 3.17969, 1.59375, 3.38281, 0.79688],
  "SoftwareVersions": "syngo MR E11",
  "SpacingBetweenSlices": 2,
  "SpoilingState": true,
  "StationName": "AWP66112",
  "TotalReadoutTime": 0.0356956,
  "TxRefAmp": 224.411,
  "dcmmeta_affine": [
    [-1.9327852725982666, -0.3550812005996704, -0.09198331832885742, 143.95960998535156],
    [-0.36545124650001526, 1.832539439201355, 0.6252059936523438, -96.93839263916016],
    [0.026718001812696457, -0.6210026741027832, 1.8975448608398438, -25.62668800354004],
    [0.0, 0.0, 0.0, 1.0]
],
  "dcmmeta_reorient_transform": [
    [0.0, -1.0, 0.0, 121.0],
    [1.0, 0.0, 0.0, 0.0],
    [0.0, 0.0, -1.0, 71.0],
    [0.0, 0.0, 0.0, 1.0]
],
  "dcmmeta_shape": [122, 122, 72, 31],
  "dcmmeta_slice_dim": 2,
  "dcmmeta_version": 0.6,
  "global": {
    "const": {
      "AccessionNumber": "qa",
      "AcquisitionMatrix": [122, 0, 0, 122],
      "AngioFlag": "N",
      "BitsAllocated": 16,
      "BitsStored": 12,
      "BodyPartExamined": "BRAIN",
      "Columns": 122,
      "EchoNumbers": 1,
      "EchoTime": 68.0,
      "EchoTrainLength": 61,
      "FlipAngle": 90.0,
      "HighBit": 11,
      "ImageOrientationPatient": [0.98249918963187, 0.18577104494219, 0.01358165062864, -0.1804996106063, 0.93154084057901, 0.31567634200922],
      "ImageType": [
        "ORIGINAL",
        "PRIMARY",
        "DIFFUSION",
        "NONE",
        "ND",
        "NORM"
],
      "ImagedNucleus": "1H",
      "ImagingFrequency": 123.252377,
      "InPlanePhaseEncodingDirection": "COL",
      "MRAcquisitionType": "2D",
      "MagneticFieldStrength": 3.0,
      "Manufacturer": "SIEMENS",
      "ManufacturerModelName": "Prisma",
      "Modality": "MR",
      "NumberOfAverages": 1.0,
      "NumberOfPhaseEncodingSteps": 122,
      "PercentPhaseFieldOfView": 100.0,
      "PercentSampling": 100.0,
      "PerformedProcedureStepStartTime": "093652.333000",
      "PhotometricInterpretation": "MONOCHROME2",
      "PixelBandwidth": 2050.0,
      "PixelRepresentation": 0,
      "PixelSpacing": [1.9672131538391, 1.9672131538391],
      "ProtocolName": "dwi_acq-DTI-30-p2-s4",
      "RepetitionTime": 3600.0,
      "Rows": 122,
      "SAR": 0.16077853429014,
      "SamplesPerPixel": 1,
      "ScanOptions": "FS",
      "ScanningSequence": "EP",
      "SequenceVariant": [
        "SK",
        "SP"
],
      "SeriesDescription": "dwi_acq-DTI-30-p2-s4",
      "SeriesNumber": 13,
      "SeriesTime": "101044.847000",
      "SliceThickness": 2.0,
      "SmallestImagePixelValue": 0,
      "SoftwareVersions": "syngo MR E11",
      "SpacingBetweenSlices": 2.0,
      "SpecificCharacterSet": "ISO_IR 100",
      "StudyID": "28",
      "StudyTime": "093652.288000",
      "TransmitCoilName": "Body",
      "VariableFlipAngleFlag": "N",
      "WindowCenterWidthExplanation": "Algo1",
      "dBdt": 0.0},
    "slices": {
      "AcquisitionTime": ["101040.485000", "101037.897500", "101039.687500", "101038.097500", "101039.887500", "101038.297500", "101040.085000", "101038.495000", "101040.285000", "101038.892500", "101040.682500", "101039.092500", "101040.882500", "101039.290000", "101041.080000", "101039.490000", "101041.280000", "101038.695000", "101040.485000", "101037.897500", "101039.687500", "101038.097500", "101039.887500", "101038.297500", "101040.085000", "101038.495000", "101040.285000", "101038.892500", "101040.682500", "101039.092500", "101040.882500", "101039.290000", "101041.080000", "101039.490000", "101041.280000", "101038.695000", "101040.485000", "101037.897500", "101039.687500", "101038.097500", "101039.887500", "101038.297500", "101040.085000", "101038.495000", "101040.285000", "101038.892500", "101040.682500", "101039.092500", "101040.882500", "101039.290000", "101041.080000", "101039.490000", "101041.280000", "101038.695000", "101040.485000", "101037.897500", "101039.687500", "101038.097500", "101039.887500", "101038.297500", "101040.085000", "101038.495000", "101040.285000", "101038.892500", "101040.682500", "101039.092500", "101040.882500", "101039.290000", "101041.080000", "101039.490000", "101041.280000", "101038.695000", "101044.085000", "101041.497500", "101043.287500", "101041.697500", "101043.487500", "101041.897500", "101043.685000", "101042.095000", "101043.885000", "101042.492500", "101044.282500", "101042.692500", "101044.482500", "101042.890000", "101044.680000", "101043.090000", "101044.880000", "101042.295000", "101044.085000", "101041.497500", "101043.287500", "101041.697500", "101043.487500", "101041.897500", "101043.685000", "101042.095000", "101043.885000", "101042.492500", "101044.282500", "101042.692500", "101044.482500", "101042.890000", "101044.680000", "101043.090000", "101044.880000", "101042.295000", "101044.085000", "101041.497500", "101043.287500", "101041.697500", "101043.487500", "101041.897500", "101043.685000", "101042.095000", "101043.885000", "101042.492500", "101044.282500", "101042.692500", "101044.482500", "101042.890000", "101044.680000", "101043.090000", "101044.880000", "101042.295000", "101044.085000", "101041.497500", "101043.287500", "101041.697500", "101043.487500", "101041.897500", "101043.685000", "101042.095000", "101043.885000", "101042.492500", "101044.282500", "101042.692500", "101044.482500", "101042.890000", "101044.680000", "101043.090000", "101044.880000", "101042.295000", "101047.685000", "101045.097500", "101046.887500", "101045.297500", "101047.087500", "101045.497500", "101047.285000", "101045.695000", "101047.485000", "101046.092500", "101047.882500", "101046.292500", "101048.082500", "101046.490000", "101048.280000", "101046.690000", "101048.480000", "101045.895000", "101047.685000", "101045.097500", "101046.887500", "101045.297500", "101047.087500", "101045.497500", "101047.285000", "101045.695000", "101047.485000", "101046.092500", "101047.882500", "101046.292500", "101048.082500", "101046.490000", "101048.280000", "101046.690000", "101048.480000", "101045.895000", "101047.685000", "101045.097500", "101046.887500", "101045.297500", "101047.087500", "101045.497500", "101047.285000", "101045.695000", "101047.485000", "101046.092500", "101047.882500", "101046.292500", "101048.082500", "101046.490000", "101048.280000", "101046.690000", "101048.480000", "101045.895000", "101047.685000", "101045.097500", "101046.887500", "101045.297500", "101047.087500", "101045.497500", "101047.285000", "101045.695000", "101047.485000", "101046.092500", "101047.882500", "101046.292500", "101048.082500", "101046.490000", "101048.280000", "101046.690000", "101048.480000", "101045.895000", "101051.285000", "101048.697500", "101050.487500", "101048.897500", "101050.687500", "101049.097500", "101050.885000", "101049.295000", "101051.085000", "101049.692500", "101051.482500", "101049.892500", "101051.682500", "101050.090000", "101051.880000", "101050.290000", "101052.080000", "101049.495000", "101051.285000", "101048.697500", "101050.487500", "101048.897500", "101050.687500", "101049.097500", "101050.885000", "101049.295000", "101051.085000", "101049.692500", "101051.482500", "101049.892500", "101051.682500", "101050.090000", "101051.880000", "101050.290000", "101052.080000", "101049.495000", "101051.285000", "101048.697500", "101050.487500", "101048.897500", "101050.687500", "101049.097500", "101050.885000", "101049.295000", "101051.085000", "101049.692500", "101051.482500", "101049.892500", "101051.682500", "101050.090000", "101051.880000", "101050.290000", "101052.080000", "101049.495000", "101051.285000", "101048.697500", "101050.487500", "101048.897500", "101050.687500", "101049.097500", "101050.885000", "101049.295000", "101051.085000", "101049.692500", "101051.482500", "101049.892500", "101051.682500", "101050.090000", "101051.880000", "101050.290000", "101052.080000", "101049.495000", "101054.885000", "101052.297500", "101054.087500", "101052.497500", "101054.287500", "101052.697500", "101054.485000", "101052.895000", "101054.685000", "101053.292500", "101055.082500", "101053.492500", "101055.282500", "101053.690000", "101055.480000", "101053.890000", "101055.680000", "101053.095000", "101054.885000", "101052.297500", "101054.087500", "101052.497500", "101054.287500", "101052.697500", "101054.485000", "101052.895000", "101054.685000", "101053.292500", "101055.082500", "101053.492500", "101055.282500", "101053.690000", "101055.480000", "101053.890000", "101055.680000", "101053.095000", "101054.885000", "101052.297500", "101054.087500", "101052.497500", "101054.287500", "101052.697500", "101054.485000", "101052.895000", "101054.685000", "101053.292500", "101055.082500", "101053.492500", "101055.282500", "101053.690000", "101055.480000", "101053.890000", "101055.680000", "101053.095000", "101054.885000", "101052.297500", "101054.087500", "101052.497500", "101054.287500", "101052.697500", "101054.485000", "101052.895000", "101054.685000", "101053.292500", "101055.082500", "101053.492500", "101055.282500", "101053.690000", "101055.480000", "101053.890000", "101055.680000", "101053.095000", "101058.485000", "101055.897500", "101057.687500", "101056.097500", "101057.887500", "101056.297500", "101058.085000", "101056.495000", "101058.285000", "101056.892500", "101058.682500", "101057.092500", "101058.882500", "101057.290000", "101059.080000", "101057.490000", "101059.280000", "101056.695000", "101058.485000", "101055.897500", "101057.687500", "101056.097500", "101057.887500", "101056.297500", "101058.085000", "101056.495000", "101058.285000", "101056.892500", "101058.682500", "101057.092500", "101058.882500", "101057.290000", "101059.080000", "101057.490000", "101059.280000", "101056.695000", "101058.485000", "101055.897500", "101057.687500", "101056.097500", "101057.887500", "101056.297500", "101058.085000", "101056.495000", "101058.285000", "101056.892500", "101058.682500", "101057.092500", "101058.882500", "101057.290000", "101059.080000", "101057.490000", "101059.280000", "101056.695000", "101058.485000", "101055.897500", "101057.687500", "101056.097500", "101057.887500", "101056.297500", "101058.085000", "101056.495000", "101058.285000", "101056.892500", "101058.682500", "101057.092500", "101058.882500", "101057.290000", "101059.080000", "101057.490000", "101059.280000", "101056.695000", "101102.085000", "101059.497500", "101101.287500", "101059.697500", "101101.487500", "101059.897500", "101101.685000", "101100.095000", "101101.885000", "101100.492500", "101102.282500", "101100.692500", "101102.482500", "101100.890000", "101102.680000", "101101.090000", "101102.880000", "101100.295000", "101102.085000", "101059.497500", "101101.287500", "101059.697500", "101101.487500", "101059.897500", "101101.685000", "101100.095000", "101101.885000", "101100.492500", "101102.282500", "101100.692500", "101102.482500", "101100.890000", "101102.680000", "101101.090000", "101102.880000", "101100.295000", "101102.085000", "101059.497500", "101101.287500", "101059.697500", "101101.487500", "101059.897500", "101101.685000", "101100.095000", "101101.885000", "101100.492500", "101102.282500", "101100.692500", "101102.482500", "101100.890000", "101102.680000", "101101.090000", "101102.880000", "101100.295000", "101102.085000", "101059.497500", "101101.287500", "101059.697500", "101101.487500", "101059.897500", "101101.685000", "101100.095000", "101101.885000", "101100.492500", "101102.282500", "101100.692500", "101102.482500", "101100.890000", "101102.680000", "101101.090000", "101102.880000", "101100.295000", "101105.685000", "101103.097500", "101104.887500", "101103.297500", "101105.087500", "101103.497500", "101105.285000", "101103.695000", "101105.485000", "101104.092500", "101105.882500", "101104.292500", "101106.082500", "101104.490000", "101106.280000", "101104.690000", "101106.480000", "101103.895000", "101105.685000", "101103.097500", "101104.887500", "101103.297500", "101105.087500", "101103.497500", "101105.285000", "101103.695000", "101105.485000", "101104.092500", "101105.882500", "101104.292500", "101106.082500", "101104.490000", "101106.280000", "101104.690000", "101106.480000", "101103.895000", "101105.685000", "101103.097500", "101104.887500", "101103.297500", "101105.087500", "101103.497500", "101105.285000", "101103.695000", "101105.485000", "101104.092500", "101105.882500", "101104.292500", "101106.082500", "101104.490000", "101106.280000", "101104.690000", "101106.480000", "101103.895000", "101105.685000", "101103.097500", "101104.887500", "101103.297500", "101105.087500", "101103.497500", "101105.285000", "101103.695000", "101105.485000", "101104.092500", "101105.882500", "101104.292500", "101106.082500", "101104.490000", "101106.280000", "101104.690000", "101106.480000", "101103.895000", "101109.285000", "101106.697500", "101108.487500", "101106.897500", "101108.687500", "101107.097500", "101108.885000", "101107.295000", "101109.085000", "101107.692500", "101109.482500", "101107.892500", "101109.682500", "101108.090000", "101109.880000", "101108.290000", "101110.080000", "101107.495000", "101109.285000", "101106.697500", "101108.487500", "101106.897500", "101108.687500", "101107.097500", "101108.885000", "101107.295000", "101109.085000", "101107.692500", "101109.482500", "101107.892500", "101109.682500", "101108.090000", "101109.880000", "101108.290000", "101110.080000", "101107.495000", "101109.285000", "101106.697500", "101108.487500", "101106.897500", "101108.687500", "101107.097500", "101108.885000", "101107.295000", "101109.085000", "101107.692500", "101109.482500", "101107.892500", "101109.682500", "101108.090000", "101109.880000", "101108.290000", "101110.080000", "101107.495000", "101109.285000", "101106.697500", "101108.487500", "101106.897500", "101108.687500", "101107.097500", "101108.885000", "101107.295000", "101109.085000", "101107.692500", "101109.482500", "101107.892500", "101109.682500", "101108.090000", "101109.880000", "101108.290000", "101110.080000", "101107.495000", "101112.885000", "101110.297500", "101112.087500", "101110.497500", "101112.287500", "101110.697500", "101112.485000", "101110.895000", "101112.685000", "101111.292500", "101113.082500", "101111.492500", "101113.282500", "101111.690000", "101113.480000", "101111.890000", "101113.680000", "101111.095000", "101112.885000", "101110.297500", "101112.087500", "101110.497500", "101112.287500", "101110.697500", "101112.485000", "101110.895000", "101112.685000", "101111.292500", "101113.082500", "101111.492500", "101113.282500", "101111.690000", "101113.480000", "101111.890000", "101113.680000", "101111.095000", "101112.885000", "101110.297500", "101112.087500", "101110.497500", "101112.287500", "101110.697500", "101112.485000", "101110.895000", "101112.685000", "101111.292500", "101113.082500", "101111.492500", "101113.282500", "101111.690000", "101113.480000", "101111.890000", "101113.680000", "101111.095000", "101112.885000", "101110.297500", "101112.087500", "101110.497500", "101112.287500", "101110.697500", "101112.485000", "101110.895000", "101112.685000", "101111.292500", "101113.082500", "101111.492500", "101113.282500", "101111.690000", "101113.480000", "101111.890000", "101113.680000", "101111.095000", "101116.485000", "101113.897500", "101115.687500", "101114.097500", "101115.887500", "101114.297500", "101116.085000", "101114.495000", "101116.285000", "101114.892500", "101116.682500", "101115.092500", "101116.882500", "101115.290000", "101117.080000", "101115.490000", "101117.280000", "101114.695000", "101116.485000", "101113.897500", "101115.687500", "101114.097500", "101115.887500", "101114.297500", "101116.085000", "101114.495000", "101116.285000", "101114.892500", "101116.682500", "101115.092500", "101116.882500", "101115.290000", "101117.080000", "101115.490000", "101117.280000", "101114.695000", "101116.485000", "101113.897500", "101115.687500", "101114.097500", "101115.887500", "101114.297500", "101116.085000", "101114.495000", "101116.285000", "101114.892500", "101116.682500", "101115.092500", "101116.882500", "101115.290000", "101117.080000", "101115.490000", "101117.280000", "101114.695000", "101116.485000", "101113.897500", "101115.687500", "101114.097500", "101115.887500", "101114.297500", "101116.085000", "101114.495000", "101116.285000", "101114.892500", "101116.682500", "101115.092500", "101116.882500", "101115.290000", "101117.080000", "101115.490000", "101117.280000", "101114.695000", "101120.085000", "101117.497500", "101119.287500", "101117.697500", "101119.487500", "101117.897500", "101119.685000", "101118.095000", "101119.885000", "101118.492500", "101120.282500", "101118.692500", "101120.482500", "101118.890000", "101120.680000", "101119.090000", "101120.880000", "101118.295000", "101120.085000", "101117.497500", "101119.287500", "101117.697500", "101119.487500", "101117.897500", "101119.685000", "101118.095000", "101119.885000", "101118.492500", "101120.282500", "101118.692500", "101120.482500", "101118.890000", "101120.680000", "101119.090000", "101120.880000", "101118.295000", "101120.085000", "101117.497500", "101119.287500", "101117.697500", "101119.487500", "101117.897500", "101119.685000", "101118.095000", "101119.885000", "101118.492500", "101120.282500", "101118.692500", "101120.482500", "101118.890000", "101120.680000", "101119.090000", "101120.880000", "101118.295000", "101120.085000", "101117.497500", "101119.287500", "101117.697500", "101119.487500", "101117.897500", "101119.685000", "101118.095000", "101119.885000", "101118.492500", "101120.282500", "101118.692500", "101120.482500", "101118.890000", "101120.680000", "101119.090000", "101120.880000", "101118.295000", "101123.685000", "101121.097500", "101122.887500", "101121.297500", "101123.087500", "101121.497500", "101123.285000", "101121.695000", "101123.485000", "101122.092500", "101123.882500", "101122.292500", "101124.082500", "101122.490000", "101124.280000", "101122.690000", "101124.480000", "101121.895000", "101123.685000", "101121.097500", "101122.887500", "101121.297500", "101123.087500", "101121.497500", "101123.285000", "101121.695000", "101123.485000", "101122.092500", "101123.882500", "101122.292500", "101124.082500", "101122.490000", "101124.280000", "101122.690000", "101124.480000", "101121.895000", "101123.685000", "101121.097500", "101122.887500", "101121.297500", "101123.087500", "101121.497500", "101123.285000", "101121.695000", "101123.485000", "101122.092500", "101123.882500", "101122.292500", "101124.082500", "101122.490000", "101124.280000", "101122.690000", "101124.480000", "101121.895000", "101123.685000", "101121.097500", "101122.887500", "101121.297500", "101123.087500", "101121.497500", "101123.285000", "101121.695000", "101123.485000", "101122.092500", "101123.882500", "101122.292500", "101124.082500", "101122.490000", "101124.280000", "101122.690000", "101124.480000", "101121.895000", "101127.285000", "101124.697500", "101126.487500", "101124.897500", "101126.687500", "101125.097500", "101126.885000", "101125.295000", "101127.085000", "101125.692500", "101127.482500", "101125.892500", "101127.682500", "101126.090000", "101127.880000", "101126.290000", "101128.080000", "101125.495000", "101127.285000", "101124.697500", "101126.487500", "101124.897500", "101126.687500", "101125.097500", "101126.885000", "101125.295000", "101127.085000", "101125.692500", "101127.482500", "101125.892500", "101127.682500", "101126.090000", "101127.880000", "101126.290000", "101128.080000", "101125.495000", "101127.285000", "101124.697500", "101126.487500", "101124.897500", "101126.687500", "101125.097500", "101126.885000", "101125.295000", "101127.085000", "101125.692500", "101127.482500", "101125.892500", "101127.682500", "101126.090000", "101127.880000", "101126.290000", "101128.080000", "101125.495000", "101127.285000", "101124.697500", "101126.487500", "101124.897500", "101126.687500", "101125.097500", "101126.885000", "101125.295000", "101127.085000", "101125.692500", "101127.482500", "101125.892500", "101127.682500", "101126.090000", "101127.880000", "101126.290000", "101128.080000", "101125.495000", "101130.885000", "101128.297500", "101130.087500", "101128.497500", "101130.287500", "101128.697500", "101130.485000", "101128.895000", "101130.685000", "101129.292500", "101131.082500", "101129.492500", "101131.282500", "101129.690000", "101131.480000", "101129.890000", "101131.680000", "101129.095000", "101130.885000", "101128.297500", "101130.087500", "101128.497500", "101130.287500", "101128.697500", "101130.485000", "101128.895000", "101130.685000", "101129.292500", "101131.082500", "101129.492500", "101131.282500", "101129.690000", "101131.480000", "101129.890000", "101131.680000", "101129.095000", "101130.885000", "101128.297500", "101130.087500", "101128.497500", "101130.287500", "101128.697500", "101130.485000", "101128.895000", "101130.685000", "101129.292500", "101131.082500", "101129.492500", "101131.282500", "101129.690000", "101131.480000", "101129.890000", "101131.680000", "101129.095000", "101130.885000", "101128.297500", "101130.087500", "101128.497500", "101130.287500", "101128.697500", "101130.485000", "101128.895000", "101130.685000", "101129.292500", "101131.082500", "101129.492500", "101131.282500", "101129.690000", "101131.480000", "101129.890000", "101131.680000", "101129.095000", "101134.485000", "101131.897500", "101133.687500", "101132.097500", "101133.887500", "101132.297500", "101134.085000", "101132.495000", "101134.285000", "101132.892500", "101134.682500", "101133.092500", "101134.882500", "101133.290000", "101135.080000", "101133.490000", "101135.280000", "101132.695000", "101134.485000", "101131.897500", "101133.687500", "101132.097500", "101133.887500", "101132.297500", "101134.085000", "101132.495000", "101134.285000", "101132.892500", "101134.682500", "101133.092500", "101134.882500", "101133.290000", "101135.080000", "101133.490000", "101135.280000", "101132.695000", "101134.485000", "101131.897500", "101133.687500", "101132.097500", "101133.887500", "101132.297500", "101134.085000", "101132.495000", "101134.285000", "101132.892500", "101134.682500", "101133.092500", "101134.882500", "101133.290000", "101135.080000", "101133.490000", "101135.280000", "101132.695000", "101134.485000", "101131.897500", "101133.687500", "101132.097500", "101133.887500", "101132.297500", "101134.085000", "101132.495000", "101134.285000", "101132.892500", "101134.682500", "101133.092500", "101134.882500", "101133.290000", "101135.080000", "101133.490000", "101135.280000", "101132.695000", "101138.085000", "101135.497500", "101137.287500", "101135.697500", "101137.487500", "101135.897500", "101137.685000", "101136.095000", "101137.885000", "101136.492500", "101138.282500", "101136.692500", "101138.482500", "101136.890000", "101138.680000", "101137.090000", "101138.880000", "101136.295000", "101138.085000", "101135.497500", "101137.287500", "101135.697500", "101137.487500", "101135.897500", "101137.685000", "101136.095000", "101137.885000", "101136.492500", "101138.282500", "101136.692500", "101138.482500", "101136.890000", "101138.680000", "101137.090000", "101138.880000", "101136.295000", "101138.085000", "101135.497500", "101137.287500", "101135.697500", "101137.487500", "101135.897500", "101137.685000", "101136.095000", "101137.885000", "101136.492500", "101138.282500", "101136.692500", "101138.482500", "101136.890000", "101138.680000", "101137.090000", "101138.880000", "101136.295000", "101138.085000", "101135.497500", "101137.287500", "101135.697500", "101137.487500", "101135.897500", "101137.685000", "101136.095000", "101137.885000", "101136.492500", "101138.282500", "101136.692500", "101138.482500", "101136.890000", "101138.680000", "101137.090000", "101138.880000", "101136.295000", "101141.685000", "101139.097500", "101140.887500", "101139.297500", "101141.087500", "101139.497500", "101141.285000", "101139.695000", "101141.485000", "101140.092500", "101141.882500", "101140.292500", "101142.082500", "101140.490000", "101142.280000", "101140.690000", "101142.480000", "101139.895000", "101141.685000", "101139.097500", "101140.887500", "101139.297500", "101141.087500", "101139.497500", "101141.285000", "101139.695000", "101141.485000", "101140.092500", "101141.882500", "101140.292500", "101142.082500", "101140.490000", "101142.280000", "101140.690000", "101142.480000", "101139.895000", "101141.685000", "101139.097500", "101140.887500", "101139.297500", "101141.087500", "101139.497500", "101141.285000", "101139.695000", "101141.485000", "101140.092500", "101141.882500", "101140.292500", "101142.082500", "101140.490000", "101142.280000", "101140.690000", "101142.480000", "101139.895000", "101141.685000", "101139.097500", "101140.887500", "101139.297500", "101141.087500", "101139.497500", "101141.285000", "101139.695000", "101141.485000", "101140.092500", "101141.882500", "101140.292500", "101142.082500", "101140.490000", "101142.280000", "101140.690000", "101142.480000", "101139.895000", "101145.285000", "101142.697500", "101144.487500", "101142.897500", "101144.687500", "101143.097500", "101144.885000", "101143.295000", "101145.085000", "101143.692500", "101145.482500", "101143.892500", "101145.682500", "101144.090000", "101145.880000", "101144.290000", "101146.080000", "101143.495000", "101145.285000", "101142.697500", "101144.487500", "101142.897500", "101144.687500", "101143.097500", "101144.885000", "101143.295000", "101145.085000", "101143.692500", "101145.482500", "101143.892500", "101145.682500", "101144.090000", "101145.880000", "101144.290000", "101146.080000", "101143.495000", "101145.285000", "101142.697500", "101144.487500", "101142.897500", "101144.687500", "101143.097500", "101144.885000", "101143.295000", "101145.085000", "101143.692500", "101145.482500", "101143.892500", "101145.682500", "101144.090000", "101145.880000", "101144.290000", "101146.080000", "101143.495000", "101145.285000", "101142.697500", "101144.487500", "101142.897500", "101144.687500", "101143.097500", "101144.885000", "101143.295000", "101145.085000", "101143.692500", "101145.482500", "101143.892500", "101145.682500", "101144.090000", "101145.880000", "101144.290000", "101146.080000", "101143.495000", "101148.885000", "101146.297500", "101148.087500", "101146.497500", "101148.287500", "101146.697500", "101148.485000", "101146.895000", "101148.685000", "101147.292500", "101149.082500", "101147.492500", "101149.282500", "101147.690000", "101149.480000", "101147.890000", "101149.680000", "101147.095000", "101148.885000", "101146.297500", "101148.087500", "101146.497500", "101148.287500", "101146.697500", "101148.485000", "101146.895000", "101148.685000", "101147.292500", "101149.082500", "101147.492500", "101149.282500", "101147.690000", "101149.480000", "101147.890000", "101149.680000", "101147.095000", "101148.885000", "101146.297500", "101148.087500", "101146.497500", "101148.287500", "101146.697500", "101148.485000", "101146.895000", "101148.685000", "101147.292500", "101149.082500", "101147.492500", "101149.282500", "101147.690000", "101149.480000", "101147.890000", "101149.680000", "101147.095000", "101148.885000", "101146.297500", "101148.087500", "101146.497500", "101148.287500", "101146.697500", "101148.485000", "101146.895000", "101148.685000", "101147.292500", "101149.082500", "10