{
  "AccelFactPE": 2,
  "AcquisitionNumber": 1,
  "AcquisitionTime": "09:02:44.767500",
  "BandwidthPerPixelPhaseEncode": 48.077,
  "BodyPartExamined": "BRAIN",
  "ConversionSoftware": "dcm2niix",
  "ConversionSoftwareVersion": "v1.0.20170624 GCC6.3.0",
  "DeviceSerialNumber": "66112",
  "EchoTime": 0.035,
  "EchoTrainLength": 39,
  "EffectiveEchoSpacing": 0.00026,
  "FlipAngle": 90,
  "ImageType": [
    "ORIGINAL",
    "PRIMARY",
    "M",
    "ND",
    "NORM",
    "MOSAIC"
],
  "InstitutionAddress": "Maynard_3_Hanover_NH_US_03755",
  "InstitutionName": "Dartmouth_College_-_PBS",
  "MagneticFieldStrength": 3,
  "Manufacturer": "Siemens",
  "ManufacturersModelName": "Prisma",
  "PhaseEncodingDirection": "j-",
  "PhaseEncodingLines": 80,
  "ProcedureStepDescription": "dbic_QA",
  "ProtocolName": "func-bold_task-rest_acq-p2",
  "RepetitionTime": 2,
  "ScanningSequence": "EP",
  "SequenceName": "_epfid2d1_80",
  "SequenceVariant": "SK",
  "SeriesDescription": "func-bold_task-rest_acq-p2",
  "SliceTiming": [0.99, 0, 1.055, 0.0675, 1.1225, 0.1325, 1.1875, 0.1975, 1.255, 0.265, 1.32, 0.33, 1.385, 0.395, 1.4525, 0.4625, 1.5175, 0.5275, 1.585, 0.595, 1.65, 0.66, 1.715, 0.725, 1.7825, 0.7925, 1.8475, 0.8575, 1.915, 0.925],
  "SoftwareVersions": "syngo_MR_E11",
  "TaskName": "rest",
  "TotalReadoutTime": 0.02002,
  "TrueEchoSpacing": 0.000519999,
  "dcmmeta_affine": [
    [-2.953179359436035, 0.4910140037536621, 0.25802379846572876, 94.43341827392578],
    [0.5278514623641968, 2.7674143314361572, 1.371120572090149, -140.89340209960938],
    [0.010230413638055325, -1.048963189125061, 3.738121509552002, -5.873316764831543],
    [0.0, 0.0, 0.0, 1.0]
],
  "dcmmeta_reorient_transform": [
    [0.0, -1.0, 0.0, 79.0],
    [1.0, 0.0, 0.0, 0.0],
    [0.0, 0.0, 1.0, 0.0],
    [0.0, 0.0, 0.0, 1.0]
],
  "dcmmeta_shape": [80, 80, 30, 200],
  "dcmmeta_slice_dim": 2,
  "dcmmeta_version": 0.6,
  "global": {
    "const": {
      "AccessionNumber": "qa",
      "AcquisitionMatrix": [80, 0, 0, 80],
      "AngioFlag": "N",
      "BitsAllocated": 16,
      "BitsStored": 12,
      "BodyPartExamined": "BRAIN",
      "Columns": 480,
      "EchoNumbers": 1,
      "EchoTime": 35.0,
      "EchoTrainLength": 39,
      "FlipAngle": 90.0,
      "HighBit": 11,
      "ImageOrientationPatient": [0.98439310966784, -0.1759504947355, 0.00341013794883, 0.16367133132852, 0.92247140755776, 0.3496543972833],
      "ImagePositionPatient": [-822.06218803709, -525.64487279144, -300.58013022309],
      "ImageType": [
        "ORIGINAL",
        "PRIMARY",
        "M",
        "ND",
        "NORM",
        "MOSAIC"
],
      "ImagedNucleus": "1H",
      "ImagingFrequency": 123.252492,
      "InPlanePhaseEncodingDirection": "COL",
      "MRAcquisitionType": "2D",
      "MagneticFieldStrength": 3.0,
      "Manufacturer": "SIEMENS",
      "ManufacturerModelName": "Prisma",
      "Modality": "MR",
      "NumberOfAverages": 1.0,
      "NumberOfPhaseEncodingSteps": 79,
      "PercentPhaseFieldOfView": 100.0,
      "PercentSampling": 100.0,
      "PerformedProcedureStepStartTime": "085547.073000",
      "PhotometricInterpretation": "MONOCHROME2",
      "PixelBandwidth": 2315.0,
      "PixelRepresentation": 0,
      "PixelSpacing": [3.0, 3.0],
      "PositionReferenceIndicator": "",
      "ProtocolName": "func-bold_task-rest_acq-p2",
      "RepetitionTime": 2000.0,
      "Rows": 480,
      "SAR": 0.05538928612974,
      "SamplesPerPixel": 1,
      "ScanOptions": "FS",
      "ScanningSequence": "EP",
      "SequenceName": "*epfid2d1_80",
      "SequenceVariant": "SK",
      "SeriesDescription": "func-bold_task-rest_acq-p2",
      "SeriesNumber": 5,
      "SeriesTime": "090327.794000",
      "SliceLocation": -47.812265162773,
      "SliceThickness": 3.5,
      "SmallestImagePixelValue": 0,
      "SoftwareVersions": "syngo MR E11",
      "SpacingBetweenSlices": 3.9900000806778,
      "SpecificCharacterSet": "ISO_IR 100",
      "StudyID": "76",
      "StudyTime": "085546.996000",
      "TransmitCoilName": "Body",
      "VariableFlipAngleFlag": "N",
      "WindowCenterWidthExplanation": "Algo1",
      "dBdt": 0.0},
    "slices": {}
  },
  "time": {
    "samples": {
      "AcquisitionNumber": [1, 2, 3, 4, 5, 6, 7, 8, 9, 10, 11, 12, 13, 14, 15, 16, 17, 18, 19, 20, 21, 22, 23, 24, 25, 26, 27, 28, 29, 30, 31, 32, 33, 34, 35, 36, 37, 38, 39, 40, 41, 42, 43, 44, 45, 46, 47, 48, 49, 50, 51, 52, 53, 54, 55, 56, 57, 58, 59, 60, 61, 62, 63, 64, 65, 66, 67, 68, 69, 70, 71, 72, 73, 74, 75, 76, 77, 78, 79, 80, 81, 82, 83, 84, 85, 86, 87, 88, 89, 90, 91, 92, 93, 94, 95, 96, 97, 98, 99, 100, 101, 102, 103, 104, 105, 106, 107, 108, 109, 110, 111, 112, 113, 114, 115, 116, 117, 118, 119, 120, 121, 122, 123, 124, 125, 126, 127, 128, 129, 130, 131, 132, 133, 134, 135, 136, 137, 138, 139, 140, 141, 142, 143, 144, 145, 146, 147, 148, 149, 150, 151, 152, 153, 154, 155, 156, 157, 158, 159, 160, 161, 162, 163, 164, 165, 166, 167, 168, 169, 170, 171, 172, 173, 174, 175, 176, 177, 178, 179, 180, 181, 182, 183, 184, 185, 186, 187, 188, 189, 190, 191, 192, 193, 194, 195, 196, 197, 198, 199, 200],
      "AcquisitionTime": ["090244.767500", "090246.767500", "090248.767500", "090250.767500", "090252.767500", "090254.767500", "090256.767500", "090258.767500", "090300.767500", "090302.767500", "090304.767500", "090306.767500", "090308.767500", "090310.767500", "090312.767500", "090314.767500", "090316.767500", "090318.767500", "090320.767500", "090322.767500", "090324.767500", "090326.767500", "090328.767500", "090330.767500", "090332.767500", "090334.767500", "090336.767500", "090338.767500", "090340.767500", "090342.767500", "090344.767500", "090346.767500", "090348.767500", "090350.767500", "090352.767500", "090354.767500", "090356.767500", "090358.767500", "090400.767500", "090402.767500", "090404.767500", "090406.767500", "090408.767500", "090410.767500", "090412.767500", "090414.767500", "090416.767500", "090418.767500", "090420.767500", "090422.767500", "090424.767500", "090426.767500", "090428.767500", "090430.767500", "090432.767500", "090434.767500", "090436.767500", "090438.767500", "090440.767500", "090442.767500", "090444.767500", "090446.767500", "090448.767500", "090450.767500", "090452.767500", "090454.767500", "090456.767500", "090458.767500", "090500.767500", "090502.767500", "090504.767500", "090506.767500", "090508.767500", "090510.767500", "090512.767500", "090514.767500", "090516.767500", "090518.767500", "090520.767500", "090522.767500", "090524.767500", "090526.767500", "090528.767500", "090530.767500", "090532.767500", "090534.767500", "090536.767500", "090538.767500", "090540.767500", "090542.767500", "090544.767500", "090546.767500", "090548.767500", "090550.767500", "090552.767500", "090554.767500", "090556.767500", "090558.767500", "090600.767500", "090602.767500", "090604.767500", "090606.767500", "090608.767500", "090610.767500", "090612.767500", "090614.767500", "090616.767500", "090618.767500", "090620.767500", "090622.767500", "090624.767500", "090626.767500", "090628.767500", "090630.767500", "090632.767500", "090634.767500", "090636.767500", "090638.767500", "090640.767500", "090642.767500", "090644.767500", "090646.767500", "090648.767500", "090650.767500", "090652.767500", "090654.767500", "090656.767500", "090658.767500", "090700.767500", "090702.767500", "090704.767500", "090706.767500", "090708.767500", "090710.767500", "090712.767500", "090714.767500", "090716.767500", "090718.767500", "090720.767500", "090722.767500", "090724.767500", "090726.767500", "090728.767500", "090730.767500", "090732.767500", "090734.767500", "090736.767500", "090738.767500", "090740.767500", "090742.767500", "090744.767500", "090746.767500", "090748.767500", "090750.767500", "090752.767500", "090754.767500", "090756.767500", "090758.767500", "090800.767500", "090802.767500", "090804.767500", "090806.767500", "090808.767500", "090810.767500", "090812.767500", "090814.767500", "090816.767500", "090818.767500", "090820.767500", "090822.767500", "090824.767500", "090826.767500", "090828.767500", "090830.767500", "090832.767500", "090834.767500", "090836.767500", "090838.767500", "090840.767500", "090842.767500", "090844.767500", "090846.767500", "090848.767500", "090850.767500", "090852.767500", "090854.767500", "090856.767500", "090858.767500", "090900.767500", "090902.767500", "090904.767500", "090906.767500", "090908.767500", "090910.767500", "090912.767500", "090914.767500", "090916.767500", "090918.767500", "090920.767500", "090922.767500"],
      "ContentTime": ["090327.798000", "090327.801000", "090327.804000", "090327.806000", "090327.809000", "090327.812000", "090327.814000", "090327.817000", "090327.820000", "090327.822000", "090327.825000", "090327.828000", "090327.830000", "090327.833000", "090327.835000", "090327.838000", "090327.840000", "090327.843000", "090327.846000", "090327.848000", "090327.851000", "090407.794000", "090407.797000", "090407.799000", "090407.802000", "090407.804000", "090407.807000", "090407.809000", "090407.812000", "090407.815000", "090407.817000", "090407.820000", "090407.823000", "090407.825000", "090407.828000", "090407.835000", "090407.838000", "090407.841000", "090407.843000", "090407.846000", "090407.848000", "090447.792000", "090447.795000", "090447.798000", "090447.801000", "090447.803000", "090447.806000", "090447.808000", "090447.811000", "090447.814000", "090447.816000", "090447.819000", "090447.822000", "090447.824000", "090447.827000", "090447.829000", "090447.832000", "090447.835000", "090447.837000", "090447.840000", "090447.842000", "090527.793000", "090527.796000", "090527.798000", "090527.801000", "090527.804000", "090527.814000", "090527.817000", "090527.819000", "090527.822000", "090527.825000", "090527.827000", "090527.830000", "090527.832000", "090527.835000", "090527.838000", "090527.840000", "090527.843000", "090527.845000", "090527.848000", "090527.850000", "090607.793000", "090607.795000", "090607.798000", "090607.801000", "090607.803000", "090607.806000", "090607.808000", "090607.811000", "090607.814000", "090607.816000", "090607.819000", "090607.822000", "090607.824000", "090607.827000", "090607.829000", "090607.832000", "090607.834000", "090607.837000", "090607.840000", "090607.842000", "090647.793000", "090647.796000", "090647.799000", "090647.802000", "090647.804000", "090647.807000", "090647.809000", "090647.812000", "090647.814000", "090647.817000", "090647.834000", "090647.837000", "090647.839000", "090647.842000", "090647.845000", "090647.847000", "090647.850000", "090647.852000", "090647.855000", "090647.857000", "090727.793000", "090727.795000", "090727.798000", "090727.801000", "090727.803000", "090727.806000", "090727.808000", "090727.811000", "090727.820000", "090727.823000", "090727.826000", "090727.828000", "090727.831000", "090727.833000", "090727.836000", "090727.839000", "090727.841000", "090727.844000", "090727.846000", "090727.849000", "090807.793000", "090807.796000", "090807.798000", "090807.801000", "090807.804000", "090807.806000", "090807.809000", "090807.812000", "090807.814000", "090807.817000", "090807.820000", "090807.822000", "090807.825000", "090807.828000", "090807.830000", "090807.833000", "090807.836000", "090807.838000", "090807.841000", "090807.843000", "090847.794000", "090847.797000", "090847.799000", "090847.802000", "090847.804000", "090847.807000", "090847.810000", "090847.812000", "090847.815000", "090847.817000", "090847.820000", "090847.823000", "090847.825000", "090847.828000", "090847.830000", "090847.840000", "090847.843000", "090847.845000", "090847.848000", "090847.851000", "090924.014000", "090924.016000", "090924.019000", "090924.022000", "090924.025000", "090924.027000", "090924.030000", "090924.032000", "090924.035000", "090924.038000", "090924.040000", "090924.045000", "090924.049000", "090924.053000", "090924.056000", "090924.058000", "090924.062000", "090924.065000", "090924.068000"],
      "InstanceCreationTime": ["090327.798000", "090327.801000", "090327.804000", "090327.806000", "090327.809000", "090327.812000", "090327.814000", "090327.817000", "090327.820000", "090327.822000", "090327.825000", "090327.828000", "090327.830000", "090327.833000", "090327.835000", "090327.838000", "090327.840000", "090327.843000", "090327.846000", "090327.848000", "090327.851000", "090407.794000", "090407.797000", "090407.799000", "090407.802000", "090407.804000", "090407.807000", "090407.809000", "090407.812000", "090407.815000", "090407.817000", "090407.820000", "090407.823000", "090407.825000", "090407.828000", "090407.835000", "090407.838000", "090407.841000", "090407.843000", "090407.846000", "090407.848000", "090447.792000", "090447.795000", "090447.798000", "090447.801000", "090447.803000", "090447.806000", "090447.808000", "090447.811000", "090447.814000", "090447.816000", "090447.819000", "090447.822000", "090447.824000", "090447.827000", "090447.829000", "090447.832000", "090447.835000", "090447.837000", "090447.840000", "090447.842000", "090527.793000", "090527.796000", "090527.798000", "090527.801000", "090527.804000", "090527.814000", "090527.817000", "090527.819000", "090527.822000", "090527.825000", "090527.827000", "090527.830000", "090527.832000", "090527.835000", "090527.838000", "090527.840000", "090527.843000", "090527.845000", "090527.848000", "090527.850000", "090607.793000", "090607.795000", "090607.798000", "090607.801000", "090607.803000", "090607.806000", "090607.808000", "090607.811000", "090607.814000", "090607.816000", "090607.819000", "090607.822000", "090607.824000", "090607.827000", "090607.829000", "090607.832000", "090607.834000", "090607.837000", "090607.840000", "090607.842000", "090647.793000", "090647.796000", "090647.799000", "090647.802000", "090647.804000", "090647.807000", "090647.809000", "090647.812000", "090647.814000", "090647.817000", "090647.834000", "090647.837000", "090647.839000", "090647.842000", "090647.845000", "090647.847000", "090647.850000", "090647.852000", "090647.855000", "090647.857000", "090727.793000", "090727.795000", "090727.798000", "090727.801000", "090727.803000", "090727.806000", "090727.808000", "090727.811000", "090727.820000", "090727.823000", "090727.826000", "090727.828000", "090727.831000", "090727.833000", "090727.836000", "090727.839000", "090727.841000", "090727.844000", "090727.846000", "090727.849000", "090807.793000", "090807.796000", "090807.798000", "090807.801000", "090807.804000", "090807.806000", "090807.809000", "090807.812000", "090807.814000", "090807.817000", "090807.820000", "090807.822000", "090807.825000", "090807.828000", "090807.830000", "090807.833000", "090807.836000", "090807.838000", "090807.841000", "090807.843000", "090847.794000", "090847.797000", "090847.799000", "090847.802000", "090847.804000", "090847.807000", "090847.810000", "090847.812000", "090847.815000", "090847.817000", "090847.820000", "090847.823000", "090847.825000", "090847.828000", "090847.830000", "090847.840000", "090847.843000", "090847.845000", "090847.848000", "090847.851000", "090924.014000", "090924.016000", "090924.019000", "090924.022000", "090924.025000", "090924.027000", "090924.030000", "090924.032000", "090924.035000", "090924.038000", "090924.040000", "090924.045000", "090924.049000", "090924.053000", "090924.056000", "090924.058000", "090924.062000", "090924.065000", "090924.068000"],
      "InstanceNumber": [1, 2, 3, 4, 5, 6, 7, 8, 9, 10, 11, 12, 13, 14, 15, 16, 17, 18, 19, 20, 21, 22, 23, 24, 25, 26, 27, 28, 29, 30, 31, 32, 33, 34, 35, 36, 37, 38, 39, 40, 41, 42, 43, 44, 45, 46, 47, 48, 49, 50, 51, 52, 53, 54, 55, 56, 57, 58, 59, 60, 61, 62, 63, 64, 65, 66, 67, 68, 69, 70, 71, 72, 73, 74, 75, 76, 77, 78, 79, 80, 81, 82, 83, 84, 85, 86, 87, 88, 89, 90, 91, 92, 93, 94, 95, 96, 97, 98, 99, 100, 101, 102, 103, 104, 105, 106, 107, 108, 109, 110, 111, 112, 113, 114, 115, 116, 117, 118, 119, 120, 121, 122, 123, 124, 125, 126, 127, 128, 129, 130, 131, 132, 133, 134, 135, 136, 137, 138, 139, 140, 141, 142, 143, 144, 145, 146, 147, 148, 149, 150, 151, 152, 153, 154, 155, 156, 157, 158, 159, 160, 161, 162, 163, 164, 165, 166, 167, 168, 169, 170, 171, 172, 173, 174, 175, 176, 177, 178, 179, 180, 181, 182, 183, 184, 185, 186, 187, 188, 189, 190, 191, 192, 193, 194, 195, 196, 197, 198, 199, 200],
      "LargestImagePixelValue": [2142, 2136, 2136, 2145, 2136, 2139, 2137, 2134, 2137, 2143, 2137, 2143, 2137, 2133, 2140, 2134, 2134, 2137, 2136, 2139, 2137, 2133, 2141, 2136, 2131, 2140, 2133, 2137, 2133, 2131, 2129, 2141, 2139, 2135, 2134, 2132, 2137, 2141, 2142, 2136, 2136, 2137, 2136, 2136, 2138, 2139, 2137, 2145, 2140, 2145, 2133, 2132, 2138, 2139, 2134, 2134, 2134, 2140, 2136, 2136, 2139, 2135, 2141, 2136, 2141, 2140, 2134, 2136, 2141, 2136, 2134, 2137, 2135, 2140, 2135, 2138, 2134, 2134, 2140, 2144, 2137, 2138, 2134, 2141, 2136, 2141, 2144, 2135, 2134, 2136, 2142, 2134, 2138, 2137, 2137, 2140, 2140, 2140, 2141, 2132, 2137, 2138, 2140, 2138, 2142, 2143, 2139, 2141, 2134, 2135, 2141, 2145, 2134, 2133, 2141, 2139, 2134, 2138, 2134, 2141, 2139, 2131, 2141, 2140, 2139, 2136, 2134, 2134, 2135, 2138, 2140, 2138, 2135, 2139, 2141, 2136, 2131, 2141, 2143, 2136, 2141, 2135, 2134, 2136, 2142, 2136, 2140, 2131, 2137, 2139, 2129, 2138, 2146, 2138, 2143, 2131, 2138, 2136, 2138, 2135, 2137, 2137, 2135, 2136, 2138, 2136, 2143, 2135, 2136, 2137, 2135, 2142, 2135, 2137, 2139, 2142, 2141, 2139, 2139, 2137, 2144, 2138, 2132, 2134, 2140, 2143, 2134, 2145, 2138, 2137, 2139, 2132, 2139, 2141, 2133, 2132, 2136, 2144, 2133, 2136],
      "WindowCenter": [1013.0, 1013.0, 1013.0, 1013.0, 1012.0, 1013.0, 1013.0, 1013.0, 1012.0, 1013.0, 1013.0, 1013.0, 1013.0, 1012.0, 1012.0, 1012.0, 1013.0, 1013.0, 1013.0, 1013.0, 1013.0, 1013.0, 1013.0, 1012.0, 1012.0, 1012.0, 1012.0, 1013.0, 1014.0, 1012.0, 1013.0, 1012.0, 1012.0, 1012.0, 1013.0, 1012.0, 1012.0, 1012.0, 1012.0, 1012.0, 1013.0, 1012.0, 1013.0, 1013.0, 1012.0, 1013.0, 1012.0, 1013.0, 1012.0, 1012.0, 1013.0, 1012.0, 1012.0, 1012.0, 1012.0, 1012.0, 1013.0, 1012.0, 1012.0, 1012.0, 1013.0, 1012.0, 1012.0, 1012.0, 1012.0, 1012.0, 1012.0, 1012.0, 1012.0, 1012.0, 1012.0, 1012.0, 1012.0, 1013.0, 1013.0, 1012.0, 1012.0, 1013.0, 1012.0, 1012.0, 1012.0, 1012.0, 1012.0, 1012.0, 1012.0, 1012.0, 1012.0, 1013.0, 1013.0, 1012.0, 1012.0, 1013.0, 1012.0, 1012.0, 1012.0, 1012.0, 1012.0, 1012.0, 1012.0, 1012.0, 1012.0, 1013.0, 1012.0, 1013.0, 1012.0, 1012.0, 1013.0, 1012.0, 1012.0, 1012.0, 1012.0, 1012.0, 1012.0, 1013.0, 1012.0, 1012.0, 1012.0, 1012.0, 1012.0, 1012.0, 1012.0, 1012.0, 1012.0, 1012.0, 1012.0, 1012.0, 1012.0, 1012.0, 1012.0, 1013.0, 1012.0, 1012.0, 1012.0, 1013.0, 1012.0, 1012.0, 1012.0, 1012.0, 1012.0, 1012.0, 1012.0, 1012.0, 1012.0, 1012.0, 1012.0, 1012.0, 1012.0, 1012.0, 1012.0, 1012.0, 1012.0, 1013.0, 1012.0, 1012.0, 1013.0, 1012.0, 1012.0, 1012.0, 1013.0, 1012.0, 1012.0, 1012.0, 1012.0, 1012.0, 1012.0, 1012.0, 1012.0, 1012.0, 1012.0, 1012.0, 1013.0, 1012.0, 1012.0, 1012.0, 1012.0, 1013.0, 1012.0, 1013.0, 1012.0, 1012.0, 1012.0, 1012.0, 1012.0, 1012.0, 1012.0, 1013.0, 1012.0, 1012.0, 1013.0, 1012.0, 1013.0, 1012.0, 1012.0, 1012.0, 1013.0, 1012.0, 1012.0, 1012.0, 1012.0, 1012.0],
      "WindowWidth": [2240.0, 2239.0, 2239.0, 2239.0, 2240.0, 2239.0, 2240.0, 2239.0, 2240.0, 2239.0, 2239.0, 2240.0, 2240.0, 2240.0, 2240.0, 2239.0, 2239.0, 2239.0, 2239.0, 2239.0, 2239.0, 2239.0, 2240.0, 2239.0, 2239.0, 2239.0, 2239.0, 2239.0, 2241.0, 2240.0, 2240.0, 2239.0, 2239.0, 2239.0, 2240.0, 2240.0, 2239.0, 2239.0, 2239.0, 2239.0, 2240.0, 2239.0, 2239.0, 2239.0, 2240.0, 2240.0, 2239.0, 2240.0, 2239.0, 2239.0, 2240.0, 2239.0, 2239.0, 2240.0, 2239.0, 2239.0, 2240.0, 2239.0, 2240.0, 2239.0, 2240.0, 2239.0, 2240.0, 2239.0, 2239.0, 2239.0, 2239.0, 2240.0, 2239.0, 2240.0, 2239.0, 2239.0, 2240.0, 2240.0, 2240.0, 2239.0, 2240.0, 2240.0, 2240.0, 2240.0, 2240.0, 2240.0, 2239.0, 2239.0, 2240.0, 2239.0, 2240.0, 2240.0, 2240.0, 2240.0, 2239.0, 2240.0, 2239.0, 2239.0, 2239.0, 2239.0, 2239.0, 2239.0, 2240.0, 2239.0, 2239.0, 2240.0, 2239.0, 2240.0, 2239.0, 2239.0, 2240.0, 2239.0, 2239.0, 2239.0, 2240.0, 2240.0, 2240.0, 2240.0, 2239.0, 2240.0, 2239.0, 2239.0, 2239.0, 2239.0, 2239.0, 2239.0, 2239.0, 2239.0, 2239.0, 2239.0, 2240.0, 2239.0, 2240.0, 2240.0, 2240.0, 2240.0, 2239.0, 2240.0, 2240.0, 2239.0, 2239.0, 2239.0, 2239.0, 2239.0, 2239.0, 2239.0, 2239.0, 2239.0, 2239.0, 2239.0, 2239.0, 2239.0, 2239.0, 2239.0, 2239.0, 2240.0, 2239.0, 2239.0, 2240.0, 2239.0, 2239.0, 2239.0, 2239.0, 2239.0, 2239.0, 2239.0, 2239.0, 2239.0, 2239.0, 2239.0, 2239.0, 2239.0, 2239.0, 2239.0, 2240.0, 2239.0, 2239.0, 2239.0, 2239.0, 2240.0, 2239.0, 2240.0, 2239.0, 2239.0, 2239.0, 2239.0, 2239.0, 2239.0, 2239.0, 2240.0, 2239.0, 2239.0, 2240.0, 2239.0, 2240.0, 2239.0, 2239.0, 2239.0, 2240.0, 2239.0, 2239.0, 2239.0, 2239.0, 2239.0]
    },
    "slices": {}
  }
}