{
  "AcquisitionMatrixPE": 80,
  "AcquisitionNumber": 1,
  "AcquisitionTime": "09:50:22.040000",
  "BandwidthPerPixelPhaseEncode": 48.077,
  "BaseResolution": 80,
  "BodyPartExamined": "BRAIN",
  "CoilCombinationMethod": "Sum of Squares",
  "ConsistencyInfo": "N4_VE11E_LATEST_20181129",
  "ConversionSoftware": "dcm2niix",
  "ConversionSoftwareVersion": "v1.0.20220720",
  "DerivedVendorReportedEchoSpacing": 0.000519999,
  "DeviceSerialNumber": "66112",
  "DwellTime": 2.7e-06,
  "EchoTime": 0.035,
  "EchoTrainLength": 39,
  "EffectiveEchoSpacing": 0.00026,
  "FlipAngle": 90,
  "HeudiconvVersion": "0.13.1",
  "ImageOrientationPatientDICOM": [0.992098, -0.125377, 0.00473608, 0.117247, 0.93988, 0.320746],
  "ImageOrientationText": "Tra>Cor(18.5)>Sag(2.6)",
  "ImageType": [
    "ORIGINAL",
    "PRIMARY",
    "M",
    "ND",
    "NORM",
    "MOSAIC"
],
  "ImagingFrequency": 123.259,
  "InPlanePhaseEncodingDirectionDICOM": "COL",
  "InstitutionAddress": "Maynard 3,Hanover,NH,US,03755",
  "InstitutionName": "Dartmouth College - PBS",
  "InstitutionalDepartmentName": "Department",
  "MRAcquisitionType": "2D",
  "MagneticFieldStrength": 3,
  "Manufacturer": "Siemens",
  "ManufacturersModelName": "Prisma",
  "MatrixCoilMode": "GRAPPA",
  "Modality": "MR",
  "NonlinearGradientCorrection": false,
  "ParallelReductionFactorInPlane": 2,
  "PartialFourier": 1,
  "PatientPosition": "HFS",
  "PercentPhaseFOV": 100,
  "PercentSampling": 100,
  "PhaseEncodingDirection": "j-",
  "PhaseEncodingSteps": 79,
  "PhaseResolution": 1,
  "PixelBandwidth": 2315,
  "ProcedureStepDescription": "dbic^QA",
  "ProtocolName": "func-bold_task-rest_acq-p2",
  "PulseSequenceDetails": "%SiemensSeq%\\ep2d_bold",
  "ReceiveCoilActiveElements": "HEA;HEP",
  "ReceiveCoilName": "Head_32",
  "ReconMatrixPE": 80,
  "RefLinesPE": 24,
  "RepetitionTime": 2,
  "SAR": 0.071617,
  "ScanOptions": "FS",
  "ScanningSequence": "EP",
  "SequenceName": "*epfid2d1_80",
  "SequenceVariant": "SK",
  "SeriesDescription": "func-bold_task-rest_acq-p2",
  "SeriesNumber": 5,
  "ShimSetting": [4219, -7748, -7490, -28, -136, -3, 25, 73],
  "SliceThickness": 3.5,
  "SliceTiming": [0.99, 0, 1.0575, 0.0675, 1.1225, 0.1325, 1.1875, 0.1975, 1.255, 0.265, 1.32, 0.33, 1.3875, 0.3975, 1.4525, 0.4625, 1.5175, 0.5275, 1.585, 0.595, 1.65, 0.66, 1.715, 0.7275, 1.7825, 0.7925, 1.8475, 0.8575, 1.915, 0.925],
  "SoftwareVersions": "syngo MR E11",
  "SpacingBetweenSlices": 3.99,
  "StationName": "AWP66112",
  "TaskName": "rest",
  "TotalReadoutTime": 0.02054,
  "TxRefAmp": 224.636,
  "dcmmeta_affine": [
    [-2.9762935638427734, 0.3517407774925232, 0.17821547389030457, 102.82047271728516],
    [0.3761313557624817, 2.819641351699829, 1.2674472332000732, -147.4094696044922],
    [0.014208230189979076, -0.9622374773025513, 3.779142379760742, -13.727170944213867],
    [0.0, 0.0, 0.0, 1.0]
],
  "dcmmeta_reorient_transform": [
    [0.0, -1.0, 0.0, 79.0],
    [1.0, 0.0, 0.0, 0.0],
    [0.0, 0.0, 1.0, 0.0],
    [0.0, 0.0, 0.0, 1.0]
],
  "dcmmeta_shape": [80, 80, 30, 200],
  "dcmmeta_slice_dim": 2,
  "dcmmeta_version": 0.6,
  "global": {
    "const": {
      "AccessionNumber": "qa",
      "AcquisitionMatrix": [80, 0, 0, 80],
      "AngioFlag": "N",
      "BitsAllocated": 16,
      "BitsStored": 12,
      "BodyPartExamined": "BRAIN",
      "Columns": 480,
      "EchoNumbers": 1,
      "EchoTime": 35.0,
      "EchoTrainLength": 39,
      "FlipAngle": 90.0,
      "HighBit": 11,
      "ImageOrientationPatient": [0.99209785225021, -0.1253771156821, 0.00473607683009, 0.11724692636515, 0.93988045642077, 0.32074582755854],
      "ImagePositionPatient": [-796.21485864505, -564.04421006509, -285.03307498061],
      "ImageType": [
        "ORIGINAL",
        "PRIMARY",
        "M",
        "ND",
        "NORM",
        "MOSAIC"
],
      "ImagedNucleus": "1H",
      "ImagingFrequency": 123.259227,
      "InPlanePhaseEncodingDirection": "COL",
      "MRAcquisitionType": "2D",
      "MagneticFieldStrength": 3.0,
      "Manufacturer": "SIEMENS",
      "ManufacturerModelName": "Prisma",
      "Modality": "MR",
      "NumberOfAverages": 1.0,
      "NumberOfPhaseEncodingSteps": 79,
      "PercentPhaseFieldOfView": 100.0,
      "PercentSampling": 100.0,
      "PerformedProcedureStepStartTime": "093912.127000",
      "PhotometricInterpretation": "MONOCHROME2",
      "PixelBandwidth": 2315.0,
      "PixelRepresentation": 0,
      "PixelSpacing": [3.0, 3.0],
      "ProtocolName": "func-bold_task-rest_acq-p2",
      "RepetitionTime": 2000.0,
      "Rows": 480,
      "SAR": 0.07161699105523,
      "SamplesPerPixel": 1,
      "ScanOptions": "FS",
      "ScanningSequence": "EP",
      "SequenceName": "*epfid2d1_80",
      "SequenceVariant": "SK",
      "SeriesDescription": "func-bold_task-rest_acq-p2",
      "SeriesNumber": 5,
      "SeriesTime": "095106.845000",
      "SliceLocation": -55.23470047071,
      "SliceThickness": 3.5,
      "SmallestImagePixelValue": 0,
      "SoftwareVersions": "syngo MR E11",
      "SpacingBetweenSlices": 3.9900000089794,
      "SpecificCharacterSet": "ISO_IR 100",
      "StudyID": "28",
      "StudyTime": "093912.051000",
      "TransmitCoilName": "Body",
      "VariableFlipAngleFlag": "N",
      "WindowCenterWidthExplanation": "Algo1"
    },
    "slices": {}
  },
  "time": {
    "samples": {
      "AcquisitionNumber": [1, 2, 3, 4, 5, 6, 7, 8, 9, 10, 11, 12, 13, 14, 15, 16, 17, 18, 19, 20, 21, 22, 23, 24, 25, 26, 27, 28, 29, 30, 31, 32, 33, 34, 35, 36, 37, 38, 39, 40, 41, 42, 43, 44, 45, 46, 47, 48, 49, 50, 51, 52, 53, 54, 55, 56, 57, 58, 59, 60, 61, 62, 63, 64, 65, 66, 67, 68, 69, 70, 71, 72, 73, 74, 75, 76, 77, 78, 79, 80, 81, 82, 83, 84, 85, 86, 87, 88, 89, 90, 91, 92, 93, 94, 95, 96, 97, 98, 99, 100, 101, 102, 103, 104, 105, 106, 107, 108, 109, 110, 111, 112, 113, 114, 115, 116, 117, 118, 119, 120, 121, 122, 123, 124, 125, 126, 127, 128, 129, 130, 131, 132, 133, 134, 135, 136, 137, 138, 139, 140, 141, 142, 143, 144, 145, 146, 147, 148, 149, 150, 151, 152, 153, 154, 155, 156, 157, 158, 159, 160, 161, 162, 163, 164, 165, 166, 167, 168, 169, 170, 171, 172, 173, 174, 175, 176, 177, 178, 179, 180, 181, 182, 183, 184, 185, 186, 187, 188, 189, 190, 191, 192, 193, 194, 195, 196, 197, 198, 199, 200],
      "AcquisitionTime": ["095022.040000", "095024.040000", "095026.040000", "095028.040000", "095030.040000", "095032.040000", "095034.040000", "095036.040000", "095038.040000", "095040.040000", "095042.040000", "095044.040000", "095046.040000", "095048.040000", "095050.040000", "095052.040000", "095054.040000", "095056.040000", "095058.040000", "095100.040000", "095102.040000", "095104.040000", "095106.040000", "095108.040000", "095110.040000", "095112.040000", "095114.040000", "095116.040000", "095118.040000", "095120.040000", "095122.040000", "095124.040000", "095126.040000", "095128.040000", "095130.040000", "095132.040000", "095134.040000", "095136.040000", "095138.040000", "095140.040000", "095142.040000", "095144.040000", "095146.040000", "095148.040000", "095150.040000", "095152.040000", "095154.040000", "095156.040000", "095158.040000", "095200.040000", "095202.040000", "095204.040000", "095206.040000", "095208.040000", "095210.040000", "095212.040000", "095214.040000", "095216.040000", "095218.040000", "095220.040000", "095222.040000", "095224.040000", "095226.040000", "095228.040000", "095230.040000", "095232.040000", "095234.040000", "095236.040000", "095238.040000", "095240.040000", "095242.040000", "095244.040000", "095246.040000", "095248.040000", "095250.040000", "095252.040000", "095254.040000", "095256.040000", "095258.040000", "095300.040000", "095302.040000", "095304.040000", "095306.040000", "095308.040000", "095310.040000", "095312.040000", "095314.040000", "095316.040000", "095318.040000", "095320.040000", "095322.040000", "095324.040000", "095326.040000", "095328.040000", "095330.040000", "095332.040000", "095334.040000", "095336.040000", "095338.040000", "095340.040000", "095342.040000", "095344.040000", "095346.040000", "095348.040000", "095350.040000", "095352.040000", "095354.040000", "095356.040000", "095358.040000", "095400.040000", "095402.040000", "095404.040000", "095406.040000", "095408.040000", "095410.040000", "095412.040000", "095414.040000", "095416.040000", "095418.040000", "095420.040000", "095422.040000", "095424.040000", "095426.040000", "095428.040000", "095430.040000", "095432.040000", "095434.040000", "095436.040000", "095438.040000", "095440.040000", "095442.040000", "095444.040000", "095446.040000", "095448.040000", "095450.040000", "095452.040000", "095454.040000", "095456.040000", "095458.040000", "095500.040000", "095502.040000", "095504.040000", "095506.040000", "095508.040000", "095510.040000", "095512.040000", "095514.040000", "095516.040000", "095518.040000", "095520.040000", "095522.040000", "095524.040000", "095526.040000", "095528.040000", "095530.040000", "095532.040000", "095534.040000", "095536.040000", "095538.040000", "095540.040000", "095542.040000", "095544.040000", "095546.040000", "095548.040000", "095550.040000", "095552.040000", "095554.040000", "095556.040000", "095558.040000", "095600.040000", "095602.040000", "095604.040000", "095606.040000", "095608.040000", "095610.040000", "095612.040000", "095614.040000", "095616.040000", "095618.040000", "095620.040000", "095622.040000", "095624.040000", "095626.040000", "095628.040000", "095630.040000", "095632.040000", "095634.040000", "095636.040000", "095638.040000", "095640.040000", "095642.040000", "095644.040000", "095646.040000", "095648.040000", "095650.040000", "095652.040000", "095654.040000", "095656.040000", "095658.040000", "095700.040000"],
      "ContentTime": ["095106.848000", "095106.852000", "095106.854000", "095106.856000", "095106.859000", "095106.869000", "095106.871000", "095106.874000", "095106.876000", "095106.879000", "095106.881000", "095106.883000", "095106.886000", "095106.888000", "095106.890000", "095106.892000", "095106.895000", "095106.902000", "095106.905000", "095106.907000", "095106.909000", "095106.912000", "095146.843000", "095146.846000", "095146.848000", "095146.850000", "095146.853000", "095146.855000", "095146.857000", "095146.859000", "095146.862000", "095146.864000", "095146.866000", "095146.869000", "095146.871000", "095146.873000", "095146.876000", "095146.878000", "095146.880000", "095146.883000", "095146.885000", "095146.887000", "095226.842000", "095226.851000", "095226.853000", "095226.855000", "095226.858000", "095226.860000", "095226.862000", "095226.865000", "095226.867000", "095226.870000", "095226.872000", "095226.874000", "095226.876000", "095226.879000", "095226.881000", "095226.884000", "095226.886000", "095226.888000", "095226.891000", "095226.893000", "095306.843000", "095306.846000", "095306.848000", "095306.851000", "095306.853000", "095306.855000", "095306.858000", "095306.860000", "095306.862000", "095306.865000", "095306.867000", "095306.869000", "095306.871000", "095306.874000", "095306.876000", "095306.878000", "095306.881000", "095306.883000", "095306.885000", "095306.888000", "095346.843000", "095346.846000", "095346.848000", "095346.850000", "095346.853000", "095346.855000", "095346.857000", "095346.860000", "095346.862000", "095346.864000", "095346.867000", "095346.869000", "095346.871000", "095346.873000", "095346.876000", "095346.878000", "095346.880000", "095346.883000", "095346.885000", "095346.887000", "095406.843000", "095406.846000", "095406.848000", "095406.850000", "095406.853000", "095406.855000", "095406.857000", "095406.866000", "095406.868000", "095406.871000", "095446.842000", "095446.845000", "095446.847000", "095446.849000", "095446.853000", "095446.855000", "095446.857000", "095446.860000", "095446.862000", "095446.864000", "095446.866000", "095446.869000", "095446.871000", "095446.873000", "095446.884000", "095446.886000", "095446.889000", "095446.891000", "095446.893000", "095446.895000", "095526.843000", "095526.846000", "095526.848000", "095526.850000", "095526.853000", "095526.855000", "095526.857000", "095526.859000", "095526.862000", "095526.864000", "095526.866000", "095526.869000", "095526.871000", "095526.873000", "095526.876000", "095526.878000", "095526.880000", "095526.882000", "095526.885000", "095526.887000", "095606.843000", "095606.846000", "095606.848000", "095606.850000", "095606.853000", "095606.855000", "095606.857000", "095606.860000", "095606.862000", "095606.864000", "095606.867000", "095606.869000", "095606.871000", "095606.874000", "095606.876000", "095606.878000", "095606.881000", "095606.883000", "095606.885000", "095606.887000", "095646.843000", "095646.846000", "095646.848000", "095646.850000", "095646.853000", "095646.855000", "095646.857000", "095646.860000", "095646.862000", "095646.864000", "095646.867000", "095646.869000", "095646.871000", "095646.873000", "095646.876000", "095646.878000", "095646.880000", "095646.883000", "095646.885000", "095646.887000", "095701.096000", "095701.098000", "095701.101000", "095701.103000", "095701.105000", "095701.108000", "095701.110000", "095701.112000"],
      "InstanceCreationTime": ["095106.848000", "095106.852000", "095106.854000", "095106.856000", "095106.859000", "095106.869000", "095106.871000", "095106.874000", "095106.876000", "095106.879000", "095106.881000", "095106.883000", "095106.886000", "095106.888000", "095106.890000", "095106.892000", "095106.895000", "095106.902000", "095106.905000", "095106.907000", "095106.909000", "095106.912000", "095146.843000", "095146.846000", "095146.848000", "095146.850000", "095146.853000", "095146.855000", "095146.857000", "095146.859000", "095146.862000", "095146.864000", "095146.866000", "095146.869000", "095146.871000", "095146.873000", "095146.876000", "095146.878000", "095146.880000", "095146.883000", "095146.885000", "095146.887000", "095226.842000", "095226.851000", "095226.853000", "095226.855000", "095226.858000", "095226.860000", "095226.862000", "095226.865000", "095226.867000", "095226.870000", "095226.872000", "095226.874000", "095226.876000", "095226.879000", "095226.881000", "095226.884000", "095226.886000", "095226.888000", "095226.891000", "095226.893000", "095306.843000", "095306.846000", "095306.848000", "095306.851000", "095306.853000", "095306.855000", "095306.858000", "095306.860000", "095306.862000", "095306.865000", "095306.867000", "095306.869000", "095306.871000", "095306.874000", "095306.876000", "095306.878000", "095306.881000", "095306.883000", "095306.885000", "095306.888000", "095346.843000", "095346.846000", "095346.848000", "095346.850000", "095346.853000", "095346.855000", "095346.857000", "095346.860000", "095346.862000", "095346.864000", "095346.867000", "095346.869000", "095346.871000", "095346.873000", "095346.876000", "095346.878000", "095346.880000", "095346.883000", "095346.885000", "095346.887000", "095406.843000", "095406.846000", "095406.848000", "095406.850000", "095406.853000", "095406.855000", "095406.857000", "095406.866000", "095406.868000", "095406.871000", "095446.842000", "095446.845000", "095446.847000", "095446.849000", "095446.853000", "095446.855000", "095446.857000", "095446.860000", "095446.862000", "095446.864000", "095446.866000", "095446.869000", "095446.871000", "095446.873000", "095446.884000", "095446.886000", "095446.889000", "095446.891000", "095446.893000", "095446.895000", "095526.843000", "095526.846000", "095526.848000", "095526.850000", "095526.853000", "095526.855000", "095526.857000", "095526.859000", "095526.862000", "095526.864000", "095526.866000", "095526.869000", "095526.871000", "095526.873000", "095526.876000", "095526.878000", "095526.880000", "095526.882000", "095526.885000", "095526.887000", "095606.843000", "095606.846000", "095606.848000", "095606.850000", "095606.853000", "095606.855000", "095606.857000", "095606.860000", "095606.862000", "095606.864000", "095606.867000", "095606.869000", "095606.871000", "095606.874000", "095606.876000", "095606.878000", "095606.881000", "095606.883000", "095606.885000", "095606.887000", "095646.843000", "095646.846000", "095646.848000", "095646.850000", "095646.853000", "095646.855000", "095646.857000", "095646.860000", "095646.862000", "095646.864000", "095646.867000", "095646.869000", "095646.871000", "095646.873000", "095646.876000", "095646.878000", "095646.880000", "095646.883000", "095646.885000", "095646.887000", "095701.096000", "095701.098000", "095701.101000", "095701.103000", "095701.105000", "095701.108000", "095701.110000", "095701.112000"],
      "InstanceNumber": [1, 2, 3, 4, 5, 6, 7, 8, 9, 10, 11, 12, 13, 14, 15, 16, 17, 18, 19, 20, 21, 22, 23, 24, 25, 26, 27, 28, 29, 30, 31, 32, 33, 34, 35, 36, 37, 38, 39, 40, 41, 42, 43, 44, 45, 46, 47, 48, 49, 50, 51, 52, 53, 54, 55, 56, 57, 58, 59, 60, 61, 62, 63, 64, 65, 66, 67, 68, 69, 70, 71, 72, 73, 74, 75, 76, 77, 78, 79, 80, 81, 82, 83, 84, 85, 86, 87, 88, 89, 90, 91, 92, 93, 94, 95, 96, 97, 98, 99, 100, 101, 102, 103, 104, 105, 106, 107, 108, 109, 110, 111, 112, 113, 114, 115, 116, 117, 118, 119, 120, 121, 122, 123, 124, 125, 126, 127, 128, 129, 130, 131, 132, 133, 134, 135, 136, 137, 138, 139, 140, 141, 142, 143, 144, 145, 146, 147, 148, 149, 150, 151, 152, 153, 154, 155, 156, 157, 158, 159, 160, 161, 162, 163, 164, 165, 166, 167, 168, 169, 170, 171, 172, 173, 174, 175, 176, 177, 178, 179, 180, 181, 182, 183, 184, 185, 186, 187, 188, 189, 190, 191, 192, 193, 194, 195, 196, 197, 198, 199, 200],
      "LargestImagePixelValue": [2266, 2269, 2269, 2265, 2266, 2263, 2266, 2264, 2264, 2269, 2268, 2266, 2269, 2267, 2260, 2266, 2271, 2265, 2270, 2265, 2266, 2265, 2263, 2264, 2264, 2268, 2263, 2265, 2264, 2269, 2267, 2264, 2264, 2267, 2268, 2260, 2266, 2268, 2264, 2261, 2270, 2265, 2265, 2268, 2264, 2266, 2266, 2262, 2267, 2265, 2270, 2268, 2266, 2267, 2267, 2263, 2265, 2266, 2266, 2266, 2263, 2266, 2264, 2263, 2267, 2263, 2263, 2263, 2267, 2263, 2265, 2262, 2265, 2267, 2268, 2266, 2268, 2266, 2267, 2265, 2262, 2263, 2268, 2262, 2267, 2259, 2268, 2266, 2266, 2261, 2265, 2262, 2268, 2265, 2265, 2263, 2266, 2265, 2262, 2263, 2264, 2264, 2262, 2265, 2267, 2267, 2262, 2262, 2266, 2262, 2262, 2265, 2259, 2263, 2265, 2263, 2266, 2258, 2266, 2263, 2261, 2267, 2264, 2260, 2267, 2263, 2263, 2263, 2265, 2262, 2261, 2260, 2266, 2263, 2266, 2265, 2266, 2264, 2264, 2259, 2266, 2258, 2264, 2264, 2260, 2264, 2264, 2265, 2258, 2264, 2267, 2260, 2261, 2265, 2262, 2261, 2267, 2259, 2265, 2256, 2262, 2262, 2262, 2264, 2263, 2260, 2263, 2264, 2263, 2260, 2262, 2266, 2263, 2267, 2266, 2261, 2263, 2265, 2263, 2263, 2259, 2263, 2263, 2264, 2265, 2265, 2265, 2264, 2268, 2266, 2262, 2261, 2260, 2261, 2264, 2267, 2260, 2261, 2263, 2264],
      "WindowCenter": [1046.0, 1046.0, 1046.0, 1046.0, 1046.0, 1046.0, 1046.0, 1046.0, 1046.0, 1046.0, 1046.0, 1046.0, 1046.0, 1046.0, 1046.0, 1046.0, 1046.0, 1046.0, 1046.0, 1046.0, 1046.0, 1046.0, 1046.0, 1046.0, 1046.0, 1046.0, 1046.0, 1046.0, 1046.0, 1046.0, 1046.0, 1046.0, 1046.0, 1046.0, 1046.0, 1046.0, 1046.0, 1046.0, 1046.0, 1046.0, 1046.0, 1046.0, 1045.0, 1046.0, 1045.0, 1046.0, 1045.0, 1046.0, 1046.0, 1046.0, 1046.0, 1046.0, 1046.0, 1046.0, 1046.0, 1046.0, 1046.0, 1046.0, 1045.0, 1045.0, 1046.0, 1046.0, 1046.0, 1045.0, 1045.0, 1046.0, 1046.0, 1045.0, 1045.0, 1045.0, 1045.0, 1045.0, 1045.0, 1045.0, 1045.0, 1045.0, 1045.0, 1045.0, 1045.0, 1046.0, 1045.0, 1045.0, 1045.0, 1046.0, 1045.0, 1045.0, 1045.0, 1045.0, 1045.0, 1045.0, 1045.0, 1045.0, 1045.0, 1045.0, 1045.0, 1045.0, 1045.0, 1045.0, 1045.0, 1045.0, 1045.0, 1045.0, 1045.0, 1045.0, 1045.0, 1045.0, 1045.0, 1045.0, 1045.0, 1045.0, 1045.0, 1045.0, 1045.0, 1045.0, 1045.0, 1045.0, 1045.0, 1045.0, 1045.0, 1045.0, 1045.0, 1045.0, 1045.0, 1045.0, 1045.0, 1045.0, 1045.0, 1045.0, 1045.0, 1045.0, 1045.0, 1045.0, 1045.0, 1045.0, 1045.0, 1045.0, 1045.0, 1045.0, 1045.0, 1045.0, 1045.0, 1045.0, 1045.0, 1045.0, 1045.0, 1045.0, 1045.0, 1045.0, 1045.0, 1045.0, 1045.0, 1045.0, 1045.0, 1045.0, 1045.0, 1045.0, 1045.0, 1045.0, 1045.0, 1045.0, 1045.0, 1045.0, 1045.0, 1045.0, 1045.0, 1045.0, 1045.0, 1045.0, 1045.0, 1045.0, 1045.0, 1045.0, 1045.0, 1045.0, 1045.0, 1045.0, 1045.0, 1045.0, 1045.0, 1045.0, 1045.0, 1045.0, 1045.0, 1045.0, 1045.0, 1045.0, 1045.0, 1045.0, 1045.0, 1045.0, 1045.0, 1045.0, 1045.0, 1045.0, 1045.0, 1045.0, 1045.0, 1045.0, 1045.0, 1045.0],
      "WindowWidth": [2340.0, 2339.0, 2339.0, 2339.0, 2339.0, 2339.0, 2339.0, 2339.0, 2339.0, 2339.0, 2339.0, 2339.0, 2339.0, 2339.0, 2339.0, 2339.0, 2339.0, 2339.0, 2339.0, 2339.0, 2339.0, 2339.0, 2339.0, 2339.0, 2339.0, 2339.0, 2339.0, 2339.0, 2339.0, 2339.0, 2339.0, 2339.0, 2339.0, 2339.0, 2339.0, 2339.0, 2339.0, 2339.0, 2339.0, 2339.0, 2339.0, 2339.0, 2339.0, 2339.0, 2339.0, 2339.0, 2339.0, 2339.0, 2339.0, 2339.0, 2339.0, 2339.0, 2339.0, 2339.0, 2339.0, 2339.0, 2339.0, 2339.0, 2339.0, 2339.0, 2339.0, 2339.0, 2339.0, 2339.0, 2339.0, 2339.0, 2339.0, 2339.0, 2339.0, 2339.0, 2339.0, 2339.0, 2339.0, 2339.0, 2339.0, 2339.0, 2339.0, 2339.0, 2339.0, 2338.0, 2338.0, 2338.0, 2339.0, 2338.0, 2339.0, 2338.0, 2338.0, 2339.0, 2339.0, 2339.0, 2338.0, 2338.0, 2339.0, 2338.0, 2339.0, 2338.0, 2339.0, 2338.0, 2339.0, 2339.0, 2339.0, 2338.0, 2338.0, 2338.0, 2339.0, 2339.0, 2339.0, 2338.0, 2339.0, 2338.0, 2339.0, 2338.0, 2338.0, 2339.0, 2338.0, 2338.0, 2338.0, 2338.0, 2338.0, 2338.0, 2338.0, 2338.0, 2339.0, 2339.0, 2338.0, 2338.0, 2338.0, 2338.0, 2338.0, 2339.0, 2339.0, 2338.0, 2338.0, 2338.0, 2338.0, 2338.0, 2338.0, 2338.0, 2339.0, 2338.0, 2338.0, 2338.0, 2338.0, 2338.0, 2338.0, 2338.0, 2338.0, 2338.0, 2338.0, 2338.0, 2338.0, 2338.0, 2338.0, 2338.0, 2338.0, 2338.0, 2338.0, 2338.0, 2338.0, 2338.0, 2338.0, 2338.0, 2338.0, 2338.0, 2338.0, 2338.0, 2338.0, 2338.0, 2338.0, 2338.0, 2338.0, 2338.0, 2338.0, 2338.0, 2338.0, 2337.0, 2337.0, 2338.0, 2338.0, 2338.0, 2338.0, 2337.0, 2338.0, 2338.0, 2338.0, 2338.0, 2338.0, 2338.0, 2337.0, 2338.0, 2338.0, 2337.0, 2338.0, 2338.0, 2337.0, 2338.0, 2338.0, 2338.0, 2338.0, 2337.0]
    },
    "slices": {}
  }
}