{
  "AcquisitionMatrixPE": 80,
  "AcquisitionNumber": 1,
  "AcquisitionTime": "10:04:2.402500",
  "BandwidthPerPixelPhaseEncode": 25,
  "BaseResolution": 80,
  "BodyPartExamined": "BRAIN",
  "CoilCombinationMethod": "Sum of Squares",
  "ConsistencyInfo": "N4_VE11E_LATEST_20181129",
  "ConversionSoftware": "dcm2niix",
  "ConversionSoftwareVersion": "v1.0.20220720",
  "DerivedVendorReportedEchoSpacing": 0.0005,
  "DeviceSerialNumber": "66112",
  "DwellTime": 2.7e-06,
  "EchoTime": 0.03,
  "EchoTrainLength": 80,
  "EffectiveEchoSpacing": 0.0005,
  "FlipAngle": 77,
  "HeudiconvVersion": "0.13.1",
  "ImageOrientationPatientDICOM": [0.992098, -0.125377, 0.00473608, 0.117247, 0.93988, 0.320746],
  "ImageOrientationText": "Tra>Cor(18.5)>Sag(2.6)",
  "ImageType": [
    "ORIGINAL",
    "PRIMARY",
    "M",
    "ND",
    "NORM",
    "MOSAIC"
],
  "ImagingFrequency": 123.259,
  "InPlanePhaseEncodingDirectionDICOM": "COL",
  "InstitutionAddress": "Maynard 3,Hanover,NH,US,03755",
  "InstitutionName": "Dartmouth College - PBS",
  "InstitutionalDepartmentName": "Department",
  "MRAcquisitionType": "2D",
  "MagneticFieldStrength": 3,
  "Manufacturer": "Siemens",
  "ManufacturersModelName": "Prisma",
  "MatrixCoilMode": "SENSE",
  "Modality": "MR",
  "NonlinearGradientCorrection": false,
  "PartialFourier": 1,
  "PatientPosition": "HFS",
  "PercentPhaseFOV": 100,
  "PercentSampling": 100,
  "PhaseEncodingDirection": "j-",
  "PhaseEncodingSteps": 80,
  "PhaseResolution": 1,
  "PixelBandwidth": 2315,
  "ProcedureStepDescription": "dbic^QA",
  "ProtocolName": "func-bold_fa-77",
  "PulseSequenceDetails": "%SiemensSeq%\\ep2d_bold",
  "ReceiveCoilActiveElements": "HEA;HEP",
  "ReceiveCoilName": "Head_32",
  "ReconMatrixPE": 80,
  "RepetitionTime": 2,
  "SAR": 0.0562802,
  "ScanOptions": "FS",
  "ScanningSequence": "EP",
  "SequenceName": "*epfid2d1_80",
  "SequenceVariant": "SK",
  "SeriesDescription": "func-bold_fa-77",
  "SeriesNumber": 7,
  "ShimSetting": [4219, -7748, -7490, -30, -136, 0, 26, 73],
  "SliceThickness": 3.5,
  "SliceTiming": [0.99, 0, 1.055, 0.065, 1.12, 0.13, 1.1875, 0.1975, 1.2525, 0.2625, 1.32, 0.33, 1.385, 0.395, 1.45, 0.46, 1.5175, 0.5275, 1.5825, 0.5925, 1.65, 0.66, 1.715, 0.725, 1.78, 0.79, 1.8475, 0.8575, 1.9125, 0.9225],
  "SoftwareVersions": "syngo MR E11",
  "SpacingBetweenSlices": 3.99,
  "StationName": "AWP66112",
  "TotalReadoutTime": 0.0395,
  "TxRefAmp": 224.636,
  "dcmmeta_affine": [
    [-2.9762935638427734, 0.3517407774925232, 0.17821547389030457, 103.5068359375],
    [0.3761313557624817, 2.819641351699829, 1.2674472332000732, -141.98812866210938],
    [0.014208230189979076, -0.9622374773025513, 3.779142379760742, -13.543134689331055],
    [0.0, 0.0, 0.0, 1.0]
],
  "dcmmeta_reorient_transform": [
    [0.0, -1.0, 0.0, 79.0],
    [1.0, 0.0, 0.0, 0.0],
    [0.0, 0.0, 1.0, 0.0],
    [0.0, 0.0, 0.0, 1.0]
],
  "dcmmeta_shape": [80, 80, 30, 200],
  "dcmmeta_slice_dim": 2,
  "dcmmeta_version": 0.6,
  "global": {
    "const": {
      "AccessionNumber": "qa",
      "AcquisitionMatrix": [80, 0, 0, 80],
      "AngioFlag": "N",
      "BitsAllocated": 16,
      "BitsStored": 12,
      "BodyPartExamined": "BRAIN",
      "Columns": 480,
      "EchoNumbers": 1,
      "EchoTime": 30.0,
      "EchoTrainLength": 80,
      "FlipAngle": 77.0,
      "HighBit": 11,
      "ImageOrientationPatient": [0.99209785225021, -0.1253771156821, 0.00473607683009, 0.11724692636515, 0.93988045642077, 0.32074582755854],
      "ImagePositionPatient": [-796.90122448787, -569.46554337808, -284.84903872573],
      "ImageType": [
        "ORIGINAL",
        "PRIMARY",
        "M",
        "ND",
        "NORM",
        "MOSAIC"
],
      "ImagedNucleus": "1H",
      "ImagingFrequency": 123.259226,
      "InPlanePhaseEncodingDirection": "COL",
      "MRAcquisitionType": "2D",
      "MagneticFieldStrength": 3.0,
      "Manufacturer": "SIEMENS",
      "ManufacturerModelName": "Prisma",
      "Modality": "MR",
      "NumberOfAverages": 1.0,
      "NumberOfPhaseEncodingSteps": 80,
      "PercentPhaseFieldOfView": 100.0,
      "PercentSampling": 100.0,
      "PerformedProcedureStepStartTime": "093912.127000",
      "PhotometricInterpretation": "MONOCHROME2",
      "PixelBandwidth": 2315.0,
      "PixelRepresentation": 0,
      "PixelSpacing": [3.0, 3.0],
      "ProtocolName": "func-bold_fa-77",
      "RepetitionTime": 2000.0,
      "Rows": 480,
      "SAR": 0.05628020786987,
      "SamplesPerPixel": 1,
      "ScanOptions": "FS",
      "ScanningSequence": "EP",
      "SequenceName": "*epfid2d1_80",
      "SequenceVariant": "SK",
      "SeriesDescription": "func-bold_fa-77",
      "SeriesNumber": 7,
      "SeriesTime": "100446.760000",
      "SliceLocation": -53.307614181063,
      "SliceThickness": 3.5,
      "SmallestImagePixelValue": 0,
      "SoftwareVersions": "syngo MR E11",
      "SpacingBetweenSlices": 3.9900000089794,
      "SpecificCharacterSet": "ISO_IR 100",
      "StudyID": "28",
      "StudyTime": "093912.051000",
      "TransmitCoilName": "Body",
      "VariableFlipAngleFlag": "N",
      "WindowCenterWidthExplanation": "Algo1"
    },
    "slices": {}
  },
  "time": {
    "samples": {
      "AcquisitionNumber": [1, 2, 3, 4, 5, 6, 7, 8, 9, 10, 11, 12, 13, 14, 15, 16, 17, 18, 19, 20, 21, 22, 23, 24, 25, 26, 27, 28, 29, 30, 31, 32, 33, 34, 35, 36, 37, 38, 39, 40, 41, 42, 43, 44, 45, 46, 47, 48, 49, 50, 51, 52, 53, 54, 55, 56, 57, 58, 59, 60, 61, 62, 63, 64, 65, 66, 67, 68, 69, 70, 71, 72, 73, 74, 75, 76, 77, 78, 79, 80, 81, 82, 83, 84, 85, 86, 87, 88, 89, 90, 91, 92, 93, 94, 95, 96, 97, 98, 99, 100, 101, 102, 103, 104, 105, 106, 107, 108, 109, 110, 111, 112, 113, 114, 115, 116, 117, 118, 119, 120, 121, 122, 123, 124, 125, 126, 127, 128, 129, 130, 131, 132, 133, 134, 135, 136, 137, 138, 139, 140, 141, 142, 143, 144, 145, 146, 147, 148, 149, 150, 151, 152, 153, 154, 155, 156, 157, 158, 159, 160, 161, 162, 163, 164, 165, 166, 167, 168, 169, 170, 171, 172, 173, 174, 175, 176, 177, 178, 179, 180, 181, 182, 183, 184, 185, 186, 187, 188, 189, 190, 191, 192, 193, 194, 195, 196, 197, 198, 199, 200],
      "AcquisitionTime": ["100402.402500", "100404.402500", "100406.402500", "100408.402500", "100410.402500", "100412.402500", "100414.402500", "100416.402500", "100418.402500", "100420.402500", "100422.402500", "100424.402500", "100426.402500", "100428.402500", "100430.402500", "100432.402500", "100434.402500", "100436.402500", "100438.402500", "100440.402500", "100442.402500", "100444.402500", "100446.402500", "100448.402500", "100450.402500", "100452.402500", "100454.402500", "100456.402500", "100458.402500", "100500.402500", "100502.402500", "100504.402500", "100506.402500", "100508.402500", "100510.402500", "100512.402500", "100514.402500", "100516.402500", "100518.402500", "100520.402500", "100522.402500", "100524.402500", "100526.402500", "100528.402500", "100530.402500", "100532.402500", "100534.402500", "100536.402500", "100538.402500", "100540.402500", "100542.402500", "100544.402500", "100546.402500", "100548.402500", "100550.402500", "100552.402500", "100554.402500", "100556.402500", "100558.402500", "100600.402500", "100602.402500", "100604.402500", "100606.402500", "100608.402500", "100610.402500", "100612.402500", "100614.402500", "100616.402500", "100618.402500", "100620.402500", "100622.402500", "100624.402500", "100626.402500", "100628.402500", "100630.402500", "100632.402500", "100634.402500", "100636.402500", "100638.402500", "100640.402500", "100642.402500", "100644.402500", "100646.402500", "100648.402500", "100650.402500", "100652.402500", "100654.402500", "100656.402500", "100658.402500", "100700.402500", "100702.402500", "100704.402500", "100706.402500", "100708.402500", "100710.402500", "100712.402500", "100714.402500", "100716.402500", "100718.402500", "100720.402500", "100722.402500", "100724.402500", "100726.402500", "100728.402500", "100730.402500", "100732.402500", "100734.402500", "100736.402500", "100738.402500", "100740.402500", "100742.402500", "100744.402500", "100746.402500", "100748.402500", "100750.402500", "100752.402500", "100754.402500", "100756.402500", "100758.402500", "100800.402500", "100802.402500", "100804.402500", "100806.402500", "100808.402500", "100810.402500", "100812.402500", "100814.402500", "100816.402500", "100818.402500", "100820.402500", "100822.402500", "100824.402500", "100826.402500", "100828.402500", "100830.402500", "100832.402500", "100834.402500", "100836.402500", "100838.402500", "100840.402500", "100842.402500", "100844.402500", "100846.402500", "100848.402500", "100850.402500", "100852.402500", "100854.402500", "100856.402500", "100858.402500", "100900.402500", "100902.402500", "100904.402500", "100906.402500", "100908.402500", "100910.402500", "100912.402500", "100914.402500", "100916.402500", "100918.402500", "100920.402500", "100922.402500", "100924.402500", "100926.402500", "100928.402500", "100930.402500", "100932.402500", "100934.402500", "100936.402500", "100938.402500", "100940.402500", "100942.402500", "100944.402500", "100946.402500", "100948.402500", "100950.402500", "100952.402500", "100954.402500", "100956.402500", "100958.402500", "101000.402500", "101002.402500", "101004.402500", "101006.402500", "101008.402500", "101010.402500", "101012.402500", "101014.402500", "101016.402500", "101018.402500", "101020.402500", "101022.402500", "101024.402500", "101026.402500", "101028.402500", "101030.402500", "101032.402500", "101034.402500", "101036.402500", "101038.402500", "101040.402500"],
      "ContentTime": ["100446.763000", "100446.766000", "100446.768000", "100446.770000", "100446.778000", "100446.780000", "100446.785000", "100446.787000", "100446.789000", "100446.791000", "100446.794000", "100446.796000", "100446.798000", "100446.802000", "100446.804000", "100446.809000", "100446.811000", "100446.813000", "100446.815000", "100446.818000", "100446.820000", "100446.833000", "100526.758000", "100526.772000", "100526.774000", "100526.776000", "100526.778000", "100526.781000", "100526.783000", "100526.785000", "100526.792000", "100526.794000", "100526.797000", "100526.799000", "100526.801000", "100526.804000", "100526.806000", "100526.808000", "100526.811000", "100526.813000", "100526.822000", "100526.824000", "100606.758000", "100606.761000", "100606.763000", "100606.765000", "100606.768000", "100606.770000", "100606.781000", "100606.783000", "100606.785000", "100606.787000", "100606.790000", "100606.792000", "100606.794000", "100606.796000", "100606.799000", "100606.801000", "100606.803000", "100606.805000", "100606.808000", "100606.810000", "100646.758000", "100646.761000", "100646.763000", "100646.765000", "100646.767000", "100646.770000", "100646.772000", "100646.774000", "100646.777000", "100646.779000", "100646.781000", "100646.784000", "100646.786000", "100646.788000", "100646.791000", "100646.793000", "100646.795000", "100646.797000", "100646.800000", "100646.802000", "100726.758000", "100726.761000", "100726.763000", "100726.765000", "100726.767000", "100726.770000", "100726.772000", "100726.774000", "100726.776000", "100726.779000", "100726.781000", "100726.783000", "100726.786000", "100726.788000", "100726.790000", "100726.792000", "100726.795000", "100726.797000", "100726.799000", "100726.801000", "100806.758000", "100806.761000", "100806.763000", "100806.765000", "100806.768000", "100806.770000", "100806.777000", "100806.779000", "100806.781000", "100806.784000", "100806.786000", "100806.788000", "100806.791000", "100806.793000", "100806.795000", "100806.797000", "100806.800000", "100806.802000", "100806.804000", "100806.806000", "100846.758000", "100846.761000", "100846.763000", "100846.765000", "100846.767000", "100846.770000", "100846.772000", "100846.774000", "100846.777000", "100846.779000", "100846.781000", "100846.783000", "100846.786000", "100846.788000", "100846.790000", "100846.792000", "100846.795000", "100846.797000", "100846.799000", "100846.802000", "100926.759000", "100926.761000", "100926.763000", "100926.766000", "100926.768000", "100926.770000", "100926.772000", "100926.775000", "100926.777000", "100926.779000", "100926.782000", "100926.784000", "100926.786000", "100926.789000", "100926.791000", "100926.793000", "100926.795000", "100926.798000", "100926.800000", "100926.802000", "101006.758000", "101006.761000", "101006.763000", "101006.765000", "101006.768000", "101006.770000", "101006.772000", "101006.774000", "101006.777000", "101006.779000", "101006.785000", "101006.787000", "101006.789000", "101006.792000", "101006.794000", "101006.796000", "101006.799000", "101006.801000", "101006.803000", "101006.805000", "101042.420000", "101042.423000", "101042.425000", "101042.428000", "101042.430000", "101042.432000", "101042.435000", "101042.437000", "101042.440000", "101042.442000", "101042.445000", "101042.447000", "101042.449000", "101042.451000", "101042.454000", "101042.456000", "101042.458000", "101042.461000"],
      "InstanceCreationTime": ["100446.763000", "100446.766000", "100446.768000", "100446.770000", "100446.778000", "100446.780000", "100446.785000", "100446.787000", "100446.789000", "100446.791000", "100446.794000", "100446.796000", "100446.798000", "100446.802000", "100446.804000", "100446.809000", "100446.811000", "100446.813000", "100446.815000", "100446.818000", "100446.820000", "100446.833000", "100526.758000", "100526.772000", "100526.774000", "100526.776000", "100526.778000", "100526.781000", "100526.783000", "100526.785000", "100526.792000", "100526.794000", "100526.797000", "100526.799000", "100526.801000", "100526.804000", "100526.806000", "100526.808000", "100526.811000", "100526.813000", "100526.822000", "100526.824000", "100606.758000", "100606.761000", "100606.763000", "100606.765000", "100606.768000", "100606.770000", "100606.781000", "100606.783000", "100606.785000", "100606.787000", "100606.790000", "100606.792000", "100606.794000", "100606.796000", "100606.799000", "100606.801000", "100606.803000", "100606.805000", "100606.808000", "100606.810000", "100646.758000", "100646.761000", "100646.763000", "100646.765000", "100646.767000", "100646.770000", "100646.772000", "100646.774000", "100646.777000", "100646.779000", "100646.781000", "100646.784000", "100646.786000", "100646.788000", "100646.791000", "100646.793000", "100646.795000", "100646.797000", "100646.800000", "100646.802000", "100726.758000", "100726.761000", "100726.763000", "100726.765000", "100726.767000", "100726.770000", "100726.772000", "100726.774000", "100726.776000", "100726.779000", "100726.781000", "100726.783000", "100726.786000", "100726.788000", "100726.790000", "100726.792000", "100726.795000", "100726.797000", "100726.799000", "100726.801000", "100806.758000", "100806.761000", "100806.763000", "100806.765000", "100806.768000", "100806.770000", "100806.777000", "100806.779000", "100806.781000", "100806.784000", "100806.786000", "100806.788000", "100806.791000", "100806.793000", "100806.795000", "100806.797000", "100806.800000", "100806.802000", "100806.804000", "100806.806000", "100846.758000", "100846.761000", "100846.763000", "100846.765000", "100846.767000", "100846.770000", "100846.772000", "100846.774000", "100846.777000", "100846.779000", "100846.781000", "100846.783000", "100846.786000", "100846.788000", "100846.790000", "100846.792000", "100846.795000", "100846.797000", "100846.799000", "100846.802000", "100926.759000", "100926.761000", "100926.763000", "100926.766000", "100926.768000", "100926.770000", "100926.772000", "100926.775000", "100926.777000", "100926.779000", "100926.782000", "100926.784000", "100926.786000", "100926.789000", "100926.791000", "100926.793000", "100926.795000", "100926.798000", "100926.800000", "100926.802000", "101006.758000", "101006.761000", "101006.763000", "101006.765000", "101006.768000", "101006.770000", "101006.772000", "101006.774000", "101006.777000", "101006.779000", "101006.785000", "101006.787000", "101006.789000", "101006.792000", "101006.794000", "101006.796000", "101006.799000", "101006.801000", "101006.803000", "101006.805000", "101042.420000", "101042.423000", "101042.425000", "101042.428000", "101042.430000", "101042.432000", "101042.435000", "101042.437000", "101042.440000", "101042.442000", "101042.445000", "101042.447000", "101042.449000", "101042.451000", "101042.454000", "101042.456000", "101042.458000", "101042.461000"],
      "InstanceNumber": [1, 2, 3, 4, 5, 6, 7, 8, 9, 10, 11, 12, 13, 14, 15, 16, 17, 18, 19, 20, 21, 22, 23, 24, 25, 26, 27, 28, 29, 30, 31, 32, 33, 34, 35, 36, 37, 38, 39, 40, 41, 42, 43, 44, 45, 46, 47, 48, 49, 50, 51, 52, 53, 54, 55, 56, 57, 58, 59, 60, 61, 62, 63, 64, 65, 66, 67, 68, 69, 70, 71, 72, 73, 74, 75, 76, 77, 78, 79, 80, 81, 82, 83, 84, 85, 86, 87, 88, 89, 90, 91, 92, 93, 94, 95, 96, 97, 98, 99, 100, 101, 102, 103, 104, 105, 106, 107, 108, 109, 110, 111, 112, 113, 114, 115, 116, 117, 118, 119, 120, 121, 122, 123, 124, 125, 126, 127, 128, 129, 130, 131, 132, 133, 134, 135, 136, 137, 138, 139, 140, 141, 142, 143, 144, 145, 146, 147, 148, 149, 150, 151, 152, 153, 154, 155, 156, 157, 158, 159, 160, 161, 162, 163, 164, 165, 166, 167, 168, 169, 170, 171, 172, 173, 174, 175, 176, 177, 178, 179, 180, 181, 182, 183, 184, 185, 186, 187, 188, 189, 190, 191, 192, 193, 194, 195, 196, 197, 198, 199, 200],
      "LargestImagePixelValue": [2266, 2266, 2265, 2268, 2266, 2267, 2266, 2266, 2264, 2266, 2265, 2262, 2265, 2263, 2265, 2265, 2266, 2265, 2265, 2266, 2265, 2267, 2265, 2265, 2266, 2266, 2266, 2266, 2263, 2265, 2263, 2266, 2265, 2265, 2264, 2267, 2266, 2264, 2265, 2266, 2264, 2266, 2266, 2262, 2267, 2263, 2264, 2265, 2263, 2266, 2264, 2264, 2264, 2264, 2264, 2266, 2264, 2265, 2266, 2264, 2264, 2266, 2267, 2266, 2267, 2267, 2266, 2263, 2265, 2264, 2264, 2265, 2264, 2266, 2264, 2265, 2268, 2265, 2265, 2265, 2265, 2264, 2266, 2264, 2263, 2267, 2264, 2265, 2266, 2263, 2265, 2265, 2265, 2266, 2264, 2265, 2266, 2267, 2264, 2264, 2264, 2265, 2263, 2263, 2263, 2261, 2260, 2262, 2264, 2260, 2262, 2262, 2265, 2262, 2263, 2262, 2263, 2262, 2262, 2263, 2262, 2262, 2264, 2261, 2263, 2263, 2264, 2264, 2262, 2263, 2263, 2265, 2263, 2264, 2263, 2262, 2262, 2264, 2263, 2262, 2261, 2262, 2264, 2262, 2263, 2264, 2263, 2262, 2263, 2263, 2262, 2261, 2261, 2262, 2262, 2264, 2261, 2261, 2261, 2263, 2264, 2262, 2262, 2263, 2264, 2259, 2259, 2262, 2262, 2261, 2261, 2262, 2263, 2262, 2261, 2261, 2263, 2264, 2265, 2265, 2262, 2259, 2260, 2262, 2263, 2261, 2260, 2262, 2261, 2258, 2261, 2262, 2261, 2259, 2262, 2263, 2264, 2265, 2263, 2265],
      "WindowCenter": [1029.0, 1029.0, 1030.0, 1031.0, 1029.0, 1029.0, 1030.0, 1030.0, 1029.0, 1029.0, 1029.0, 1029.0, 1030.0, 1030.0, 1030.0, 1029.0, 1029.0, 1029.0, 1029.0, 1029.0, 1030.0, 1029.0, 1031.0, 1030.0, 1029.0, 1029.0, 1029.0, 1029.0, 1029.0, 1029.0, 1030.0, 1029.0, 1029.0, 1031.0, 1029.0, 1029.0, 1030.0, 1030.0, 1029.0, 1029.0, 1030.0, 1030.0, 1029.0, 1029.0, 1029.0, 1029.0, 1031.0, 1029.0, 1029.0, 1030.0, 1029.0, 1030.0, 1029.0, 1029.0, 1031.0, 1029.0, 1029.0, 1029.0, 1030.0, 1029.0, 1029.0, 1029.0, 1029.0, 1029.0, 1029.0, 1029.0, 1030.0, 1029.0, 1029.0, 1029.0, 1029.0, 1030.0, 1030.0, 1029.0, 1030.0, 1029.0, 1029.0, 1029.0, 1029.0, 1030.0, 1030.0, 1029.0, 1029.0, 1029.0, 1029.0, 1029.0, 1029.0, 1028.0, 1029.0, 1028.0, 1029.0, 1028.0, 1029.0, 1028.0, 1029.0, 1028.0, 1028.0, 1028.0, 1028.0, 1028.0, 1028.0, 1028.0, 1028.0, 1028.0, 1028.0, 1028.0, 1029.0, 1028.0, 1029.0, 1028.0, 1029.0, 1029.0, 1029.0, 1028.0, 1028.0, 1029.0, 1028.0, 1028.0, 1028.0, 1028.0, 1029.0, 1028.0, 1029.0, 1028.0, 1028.0, 1028.0, 1028.0, 1028.0, 1028.0, 1028.0, 1028.0, 1028.0, 1028.0, 1028.0, 1029.0, 1028.0, 1029.0, 1028.0, 1029.0, 1028.0, 1028.0, 1028.0, 1028.0, 1029.0, 1028.0, 1028.0, 1028.0, 1028.0, 1029.0, 1028.0, 1030.0, 1029.0, 1028.0, 1028.0, 1028.0, 1028.0, 1028.0, 1028.0, 1029.0, 1028.0, 1028.0, 1029.0, 1030.0, 1028.0, 1028.0, 1028.0, 1028.0, 1028.0, 1028.0, 1028.0, 1029.0, 1028.0, 1028.0, 1028.0, 1028.0, 1028.0, 1029.0, 1028.0, 1028.0, 1029.0, 1028.0, 1029.0, 1028.0, 1028.0, 1029.0, 1028.0, 1029.0, 1028.0, 1028.0, 1029.0, 1028.0, 1028.0, 1028.0, 1029.0, 1028.0, 1028.0, 1029.0, 1029.0, 1029.0, 1028.0],
      "WindowWidth": [2312.0, 2312.0, 2313.0, 2314.0, 2312.0, 2312.0, 2313.0, 2313.0, 2312.0, 2312.0, 2312.0, 2312.0, 2313.0, 2313.0, 2313.0, 2312.0, 2312.0, 2312.0, 2312.0, 2312.0, 2313.0, 2312.0, 2314.0, 2313.0, 2312.0, 2312.0, 2312.0, 2312.0, 2312.0, 2312.0, 2313.0, 2312.0, 2312.0, 2313.0, 2312.0, 2311.0, 2312.0, 2313.0, 2312.0, 2312.0, 2313.0, 2312.0, 2311.0, 2312.0, 2312.0, 2312.0, 2313.0, 2311.0, 2311.0, 2312.0, 2312.0, 2312.0, 2311.0, 2311.0, 2313.0, 2311.0, 2311.0, 2312.0, 2312.0, 2311.0, 2311.0, 2311.0, 2311.0, 2311.0, 2311.0, 2311.0, 2312.0, 2311.0, 2311.0, 2311.0, 2311.0, 2311.0, 2312.0, 2311.0, 2312.0, 2311.0, 2311.0, 2311.0, 2311.0, 2311.0, 2311.0, 2311.0, 2311.0, 2311.0, 2311.0, 2311.0, 2311.0, 2311.0, 2311.0, 2311.0, 2311.0, 2311.0, 2311.0, 2311.0, 2311.0, 2311.0, 2311.0, 2311.0, 2311.0, 2311.0, 2310.0, 2311.0, 2310.0, 2311.0, 2310.0, 2310.0, 2311.0, 2310.0, 2311.0, 2310.0, 2311.0, 2311.0, 2311.0, 2310.0, 2310.0, 2311.0, 2310.0, 2310.0, 2310.0, 2310.0, 2311.0, 2310.0, 2311.0, 2310.0, 2310.0, 2310.0, 2310.0, 2310.0, 2310.0, 2310.0, 2310.0, 2310.0, 2310.0, 2310.0, 2310.0, 2310.0, 2310.0, 2310.0, 2311.0, 2310.0, 2310.0, 2310.0, 2309.0, 2310.0, 2310.0, 2310.0, 2310.0, 2310.0, 2310.0, 2309.0, 2311.0, 2310.0, 2310.0, 2310.0, 2310.0, 2310.0, 2309.0, 2310.0, 2310.0, 2309.0, 2309.0, 2310.0, 2311.0, 2309.0, 2309.0, 2309.0, 2309.0, 2309.0, 2309.0, 2309.0, 2310.0, 2309.0, 2309.0, 2309.0, 2309.0, 2309.0, 2310.0, 2309.0, 2309.0, 2310.0, 2309.0, 2310.0, 2309.0, 2309.0, 2310.0, 2309.0, 2310.0, 2309.0, 2309.0, 2310.0, 2309.0, 2309.0, 2309.0, 2310.0, 2309.0, 2309.0, 2310.0, 2310.0, 2310.0, 2309.0]
    },
    "slices": {}
  }
}