{
  "AcquisitionMatrixPE": 80,
  "AcquisitionNumber": 1,
  "AcquisitionTime": "09:53:20.075000",
  "BandwidthPerPixelPhaseEncode": 46.296,
  "BaseResolution": 80,
  "BodyPartExamined": "BRAIN",
  "CoilCombinationMethod": "Sum of Squares",
  "ConsistencyInfo": "N4_VE11E_LATEST_20181129",
  "ConversionSoftware": "dcm2niix",
  "ConversionSoftwareVersion": "v1.0.20220720",
  "DerivedVendorReportedEchoSpacing": 0.000540003,
  "DeviceSerialNumber": "66112",
  "DwellTime": 2.7e-06,
  "EchoTime": 0.035,
  "EchoTrainLength": 39,
  "EffectiveEchoSpacing": 0.000270002,
  "FlipAngle": 90,
  "HeudiconvVersion": "0.13.1",
  "ImageOrientationPatientDICOM": [0.974967, 0.221795, 0.0156592, -0.215431, 0.924865, 0.313391],
  "ImageOrientationText": "Tra>Cor(18.0)>Sag(-3.2)",
  "ImageType": [
    "ORIGINAL",
    "PRIMARY",
    "M",
    "ND",
    "NORM",
    "MOSAIC"
],
  "ImagingFrequency": 123.259,
  "InPlanePhaseEncodingDirectionDICOM": "COL",
  "InstitutionAddress": "Maynard 3,Hanover,NH,US,03755",
  "InstitutionName": "Dartmouth College - PBS",
  "InstitutionalDepartmentName": "Department",
  "MRAcquisitionType": "2D",
  "MagneticFieldStrength": 3,
  "Manufacturer": "Siemens",
  "ManufacturersModelName": "Prisma",
  "Modality": "MR",
  "MultibandAccelerationFactor": 4,
  "NonlinearGradientCorrection": false,
  "ParallelReductionFactorInPlane": 2,
  "PartialFourier": 1,
  "PatientPosition": "HFS",
  "PercentPhaseFOV": 100,
  "PercentSampling": 100,
  "PhaseEncodingDirection": "j-",
  "PhaseEncodingSteps": 79,
  "PhaseResolution": 1,
  "PixelBandwidth": 2315,
  "ProcedureStepDescription": "dbic^QA",
  "ProtocolName": "func-bold_task-rest_acq-p2-s4-3.5mm",
  "PulseSequenceDetails": "%SiemensSeq%\\ep2d_bold",
  "ReceiveCoilActiveElements": "HEA;HEP",
  "ReceiveCoilName": "Head_32",
  "ReconMatrixPE": 80,
  "RefLinesPE": 24,
  "RepetitionTime": 2,
  "SAR": 0.0224074,
  "ScanOptions": "FS",
  "ScanningSequence": "EP",
  "SequenceName": "*epfid2d1_80",
  "SequenceVariant": "SK",
  "SeriesDescription": "func-bold_task-rest_acq-p2-s4-3.5mm",
  "SeriesNumber": 7,
  "ShimSetting": [4223, -7732, -7474, -31, -137, 43, -61, 69],
  "SliceThickness": 3.5,
  "SliceTiming": [1.485, 0, 0.99, 0.2475, 1.2375, 0.7425, 1.7325, 0.495, 1.485, 0, 0.99, 0.2475, 1.2375, 0.7425, 1.7325, 0.495, 1.485, 0, 0.99, 0.2475, 1.2375, 0.7425, 1.7325, 0.495, 1.485, 0, 0.99, 0.2475, 1.2375, 0.7425, 1.7325, 0.495],
  "SoftwareVersions": "syngo MR E11",
  "SpacingBetweenSlices": 3.99,
  "StationName": "AWP66112",
  "TaskName": "rest",
  "TotalReadoutTime": 0.0213301,
  "TxRefAmp": 228.101,
  "dcmmeta_affine": [
    [-2.9249024391174316, -0.6462931632995605, -0.21955421566963196, 148.55543518066406],
    [-0.6653862595558167, 2.774595260620117, 1.2325897216796875, -88.60942077636719],
    [0.04697750136256218, -0.9401736855506897, 3.788485050201416, -16.182180404663086],
    [0.0, 0.0, 0.0, 1.0]
],
  "dcmmeta_reorient_transform": [
    [0.0, -1.0, 0.0, 79.0],
    [1.0, 0.0, 0.0, 0.0],
    [0.0, 0.0, 1.0, 0.0],
    [0.0, 0.0, 0.0, 1.0]
],
  "dcmmeta_shape": [80, 80, 32, 200],
  "dcmmeta_slice_dim": 2,
  "dcmmeta_version": 0.6,
  "global": {
    "const": {
      "AccessionNumber": "qa",
      "AcquisitionMatrix": [80, 0, 0, 80],
      "AngioFlag": "N",
      "BitsAllocated": 16,
      "BitsStored": 12,
      "BodyPartExamined": "BRAIN",
      "Columns": 480,
      "EchoNumbers": 1,
      "EchoTime": 35.0,
      "EchoTrainLength": 39,
      "FlipAngle": 90.0,
      "HighBit": 11,
      "ImageOrientationPatient": [0.97496747866536, 0.22179541478016, 0.01565916751941, -0.2154310603583, 0.92486507125578, 0.31339122228289],
      "ImagePositionPatient": [-553.22012828942, -818.57989109044, -287.88613310517],
      "ImageType": [
        "ORIGINAL",
        "PRIMARY",
        "M",
        "ND",
        "NORM",
        "MOSAIC"
],
      "ImagedNucleus": "1H",
      "ImagingFrequency": 123.259269,
      "InPlanePhaseEncodingDirection": "COL",
      "MRAcquisitionType": "2D",
      "MagneticFieldStrength": 3.0,
      "Manufacturer": "SIEMENS",
      "ManufacturerModelName": "Prisma",
      "Modality": "MR",
      "NumberOfAverages": 1.0,
      "NumberOfPhaseEncodingSteps": 79,
      "PercentPhaseFieldOfView": 100.0,
      "PercentSampling": 100.0,
      "PerformedProcedureStepStartTime": "093548.249000",
      "PhotometricInterpretation": "MONOCHROME2",
      "PixelBandwidth": 2315.0,
      "PixelRepresentation": 0,
      "PixelSpacing": [3.0, 3.0],
      "ProtocolName": "func-bold_task-rest_acq-p2-s4-3.5mm",
      "RepetitionTime": 2000.0,
      "Rows": 480,
      "SAR": 0.02240744615669,
      "SamplesPerPixel": 1,
      "ScanOptions": "FS",
      "ScanningSequence": "EP",
      "SequenceName": "*epfid2d1_80",
      "SequenceVariant": "SK",
      "SeriesDescription": "func-bold_task-rest_acq-p2-s4-3.5mm",
      "SeriesNumber": 7,
      "SeriesTime": "095409.832000",
      "SliceLocation": -50.912525663305,
      "SliceThickness": 3.5,
      "SmallestImagePixelValue": 0,
      "SoftwareVersions": "syngo MR E11",
      "SpacingBetweenSlices": 3.9900000068119,
      "SpecificCharacterSet": "ISO_IR 100",
      "StudyID": "16",
      "StudyTime": "093548.163000",
      "TransmitCoilName": "Body",
      "VariableFlipAngleFlag": "N",
      "WindowCenterWidthExplanation": "Algo1"
    },
    "slices": {}
  },
  "time": {
    "samples": {
      "AcquisitionNumber": [1, 2, 3, 4, 5, 6, 7, 8, 9, 10, 11, 12, 13, 14, 15, 16, 17, 18, 19, 20, 21, 22, 23, 24, 25, 26, 27, 28, 29, 30, 31, 32, 33, 34, 35, 36, 37, 38, 39, 40, 41, 42, 43, 44, 45, 46, 47, 48, 49, 50, 51, 52, 53, 54, 55, 56, 57, 58, 59, 60, 61, 62, 63, 64, 65, 66, 67, 68, 69, 70, 71, 72, 73, 74, 75, 76, 77, 78, 79, 80, 81, 82, 83, 84, 85, 86, 87, 88, 89, 90, 91, 92, 93, 94, 95, 96, 97, 98, 99, 100, 101, 102, 103, 104, 105, 106, 107, 108, 109, 110, 111, 112, 113, 114, 115, 116, 117, 118, 119, 120, 121, 122, 123, 124, 125, 126, 127, 128, 129, 130, 131, 132, 133, 134, 135, 136, 137, 138, 139, 140, 141, 142, 143, 144, 145, 146, 147, 148, 149, 150, 151, 152, 153, 154, 155, 156, 157, 158, 159, 160, 161, 162, 163, 164, 165, 166, 167, 168, 169, 170, 171, 172, 173, 174, 175, 176, 177, 178, 179, 180, 181, 182, 183, 184, 185, 186, 187, 188, 189, 190, 191, 192, 193, 194, 195, 196, 197, 198, 199, 200],
      "AcquisitionTime": ["095320.075000", "095322.075000", "095324.075000", "095326.075000", "095328.075000", "095330.075000", "095332.075000", "095334.075000", "095336.075000", "095338.075000", "095340.075000", "095342.075000", "095344.075000", "095346.075000", "095348.075000", "095350.075000", "095352.075000", "095354.075000", "095356.075000", "095358.075000", "095400.075000", "095402.075000", "095404.075000", "095406.075000", "095408.075000", "095410.075000", "095412.075000", "095414.075000", "095416.075000", "095418.075000", "095420.075000", "095422.075000", "095424.075000", "095426.075000", "095428.075000", "095430.075000", "095432.075000", "095434.075000", "095436.075000", "095438.075000", "095440.075000", "095442.075000", "095444.075000", "095446.075000", "095448.075000", "095450.075000", "095452.075000", "095454.075000", "095456.075000", "095458.075000", "095500.075000", "095502.075000", "095504.075000", "095506.075000", "095508.075000", "095510.075000", "095512.075000", "095514.075000", "095516.075000", "095518.075000", "095520.075000", "095522.075000", "095524.075000", "095526.075000", "095528.075000", "095530.075000", "095532.075000", "095534.075000", "095536.075000", "095538.075000", "095540.075000", "095542.075000", "095544.075000", "095546.075000", "095548.075000", "095550.075000", "095552.075000", "095554.075000", "095556.075000", "095558.075000", "095600.075000", "095602.075000", "095604.075000", "095606.075000", "095608.075000", "095610.075000", "095612.075000", "095614.075000", "095616.075000", "095618.075000", "095620.075000", "095622.075000", "095624.075000", "095626.075000", "095628.075000", "095630.075000", "095632.075000", "095634.075000", "095636.075000", "095638.075000", "095640.075000", "095642.075000", "095644.075000", "095646.075000", "095648.075000", "095650.075000", "095652.075000", "095654.075000", "095656.075000", "095658.075000", "095700.075000", "095702.075000", "095704.075000", "095706.075000", "095708.075000", "095710.075000", "095712.075000", "095714.075000", "095716.075000", "095718.075000", "095720.075000", "095722.075000", "095724.075000", "095726.075000", "095728.075000", "095730.075000", "095732.075000", "095734.075000", "095736.075000", "095738.075000", "095740.075000", "095742.075000", "095744.075000", "095746.075000", "095748.075000", "095750.075000", "095752.075000", "095754.075000", "095756.075000", "095758.075000", "095800.075000", "095802.075000", "095804.075000", "095806.075000", "095808.075000", "095810.075000", "095812.075000", "095814.075000", "095816.075000", "095818.075000", "095820.075000", "095822.075000", "095824.075000", "095826.075000", "095828.075000", "095830.075000", "095832.075000", "095834.075000", "095836.075000", "095838.075000", "095840.075000", "095842.075000", "095844.075000", "095846.075000", "095848.075000", "095850.075000", "095852.075000", "095854.075000", "095856.075000", "095858.075000", "095900.075000", "095902.075000", "095904.075000", "095906.075000", "095908.075000", "095910.075000", "095912.075000", "095914.075000", "095916.075000", "095918.075000", "095920.075000", "095922.075000", "095924.075000", "095926.075000", "095928.075000", "095930.075000", "095932.075000", "095934.075000", "095936.075000", "095938.075000", "095940.075000", "095942.075000", "095944.075000", "095946.075000", "095948.075000", "095950.075000", "095952.075000", "095954.075000", "095956.075000", "095958.075000"],
      "ContentTime": ["095409.835000", "095409.844000", "095409.847000", "095409.849000", "095409.851000", "095409.854000", "095409.856000", "095409.859000", "095409.866000", "095409.868000", "095409.871000", "095409.873000", "095409.881000", "095409.884000", "095409.886000", "095409.892000", "095409.894000", "095409.896000", "095409.899000", "095409.901000", "095409.904000", "095409.906000", "095409.908000", "095409.911000", "095409.913000", "095449.830000", "095449.833000", "095449.835000", "095449.837000", "095449.840000", "095449.842000", "095449.844000", "095449.847000", "095449.849000", "095449.851000", "095449.854000", "095449.856000", "095449.858000", "095449.861000", "095449.863000", "095449.866000", "095449.873000", "095449.875000", "095449.878000", "095449.880000", "095529.830000", "095529.833000", "095529.835000", "095529.837000", "095529.840000", "095529.842000", "095529.844000", "095529.847000", "095529.849000", "095529.851000", "095529.854000", "095529.856000", "095529.858000", "095529.861000", "095529.863000", "095529.865000", "095529.868000", "095529.870000", "095529.872000", "095529.875000", "095609.830000", "095609.833000", "095609.835000", "095609.837000", "095609.840000", "095609.842000", "095609.844000", "095609.847000", "095609.849000", "095609.851000", "095609.854000", "095609.856000", "095609.858000", "095609.861000", "095609.863000", "095609.865000", "095609.868000", "095609.870000", "095609.872000", "095609.875000", "095649.830000", "095649.833000", "095649.835000", "095649.838000", "095649.840000", "095649.843000", "095649.845000", "095649.847000", "095649.850000", "095649.852000", "095649.855000", "095649.857000", "095649.859000", "095649.862000", "095649.864000", "095649.867000", "095649.869000", "095649.871000", "095649.874000", "095649.876000", "095729.830000", "095729.833000", "095729.835000", "095729.838000", "095729.840000", "095729.842000", "095729.845000", "095729.847000", "095729.849000", "095729.852000", "095729.854000", "095729.856000", "095729.859000", "095729.861000", "095729.863000", "095729.866000", "095729.868000", "095729.870000", "095729.873000", "095729.875000", "095809.831000", "095809.834000", "095809.836000", "095809.839000", "095809.841000", "095809.844000", "095809.846000", "095809.849000", "095809.851000", "095809.853000", "095809.856000", "095809.858000", "095809.861000", "095809.863000", "095809.865000", "095809.868000", "095809.870000", "095809.872000", "095809.875000", "095809.877000", "095849.830000", "095849.833000", "095849.835000", "095849.838000", "095849.840000", "095849.843000", "095849.845000", "095849.848000", "095849.850000", "095849.852000", "095849.855000", "095849.857000", "095849.860000", "095849.862000", "095849.864000", "095849.867000", "095849.869000", "095849.871000", "095849.874000", "095849.876000", "095929.830000", "095929.833000", "095929.835000", "095929.838000", "095929.840000", "095929.842000", "095929.845000", "095929.857000", "095929.859000", "095929.861000", "095929.864000", "095929.866000", "095929.869000", "095929.871000", "095929.873000", "095929.876000", "095929.878000", "095929.880000", "095929.883000", "095929.885000", "095959.241000", "095959.244000", "095959.246000", "095959.249000", "095959.251000", "095959.254000", "095959.256000", "095959.258000", "095959.261000", "095959.263000", "095959.266000", "095959.268000", "095959.271000", "095959.274000", "095959.276000"],
      "InstanceCreationTime": ["095409.835000", "095409.844000", "095409.847000", "095409.849000", "095409.851000", "095409.854000", "095409.856000", "095409.859000", "095409.866000", "095409.868000", "095409.871000", "095409.873000", "095409.881000", "095409.884000", "095409.886000", "095409.892000", "095409.894000", "095409.896000", "095409.899000", "095409.901000", "095409.904000", "095409.906000", "095409.908000", "095409.911000", "095409.913000", "095449.830000", "095449.833000", "095449.835000", "095449.837000", "095449.840000", "095449.842000", "095449.844000", "095449.847000", "095449.849000", "095449.851000", "095449.854000", "095449.856000", "095449.858000", "095449.861000", "095449.863000", "095449.866000", "095449.873000", "095449.875000", "095449.878000", "095449.880000", "095529.830000", "095529.833000", "095529.835000", "095529.837000", "095529.840000", "095529.842000", "095529.844000", "095529.847000", "095529.849000", "095529.851000", "095529.854000", "095529.856000", "095529.858000", "095529.861000", "095529.863000", "095529.865000", "095529.868000", "095529.870000", "095529.872000", "095529.875000", "095609.830000", "095609.833000", "095609.835000", "095609.837000", "095609.840000", "095609.842000", "095609.844000", "095609.847000", "095609.849000", "095609.851000", "095609.854000", "095609.856000", "095609.858000", "095609.861000", "095609.863000", "095609.865000", "095609.868000", "095609.870000", "095609.872000", "095609.875000", "095649.830000", "095649.833000", "095649.835000", "095649.838000", "095649.840000", "095649.843000", "095649.845000", "095649.847000", "095649.850000", "095649.852000", "095649.855000", "095649.857000", "095649.859000", "095649.862000", "095649.864000", "095649.867000", "095649.869000", "095649.871000", "095649.874000", "095649.876000", "095729.830000", "095729.833000", "095729.835000", "095729.838000", "095729.840000", "095729.842000", "095729.845000", "095729.847000", "095729.849000", "095729.852000", "095729.854000", "095729.856000", "095729.859000", "095729.861000", "095729.863000", "095729.866000", "095729.868000", "095729.870000", "095729.873000", "095729.875000", "095809.831000", "095809.834000", "095809.836000", "095809.839000", "095809.841000", "095809.844000", "095809.846000", "095809.849000", "095809.851000", "095809.853000", "095809.856000", "095809.858000", "095809.861000", "095809.863000", "095809.865000", "095809.868000", "095809.870000", "095809.872000", "095809.875000", "095809.877000", "095849.830000", "095849.833000", "095849.835000", "095849.838000", "095849.840000", "095849.843000", "095849.845000", "095849.848000", "095849.850000", "095849.852000", "095849.855000", "095849.857000", "095849.860000", "095849.862000", "095849.864000", "095849.867000", "095849.869000", "095849.871000", "095849.874000", "095849.876000", "095929.830000", "095929.833000", "095929.835000", "095929.838000", "095929.840000", "095929.842000", "095929.845000", "095929.857000", "095929.859000", "095929.861000", "095929.864000", "095929.866000", "095929.869000", "095929.871000", "095929.873000", "095929.876000", "095929.878000", "095929.880000", "095929.883000", "095929.885000", "095959.241000", "095959.244000", "095959.246000", "095959.249000", "095959.251000", "095959.254000", "095959.256000", "095959.258000", "095959.261000", "095959.263000", "095959.266000", "095959.268000", "095959.271000", "095959.274000", "095959.276000"],
      "InstanceNumber": [1, 2, 3, 4, 5, 6, 7, 8, 9, 10, 11, 12, 13, 14, 15, 16, 17, 18, 19, 20, 21, 22, 23, 24, 25, 26, 27, 28, 29, 30, 31, 32, 33, 34, 35, 36, 37, 38, 39, 40, 41, 42, 43, 44, 45, 46, 47, 48, 49, 50, 51, 52, 53, 54, 55, 56, 57, 58, 59, 60, 61, 62, 63, 64, 65, 66, 67, 68, 69, 70, 71, 72, 73, 74, 75, 76, 77, 78, 79, 80, 81, 82, 83, 84, 85, 86, 87, 88, 89, 90, 91, 92, 93, 94, 95, 96, 97, 98, 99, 100, 101, 102, 103, 104, 105, 106, 107, 108, 109, 110, 111, 112, 113, 114, 115, 116, 117, 118, 119, 120, 121, 122, 123, 124, 125, 126, 127, 128, 129, 130, 131, 132, 133, 134, 135, 136, 137, 138, 139, 140, 141, 142, 143, 144, 145, 146, 147, 148, 149, 150, 151, 152, 153, 154, 155, 156, 157, 158, 159, 160, 161, 162, 163, 164, 165, 166, 167, 168, 169, 170, 171, 172, 173, 174, 175, 176, 177, 178, 179, 180, 181, 182, 183, 184, 185, 186, 187, 188, 189, 190, 191, 192, 193, 194, 195, 196, 197, 198, 199, 200],
      "LargestImagePixelValue": [1884, 1886, 1883, 1887, 1886, 1885, 1884, 1883, 1884, 1887, 1885, 1886, 1885, 1887, 1886, 1884, 1886, 1888, 1888, 1885, 1888, 1885, 1886, 1885, 1887, 1888, 1889, 1890, 1885, 1889, 1885, 1890, 1893, 1885, 1888, 1888, 1886, 1890, 1890, 1889, 1885, 1886, 1889, 1887, 1885, 1889, 1889, 1887, 1887, 1891, 1888, 1885, 1890, 1890, 1889, 1888, 1890, 1891, 1885, 1891, 1890, 1887, 1890, 1890, 1889, 1889, 1891, 1889, 1888, 1890, 1890, 1888, 1886, 1889, 1890, 1889, 1888, 1893, 1890, 1892, 1890, 1892, 1894, 1890, 1891, 1893, 1890, 1890, 1890, 1888, 1889, 1890, 1891, 1890, 1892, 1892, 1894, 1892, 1895, 1892, 1895, 1891, 1893, 1894, 1892, 1888, 1892, 1889, 1890, 1892, 1896, 1894, 1893, 1894, 1894, 1892, 1892, 1896, 1889, 1889, 1893, 1894, 1889, 1894, 1893, 1896, 1889, 1894, 1897, 1890, 1891, 1894, 1894, 1893, 1897, 1893, 1893, 1891, 1896, 1894, 1890, 1895, 1895, 1895, 1890, 1893, 1895, 1894, 1889, 1895, 1894, 1895, 1893, 1899, 1896, 1894, 1897, 1898, 1895, 1895, 1901, 1895, 1892, 1895, 1896, 1897, 1894, 1895, 1898, 1893, 1897, 1900, 1895, 1893, 1896, 1898, 1894, 1894, 1898, 1894, 1896, 1897, 1893, 1893, 1897, 1901, 1895, 1897, 1900, 1898, 1895, 1893, 1896, 1896, 1895, 1898, 1894, 1893, 1894, 1896],
      "WindowCenter": [908.0, 910.0, 909.0, 910.0, 908.0, 908.0, 909.0, 909.0, 909.0, 909.0, 910.0, 909.0, 907.0, 908.0, 909.0, 909.0, 909.0, 909.0, 909.0, 908.0, 910.0, 909.0, 909.0, 909.0, 910.0, 909.0, 908.0, 909.0, 909.0, 909.0, 909.0, 909.0, 909.0, 909.0, 909.0, 909.0, 909.0, 908.0, 909.0, 909.0, 908.0, 909.0, 909.0, 909.0, 909.0, 909.0, 909.0, 909.0, 909.0, 907.0, 908.0, 909.0, 909.0, 909.0, 908.0, 909.0, 909.0, 908.0, 909.0, 909.0, 909.0, 909.0, 909.0, 909.0, 909.0, 909.0, 909.0, 908.0, 909.0, 909.0, 909.0, 909.0, 909.0, 909.0, 909.0, 909.0, 908.0, 909.0, 908.0, 909.0, 909.0, 909.0, 909.0, 908.0, 909.0, 909.0, 909.0, 909.0, 908.0, 909.0, 909.0, 909.0, 909.0, 909.0, 909.0, 909.0, 909.0, 909.0, 909.0, 909.0, 909.0, 909.0, 909.0, 909.0, 909.0, 908.0, 909.0, 908.0, 909.0, 909.0, 909.0, 909.0, 909.0, 909.0, 909.0, 908.0, 909.0, 909.0, 909.0, 909.0, 909.0, 909.0, 909.0, 909.0, 908.0, 909.0, 909.0, 908.0, 909.0, 907.0, 908.0, 909.0, 908.0, 909.0, 909.0, 909.0, 909.0, 909.0, 909.0, 909.0, 909.0, 909.0, 909.0, 907.0, 908.0, 909.0, 909.0, 908.0, 908.0, 909.0, 908.0, 908.0, 909.0, 908.0, 908.0, 908.0, 909.0, 908.0, 909.0, 908.0, 909.0, 909.0, 908.0, 909.0, 909.0, 909.0, 908.0, 909.0, 908.0, 908.0, 908.0, 909.0, 908.0, 908.0, 908.0, 908.0, 908.0, 908.0, 908.0, 908.0, 908.0, 909.0, 908.0, 909.0, 908.0, 908.0, 908.0, 908.0, 908.0, 909.0, 908.0, 908.0, 909.0, 909.0, 908.0, 908.0, 908.0, 908.0, 908.0, 908.0],
      "WindowWidth": [2056.0, 2059.0, 2058.0, 2059.0, 2057.0, 2057.0, 2058.0, 2058.0, 2058.0, 2058.0, 2059.0, 2058.0, 2056.0, 2057.0, 2058.0, 2058.0, 2058.0, 2058.0, 2058.0, 2057.0, 2059.0, 2058.0, 2058.0, 2058.0, 2059.0, 2058.0, 2057.0, 2058.0, 2058.0, 2058.0, 2058.0, 2058.0, 2058.0, 2059.0, 2057.0, 2058.0, 2058.0, 2056.0, 2058.0, 2058.0, 2057.0, 2058.0, 2058.0, 2058.0, 2057.0, 2058.0, 2058.0, 2058.0, 2058.0, 2056.0, 2057.0, 2058.0, 2058.0, 2058.0, 2057.0, 2057.0, 2058.0, 2057.0, 2057.0, 2057.0, 2058.0, 2057.0, 2058.0, 2058.0, 2058.0, 2058.0, 2057.0, 2057.0, 2058.0, 2057.0, 2058.0, 2058.0, 2057.0, 2057.0, 2058.0, 2058.0, 2057.0, 2058.0, 2057.0, 2057.0, 2057.0, 2058.0, 2058.0, 2057.0, 2058.0, 2058.0, 2058.0, 2057.0, 2057.0, 2057.0, 2057.0, 2057.0, 2058.0, 2057.0, 2057.0, 2057.0, 2058.0, 2058.0, 2058.0, 2058.0, 2058.0, 2058.0, 2058.0, 2058.0, 2058.0, 2056.0, 2058.0, 2057.0, 2057.0, 2058.0, 2058.0, 2058.0, 2058.0, 2057.0, 2057.0, 2057.0, 2057.0, 2058.0, 2057.0, 2058.0, 2057.0, 2058.0, 2057.0, 2058.0, 2057.0, 2058.0, 2057.0, 2056.0, 2057.0, 2056.0, 2056.0, 2057.0, 2057.0, 2057.0, 2057.0, 2058.0, 2057.0, 2057.0, 2057.0, 2057.0, 2057.0, 2058.0, 2057.0, 2056.0, 2057.0, 2057.0, 2058.0, 2056.0, 2057.0, 2058.0, 2057.0, 2056.0, 2057.0, 2057.0, 2057.0, 2057.0, 2057.0, 2057.0, 2057.0, 2057.0, 2057.0, 2058.0, 2057.0, 2058.0, 2057.0, 2058.0, 2056.0, 2057.0, 2057.0, 2057.0, 2057.0, 2057.0, 2057.0, 2056.0, 2057.0, 2057.0, 2057.0, 2057.0, 2057.0, 2057.0, 2057.0, 2057.0, 2057.0, 2057.0, 2057.0, 2057.0, 2057.0, 2057.0, 2057.0, 2057.0, 2057.0, 2057.0, 2057.0, 2057.0, 2056.0, 2057.0, 2057.0, 2057.0, 2057.0, 2057.0]
    },
    "slices": {}
  }
}