{
  "AcquisitionMatrixPE": 80,
  "AcquisitionNumber": 1,
  "AcquisitionTime": "10:00:9.422500",
  "BandwidthPerPixelPhaseEncode": 25,
  "BaseResolution": 80,
  "BodyPartExamined": "BRAIN",
  "CoilCombinationMethod": "Sum of Squares",
  "ConsistencyInfo": "N4_VE11E_LATEST_20181129",
  "ConversionSoftware": "dcm2niix",
  "ConversionSoftwareVersion": "v1.0.20220720",
  "DerivedVendorReportedEchoSpacing": 0.0005,
  "DeviceSerialNumber": "66112",
  "DwellTime": 2.7e-06,
  "EchoTime": 0.03,
  "EchoTrainLength": 80,
  "EffectiveEchoSpacing": 0.0005,
  "FlipAngle": 77,
  "HeudiconvVersion": "0.13.1",
  "ImageOrientationPatientDICOM": [0.974967, 0.221795, 0.0156592, -0.215431, 0.924865, 0.313391],
  "ImageOrientationText": "Tra>Cor(18.0)>Sag(-3.2)",
  "ImageType": [
    "ORIGINAL",
    "PRIMARY",
    "M",
    "ND",
    "NORM",
    "MOSAIC"
],
  "ImagingFrequency": 123.259,
  "InPlanePhaseEncodingDirectionDICOM": "COL",
  "InstitutionAddress": "Maynard 3,Hanover,NH,US,03755",
  "InstitutionName": "Dartmouth College - PBS",
  "InstitutionalDepartmentName": "Department",
  "MRAcquisitionType": "2D",
  "MagneticFieldStrength": 3,
  "Manufacturer": "Siemens",
  "ManufacturersModelName": "Prisma",
  "MatrixCoilMode": "SENSE",
  "Modality": "MR",
  "NonlinearGradientCorrection": false,
  "PartialFourier": 1,
  "PatientPosition": "HFS",
  "PercentPhaseFOV": 100,
  "PercentSampling": 100,
  "PhaseEncodingDirection": "j-",
  "PhaseEncodingSteps": 80,
  "PhaseResolution": 1,
  "PixelBandwidth": 2315,
  "ProcedureStepDescription": "dbic^QA",
  "ProtocolName": "func-bold_fa-77",
  "PulseSequenceDetails": "%SiemensSeq%\\ep2d_bold",
  "ReceiveCoilActiveElements": "HEA;HEP",
  "ReceiveCoilName": "Head_32",
  "ReconMatrixPE": 80,
  "RepetitionTime": 2,
  "SAR": 0.0468255,
  "ScanOptions": "FS",
  "ScanningSequence": "EP",
  "SequenceName": "*epfid2d1_80",
  "SequenceVariant": "SK",
  "SeriesDescription": "func-bold_fa-77",
  "SeriesNumber": 8,
  "ShimSetting": [4223, -7731, -7474, -29, -140, 43, -61, 69],
  "SliceThickness": 3.5,
  "SliceTiming": [0.99, 0, 1.055, 0.0675, 1.1225, 0.1325, 1.1875, 0.1975, 1.255, 0.265, 1.32, 0.33, 1.385, 0.395, 1.4525, 0.4625, 1.5175, 0.5275, 1.585, 0.595, 1.65, 0.66, 1.715, 0.725, 1.7825, 0.7925, 1.8475, 0.8575, 1.915, 0.925],
  "SoftwareVersions": "syngo MR E11",
  "SpacingBetweenSlices": 3.99,
  "StationName": "AWP66112",
  "TotalReadoutTime": 0.0395,
  "TxRefAmp": 228.101,
  "dcmmeta_affine": [
    [-2.9249024391174316, -0.6462931632995605, -0.21955421566963196, 147.92181396484375],
    [-0.6653862595558167, 2.774595260620117, 1.232589602470398, -85.60041809082031],
    [0.04697750136256218, -0.9401736855506897, 3.788484811782837, -13.003022193908691],
    [0.0, 0.0, 0.0, 1.0]
],
  "dcmmeta_reorient_transform": [
    [0.0, -1.0, 0.0, 79.0],
    [1.0, 0.0, 0.0, 0.0],
    [0.0, 0.0, 1.0, 0.0],
    [0.0, 0.0, 0.0, 1.0]
],
  "dcmmeta_shape": [80, 80, 30, 200],
  "dcmmeta_slice_dim": 2,
  "dcmmeta_version": 0.6,
  "global": {
    "const": {
      "AccessionNumber": "qa",
      "AcquisitionMatrix": [80, 0, 0, 80],
      "AngioFlag": "N",
      "BitsAllocated": 16,
      "BitsStored": 12,
      "BodyPartExamined": "BRAIN",
      "Columns": 480,
      "EchoNumbers": 1,
      "EchoTime": 30.0,
      "EchoTrainLength": 80,
      "FlipAngle": 77.0,
      "HighBit": 11,
      "ImageOrientationPatient": [0.97496747866536, 0.22179541478016, 0.01565916751941, -0.2154310603583, 0.92486507125578, 0.31339122228289],
      "ImagePositionPatient": [-552.58649706002, -821.58889902119, -284.70697584808],
      "ImageType": [
        "ORIGINAL",
        "PRIMARY",
        "M",
        "ND",
        "NORM",
        "MOSAIC"
],
      "ImagedNucleus": "1H",
      "ImagingFrequency": 123.259269,
      "InPlanePhaseEncodingDirection": "COL",
      "MRAcquisitionType": "2D",
      "MagneticFieldStrength": 3.0,
      "Manufacturer": "SIEMENS",
      "ManufacturerModelName": "Prisma",
      "Modality": "MR",
      "NumberOfAverages": 1.0,
      "NumberOfPhaseEncodingSteps": 80,
      "PercentPhaseFieldOfView": 100.0,
      "PercentSampling": 100.0,
      "PerformedProcedureStepStartTime": "093548.249000",
      "PhotometricInterpretation": "MONOCHROME2",
      "PixelBandwidth": 2315.0,
      "PixelRepresentation": 0,
      "PixelSpacing": [3.0, 3.0],
      "ProtocolName": "func-bold_fa-77",
      "RepetitionTime": 2000.0,
      "Rows": 480,
      "SAR": 0.04682550964748,
      "SamplesPerPixel": 1,
      "ScanOptions": "FS",
      "ScanningSequence": "EP",
      "SequenceName": "*epfid2d1_80",
      "SequenceVariant": "SK",
      "SeriesDescription": "func-bold_fa-77",
      "SeriesNumber": 8,
      "SeriesTime": "100049.918000",
      "SliceLocation": -46.929523624008,
      "SliceThickness": 3.5,
      "SmallestImagePixelValue": 0,
      "SoftwareVersions": "syngo MR E11",
      "SpacingBetweenSlices": 3.9899998944139,
      "SpecificCharacterSet": "ISO_IR 100",
      "StudyID": "16",
      "StudyTime": "093548.163000",
      "TransmitCoilName": "Body",
      "VariableFlipAngleFlag": "N",
      "WindowCenterWidthExplanation": "Algo1"
    },
    "slices": {}
  },
  "time": {
    "samples": {
      "AcquisitionNumber": [1, 2, 3, 4, 5, 6, 7, 8, 9, 10, 11, 12, 13, 14, 15, 16, 17, 18, 19, 20, 21, 22, 23, 24, 25, 26, 27, 28, 29, 30, 31, 32, 33, 34, 35, 36, 37, 38, 39, 40, 41, 42, 43, 44, 45, 46, 47, 48, 49, 50, 51, 52, 53, 54, 55, 56, 57, 58, 59, 60, 61, 62, 63, 64, 65, 66, 67, 68, 69, 70, 71, 72, 73, 74, 75, 76, 77, 78, 79, 80, 81, 82, 83, 84, 85, 86, 87, 88, 89, 90, 91, 92, 93, 94, 95, 96, 97, 98, 99, 100, 101, 102, 103, 104, 105, 106, 107, 108, 109, 110, 111, 112, 113, 114, 115, 116, 117, 118, 119, 120, 121, 122, 123, 124, 125, 126, 127, 128, 129, 130, 131, 132, 133, 134, 135, 136, 137, 138, 139, 140, 141, 142, 143, 144, 145, 146, 147, 148, 149, 150, 151, 152, 153, 154, 155, 156, 157, 158, 159, 160, 161, 162, 163, 164, 165, 166, 167, 168, 169, 170, 171, 172, 173, 174, 175, 176, 177, 178, 179, 180, 181, 182, 183, 184, 185, 186, 187, 188, 189, 190, 191, 192, 193, 194, 195, 196, 197, 198, 199, 200],
      "AcquisitionTime": ["100009.422500", "100011.422500", "100013.422500", "100015.422500", "100017.422500", "100019.422500", "100021.422500", "100023.422500", "100025.422500", "100027.422500", "100029.422500", "100031.422500", "100033.422500", "100035.422500", "100037.422500", "100039.422500", "100041.422500", "100043.422500", "100045.422500", "100047.422500", "100049.422500", "100051.422500", "100053.422500", "100055.422500", "100057.422500", "100059.422500", "100101.422500", "100103.422500", "100105.422500", "100107.422500", "100109.422500", "100111.422500", "100113.422500", "100115.422500", "100117.422500", "100119.422500", "100121.422500", "100123.422500", "100125.422500", "100127.422500", "100129.422500", "100131.422500", "100133.422500", "100135.422500", "100137.422500", "100139.422500", "100141.422500", "100143.422500", "100145.422500", "100147.422500", "100149.422500", "100151.422500", "100153.422500", "100155.422500", "100157.422500", "100159.422500", "100201.422500", "100203.422500", "100205.422500", "100207.422500", "100209.422500", "100211.422500", "100213.422500", "100215.422500", "100217.422500", "100219.422500", "100221.422500", "100223.422500", "100225.422500", "100227.422500", "100229.422500", "100231.422500", "100233.422500", "100235.422500", "100237.422500", "100239.422500", "100241.422500", "100243.422500", "100245.422500", "100247.422500", "100249.422500", "100251.422500", "100253.422500", "100255.422500", "100257.422500", "100259.422500", "100301.422500", "100303.422500", "100305.422500", "100307.422500", "100309.422500", "100311.422500", "100313.422500", "100315.422500", "100317.422500", "100319.422500", "100321.422500", "100323.422500", "100325.422500", "100327.422500", "100329.422500", "100331.422500", "100333.422500", "100335.422500", "100337.422500", "100339.422500", "100341.422500", "100343.422500", "100345.422500", "100347.422500", "100349.422500", "100351.422500", "100353.422500", "100355.422500", "100357.422500", "100359.422500", "100401.422500", "100403.422500", "100405.422500", "100407.422500", "100409.422500", "100411.422500", "100413.422500", "100415.422500", "100417.422500", "100419.422500", "100421.422500", "100423.422500", "100425.422500", "100427.422500", "100429.422500", "100431.422500", "100433.422500", "100435.422500", "100437.422500", "100439.422500", "100441.422500", "100443.422500", "100445.422500", "100447.422500", "100449.422500", "100451.422500", "100453.422500", "100455.422500", "100457.422500", "100459.422500", "100501.422500", "100503.422500", "100505.422500", "100507.422500", "100509.422500", "100511.422500", "100513.422500", "100515.422500", "100517.422500", "100519.422500", "100521.422500", "100523.422500", "100525.422500", "100527.422500", "100529.422500", "100531.422500", "100533.422500", "100535.422500", "100537.422500", "100539.422500", "100541.422500", "100543.422500", "100545.422500", "100547.422500", "100549.422500", "100551.422500", "100553.422500", "100555.422500", "100557.422500", "100559.422500", "100601.422500", "100603.422500", "100605.422500", "100607.422500", "100609.422500", "100611.422500", "100613.422500", "100615.422500", "100617.422500", "100619.422500", "100621.422500", "100623.422500", "100625.422500", "100627.422500", "100629.422500", "100631.422500", "100633.422500", "100635.422500", "100637.422500", "100639.422500", "100641.422500", "100643.422500", "100645.422500", "100647.422500"],
      "ContentTime": ["100049.921000", "100049.924000", "100049.927000", "100049.929000", "100049.931000", "100049.934000", "100049.936000", "100049.938000", "100049.941000", "100049.943000", "100049.945000", "100049.947000", "100049.950000", "100049.952000", "100049.954000", "100049.957000", "100049.967000", "100049.969000", "100049.971000", "100049.982000", "100109.916000", "100109.919000", "100109.921000", "100109.924000", "100109.926000", "100109.928000", "100109.931000", "100109.933000", "100109.935000", "100109.938000", "100149.916000", "100149.919000", "100149.921000", "100149.924000", "100149.926000", "100149.928000", "100149.931000", "100149.933000", "100149.935000", "100149.938000", "100149.940000", "100149.942000", "100149.945000", "100149.947000", "100149.949000", "100149.951000", "100149.954000", "100149.956000", "100149.958000", "100149.961000", "100229.917000", "100229.920000", "100229.922000", "100229.924000", "100229.927000", "100229.929000", "100229.931000", "100229.933000", "100229.936000", "100229.938000", "100229.940000", "100229.943000", "100229.955000", "100229.957000", "100229.960000", "100229.962000", "100229.964000", "100229.967000", "100229.969000", "100229.971000", "100309.916000", "100309.919000", "100309.921000", "100309.923000", "100309.926000", "100309.928000", "100309.930000", "100309.932000", "100309.935000", "100309.937000", "100309.939000", "100309.942000", "100309.944000", "100309.946000", "100309.948000", "100309.951000", "100309.953000", "100309.955000", "100309.958000", "100309.960000", "100349.916000", "100349.919000", "100349.921000", "100349.923000", "100349.926000", "100349.928000", "100349.930000", "100349.932000", "100349.935000", "100349.937000", "100349.939000", "100349.942000", "100349.944000", "100349.946000", "100349.949000", "100349.951000", "100349.953000", "100349.956000", "100349.958000", "100349.960000", "100429.916000", "100429.919000", "100429.921000", "100429.924000", "100429.926000", "100429.928000", "100429.931000", "100429.933000", "100429.935000", "100429.937000", "100429.940000", "100429.942000", "100429.944000", "100429.947000", "100429.949000", "100429.951000", "100429.954000", "100429.956000", "100429.958000", "100429.961000", "100509.917000", "100509.920000", "100509.922000", "100509.925000", "100509.928000", "100509.930000", "100509.932000", "100509.935000", "100509.937000", "100509.939000", "100509.942000", "100509.944000", "100509.946000", "100509.949000", "100509.951000", "100509.953000", "100509.966000", "100509.968000", "100509.971000", "100509.973000", "100549.916000", "100549.919000", "100549.921000", "100549.924000", "100549.926000", "100549.928000", "100549.931000", "100549.933000", "100549.935000", "100549.938000", "100549.940000", "100549.942000", "100549.944000", "100549.947000", "100549.949000", "100549.951000", "100549.953000", "100549.956000", "100549.958000", "100549.960000", "100629.916000", "100629.919000", "100629.921000", "100629.924000", "100629.926000", "100629.928000", "100629.930000", "100629.933000", "100629.935000", "100629.938000", "100629.940000", "100629.942000", "100629.945000", "100629.947000", "100629.949000", "100629.951000", "100629.954000", "100629.956000", "100629.958000", "100629.961000", "100649.162000", "100649.165000", "100649.168000", "100649.170000", "100649.172000", "100649.175000", "100649.177000", "100649.179000", "100649.182000", "100649.184000"],
      "InstanceCreationTime": ["100049.921000", "100049.924000", "100049.927000", "100049.929000", "100049.931000", "100049.934000", "100049.936000", "100049.938000", "100049.941000", "100049.943000", "100049.945000", "100049.947000", "100049.950000", "100049.952000", "100049.954000", "100049.957000", "100049.967000", "100049.969000", "100049.971000", "100049.982000", "100109.916000", "100109.919000", "100109.921000", "100109.924000", "100109.926000", "100109.928000", "100109.931000", "100109.933000", "100109.935000", "100109.938000", "100149.916000", "100149.919000", "100149.921000", "100149.924000", "100149.926000", "100149.928000", "100149.931000", "100149.933000", "100149.935000", "100149.938000", "100149.940000", "100149.942000", "100149.945000", "100149.947000", "100149.949000", "100149.951000", "100149.954000", "100149.956000", "100149.958000", "100149.961000", "100229.917000", "100229.920000", "100229.922000", "100229.924000", "100229.927000", "100229.929000", "100229.931000", "100229.933000", "100229.936000", "100229.938000", "100229.940000", "100229.943000", "100229.955000", "100229.957000", "100229.960000", "100229.962000", "100229.964000", "100229.967000", "100229.969000", "100229.971000", "100309.916000", "100309.919000", "100309.921000", "100309.923000", "100309.926000", "100309.928000", "100309.930000", "100309.932000", "100309.935000", "100309.937000", "100309.939000", "100309.942000", "100309.944000", "100309.946000", "100309.948000", "100309.951000", "100309.953000", "100309.955000", "100309.958000", "100309.960000", "100349.916000", "100349.919000", "100349.921000", "100349.923000", "100349.926000", "100349.928000", "100349.930000", "100349.932000", "100349.935000", "100349.937000", "100349.939000", "100349.942000", "100349.944000", "100349.946000", "100349.949000", "100349.951000", "100349.953000", "100349.956000", "100349.958000", "100349.960000", "100429.916000", "100429.919000", "100429.921000", "100429.924000", "100429.926000", "100429.928000", "100429.931000", "100429.933000", "100429.935000", "100429.937000", "100429.940000", "100429.942000", "100429.944000", "100429.947000", "100429.949000", "100429.951000", "100429.954000", "100429.956000", "100429.958000", "100429.961000", "100509.917000", "100509.920000", "100509.922000", "100509.925000", "100509.928000", "100509.930000", "100509.932000", "100509.935000", "100509.937000", "100509.939000", "100509.942000", "100509.944000", "100509.946000", "100509.949000", "100509.951000", "100509.953000", "100509.966000", "100509.968000", "100509.971000", "100509.973000", "100549.916000", "100549.919000", "100549.921000", "100549.924000", "100549.926000", "100549.928000", "100549.931000", "100549.933000", "100549.935000", "100549.938000", "100549.940000", "100549.942000", "100549.944000", "100549.947000", "100549.949000", "100549.951000", "100549.953000", "100549.956000", "100549.958000", "100549.960000", "100629.916000", "100629.919000", "100629.921000", "100629.924000", "100629.926000", "100629.928000", "100629.930000", "100629.933000", "100629.935000", "100629.938000", "100629.940000", "100629.942000", "100629.945000", "100629.947000", "100629.949000", "100629.951000", "100629.954000", "100629.956000", "100629.958000", "100629.961000", "100649.162000", "100649.165000", "100649.168000", "100649.170000", "100649.172000", "100649.175000", "100649.177000", "100649.179000", "100649.182000", "100649.184000"],
      "InstanceNumber": [1, 2, 3, 4, 5, 6, 7, 8, 9, 10, 11, 12, 13, 14, 15, 16, 17, 18, 19, 20, 21, 22, 23, 24, 25, 26, 27, 28, 29, 30, 31, 32, 33, 34, 35, 36, 37, 38, 39, 40, 41, 42, 43, 44, 45, 46, 47, 48, 49, 50, 51, 52, 53, 54, 55, 56, 57, 58, 59, 60, 61, 62, 63, 64, 65, 66, 67, 68, 69, 70, 71, 72, 73, 74, 75, 76, 77, 78, 79, 80, 81, 82, 83, 84, 85, 86, 87, 88, 89, 90, 91, 92, 93, 94, 95, 96, 97, 98, 99, 100, 101, 102, 103, 104, 105, 106, 107, 108, 109, 110, 111, 112, 113, 114, 115, 116, 117, 118, 119, 120, 121, 122, 123, 124, 125, 126, 127, 128, 129, 130, 131, 132, 133, 134, 135, 136, 137, 138, 139, 140, 141, 142, 143, 144, 145, 146, 147, 148, 149, 150, 151, 152, 153, 154, 155, 156, 157, 158, 159, 160, 161, 162, 163, 164, 165, 166, 167, 168, 169, 170, 171, 172, 173, 174, 175, 176, 177, 178, 179, 180, 181, 182, 183, 184, 185, 186, 187, 188, 189, 190, 191, 192, 193, 194, 195, 196, 197, 198, 199, 200],
      "LargestImagePixelValue": [1829, 1831, 1829, 1828, 1829, 1829, 1830, 1828, 1830, 1830, 1829, 1831, 1829, 1829, 1832, 1829, 1830, 1830, 1830, 1829, 1830, 1833, 1829, 1831, 1831, 1829, 1833, 1830, 1832, 1830, 1829, 1829, 1829, 1830, 1832, 1831, 1831, 1831, 1830, 1830, 1832, 1831, 1830, 1833, 1831, 1831, 1833, 1831, 1833, 1830, 1833, 1832, 1834, 1833, 1832, 1834, 1832, 1831, 1832, 1833, 1832, 1833, 1832, 1834, 1831, 1833, 1833, 1836, 1833, 1834, 1834, 1834, 1832, 1834, 1833, 1834, 1833, 1831, 1832, 1832, 1834, 1833, 1834, 1832, 1833, 1833, 1833, 1834, 1836, 1835, 1834, 1834, 1835, 1833, 1834, 1834, 1833, 1835, 1835, 1834, 1835, 1831, 1833, 1834, 1834, 1836, 1833, 1835, 1833, 1833, 1835, 1835, 1834, 1833, 1833, 1836, 1835, 1836, 1835, 1835, 1834, 1835, 1833, 1833, 1835, 1835, 1834, 1836, 1835, 1833, 1834, 1833, 1834, 1834, 1836, 1835, 1835, 1837, 1835, 1834, 1835, 1834, 1832, 1834, 1835, 1836, 1836, 1836, 1833, 1834, 1835, 1836, 1835, 1834, 1834, 1836, 1835, 1836, 1834, 1836, 1835, 1836, 1836, 1835, 1836, 1835, 1837, 1835, 1837, 1836, 1836, 1835, 1836, 1837, 1838, 1836, 1836, 1834, 1835, 1835, 1838, 1836, 1837, 1837, 1835, 1836, 1837, 1838, 1836, 1835, 1836, 1836, 1835, 1837, 1836, 1836, 1835, 1836, 1835, 1836],
      "WindowCenter": [949.0, 949.0, 949.0, 948.0, 949.0, 949.0, 948.0, 949.0, 949.0, 948.0, 949.0, 948.0, 948.0, 949.0, 948.0, 948.0, 948.0, 948.0, 949.0, 948.0, 948.0, 948.0, 948.0, 948.0, 948.0, 948.0, 949.0, 949.0, 949.0, 948.0, 948.0, 947.0, 948.0, 948.0, 948.0, 948.0, 947.0, 947.0, 948.0, 947.0, 948.0, 948.0, 948.0, 949.0, 947.0, 949.0, 948.0, 949.0, 948.0, 948.0, 948.0, 946.0, 948.0, 949.0, 948.0, 948.0, 948.0, 948.0, 949.0, 947.0, 948.0, 948.0, 948.0, 948.0, 947.0, 948.0, 946.0, 948.0, 949.0, 948.0, 948.0, 948.0, 945.0, 948.0, 948.0, 947.0, 948.0, 947.0, 948.0, 947.0, 948.0, 947.0, 948.0, 948.0, 948.0, 948.0, 947.0, 947.0, 948.0, 948.0, 948.0, 948.0, 948.0, 948.0, 948.0, 947.0, 948.0, 948.0, 948.0, 948.0, 948.0, 947.0, 946.0, 947.0, 948.0, 946.0, 947.0, 948.0, 945.0, 946.0, 948.0, 948.0, 947.0, 948.0, 948.0, 948.0, 948.0, 948.0, 948.0, 947.0, 948.0, 947.0, 948.0, 948.0, 948.0, 948.0, 947.0, 947.0, 947.0, 947.0, 947.0, 947.0, 947.0, 947.0, 947.0, 948.0, 948.0, 948.0, 948.0, 948.0, 947.0, 946.0, 947.0, 946.0, 947.0, 947.0, 947.0, 947.0, 946.0, 947.0, 946.0, 946.0, 947.0, 947.0, 947.0, 946.0, 946.0, 947.0, 947.0, 947.0, 947.0, 947.0, 947.0, 947.0, 946.0, 947.0, 947.0, 948.0, 947.0, 947.0, 948.0, 947.0, 947.0, 946.0, 946.0, 946.0, 947.0, 947.0, 947.0, 948.0, 946.0, 947.0, 947.0, 946.0, 947.0, 947.0, 947.0, 947.0, 947.0, 948.0, 948.0, 947.0, 946.0, 947.0, 947.0, 947.0, 945.0, 947.0, 947.0, 948.0],
      "WindowWidth": [2054.0, 2054.0, 2054.0, 2053.0, 2054.0, 2054.0, 2053.0, 2054.0, 2054.0, 2053.0, 2054.0, 2054.0, 2053.0, 2054.0, 2054.0, 2053.0, 2053.0, 2053.0, 2054.0, 2054.0, 2054.0, 2054.0, 2054.0, 2054.0, 2054.0, 2054.0, 2054.0, 2054.0, 2054.0, 2053.0, 2053.0, 2052.0, 2053.0, 2053.0, 2053.0, 2053.0, 2052.0, 2052.0, 2053.0, 2052.0, 2052.0, 2052.0, 2053.0, 2054.0, 2053.0, 2054.0, 2053.0, 2054.0, 2053.0, 2053.0, 2054.0, 2051.0, 2053.0, 2054.0, 2052.0, 2052.0, 2052.0, 2052.0, 2053.0, 2052.0, 2052.0, 2052.0, 2052.0, 2052.0, 2052.0, 2052.0, 2051.0, 2052.0, 2053.0, 2052.0, 2052.0, 2052.0, 2050.0, 2053.0, 2052.0, 2051.0, 2052.0, 2051.0, 2052.0, 2051.0, 2052.0, 2051.0, 2052.0, 2052.0, 2052.0, 2052.0, 2051.0, 2051.0, 2052.0, 2052.0, 2052.0, 2052.0, 2052.0, 2052.0, 2052.0, 2051.0, 2052.0, 2051.0, 2051.0, 2052.0, 2052.0, 2051.0, 2051.0, 2051.0, 2053.0, 2051.0, 2052.0, 2052.0, 2049.0, 2051.0, 2052.0, 2053.0, 2052.0, 2053.0, 2052.0, 2052.0, 2052.0, 2052.0, 2052.0, 2052.0, 2053.0, 2051.0, 2052.0, 2052.0, 2052.0, 2052.0, 2051.0, 2051.0, 2051.0, 2051.0, 2051.0, 2051.0, 2051.0, 2051.0, 2052.0, 2052.0, 2053.0, 2052.0, 2052.0, 2052.0, 2051.0, 2051.0, 2051.0, 2050.0, 2050.0, 2051.0, 2050.0, 2051.0, 2050.0, 2051.0, 2050.0, 2050.0, 2051.0, 2051.0, 2051.0, 2050.0, 2050.0, 2051.0, 2051.0, 2051.0, 2051.0, 2051.0, 2051.0, 2051.0, 2050.0, 2051.0, 2051.0, 2052.0, 2051.0, 2051.0, 2052.0, 2051.0, 2051.0, 2050.0, 2050.0, 2049.0, 2051.0, 2051.0, 2051.0, 2051.0, 2050.0, 2051.0, 2051.0, 2050.0, 2051.0, 2051.0, 2051.0, 2051.0, 2051.0, 2051.0, 2051.0, 2051.0, 2050.0, 2051.0, 2051.0, 2051.0, 2049.0, 2051.0, 2051.0, 2051.0]
    },
    "slices": {}
  }
}