{
  "AcquisitionMatrixPE": 80,
  "AcquisitionNumber": 1,
  "AcquisitionTime": "09:46:25.775000",
  "BandwidthPerPixelPhaseEncode": 48.077,
  "BaseResolution": 80,
  "BodyPartExamined": "BRAIN",
  "CoilCombinationMethod": "Sum of Squares",
  "ConsistencyInfo": "N4_VE11E_LATEST_20181129",
  "ConversionSoftware": "dcm2niix",
  "ConversionSoftwareVersion": "v1.0.20220720",
  "DerivedVendorReportedEchoSpacing": 0.000519999,
  "DeviceSerialNumber": "66112",
  "DwellTime": 2.7e-06,
  "EchoTime": 0.035,
  "EchoTrainLength": 39,
  "EffectiveEchoSpacing": 0.00026,
  "FlipAngle": 90,
  "HeudiconvVersion": "0.13.1",
  "ImageOrientationPatientDICOM": [0.974967, 0.221795, 0.0156592, -0.215431, 0.924865, 0.313391],
  "ImageOrientationText": "Tra>Cor(18.0)>Sag(-3.2)",
  "ImageType": [
    "ORIGINAL",
    "PRIMARY",
    "M",
    "ND",
    "NORM",
    "MOSAIC"
],
  "ImagingFrequency": 123.259,
  "InPlanePhaseEncodingDirectionDICOM": "COL",
  "InstitutionAddress": "Maynard 3,Hanover,NH,US,03755",
  "InstitutionName": "Dartmouth College - PBS",
  "InstitutionalDepartmentName": "Department",
  "MRAcquisitionType": "2D",
  "MagneticFieldStrength": 3,
  "Manufacturer": "Siemens",
  "ManufacturersModelName": "Prisma",
  "MatrixCoilMode": "GRAPPA",
  "Modality": "MR",
  "NonlinearGradientCorrection": false,
  "ParallelReductionFactorInPlane": 2,
  "PartialFourier": 1,
  "PatientPosition": "HFS",
  "PercentPhaseFOV": 100,
  "PercentSampling": 100,
  "PhaseEncodingDirection": "j-",
  "PhaseEncodingSteps": 79,
  "PhaseResolution": 1,
  "PixelBandwidth": 2315,
  "ProcedureStepDescription": "dbic^QA",
  "ProtocolName": "func-bold_task-rest_acq-p2",
  "PulseSequenceDetails": "%SiemensSeq%\\ep2d_bold",
  "ReceiveCoilActiveElements": "HEA;HEP",
  "ReceiveCoilName": "Head_32",
  "ReconMatrixPE": 80,
  "RefLinesPE": 24,
  "RepetitionTime": 2,
  "SAR": 0.0595858,
  "ScanOptions": "FS",
  "ScanningSequence": "EP",
  "SequenceName": "*epfid2d1_80",
  "SequenceVariant": "SK",
  "SeriesDescription": "func-bold_task-rest_acq-p2",
  "SeriesNumber": 5,
  "ShimSetting": [4223, -7731, -7474, -29, -140, 43, -61, 69],
  "SliceThickness": 3.5,
  "SliceTiming": [0.99, 0, 1.055, 0.065, 1.1225, 0.1325, 1.1875, 0.1975, 1.2525, 0.2625, 1.32, 0.33, 1.385, 0.395, 1.4525, 0.4625, 1.5175, 0.5275, 1.5825, 0.5925, 1.65, 0.66, 1.715, 0.725, 1.7825, 0.7925, 1.8475, 0.8575, 1.9125, 0.9225],
  "SoftwareVersions": "syngo MR E11",
  "SpacingBetweenSlices": 3.99,
  "StationName": "AWP66112",
  "TaskName": "rest",
  "TotalReadoutTime": 0.02054,
  "TxRefAmp": 228.101,
  "dcmmeta_affine": [
    [-2.9249024391174316, -0.6462931632995605, -0.21955421566963196, 148.3358917236328],
    [-0.6653862595558167, 2.774595260620117, 1.2325897216796875, -87.3768310546875],
    [0.04697750136256218, -0.9401736855506897, 3.788485050201416, -12.393696784973145],
    [0.0, 0.0, 0.0, 1.0]
],
  "dcmmeta_reorient_transform": [
    [0.0, -1.0, 0.0, 79.0],
    [1.0, 0.0, 0.0, 0.0],
    [0.0, 0.0, 1.0, 0.0],
    [0.0, 0.0, 0.0, 1.0]
],
  "dcmmeta_shape": [80, 80, 30, 200],
  "dcmmeta_slice_dim": 2,
  "dcmmeta_version": 0.6,
  "global": {
    "const": {
      "AccessionNumber": "qa",
      "AcquisitionMatrix": [80, 0, 0, 80],
      "AngioFlag": "N",
      "BitsAllocated": 16,
      "BitsStored": 12,
      "BodyPartExamined": "BRAIN",
      "Columns": 480,
      "EchoNumbers": 1,
      "EchoTime": 35.0,
      "EchoTrainLength": 39,
      "FlipAngle": 90.0,
      "HighBit": 11,
      "ImageOrientationPatient": [0.97496747866536, 0.22179541478016, 0.01565916751941, -0.2154310603583, 0.92486507125578, 0.31339122228289],
      "ImagePositionPatient": [-553.00057434197, -819.81248081212, -284.09765043915],
      "ImageType": [
        "ORIGINAL",
        "PRIMARY",
        "M",
        "ND",
        "NORM",
        "MOSAIC"
],
      "ImagedNucleus": "1H",
      "ImagingFrequency": 123.259269,
      "InPlanePhaseEncodingDirection": "COL",
      "MRAcquisitionType": "2D",
      "MagneticFieldStrength": 3.0,
      "Manufacturer": "SIEMENS",
      "ManufacturerModelName": "Prisma",
      "Modality": "MR",
      "NumberOfAverages": 1.0,
      "NumberOfPhaseEncodingSteps": 79,
      "PercentPhaseFieldOfView": 100.0,
      "PercentSampling": 100.0,
      "PerformedProcedureStepStartTime": "093548.249000",
      "PhotometricInterpretation": "MONOCHROME2",
      "PixelBandwidth": 2315.0,
      "PixelRepresentation": 0,
      "PixelSpacing": [3.0, 3.0],
      "ProtocolName": "func-bold_task-rest_acq-p2",
      "RepetitionTime": 2000.0,
      "Rows": 480,
      "SAR": 0.05958581754056,
      "SamplesPerPixel": 1,
      "ScanOptions": "FS",
      "ScanningSequence": "EP",
      "SequenceName": "*epfid2d1_80",
      "SequenceVariant": "SK",
      "SeriesDescription": "func-bold_task-rest_acq-p2",
      "SeriesNumber": 5,
      "SeriesTime": "094709.746000",
      "SliceLocation": -46.922527885294,
      "SliceThickness": 3.5,
      "SmallestImagePixelValue": 0,
      "SoftwareVersions": "syngo MR E11",
      "SpacingBetweenSlices": 3.9900000351439,
      "SpecificCharacterSet": "ISO_IR 100",
      "StudyID": "16",
      "StudyTime": "093548.163000",
      "TransmitCoilName": "Body",
      "VariableFlipAngleFlag": "N",
      "WindowCenterWidthExplanation": "Algo1"
    },
    "slices": {}
  },
  "time": {
    "samples": {
      "AcquisitionNumber": [1, 2, 3, 4, 5, 6, 7, 8, 9, 10, 11, 12, 13, 14, 15, 16, 17, 18, 19, 20, 21, 22, 23, 24, 25, 26, 27, 28, 29, 30, 31, 32, 33, 34, 35, 36, 37, 38, 39, 40, 41, 42, 43, 44, 45, 46, 47, 48, 49, 50, 51, 52, 53, 54, 55, 56, 57, 58, 59, 60, 61, 62, 63, 64, 65, 66, 67, 68, 69, 70, 71, 72, 73, 74, 75, 76, 77, 78, 79, 80, 81, 82, 83, 84, 85, 86, 87, 88, 89, 90, 91, 92, 93, 94, 95, 96, 97, 98, 99, 100, 101, 102, 103, 104, 105, 106, 107, 108, 109, 110, 111, 112, 113, 114, 115, 116, 117, 118, 119, 120, 121, 122, 123, 124, 125, 126, 127, 128, 129, 130, 131, 132, 133, 134, 135, 136, 137, 138, 139, 140, 141, 142, 143, 144, 145, 146, 147, 148, 149, 150, 151, 152, 153, 154, 155, 156, 157, 158, 159, 160, 161, 162, 163, 164, 165, 166, 167, 168, 169, 170, 171, 172, 173, 174, 175, 176, 177, 178, 179, 180, 181, 182, 183, 184, 185, 186, 187, 188, 189, 190, 191, 192, 193, 194, 195, 196, 197, 198, 199, 200],
      "AcquisitionTime": ["094625.775000", "094627.775000", "094629.775000", "094631.775000", "094633.775000", "094635.775000", "094637.775000", "094639.775000", "094641.775000", "094643.775000", "094645.775000", "094647.775000", "094649.775000", "094651.775000", "094653.775000", "094655.775000", "094657.775000", "094659.775000", "094701.775000", "094703.775000", "094705.775000", "094707.775000", "094709.775000", "094711.775000", "094713.775000", "094715.775000", "094717.775000", "094719.775000", "094721.775000", "094723.775000", "094725.775000", "094727.775000", "094729.775000", "094731.775000", "094733.775000", "094735.775000", "094737.775000", "094739.775000", "094741.775000", "094743.775000", "094745.775000", "094747.775000", "094749.775000", "094751.775000", "094753.775000", "094755.775000", "094757.775000", "094759.775000", "094801.775000", "094803.775000", "094805.775000", "094807.775000", "094809.775000", "094811.775000", "094813.775000", "094815.775000", "094817.775000", "094819.775000", "094821.775000", "094823.775000", "094825.775000", "094827.775000", "094829.775000", "094831.775000", "094833.775000", "094835.775000", "094837.775000", "094839.775000", "094841.775000", "094843.775000", "094845.775000", "094847.775000", "094849.775000", "094851.775000", "094853.775000", "094855.775000", "094857.775000", "094859.775000", "094901.775000", "094903.775000", "094905.775000", "094907.775000", "094909.775000", "094911.775000", "094913.775000", "094915.775000", "094917.775000", "094919.775000", "094921.775000", "094923.775000", "094925.775000", "094927.775000", "094929.775000", "094931.775000", "094933.775000", "094935.775000", "094937.775000", "094939.775000", "094941.775000", "094943.775000", "094945.775000", "094947.775000", "094949.775000", "094951.775000", "094953.775000", "094955.775000", "094957.775000", "094959.775000", "095001.775000", "095003.775000", "095005.775000", "095007.775000", "095009.775000", "095011.775000", "095013.775000", "095015.775000", "095017.775000", "095019.775000", "095021.775000", "095023.775000", "095025.775000", "095027.775000", "095029.775000", "095031.775000", "095033.775000", "095035.775000", "095037.775000", "095039.775000", "095041.775000", "095043.775000", "095045.775000", "095047.775000", "095049.775000", "095051.775000", "095053.775000", "095055.775000", "095057.775000", "095059.775000", "095101.775000", "095103.775000", "095105.775000", "095107.775000", "095109.775000", "095111.775000", "095113.775000", "095115.775000", "095117.775000", "095119.775000", "095121.775000", "095123.775000", "095125.775000", "095127.775000", "095129.775000", "095131.775000", "095133.775000", "095135.775000", "095137.775000", "095139.775000", "095141.775000", "095143.775000", "095145.775000", "095147.775000", "095149.775000", "095151.775000", "095153.775000", "095155.775000", "095157.775000", "095159.775000", "095201.775000", "095203.775000", "095205.775000", "095207.775000", "095209.775000", "095211.775000", "095213.775000", "095215.775000", "095217.775000", "095219.775000", "095221.775000", "095223.775000", "095225.775000", "095227.775000", "095229.775000", "095231.775000", "095233.775000", "095235.775000", "095237.775000", "095239.775000", "095241.775000", "095243.775000", "095245.775000", "095247.775000", "095249.775000", "095251.775000", "095253.775000", "095255.775000", "095257.775000", "095259.775000", "095301.775000", "095303.775000"],
      "ContentTime": ["094709.749000", "094709.752000", "094709.755000", "094709.757000", "094709.760000", "094709.762000", "094709.765000", "094709.767000", "094709.769000", "094709.771000", "094709.774000", "094709.776000", "094709.779000", "094709.781000", "094709.783000", "094709.785000", "094709.788000", "094709.790000", "094709.795000", "094709.797000", "094709.800000", "094709.802000", "094749.744000", "094749.747000", "094749.749000", "094749.752000", "094749.754000", "094749.756000", "094749.758000", "094749.761000", "094749.763000", "094749.765000", "094749.768000", "094749.770000", "094749.772000", "094749.775000", "094749.777000", "094749.779000", "094749.782000", "094749.784000", "094749.786000", "094749.789000", "094829.744000", "094829.747000", "094829.749000", "094829.751000", "094829.754000", "094829.756000", "094829.761000", "094829.764000", "094829.766000", "094829.768000", "094829.771000", "094829.773000", "094829.775000", "094829.778000", "094829.780000", "094829.782000", "094829.785000", "094829.787000", "094829.789000", "094829.791000", "094909.744000", "094909.747000", "094909.749000", "094909.752000", "094909.754000", "094909.756000", "094909.759000", "094909.761000", "094909.763000", "094909.765000", "094909.768000", "094909.770000", "094909.772000", "094909.775000", "094909.777000", "094909.779000", "094909.782000", "094909.784000", "094909.786000", "094909.788000", "094949.744000", "094949.747000", "094949.749000", "094949.752000", "094949.754000", "094949.770000", "094949.772000", "094949.775000", "094949.777000", "094949.779000", "094949.782000", "094949.784000", "094949.786000", "094949.789000", "094949.791000", "094949.793000", "094949.796000", "094949.798000", "094949.800000", "094949.803000", "095029.744000", "095029.747000", "095029.749000", "095029.751000", "095029.754000", "095029.756000", "095029.759000", "095029.761000", "095029.764000", "095029.766000", "095029.768000", "095029.771000", "095029.773000", "095029.776000", "095029.778000", "095029.780000", "095029.783000", "095029.785000", "095029.787000", "095029.790000", "095049.744000", "095049.747000", "095049.749000", "095049.751000", "095049.754000", "095049.756000", "095049.759000", "095049.761000", "095049.763000", "095049.766000", "095129.744000", "095129.747000", "095129.749000", "095129.751000", "095129.754000", "095129.756000", "095129.758000", "095129.761000", "095129.763000", "095129.765000", "095129.767000", "095129.770000", "095129.772000", "095129.775000", "095129.777000", "095129.779000", "095129.781000", "095129.784000", "095129.786000", "095129.788000", "095209.744000", "095209.747000", "095209.749000", "095209.751000", "095209.754000", "095209.756000", "095209.758000", "095209.761000", "095209.763000", "095209.765000", "095209.768000", "095209.770000", "095209.772000", "095209.775000", "095209.777000", "095209.780000", "095209.782000", "095209.784000", "095209.786000", "095209.789000", "095249.744000", "095249.747000", "095249.749000", "095249.751000", "095249.754000", "095249.756000", "095249.759000", "095249.761000", "095249.764000", "095249.766000", "095249.768000", "095249.771000", "095249.773000", "095249.775000", "095249.778000", "095249.780000", "095249.782000", "095249.785000", "095249.787000", "095249.789000", "095305.456000", "095305.461000", "095305.466000", "095305.469000", "095305.472000", "095305.476000", "095305.485000", "095305.487000"],
      "InstanceCreationTime": ["094709.749000", "094709.752000", "094709.755000", "094709.757000", "094709.760000", "094709.762000", "094709.765000", "094709.767000", "094709.769000", "094709.771000", "094709.774000", "094709.776000", "094709.779000", "094709.781000", "094709.783000", "094709.785000", "094709.788000", "094709.790000", "094709.795000", "094709.797000", "094709.800000", "094709.802000", "094749.744000", "094749.747000", "094749.749000", "094749.752000", "094749.754000", "094749.756000", "094749.758000", "094749.761000", "094749.763000", "094749.765000", "094749.768000", "094749.770000", "094749.772000", "094749.775000", "094749.777000", "094749.779000", "094749.782000", "094749.784000", "094749.786000", "094749.789000", "094829.744000", "094829.747000", "094829.749000", "094829.751000", "094829.754000", "094829.756000", "094829.761000", "094829.764000", "094829.766000", "094829.768000", "094829.771000", "094829.773000", "094829.775000", "094829.778000", "094829.780000", "094829.782000", "094829.785000", "094829.787000", "094829.789000", "094829.791000", "094909.744000", "094909.747000", "094909.749000", "094909.752000", "094909.754000", "094909.756000", "094909.759000", "094909.761000", "094909.763000", "094909.765000", "094909.768000", "094909.770000", "094909.772000", "094909.775000", "094909.777000", "094909.779000", "094909.782000", "094909.784000", "094909.786000", "094909.788000", "094949.744000", "094949.747000", "094949.749000", "094949.752000", "094949.754000", "094949.770000", "094949.772000", "094949.775000", "094949.777000", "094949.779000", "094949.782000", "094949.784000", "094949.786000", "094949.789000", "094949.791000", "094949.793000", "094949.796000", "094949.798000", "094949.800000", "094949.803000", "095029.744000", "095029.747000", "095029.749000", "095029.751000", "095029.754000", "095029.756000", "095029.759000", "095029.761000", "095029.764000", "095029.766000", "095029.768000", "095029.771000", "095029.773000", "095029.776000", "095029.778000", "095029.780000", "095029.783000", "095029.785000", "095029.787000", "095029.790000", "095049.744000", "095049.747000", "095049.749000", "095049.751000", "095049.754000", "095049.756000", "095049.759000", "095049.761000", "095049.763000", "095049.766000", "095129.744000", "095129.747000", "095129.749000", "095129.751000", "095129.754000", "095129.756000", "095129.758000", "095129.761000", "095129.763000", "095129.765000", "095129.767000", "095129.770000", "095129.772000", "095129.775000", "095129.777000", "095129.779000", "095129.781000", "095129.784000", "095129.786000", "095129.788000", "095209.744000", "095209.747000", "095209.749000", "095209.751000", "095209.754000", "095209.756000", "095209.758000", "095209.761000", "095209.763000", "095209.765000", "095209.768000", "095209.770000", "095209.772000", "095209.775000", "095209.777000", "095209.780000", "095209.782000", "095209.784000", "095209.786000", "095209.789000", "095249.744000", "095249.747000", "095249.749000", "095249.751000", "095249.754000", "095249.756000", "095249.759000", "095249.761000", "095249.764000", "095249.766000", "095249.768000", "095249.771000", "095249.773000", "095249.775000", "095249.778000", "095249.780000", "095249.782000", "095249.785000", "095249.787000", "095249.789000", "095305.456000", "095305.461000", "095305.466000", "095305.469000", "095305.472000", "095305.476000", "095305.485000", "095305.487000"],
      "InstanceNumber": [1, 2, 3, 4, 5, 6, 7, 8, 9, 10, 11, 12, 13, 14, 15, 16, 17, 18, 19, 20, 21, 22, 23, 24, 25, 26, 27, 28, 29, 30, 31, 32, 33, 34, 35, 36, 37, 38, 39, 40, 41, 42, 43, 44, 45, 46, 47, 48, 49, 50, 51, 52, 53, 54, 55, 56, 57, 58, 59, 60, 61, 62, 63, 64, 65, 66, 67, 68, 69, 70, 71, 72, 73, 74, 75, 76, 77, 78, 79, 80, 81, 82, 83, 84, 85, 86, 87, 88, 89, 90, 91, 92, 93, 94, 95, 96, 97, 98, 99, 100, 101, 102, 103, 104, 105, 106, 107, 108, 109, 110, 111, 112, 113, 114, 115, 116, 117, 118, 119, 120, 121, 122, 123, 124, 125, 126, 127, 128, 129, 130, 131, 132, 133, 134, 135, 136, 137, 138, 139, 140, 141, 142, 143, 144, 145, 146, 147, 148, 149, 150, 151, 152, 153, 154, 155, 156, 157, 158, 159, 160, 161, 162, 163, 164, 165, 166, 167, 168, 169, 170, 171, 172, 173, 174, 175, 176, 177, 178, 179, 180, 181, 182, 183, 184, 185, 186, 187, 188, 189, 190, 191, 192, 193, 194, 195, 196, 197, 198, 199, 200],
      "LargestImagePixelValue": [1859, 1858, 1860, 1855, 1861, 1859, 1858, 1860, 1857, 1867, 1863, 1855, 1859, 1857, 1857, 1862, 1858, 1861, 1861, 1860, 1853, 1857, 1857, 1857, 1856, 1861, 1853, 1856, 1855, 1863, 1857, 1856, 1857, 1860, 1853, 1858, 1857, 1858, 1857, 1856, 1864, 1857, 1858, 1863, 1865, 1861, 1861, 1858, 1859, 1862, 1859, 1857, 1861, 1855, 1863, 1858, 1857, 1858, 1859, 1860, 1856, 1859, 1857, 1860, 1862, 1857, 1857, 1856, 1862, 1858, 1861, 1860, 1862, 1856, 1855, 1859, 1857, 1860, 1858, 1857, 1857, 1858, 1857, 1859, 1864, 1859, 1860, 1857, 1857, 1857, 1858, 1861, 1861, 1860, 1866, 1864, 1861, 1856, 1862, 1860, 1858, 1862, 1863, 1859, 1857, 1860, 1857, 1858, 1857, 1863, 1859, 1864, 1859, 1863, 1863, 1857, 1864, 1864, 1858, 1863, 1859, 1858, 1860, 1859, 1859, 1863, 1864, 1862, 1860, 1859, 1855, 1859, 1863, 1857, 1865, 1861, 1860, 1857, 1861, 1861, 1857, 1857, 1859, 1858, 1862, 1858, 1861, 1859, 1857, 1861, 1863, 1863, 1858, 1867, 1865, 1864, 1861, 1867, 1862, 1864, 1863, 1864, 1864, 1864, 1858, 1864, 1862, 1859, 1860, 1861, 1863, 1860, 1861, 1861, 1860, 1866, 1861, 1862, 1863, 1860, 1863, 1860, 1862, 1859, 1866, 1867, 1867, 1863, 1865, 1863, 1863, 1865, 1861, 1863, 1862, 1861, 1863, 1862, 1860, 1863],
      "WindowCenter": [957.0, 959.0, 958.0, 958.0, 958.0, 957.0, 957.0, 958.0, 958.0, 958.0, 957.0, 957.0, 957.0, 957.0, 958.0, 958.0, 958.0, 958.0, 957.0, 958.0, 957.0, 957.0, 957.0, 957.0, 958.0, 957.0, 957.0, 958.0, 957.0, 957.0, 957.0, 957.0, 957.0, 957.0, 957.0, 957.0, 957.0, 957.0, 957.0, 957.0, 958.0, 957.0, 957.0, 957.0, 957.0, 957.0, 957.0, 957.0, 957.0, 957.0, 956.0, 956.0, 956.0, 957.0, 956.0, 957.0, 957.0, 957.0, 957.0, 957.0, 956.0, 956.0, 957.0, 956.0, 956.0, 956.0, 957.0, 957.0, 956.0, 957.0, 957.0, 956.0, 957.0, 956.0, 956.0, 957.0, 956.0, 957.0, 957.0, 957.0, 956.0, 957.0, 956.0, 957.0, 957.0, 957.0, 957.0, 957.0, 956.0, 957.0, 957.0, 956.0, 957.0, 957.0, 956.0, 956.0, 956.0, 957.0, 957.0, 956.0, 956.0, 956.0, 957.0, 956.0, 957.0, 957.0, 957.0, 956.0, 956.0, 956.0, 956.0, 957.0, 956.0, 957.0, 957.0, 958.0, 957.0, 957.0, 957.0, 956.0, 957.0, 957.0, 957.0, 957.0, 957.0, 956.0, 957.0, 957.0, 957.0, 957.0, 956.0, 957.0, 957.0, 958.0, 956.0, 957.0, 958.0, 957.0, 957.0, 957.0, 957.0, 957.0, 957.0, 957.0, 958.0, 957.0, 957.0, 956.0, 957.0, 957.0, 956.0, 956.0, 956.0, 957.0, 957.0, 956.0, 957.0, 957.0, 957.0, 957.0, 956.0, 957.0, 957.0, 957.0, 957.0, 956.0, 956.0, 956.0, 957.0, 956.0, 957.0, 957.0, 957.0, 957.0, 957.0, 957.0, 957.0, 957.0, 957.0, 956.0, 957.0, 956.0, 957.0, 957.0, 956.0, 956.0, 956.0, 957.0, 957.0, 956.0, 957.0, 957.0, 957.0, 956.0, 956.0, 957.0, 956.0, 956.0, 957.0, 957.0],
      "WindowWidth": [2078.0, 2078.0, 2077.0, 2078.0, 2077.0, 2077.0, 2077.0, 2077.0, 2077.0, 2077.0, 2076.0, 2076.0, 2077.0, 2077.0, 2077.0, 2077.0, 2077.0, 2077.0, 2077.0, 2077.0, 2077.0, 2076.0, 2076.0, 2077.0, 2077.0, 2076.0, 2076.0, 2077.0, 2076.0, 2077.0, 2076.0, 2076.0, 2076.0, 2076.0, 2076.0, 2076.0, 2076.0, 2076.0, 2076.0, 2076.0, 2077.0, 2076.0, 2076.0, 2076.0, 2076.0, 2076.0, 2076.0, 2076.0, 2076.0, 2076.0, 2076.0, 2076.0, 2076.0, 2076.0, 2076.0, 2076.0, 2076.0, 2076.0, 2076.0, 2076.0, 2076.0, 2075.0, 2076.0, 2076.0, 2075.0, 2075.0, 2076.0, 2076.0, 2075.0, 2076.0, 2076.0, 2076.0, 2076.0, 2075.0, 2075.0, 2076.0, 2075.0, 2076.0, 2076.0, 2076.0, 2075.0, 2076.0, 2075.0, 2076.0, 2076.0, 2076.0, 2076.0, 2076.0, 2075.0, 2076.0, 2076.0, 2075.0, 2076.0, 2075.0, 2075.0, 2075.0, 2075.0, 2075.0, 2076.0, 2075.0, 2075.0, 2075.0, 2075.0, 2075.0, 2075.0, 2075.0, 2075.0, 2075.0, 2075.0, 2075.0, 2075.0, 2075.0, 2075.0, 2075.0, 2075.0, 2076.0, 2075.0, 2075.0, 2075.0, 2075.0, 2075.0, 2075.0, 2075.0, 2075.0, 2075.0, 2075.0, 2075.0, 2075.0, 2075.0, 2075.0, 2074.0, 2075.0, 2075.0, 2076.0, 2074.0, 2075.0, 2076.0, 2075.0, 2075.0, 2075.0, 2075.0, 2075.0, 2075.0, 2075.0, 2076.0, 2075.0, 2075.0, 2074.0, 2075.0, 2075.0, 2074.0, 2074.0, 2074.0, 2075.0, 2075.0, 2074.0, 2075.0, 2075.0, 2074.0, 2075.0, 2074.0, 2075.0, 2074.0, 2074.0, 2074.0, 2075.0, 2074.0, 2075.0, 2074.0, 2074.0, 2074.0, 2074.0, 2075.0, 2074.0, 2074.0, 2075.0, 2075.0, 2075.0, 2074.0, 2074.0, 2075.0, 2074.0, 2075.0, 2074.0, 2074.0, 2074.0, 2074.0, 2075.0, 2075.0, 2074.0, 2074.0, 2075.0, 2074.0, 2074.0, 2074.0, 2074.0, 2074.0, 2074.0, 2074.0, 2074.0]
    },
    "slices": {}
  }
}