{
  "AcquisitionMatrixPE": 80,
  "AcquisitionNumber": 1,
  "AcquisitionTime": "10:06:55.462500",
  "BandwidthPerPixelPhaseEncode": 25,
  "BaseResolution": 80,
  "BodyPartExamined": "BRAIN",
  "CoilCombinationMethod": "Sum of Squares",
  "ConsistencyInfo": "N4_VE11E_LATEST_20181129",
  "ConversionSoftware": "dcm2niix",
  "ConversionSoftwareVersion": "v1.0.20220720",
  "DerivedVendorReportedEchoSpacing": 0.0005,
  "DeviceSerialNumber": "66112",
  "DwellTime": 2.7e-06,
  "EchoTime": 0.03,
  "EchoTrainLength": 80,
  "EffectiveEchoSpacing": 0.0005,
  "FlipAngle": 10,
  "HeudiconvVersion": "0.13.1",
  "ImageOrientationPatientDICOM": [0.974967, 0.221795, 0.0156592, -0.215431, 0.924865, 0.313391],
  "ImageOrientationText": "Tra>Cor(18.0)>Sag(-3.2)",
  "ImageType": [
    "ORIGINAL",
    "PRIMARY",
    "M",
    "ND",
    "NORM",
    "MOSAIC"
],
  "ImagingFrequency": 123.259,
  "InPlanePhaseEncodingDirectionDICOM": "COL",
  "InstitutionAddress": "Maynard 3,Hanover,NH,US,03755",
  "InstitutionName": "Dartmouth College - PBS",
  "InstitutionalDepartmentName": "Department",
  "MRAcquisitionType": "2D",
  "MagneticFieldStrength": 3,
  "Manufacturer": "Siemens",
  "ManufacturersModelName": "Prisma",
  "MatrixCoilMode": "SENSE",
  "Modality": "MR",
  "NonlinearGradientCorrection": false,
  "PartialFourier": 1,
  "PatientPosition": "HFS",
  "PercentPhaseFOV": 100,
  "PercentSampling": 100,
  "PhaseEncodingDirection": "j-",
  "PhaseEncodingSteps": 80,
  "PhaseResolution": 1,
  "PixelBandwidth": 2315,
  "ProcedureStepDescription": "dbic^QA",
  "ProtocolName": "func-bold_fa-10",
  "PulseSequenceDetails": "%SiemensSeq%\\ep2d_bold",
  "ReceiveCoilActiveElements": "HEA;HEP",
  "ReceiveCoilName": "Head_32",
  "ReconMatrixPE": 80,
  "RepetitionTime": 2,
  "SAR": 0.0125609,
  "ScanOptions": "FS",
  "ScanningSequence": "EP",
  "SequenceName": "*epfid2d1_80",
  "SequenceVariant": "SK",
  "SeriesDescription": "func-bold_fa-10",
  "SeriesNumber": 10,
  "ShimSetting": [4223, -7731, -7474, -29, -140, 43, -61, 69],
  "SliceThickness": 3.5,
  "SliceTiming": [0.99, 0, 1.0575, 0.0675, 1.1225, 0.1325, 1.1875, 0.1975, 1.255, 0.265, 1.32, 0.33, 1.3875, 0.3975, 1.4525, 0.4625, 1.5175, 0.5275, 1.585, 0.595, 1.65, 0.66, 1.7175, 0.7275, 1.7825, 0.7925, 1.8475, 0.8575, 1.915, 0.925],
  "SoftwareVersions": "syngo MR E11",
  "SpacingBetweenSlices": 3.99,
  "StationName": "AWP66112",
  "TotalReadoutTime": 0.0395,
  "TxRefAmp": 228.101,
  "dcmmeta_affine": [
    [-2.9249024391174316, -0.6462931632995605, -0.21955421566963196, 147.92181396484375],
    [-0.6653862595558167, 2.774595260620117, 1.232589602470398, -85.60041809082031],
    [0.04697750136256218, -0.9401736855506897, 3.788484811782837, -13.003022193908691],
    [0.0, 0.0, 0.0, 1.0]
],
  "dcmmeta_reorient_transform": [
    [0.0, -1.0, 0.0, 79.0],
    [1.0, 0.0, 0.0, 0.0],
    [0.0, 0.0, 1.0, 0.0],
    [0.0, 0.0, 0.0, 1.0]
],
  "dcmmeta_shape": [80, 80, 30, 200],
  "dcmmeta_slice_dim": 2,
  "dcmmeta_version": 0.6,
  "global": {
    "const": {
      "AccessionNumber": "qa",
      "AcquisitionMatrix": [80, 0, 0, 80],
      "AngioFlag": "N",
      "BitsAllocated": 16,
      "BitsStored": 12,
      "BodyPartExamined": "BRAIN",
      "Columns": 480,
      "EchoNumbers": 1,
      "EchoTime": 30.0,
      "EchoTrainLength": 80,
      "FlipAngle": 10.0,
      "HighBit": 11,
      "ImageOrientationPatient": [0.97496747866536, 0.22179541478016, 0.01565916751941, -0.2154310603583, 0.92486507125578, 0.31339122228289],
      "ImagePositionPatient": [-552.58649706002, -821.58889902119, -284.70697584808],
      "ImageType": [
        "ORIGINAL",
        "PRIMARY",
        "M",
        "ND",
        "NORM",
        "MOSAIC"
],
      "ImagedNucleus": "1H",
      "ImagingFrequency": 123.25927,
      "InPlanePhaseEncodingDirection": "COL",
      "MRAcquisitionType": "2D",
      "MagneticFieldStrength": 3.0,
      "Manufacturer": "SIEMENS",
      "ManufacturerModelName": "Prisma",
      "Modality": "MR",
      "NumberOfAverages": 1.0,
      "NumberOfPhaseEncodingSteps": 80,
      "PercentPhaseFieldOfView": 100.0,
      "PercentSampling": 100.0,
      "PerformedProcedureStepStartTime": "093548.249000",
      "PhotometricInterpretation": "MONOCHROME2",
      "PixelBandwidth": 2315.0,
      "PixelRepresentation": 0,
      "PixelSpacing": [3.0, 3.0],
      "ProtocolName": "func-bold_fa-10",
      "RepetitionTime": 2000.0,
      "Rows": 480,
      "SAR": 0.01256090091153,
      "SamplesPerPixel": 1,
      "ScanOptions": "FS",
      "ScanningSequence": "EP",
      "SequenceName": "*epfid2d1_80",
      "SequenceVariant": "SK",
      "SeriesDescription": "func-bold_fa-10",
      "SeriesNumber": 10,
      "SeriesTime": "100749.746000",
      "SliceLocation": -46.929523624008,
      "SliceThickness": 3.5,
      "SmallestImagePixelValue": 0,
      "SoftwareVersions": "syngo MR E11",
      "SpacingBetweenSlices": 3.9899998944139,
      "SpecificCharacterSet": "ISO_IR 100",
      "StudyID": "16",
      "StudyTime": "093548.163000",
      "TransmitCoilName": "Body",
      "VariableFlipAngleFlag": "N",
      "WindowCenterWidthExplanation": "Algo1"
    },
    "slices": {}
  },
  "time": {
    "samples": {
      "AcquisitionNumber": [1, 2, 3, 4, 5, 6, 7, 8, 9, 10, 11, 12, 13, 14, 15, 16, 17, 18, 19, 20, 21, 22, 23, 24, 25, 26, 27, 28, 29, 30, 31, 32, 33, 34, 35, 36, 37, 38, 39, 40, 41, 42, 43, 44, 45, 46, 47, 48, 49, 50, 51, 52, 53, 54, 55, 56, 57, 58, 59, 60, 61, 62, 63, 64, 65, 66, 67, 68, 69, 70, 71, 72, 73, 74, 75, 76, 77, 78, 79, 80, 81, 82, 83, 84, 85, 86, 87, 88, 89, 90, 91, 92, 93, 94, 95, 96, 97, 98, 99, 100, 101, 102, 103, 104, 105, 106, 107, 108, 109, 110, 111, 112, 113, 114, 115, 116, 117, 118, 119, 120, 121, 122, 123, 124, 125, 126, 127, 128, 129, 130, 131, 132, 133, 134, 135, 136, 137, 138, 139, 140, 141, 142, 143, 144, 145, 146, 147, 148, 149, 150, 151, 152, 153, 154, 155, 156, 157, 158, 159, 160, 161, 162, 163, 164, 165, 166, 167, 168, 169, 170, 171, 172, 173, 174, 175, 176, 177, 178, 179, 180, 181, 182, 183, 184, 185, 186, 187, 188, 189, 190, 191, 192, 193, 194, 195, 196, 197, 198, 199, 200],
      "AcquisitionTime": ["100655.462500", "100657.462500", "100659.462500", "100701.462500", "100703.462500", "100705.462500", "100707.462500", "100709.462500", "100711.462500", "100713.462500", "100715.462500", "100717.462500", "100719.462500", "100721.462500", "100723.462500", "100725.462500", "100727.462500", "100729.462500", "100731.462500", "100733.462500", "100735.462500", "100737.462500", "100739.462500", "100741.462500", "100743.462500", "100745.462500", "100747.462500", "100749.462500", "100751.462500", "100753.462500", "100755.462500", "100757.462500", "100759.462500", "100801.462500", "100803.462500", "100805.462500", "100807.462500", "100809.462500", "100811.462500", "100813.462500", "100815.462500", "100817.462500", "100819.462500", "100821.462500", "100823.462500", "100825.462500", "100827.462500", "100829.462500", "100831.462500", "100833.462500", "100835.462500", "100837.462500", "100839.462500", "100841.462500", "100843.462500", "100845.462500", "100847.462500", "100849.462500", "100851.462500", "100853.462500", "100855.462500", "100857.462500", "100859.462500", "100901.462500", "100903.462500", "100905.462500", "100907.462500", "100909.462500", "100911.462500", "100913.462500", "100915.462500", "100917.462500", "100919.462500", "100921.462500", "100923.462500", "100925.462500", "100927.462500", "100929.462500", "100931.462500", "100933.462500", "100935.462500", "100937.462500", "100939.462500", "100941.462500", "100943.462500", "100945.462500", "100947.462500", "100949.462500", "100951.462500", "100953.462500", "100955.462500", "100957.462500", "100959.462500", "101001.462500", "101003.462500", "101005.462500", "101007.462500", "101009.462500", "101011.462500", "101013.462500", "101015.462500", "101017.462500", "101019.462500", "101021.462500", "101023.462500", "101025.462500", "101027.462500", "101029.462500", "101031.462500", "101033.462500", "101035.462500", "101037.462500", "101039.462500", "101041.462500", "101043.462500", "101045.462500", "101047.462500", "101049.462500", "101051.462500", "101053.462500", "101055.462500", "101057.462500", "101059.462500", "101101.462500", "101103.462500", "101105.462500", "101107.462500", "101109.462500", "101111.462500", "101113.462500", "101115.462500", "101117.462500", "101119.462500", "101121.462500", "101123.462500", "101125.462500", "101127.462500", "101129.462500", "101131.462500", "101133.462500", "101135.462500", "101137.462500", "101139.462500", "101141.462500", "101143.462500", "101145.462500", "101147.462500", "101149.462500", "101151.462500", "101153.462500", "101155.462500", "101157.462500", "101159.462500", "101201.462500", "101203.462500", "101205.462500", "101207.462500", "101209.462500", "101211.462500", "101213.462500", "101215.462500", "101217.462500", "101219.462500", "101221.462500", "101223.462500", "101225.462500", "101227.462500", "101229.462500", "101231.462500", "101233.462500", "101235.462500", "101237.462500", "101239.462500", "101241.462500", "101243.462500", "101245.462500", "101247.462500", "101249.462500", "101251.462500", "101253.462500", "101255.462500", "101257.462500", "101259.462500", "101301.462500", "101303.462500", "101305.462500", "101307.462500", "101309.462500", "101311.462500", "101313.462500", "101315.462500", "101317.462500", "101319.462500", "101321.462500", "101323.462500", "101325.462500", "101327.462500", "101329.462500", "101331.462500", "101333.462500"],
      "ContentTime": ["100749.749000", "100749.752000", "100749.755000", "100749.757000", "100749.759000", "100749.762000", "100749.764000", "100749.766000", "100749.768000", "100749.771000", "100749.773000", "100749.775000", "100749.778000", "100749.780000", "100749.782000", "100749.785000", "100749.787000", "100749.789000", "100749.791000", "100749.794000", "100749.796000", "100749.798000", "100749.801000", "100749.803000", "100749.805000", "100749.808000", "100749.817000", "100829.744000", "100829.747000", "100829.749000", "100829.751000", "100829.754000", "100829.756000", "100829.758000", "100829.760000", "100829.763000", "100829.765000", "100829.782000", "100829.785000", "100829.787000", "100829.789000", "100829.792000", "100829.794000", "100829.796000", "100829.798000", "100829.802000", "100829.804000", "100909.744000", "100909.747000", "100909.749000", "100909.751000", "100909.754000", "100909.756000", "100909.758000", "100909.761000", "100909.763000", "100909.765000", "100909.768000", "100909.770000", "100909.772000", "100909.774000", "100909.777000", "100909.779000", "100909.781000", "100909.784000", "100909.786000", "100909.788000", "100949.745000", "100949.748000", "100949.750000", "100949.752000", "100949.755000", "100949.757000", "100949.759000", "100949.761000", "100949.764000", "100949.766000", "100949.768000", "100949.771000", "100949.773000", "100949.775000", "100949.778000", "100949.780000", "100949.782000", "100949.784000", "100949.787000", "100949.789000", "101029.744000", "101029.747000", "101029.749000", "101029.751000", "101029.754000", "101029.756000", "101029.758000", "101029.761000", "101029.763000", "101029.765000", "101029.768000", "101029.770000", "101029.772000", "101029.774000", "101029.777000", "101029.779000", "101029.781000", "101029.784000", "101029.786000", "101029.788000", "101109.744000", "101109.748000", "101109.750000", "101109.752000", "101109.755000", "101109.757000", "101109.759000", "101109.762000", "101109.764000", "101109.766000", "101109.768000", "101109.771000", "101109.773000", "101109.775000", "101109.778000", "101109.780000", "101109.782000", "101109.784000", "101109.787000", "101109.789000", "101149.745000", "101149.748000", "101149.750000", "101149.753000", "101149.755000", "101149.757000", "101149.760000", "101149.762000", "101149.764000", "101149.767000", "101149.769000", "101149.771000", "101149.774000", "101149.776000", "101149.778000", "101149.781000", "101149.783000", "101149.786000", "101149.788000", "101149.790000", "101229.744000", "101229.747000", "101229.749000", "101229.751000", "101229.754000", "101229.756000", "101229.758000", "101229.761000", "101229.763000", "101229.765000", "101229.768000", "101229.770000", "101229.772000", "101229.774000", "101229.777000", "101229.779000", "101229.781000", "101229.784000", "101229.786000", "101229.788000", "101309.744000", "101309.747000", "101309.749000", "101309.751000", "101309.754000", "101309.756000", "101309.758000", "101309.761000", "101309.763000", "101309.765000", "101309.767000", "101309.770000", "101309.772000", "101309.774000", "101309.777000", "101309.779000", "101309.781000", "101309.784000", "101309.786000", "101309.788000", "101335.497000", "101335.500000", "101335.503000", "101335.505000", "101335.507000", "101335.510000", "101335.512000", "101335.514000", "101335.517000", "101335.519000", "101335.521000", "101335.524000", "101335.526000"],
      "InstanceCreationTime": ["100749.749000", "100749.752000", "100749.755000", "100749.757000", "100749.759000", "100749.762000", "100749.764000", "100749.766000", "100749.768000", "100749.771000", "100749.773000", "100749.775000", "100749.778000", "100749.780000", "100749.782000", "100749.785000", "100749.787000", "100749.789000", "100749.791000", "100749.794000", "100749.796000", "100749.798000", "100749.801000", "100749.803000", "100749.805000", "100749.808000", "100749.817000", "100829.744000", "100829.747000", "100829.749000", "100829.751000", "100829.754000", "100829.756000", "100829.758000", "100829.760000", "100829.763000", "100829.765000", "100829.782000", "100829.785000", "100829.787000", "100829.789000", "100829.792000", "100829.794000", "100829.796000", "100829.798000", "100829.802000", "100829.804000", "100909.744000", "100909.747000", "100909.749000", "100909.751000", "100909.754000", "100909.756000", "100909.758000", "100909.761000", "100909.763000", "100909.765000", "100909.768000", "100909.770000", "100909.772000", "100909.774000", "100909.777000", "100909.779000", "100909.781000", "100909.784000", "100909.786000", "100909.788000", "100949.745000", "100949.748000", "100949.750000", "100949.752000", "100949.755000", "100949.757000", "100949.759000", "100949.761000", "100949.764000", "100949.766000", "100949.768000", "100949.771000", "100949.773000", "100949.775000", "100949.778000", "100949.780000", "100949.782000", "100949.784000", "100949.787000", "100949.789000", "101029.744000", "101029.747000", "101029.749000", "101029.751000", "101029.754000", "101029.756000", "101029.758000", "101029.761000", "101029.763000", "101029.765000", "101029.768000", "101029.770000", "101029.772000", "101029.774000", "101029.777000", "101029.779000", "101029.781000", "101029.784000", "101029.786000", "101029.788000", "101109.744000", "101109.748000", "101109.750000", "101109.752000", "101109.755000", "101109.757000", "101109.759000", "101109.762000", "101109.764000", "101109.766000", "101109.768000", "101109.771000", "101109.773000", "101109.775000", "101109.778000", "101109.780000", "101109.782000", "101109.784000", "101109.787000", "101109.789000", "101149.745000", "101149.748000", "101149.750000", "101149.753000", "101149.755000", "101149.757000", "101149.760000", "101149.762000", "101149.764000", "101149.767000", "101149.769000", "101149.771000", "101149.774000", "101149.776000", "101149.778000", "101149.781000", "101149.783000", "101149.786000", "101149.788000", "101149.790000", "101229.744000", "101229.747000", "101229.749000", "101229.751000", "101229.754000", "101229.756000", "101229.758000", "101229.761000", "101229.763000", "101229.765000", "101229.768000", "101229.770000", "101229.772000", "101229.774000", "101229.777000", "101229.779000", "101229.781000", "101229.784000", "101229.786000", "101229.788000", "101309.744000", "101309.747000", "101309.749000", "101309.751000", "101309.754000", "101309.756000", "101309.758000", "101309.761000", "101309.763000", "101309.765000", "101309.767000", "101309.770000", "101309.772000", "101309.774000", "101309.777000", "101309.779000", "101309.781000", "101309.784000", "101309.786000", "101309.788000", "101335.497000", "101335.500000", "101335.503000", "101335.505000", "101335.507000", "101335.510000", "101335.512000", "101335.514000", "101335.517000", "101335.519000", "101335.521000", "101335.524000", "101335.526000"],
      "InstanceNumber": [1, 2, 3, 4, 5, 6, 7, 8, 9, 10, 11, 12, 13, 14, 15, 16, 17, 18, 19, 20, 21, 22, 23, 24, 25, 26, 27, 28, 29, 30, 31, 32, 33, 34, 35, 36, 37, 38, 39, 40, 41, 42, 43, 44, 45, 46, 47, 48, 49, 50, 51, 52, 53, 54, 55, 56, 57, 58, 59, 60, 61, 62, 63, 64, 65, 66, 67, 68, 69, 70, 71, 72, 73, 74, 75, 76, 77, 78, 79, 80, 81, 82, 83, 84, 85, 86, 87, 88, 89, 90, 91, 92, 93, 94, 95, 96, 97, 98, 99, 100, 101, 102, 103, 104, 105, 106, 107, 108, 109, 110, 111, 112, 113, 114, 115, 116, 117, 118, 119, 120, 121, 122, 123, 124, 125, 126, 127, 128, 129, 130, 131, 132, 133, 134, 135, 136, 137, 138, 139, 140, 141, 142, 143, 144, 145, 146, 147, 148, 149, 150, 151, 152, 153, 154, 155, 156, 157, 158, 159, 160, 161, 162, 163, 164, 165, 166, 167, 168, 169, 170, 171, 172, 173, 174, 175, 176, 177, 178, 179, 180, 181, 182, 183, 184, 185, 186, 187, 188, 189, 190, 191, 192, 193, 194, 195, 196, 197, 198, 199, 200],
      "LargestImagePixelValue": [317, 319, 317, 319, 319, 317, 318, 317, 318, 319, 317, 316, 318, 318, 319, 320, 320, 317, 317, 318, 317, 316, 318, 317, 320, 318, 321, 318, 319, 317, 318, 316, 323, 318, 322, 318, 316, 318, 321, 318, 320, 317, 318, 316, 318, 317, 320, 316, 319, 318, 316, 315, 320, 318, 316, 317, 320, 315, 317, 317, 316, 320, 315, 316, 317, 318, 319, 318, 314, 316, 320, 317, 318, 316, 316, 316, 318, 316, 316, 316, 315, 315, 319, 315, 318, 317, 317, 315, 319, 316, 316, 315, 316, 316, 316, 316, 317, 317, 316, 319, 316, 318, 315, 317, 316, 315, 316, 321, 319, 315, 316, 314, 316, 317, 315, 316, 318, 315, 318, 316, 316, 315, 316, 317, 317, 316, 318, 318, 317, 318, 318, 316, 316, 316, 316, 316, 316, 316, 316, 316, 318, 317, 315, 316, 316, 315, 315, 318, 316, 318, 317, 316, 318, 318, 316, 315, 315, 316, 316, 316, 319, 316, 318, 315, 318, 316, 318, 317, 319, 317, 320, 316, 316, 314, 317, 315, 313, 316, 314, 317, 314, 315, 314, 316, 316, 316, 317, 316, 315, 314, 317, 316, 317, 319, 316, 315, 315, 316, 318, 318],
      "WindowCenter": [264.0, 265.0, 265.0, 264.0, 265.0, 265.0, 265.0, 265.0, 265.0, 264.0, 265.0, 265.0, 264.0, 265.0, 264.0, 264.0, 264.0, 264.0, 264.0, 264.0, 264.0, 264.0, 264.0, 264.0, 265.0, 264.0, 264.0, 264.0, 264.0, 264.0, 264.0, 264.0, 264.0, 264.0, 264.0, 265.0, 265.0, 264.0, 264.0, 264.0, 264.0, 265.0, 264.0, 264.0, 264.0, 264.0, 264.0, 264.0, 264.0, 264.0, 265.0, 265.0, 264.0, 265.0, 264.0, 264.0, 264.0, 264.0, 264.0, 264.0, 264.0, 264.0, 264.0, 264.0, 264.0, 264.0, 264.0, 264.0, 264.0, 264.0, 264.0, 264.0, 264.0, 264.0, 264.0, 264.0, 264.0, 264.0, 264.0, 264.0, 264.0, 264.0, 264.0, 264.0, 264.0, 264.0, 264.0, 264.0, 264.0, 264.0, 264.0, 264.0, 264.0, 264.0, 264.0, 264.0, 264.0, 264.0, 264.0, 264.0, 264.0, 264.0, 264.0, 264.0, 264.0, 264.0, 264.0, 263.0, 264.0, 264.0, 263.0, 264.0, 264.0, 264.0, 264.0, 264.0, 264.0, 264.0, 264.0, 264.0, 264.0, 264.0, 264.0, 264.0, 264.0, 264.0, 264.0, 264.0, 264.0, 264.0, 264.0, 264.0, 264.0, 264.0, 264.0, 264.0, 264.0, 264.0, 264.0, 264.0, 264.0, 264.0, 264.0, 264.0, 264.0, 264.0, 264.0, 264.0, 264.0, 264.0, 264.0, 264.0, 264.0, 264.0, 264.0, 264.0, 264.0, 264.0, 264.0, 264.0, 264.0, 264.0, 264.0, 264.0, 264.0, 264.0, 264.0, 264.0, 264.0, 264.0, 264.0, 264.0, 264.0, 264.0, 264.0, 264.0, 264.0, 264.0, 264.0, 264.0, 264.0, 264.0, 264.0, 264.0, 264.0, 264.0, 263.0, 264.0, 264.0, 264.0, 264.0, 264.0, 264.0, 264.0, 264.0, 264.0, 264.0, 264.0, 264.0, 264.0],
      "WindowWidth": [584.0, 584.0, 584.0, 583.0, 584.0, 584.0, 584.0, 584.0, 584.0, 583.0, 584.0, 584.0, 583.0, 584.0, 583.0, 583.0, 583.0, 583.0, 584.0, 583.0, 583.0, 583.0, 583.0, 584.0, 584.0, 584.0, 583.0, 583.0, 583.0, 583.0, 583.0, 583.0, 583.0, 583.0, 583.0, 584.0, 584.0, 583.0, 583.0, 583.0, 583.0, 584.0, 583.0, 583.0, 583.0, 583.0, 584.0, 583.0, 583.0, 583.0, 584.0, 584.0, 583.0, 584.0, 583.0, 583.0, 583.0, 583.0, 583.0, 583.0, 583.0, 583.0, 583.0, 583.0, 583.0, 583.0, 583.0, 583.0, 583.0, 583.0, 583.0, 583.0, 583.0, 583.0, 583.0, 583.0, 583.0, 583.0, 583.0, 583.0, 583.0, 583.0, 583.0, 583.0, 583.0, 583.0, 583.0, 583.0, 583.0, 583.0, 583.0, 583.0, 583.0, 583.0, 583.0, 583.0, 583.0, 583.0, 583.0, 583.0, 583.0, 583.0, 583.0, 583.0, 582.0, 583.0, 583.0, 582.0, 583.0, 583.0, 582.0, 583.0, 583.0, 583.0, 583.0, 583.0, 583.0, 583.0, 583.0, 583.0, 583.0, 583.0, 583.0, 583.0, 583.0, 583.0, 583.0, 583.0, 583.0, 583.0, 583.0, 582.0, 583.0, 583.0, 583.0, 583.0, 583.0, 583.0, 583.0, 583.0, 583.0, 583.0, 583.0, 583.0, 583.0, 583.0, 583.0, 583.0, 582.0, 583.0, 583.0, 583.0, 583.0, 583.0, 583.0, 583.0, 583.0, 583.0, 583.0, 583.0, 583.0, 583.0, 583.0, 583.0, 583.0, 582.0, 583.0, 583.0, 582.0, 583.0, 583.0, 583.0, 583.0, 582.0, 583.0, 583.0, 582.0, 583.0, 583.0, 583.0, 583.0, 583.0, 583.0, 582.0, 583.0, 583.0, 582.0, 582.0, 583.0, 583.0, 582.0, 583.0, 582.0, 583.0, 583.0, 583.0, 583.0, 582.0, 582.0, 583.0]
    },
    "slices": {}
  }
}