{
  "AcquisitionMatrixPE": 80,
  "AcquisitionNumber": 1,
  "AcquisitionTime": "08:43:47.455000",
  "BandwidthPerPixelPhaseEncode": 25,
  "BaseResolution": 80,
  "BodyPartExamined": "BRAIN",
  "CoilCombinationMethod": "Sum of Squares",
  "ConsistencyInfo": "N4_VE11E_LATEST_20181129",
  "ConversionSoftware": "dcm2niix",
  "ConversionSoftwareVersion": "v1.0.20220720",
  "DerivedVendorReportedEchoSpacing": 0.0005,
  "DeviceSerialNumber": "66112",
  "DwellTime": 2.7e-06,
  "EchoTime": 0.03,
  "EchoTrainLength": 80,
  "EffectiveEchoSpacing": 0.0005,
  "FlipAngle": 77,
  "HeudiconvVersion": "0.13.1",
  "ImageOrientationPatientDICOM": [0.987832, -0.155505, 0.00228771, 0.147985, 0.944381, 0.293674],
  "ImageOrientationText": "Tra>Cor(16.9)>Sag(2.7)",
  "ImageType": [
    "ORIGINAL",
    "PRIMARY",
    "M",
    "ND",
    "NORM",
    "MOSAIC"
],
  "ImagingFrequency": 123.259,
  "InPlanePhaseEncodingDirectionDICOM": "COL",
  "InstitutionAddress": "Maynard 3,Hanover,NH,US,03755",
  "InstitutionName": "Dartmouth College - PBS",
  "InstitutionalDepartmentName": "Department",
  "MRAcquisitionType": "2D",
  "MagneticFieldStrength": 3,
  "Manufacturer": "Siemens",
  "ManufacturersModelName": "Prisma",
  "MatrixCoilMode": "SENSE",
  "Modality": "MR",
  "NonlinearGradientCorrection": false,
  "PartialFourier": 1,
  "PatientPosition": "HFS",
  "PercentPhaseFOV": 100,
  "PercentSampling": 100,
  "PhaseEncodingDirection": "j-",
  "PhaseEncodingSteps": 80,
  "PhaseResolution": 1,
  "PixelBandwidth": 2315,
  "ProcedureStepDescription": "dbic^QA",
  "ProtocolName": "func-bold_fa-77",
  "PulseSequenceDetails": "%SiemensSeq%\\ep2d_bold",
  "ReceiveCoilActiveElements": "HC1-7;NC1,2",
  "ReceiveCoilName": "HeadNeck_64",
  "ReconMatrixPE": 80,
  "RepetitionTime": 2,
  "SAR": 0.0320593,
  "ScanOptions": "FS",
  "ScanningSequence": "EP",
  "SequenceName": "*epfid2d1_80",
  "SequenceVariant": "SK",
  "SeriesDescription": "func-bold_fa-77",
  "SeriesNumber": 6,
  "ShimSetting": [4213, -7755, -7496, -119, -163, -270, -44, 121],
  "SliceThickness": 3.5,
  "SliceTiming": [0.99, 0, 1.055, 0.065, 1.1225, 0.1325, 1.1875, 0.1975, 1.255, 0.265, 1.32, 0.33, 1.385, 0.395, 1.4525, 0.4625, 1.5175, 0.5275, 1.585, 0.595, 1.65, 0.66, 1.715, 0.725, 1.7825, 0.7925, 1.8475, 0.8575, 1.915, 0.925],
  "SoftwareVersions": "syngo MR E11",
  "SpacingBetweenSlices": 3.99,
  "StationName": "AWP66112",
  "TotalReadoutTime": 0.0395,
  "TxRefAmp": 211.141,
  "dcmmeta_affine": [
    [-2.9634971618652344, 0.44395512342453003, 0.19083501398563385, 98.61308288574219],
    [0.46651577949523926, 2.833143949508667, 1.1561510562896729, -140.46937561035156],
    [0.006863130256533623, -0.8810220956802368, 3.8140523433685303, -19.456100463867188],
    [0.0, 0.0, 0.0, 1.0]
],
  "dcmmeta_reorient_transform": [
    [0.0, -1.0, 0.0, 79.0],
    [1.0, 0.0, 0.0, 0.0],
    [0.0, 0.0, 1.0, 0.0],
    [0.0, 0.0, 0.0, 1.0]
],
  "dcmmeta_shape": [80, 80, 30, 200],
  "dcmmeta_slice_dim": 2,
  "dcmmeta_version": 0.6,
  "global": {
    "const": {
      "AccessionNumber": "qa64",
      "AcquisitionMatrix": [80, 0, 0, 80],
      "AngioFlag": "N",
      "BitsAllocated": 16,
      "BitsStored": 12,
      "BodyPartExamined": "BRAIN",
      "Columns": 480,
      "EchoNumbers": 1,
      "EchoTime": 30.0,
      "EchoTrainLength": 80,
      "FlipAngle": 77.0,
      "HighBit": 11,
      "ImageOrientationPatient": [0.98783241461161, -0.1555052636567, 0.00228771013076, 0.14798503906651, 0.9443812772024, 0.29367402248421],
      "ImagePositionPatient": [-815.17600613761, -556.67459816109, -266.63388272448],
      "ImageType": [
        "ORIGINAL",
        "PRIMARY",
        "M",
        "ND",
        "NORM",
        "MOSAIC"
],
      "ImagedNucleus": "1H",
      "ImagingFrequency": 123.259117,
      "InPlanePhaseEncodingDirection": "COL",
      "MRAcquisitionType": "2D",
      "MagneticFieldStrength": 3.0,
      "Manufacturer": "SIEMENS",
      "ManufacturerModelName": "Prisma",
      "Modality": "MR",
      "NumberOfAverages": 1.0,
      "NumberOfPhaseEncodingSteps": 80,
      "PercentPhaseFieldOfView": 100.0,
      "PercentSampling": 100.0,
      "PerformedProcedureStepStartTime": "083408.878000",
      "PhotometricInterpretation": "MONOCHROME2",
      "PixelBandwidth": 2315.0,
      "PixelRepresentation": 0,
      "PixelSpacing": [3.0, 3.0],
      "ProtocolName": "func-bold_fa-77",
      "RepetitionTime": 2000.0,
      "Rows": 480,
      "SAR": 0.03205930424704,
      "SamplesPerPixel": 1,
      "ScanOptions": "FS",
      "ScanningSequence": "EP",
      "SequenceName": "*epfid2d1_80",
      "SequenceVariant": "SK",
      "SeriesDescription": "func-bold_fa-77",
      "SeriesNumber": 6,
      "SeriesTime": "084447.068000",
      "SliceLocation": -54.584353941745,
      "SliceThickness": 3.5,
      "SmallestImagePixelValue": 0,
      "SoftwareVersions": "syngo MR E11",
      "SpacingBetweenSlices": 3.9899999286866,
      "SpecificCharacterSet": "ISO_IR 100",
      "StudyID": "10",
      "StudyTime": "083408.785000",
      "TransmitCoilName": "Body",
      "VariableFlipAngleFlag": "N",
      "WindowCenterWidthExplanation": "Algo1"
    },
    "slices": {}
  },
  "time": {
    "samples": {
      "AcquisitionNumber": [1, 2, 3, 4, 5, 6, 7, 8, 9, 10, 11, 12, 13, 14, 15, 16, 17, 18, 19, 20, 21, 22, 23, 24, 25, 26, 27, 28, 29, 30, 31, 32, 33, 34, 35, 36, 37, 38, 39, 40, 41, 42, 43, 44, 45, 46, 47, 48, 49, 50, 51, 52, 53, 54, 55, 56, 57, 58, 59, 60, 61, 62, 63, 64, 65, 66, 67, 68, 69, 70, 71, 72, 73, 74, 75, 76, 77, 78, 79, 80, 81, 82, 83, 84, 85, 86, 87, 88, 89, 90, 91, 92, 93, 94, 95, 96, 97, 98, 99, 100, 101, 102, 103, 104, 105, 106, 107, 108, 109, 110, 111, 112, 113, 114, 115, 116, 117, 118, 119, 120, 121, 122, 123, 124, 125, 126, 127, 128, 129, 130, 131, 132, 133, 134, 135, 136, 137, 138, 139, 140, 141, 142, 143, 144, 145, 146, 147, 148, 149, 150, 151, 152, 153, 154, 155, 156, 157, 158, 159, 160, 161, 162, 163, 164, 165, 166, 167, 168, 169, 170, 171, 172, 173, 174, 175, 176, 177, 178, 179, 180, 181, 182, 183, 184, 185, 186, 187, 188, 189, 190, 191, 192, 193, 194, 195, 196, 197, 198, 199, 200],
      "AcquisitionTime": ["084347.455000", "084349.455000", "084351.455000", "084353.455000", "084355.455000", "084357.455000", "084359.455000", "084401.455000", "084403.455000", "084405.455000", "084407.455000", "084409.455000", "084411.455000", "084413.455000", "084415.455000", "084417.455000", "084419.455000", "084421.455000", "084423.455000", "084425.455000", "084427.455000", "084429.455000", "084431.455000", "084433.455000", "084435.455000", "084437.455000", "084439.455000", "084441.455000", "084443.455000", "084445.455000", "084447.455000", "084449.455000", "084451.455000", "084453.455000", "084455.455000", "084457.455000", "084459.455000", "084501.455000", "084503.455000", "084505.455000", "084507.455000", "084509.455000", "084511.455000", "084513.455000", "084515.455000", "084517.455000", "084519.455000", "084521.455000", "084523.455000", "084525.455000", "084527.455000", "084529.455000", "084531.455000", "084533.455000", "084535.455000", "084537.455000", "084539.455000", "084541.455000", "084543.455000", "084545.455000", "084547.455000", "084549.455000", "084551.455000", "084553.455000", "084555.455000", "084557.455000", "084559.455000", "084601.455000", "084603.455000", "084605.455000", "084607.455000", "084609.455000", "084611.455000", "084613.455000", "084615.455000", "084617.455000", "084619.455000", "084621.455000", "084623.455000", "084625.455000", "084627.455000", "084629.455000", "084631.455000", "084633.455000", "084635.455000", "084637.455000", "084639.455000", "084641.455000", "084643.455000", "084645.455000", "084647.455000", "084649.455000", "084651.455000", "084653.455000", "084655.455000", "084657.455000", "084659.455000", "084701.455000", "084703.455000", "084705.455000", "084707.455000", "084709.455000", "084711.455000", "084713.455000", "084715.455000", "084717.455000", "084719.455000", "084721.455000", "084723.455000", "084725.455000", "084727.455000", "084729.455000", "084731.455000", "084733.455000", "084735.455000", "084737.455000", "084739.455000", "084741.455000", "084743.455000", "084745.455000", "084747.455000", "084749.455000", "084751.455000", "084753.455000", "084755.455000", "084757.455000", "084759.455000", "084801.455000", "084803.455000", "084805.455000", "084807.455000", "084809.455000", "084811.455000", "084813.455000", "084815.455000", "084817.455000", "084819.455000", "084821.455000", "084823.455000", "084825.455000", "084827.455000", "084829.455000", "084831.455000", "084833.455000", "084835.455000", "084837.455000", "084839.455000", "084841.455000", "084843.455000", "084845.455000", "084847.455000", "084849.455000", "084851.455000", "084853.455000", "084855.455000", "084857.455000", "084859.455000", "084901.455000", "084903.455000", "084905.455000", "084907.455000", "084909.455000", "084911.455000", "084913.455000", "084915.455000", "084917.455000", "084919.455000", "084921.455000", "084923.455000", "084925.455000", "084927.455000", "084929.455000", "084931.455000", "084933.455000", "084935.455000", "084937.455000", "084939.455000", "084941.455000", "084943.455000", "084945.455000", "084947.455000", "084949.455000", "084951.455000", "084953.455000", "084955.455000", "084957.455000", "084959.455000", "085001.455000", "085003.455000", "085005.455000", "085007.455000", "085009.455000", "085011.455000", "085013.455000", "085015.455000", "085017.455000", "085019.455000", "085021.455000", "085023.455000", "085025.455000"],
      "ContentTime": ["084447.071000", "084447.080000", "084447.083000", "084447.085000", "084447.087000", "084447.090000", "084447.097000", "084447.099000", "084447.101000", "084447.103000", "084447.106000", "084447.108000", "084447.110000", "084447.113000", "084447.115000", "084447.117000", "084447.119000", "084447.122000", "084447.124000", "084447.126000", "084447.128000", "084447.131000", "084447.133000", "084447.136000", "084447.138000", "084447.140000", "084447.142000", "084447.151000", "084447.153000", "084527.045000", "084527.056000", "084527.058000", "084527.060000", "084527.063000", "084527.065000", "084527.067000", "084527.069000", "084527.072000", "084527.074000", "084527.076000", "084527.079000", "084527.081000", "084527.083000", "084527.086000", "084527.088000", "084527.090000", "084527.092000", "084527.095000", "084527.097000", "084547.045000", "084547.048000", "084547.050000", "084547.052000", "084547.054000", "084547.057000", "084547.059000", "084547.061000", "084547.063000", "084547.066000", "084627.046000", "084627.049000", "084627.051000", "084627.053000", "084627.056000", "084627.058000", "084627.060000", "084627.063000", "084627.065000", "084627.067000", "084627.070000", "084627.072000", "084627.074000", "084627.076000", "084627.079000", "084627.081000", "084627.083000", "084627.085000", "084627.088000", "084627.090000", "084707.045000", "084707.048000", "084707.050000", "084707.052000", "084707.054000", "084707.057000", "084707.059000", "084707.061000", "084707.064000", "084707.066000", "084707.068000", "084707.070000", "084707.073000", "084707.075000", "084707.077000", "084707.080000", "084707.082000", "084707.084000", "084707.086000", "084707.089000", "084747.045000", "084747.048000", "084747.050000", "084747.052000", "084747.054000", "084747.057000", "084747.059000", "084747.061000", "084747.064000", "084747.066000", "084747.068000", "084747.070000", "084747.073000", "084747.075000", "084747.077000", "084747.080000", "084747.082000", "084747.084000", "084747.086000", "084747.098000", "084827.045000", "084827.057000", "084827.060000", "084827.062000", "084827.064000", "084827.066000", "084827.069000", "084827.071000", "084827.073000", "084827.078000", "084827.081000", "084827.083000", "084827.085000", "084827.088000", "084827.090000", "084827.092000", "084827.094000", "084827.097000", "084827.099000", "084827.102000", "084907.046000", "084907.049000", "084907.051000", "084907.054000", "084907.056000", "084907.058000", "084907.060000", "084907.063000", "084907.065000", "084907.067000", "084907.070000", "084907.072000", "084907.074000", "084907.076000", "084907.079000", "084907.081000", "084907.083000", "084907.085000", "084907.088000", "084907.090000", "084947.045000", "084947.048000", "084947.050000", "084947.052000", "084947.054000", "084947.057000", "084947.059000", "084947.061000", "084947.064000", "084947.066000", "084947.068000", "084947.071000", "084947.073000", "084947.075000", "084947.077000", "084947.080000", "084947.082000", "084947.084000", "084947.086000", "084947.089000", "085027.045000", "085027.048000", "085027.050000", "085027.052000", "085027.054000", "085027.057000", "085027.059000", "085027.061000", "085027.063000", "085027.066000", "085027.068000", "085027.070000", "085027.073000", "085027.075000", "085027.077000", "085027.079000", "085027.082000", "085027.084000", "085027.086000", "085027.088000", "085027.248000"],
      "InstanceCreationTime": ["084447.071000", "084447.080000", "084447.083000", "084447.085000", "084447.087000", "084447.090000", "084447.097000", "084447.099000", "084447.101000", "084447.103000", "084447.106000", "084447.108000", "084447.110000", "084447.113000", "084447.115000", "084447.117000", "084447.119000", "084447.122000", "084447.124000", "084447.126000", "084447.128000", "084447.131000", "084447.133000", "084447.136000", "084447.138000", "084447.140000", "084447.142000", "084447.151000", "084447.153000", "084527.045000", "084527.056000", "084527.058000", "084527.060000", "084527.063000", "084527.065000", "084527.067000", "084527.069000", "084527.072000", "084527.074000", "084527.076000", "084527.079000", "084527.081000", "084527.083000", "084527.086000", "084527.088000", "084527.090000", "084527.092000", "084527.095000", "084527.097000", "084547.045000", "084547.048000", "084547.050000", "084547.052000", "084547.054000", "084547.057000", "084547.059000", "084547.061000", "084547.063000", "084547.066000", "084627.046000", "084627.049000", "084627.051000", "084627.053000", "084627.056000", "084627.058000", "084627.060000", "084627.063000", "084627.065000", "084627.067000", "084627.070000", "084627.072000", "084627.074000", "084627.076000", "084627.079000", "084627.081000", "084627.083000", "084627.085000", "084627.088000", "084627.090000", "084707.045000", "084707.048000", "084707.050000", "084707.052000", "084707.054000", "084707.057000", "084707.059000", "084707.061000", "084707.064000", "084707.066000", "084707.068000", "084707.070000", "084707.073000", "084707.075000", "084707.077000", "084707.080000", "084707.082000", "084707.084000", "084707.086000", "084707.089000", "084747.045000", "084747.048000", "084747.050000", "084747.052000", "084747.054000", "084747.057000", "084747.059000", "084747.061000", "084747.064000", "084747.066000", "084747.068000", "084747.070000", "084747.073000", "084747.075000", "084747.077000", "084747.080000", "084747.082000", "084747.084000", "084747.086000", "084747.098000", "084827.045000", "084827.057000", "084827.060000", "084827.062000", "084827.064000", "084827.066000", "084827.069000", "084827.071000", "084827.073000", "084827.078000", "084827.081000", "084827.083000", "084827.085000", "084827.088000", "084827.090000", "084827.092000", "084827.094000", "084827.097000", "084827.099000", "084827.102000", "084907.046000", "084907.049000", "084907.051000", "084907.054000", "084907.056000", "084907.058000", "084907.060000", "084907.063000", "084907.065000", "084907.067000", "084907.070000", "084907.072000", "084907.074000", "084907.076000", "084907.079000", "084907.081000", "084907.083000", "084907.085000", "084907.088000", "084907.090000", "084947.045000", "084947.048000", "084947.050000", "084947.052000", "084947.054000", "084947.057000", "084947.059000", "084947.061000", "084947.064000", "084947.066000", "084947.068000", "084947.071000", "084947.073000", "084947.075000", "084947.077000", "084947.080000", "084947.082000", "084947.084000", "084947.086000", "084947.089000", "085027.045000", "085027.048000", "085027.050000", "085027.052000", "085027.054000", "085027.057000", "085027.059000", "085027.061000", "085027.063000", "085027.066000", "085027.068000", "085027.070000", "085027.073000", "085027.075000", "085027.077000", "085027.079000", "085027.082000", "085027.084000", "085027.086000", "085027.088000", "085027.248000"],
      "InstanceNumber": [1, 2, 3, 4, 5, 6, 7, 8, 9, 10, 11, 12, 13, 14, 15, 16, 17, 18, 19, 20, 21, 22, 23, 24, 25, 26, 27, 28, 29, 30, 31, 32, 33, 34, 35, 36, 37, 38, 39, 40, 41, 42, 43, 44, 45, 46, 47, 48, 49, 50, 51, 52, 53, 54, 55, 56, 57, 58, 59, 60, 61, 62, 63, 64, 65, 66, 67, 68, 69, 70, 71, 72, 73, 74, 75, 76, 77, 78, 79, 80, 81, 82, 83, 84, 85, 86, 87, 88, 89, 90, 91, 92, 93, 94, 95, 96, 97, 98, 99, 100, 101, 102, 103, 104, 105, 106, 107, 108, 109, 110, 111, 112, 113, 114, 115, 116, 117, 118, 119, 120, 121, 122, 123, 124, 125, 126, 127, 128, 129, 130, 131, 132, 133, 134, 135, 136, 137, 138, 139, 140, 141, 142, 143, 144, 145, 146, 147, 148, 149, 150, 151, 152, 153, 154, 155, 156, 157, 158, 159, 160, 161, 162, 163, 164, 165, 166, 167, 168, 169, 170, 171, 172, 173, 174, 175, 176, 177, 178, 179, 180, 181, 182, 183, 184, 185, 186, 187, 188, 189, 190, 191, 192, 193, 194, 195, 196, 197, 198, 199, 200],
      "LargestImagePixelValue": [4052, 4057, 4055, 4059, 4055, 4054, 4057, 4057, 4056, 4055, 4054, 4053, 4055, 4052, 4053, 4050, 4052, 4053, 4047, 4048, 4046, 4048, 4050, 4052, 4055, 4054, 4055, 4056, 4058, 4057, 4052, 4055, 4050, 4054, 4056, 4054, 4055, 4055, 4055, 4051, 4054, 4059, 4057, 4053, 4053, 4053, 4053, 4051, 4053, 4058, 4055, 4053, 4052, 4053, 4054, 4056, 4057, 4051, 4052, 4054, 4052, 4052, 4055, 4059, 4056, 4053, 4053, 4056, 4052, 4051, 4052, 4053, 4053, 4054, 4053, 4052, 4059, 4053, 4057, 4052, 4052, 4055, 4058, 4055, 4052, 4055, 4050, 4053, 4051, 4051, 4052, 4054, 4051, 4056, 4054, 4055, 4050, 4053, 4055, 4054, 4052, 4052, 4054, 4050, 4055, 4055, 4050, 4051, 4051, 4053, 4054, 4056, 4052, 4053, 4052, 4054, 4054, 4053, 4052, 4055, 4053, 4051, 4055, 4050, 4052, 4054, 4053, 4057, 4051, 4054, 4049, 4054, 4056, 4052, 4052, 4049, 4050, 4056, 4053, 4055, 4051, 4056, 4053, 4053, 4053, 4049, 4054, 4051, 4048, 4054, 4051, 4056, 4055, 4052, 4056, 4054, 4054, 4053, 4051, 4052, 4049, 4053, 4049, 4055, 4054, 4054, 4052, 4054, 4051, 4051, 4054, 4048, 4054, 4053, 4050, 4050, 4051, 4051, 4048, 4047, 4054, 4052, 4055, 4052, 4055, 4058, 4057, 4055, 4051, 4057, 4056, 4053, 4052, 4052, 4057, 4051, 4053, 4056, 4055, 4053],
      "WindowCenter": [1388.0, 1389.0, 1388.0, 1388.0, 1388.0, 1388.0, 1388.0, 1387.0, 1388.0, 1388.0, 1388.0, 1388.0, 1388.0, 1388.0, 1387.0, 1387.0, 1387.0, 1387.0, 1387.0, 1387.0, 1387.0, 1388.0, 1387.0, 1388.0, 1387.0, 1387.0, 1387.0, 1387.0, 1387.0, 1387.0, 1387.0, 1387.0, 1387.0, 1388.0, 1386.0, 1386.0, 1386.0, 1386.0, 1387.0, 1387.0, 1386.0, 1386.0, 1386.0, 1386.0, 1387.0, 1386.0, 1386.0, 1386.0, 1386.0, 1386.0, 1386.0, 1386.0, 1386.0, 1386.0, 1386.0, 1386.0, 1386.0, 1386.0, 1386.0, 1386.0, 1386.0, 1386.0, 1386.0, 1386.0, 1386.0, 1386.0, 1386.0, 1386.0, 1386.0, 1386.0, 1386.0, 1386.0, 1386.0, 1386.0, 1386.0, 1386.0, 1386.0, 1386.0, 1386.0, 1385.0, 1385.0, 1386.0, 1385.0, 1385.0, 1385.0, 1386.0, 1385.0, 1386.0, 1386.0, 1385.0, 1385.0, 1385.0, 1385.0, 1385.0, 1385.0, 1385.0, 1385.0, 1384.0, 1385.0, 1386.0, 1385.0, 1385.0, 1385.0, 1384.0, 1385.0, 1385.0, 1385.0, 1384.0, 1384.0, 1384.0, 1384.0, 1384.0, 1384.0, 1384.0, 1384.0, 1384.0, 1384.0, 1384.0, 1384.0, 1384.0, 1384.0, 1384.0, 1384.0, 1385.0, 1384.0, 1384.0, 1385.0, 1384.0, 1384.0, 1384.0, 1384.0, 1384.0, 1384.0, 1384.0, 1384.0, 1384.0, 1384.0, 1384.0, 1384.0, 1383.0, 1383.0, 1384.0, 1384.0, 1383.0, 1384.0, 1383.0, 1384.0, 1384.0, 1384.0, 1383.0, 1384.0, 1384.0, 1383.0, 1384.0, 1384.0, 1384.0, 1384.0, 1384.0, 1383.0, 1384.0, 1383.0, 1383.0, 1383.0, 1383.0, 1383.0, 1383.0, 1383.0, 1383.0, 1383.0, 1383.0, 1383.0, 1383.0, 1383.0, 1383.0, 1383.0, 1383.0, 1383.0, 1383.0, 1384.0, 1383.0, 1383.0, 1383.0, 1383.0, 1383.0, 1382.0, 1382.0, 1382.0, 1383.0, 1383.0, 1382.0, 1383.0, 1383.0, 1383.0, 1382.0, 1383.0, 1382.0, 1383.0, 1383.0, 1383.0, 1382.0],
      "WindowWidth": [3321.0, 3320.0, 3320.0, 3320.0, 3320.0, 3320.0, 3320.0, 3321.0, 3320.0, 3320.0, 3320.0, 3320.0, 3320.0, 3320.0, 3320.0, 3320.0, 3320.0, 3320.0, 3320.0, 3320.0, 3319.0, 3319.0, 3320.0, 3319.0, 3319.0, 3320.0, 3319.0, 3319.0, 3319.0, 3319.0, 3319.0, 3319.0, 3319.0, 3319.0, 3319.0, 3319.0, 3319.0, 3319.0, 3319.0, 3319.0, 3319.0, 3319.0, 3319.0, 3319.0, 3319.0, 3319.0, 3319.0, 3319.0, 3319.0, 3319.0, 3319.0, 3319.0, 3319.0, 3319.0, 3319.0, 3318.0, 3318.0, 3318.0, 3318.0, 3318.0, 3318.0, 3318.0, 3318.0, 3318.0, 3318.0, 3318.0, 3318.0, 3318.0, 3318.0, 3318.0, 3318.0, 3318.0, 3318.0, 3318.0, 3318.0, 3318.0, 3318.0, 3318.0, 3318.0, 3318.0, 3318.0, 3318.0, 3318.0, 3318.0, 3318.0, 3318.0, 3318.0, 3318.0, 3318.0, 3318.0, 3318.0, 3317.0, 3318.0, 3317.0, 3317.0, 3317.0, 3317.0, 3318.0, 3317.0, 3317.0, 3317.0, 3317.0, 3317.0, 3317.0, 3317.0, 3317.0, 3317.0, 3317.0, 3317.0, 3317.0, 3317.0, 3317.0, 3317.0, 3317.0, 3317.0, 3317.0, 3317.0, 3317.0, 3317.0, 3317.0, 3317.0, 3317.0, 3317.0, 3317.0, 3317.0, 3317.0, 3317.0, 3317.0, 3316.0, 3317.0, 3316.0, 3316.0, 3316.0, 3316.0, 3316.0, 3316.0, 3316.0, 3316.0, 3316.0, 3316.0, 3316.0, 3316.0, 3316.0, 3316.0, 3316.0, 3316.0, 3316.0, 3316.0, 3316.0, 3316.0, 3316.0, 3316.0, 3316.0, 3316.0, 3316.0, 3316.0, 3316.0, 3316.0, 3316.0, 3316.0, 3316.0, 3316.0, 3316.0, 3316.0, 3316.0, 3316.0, 3315.0, 3315.0, 3315.0, 3316.0, 3315.0, 3315.0, 3315.0, 3315.0, 3315.0, 3315.0, 3315.0, 3315.0, 3315.0, 3315.0, 3315.0, 3315.0, 3315.0, 3315.0, 3315.0, 3315.0, 3315.0, 3315.0, 3315.0, 3315.0, 3315.0, 3315.0, 3315.0, 3315.0, 3315.0, 3315.0, 3315.0, 3315.0, 3315.0, 3315.0]
    },
    "slices": {}
  }
}