{
  "AcquisitionMatrixPE": 80,
  "AcquisitionNumber": 1,
  "AcquisitionTime": "08:36:56.772500",
  "BandwidthPerPixelPhaseEncode": 48.077,
  "BaseResolution": 80,
  "BodyPartExamined": "BRAIN",
  "CoilCombinationMethod": "Sum of Squares",
  "ConsistencyInfo": "N4_VE11E_LATEST_20181129",
  "ConversionSoftware": "dcm2niix",
  "ConversionSoftwareVersion": "v1.0.20220720",
  "DerivedVendorReportedEchoSpacing": 0.000519999,
  "DeviceSerialNumber": "66112",
  "DwellTime": 2.7e-06,
  "EchoTime": 0.035,
  "EchoTrainLength": 39,
  "EffectiveEchoSpacing": 0.00026,
  "FlipAngle": 90,
  "HeudiconvVersion": "0.13.1",
  "ImageOrientationPatientDICOM": [0.987832, -0.155505, 0.00228771, 0.147985, 0.944381, 0.293674],
  "ImageOrientationText": "Tra>Cor(16.9)>Sag(2.7)",
  "ImageType": [
    "ORIGINAL",
    "PRIMARY",
    "M",
    "ND",
    "NORM",
    "MOSAIC"
],
  "ImagingFrequency": 123.259,
  "InPlanePhaseEncodingDirectionDICOM": "COL",
  "InstitutionAddress": "Maynard 3,Hanover,NH,US,03755",
  "InstitutionName": "Dartmouth College - PBS",
  "InstitutionalDepartmentName": "Department",
  "MRAcquisitionType": "2D",
  "MagneticFieldStrength": 3,
  "Manufacturer": "Siemens",
  "ManufacturersModelName": "Prisma",
  "MatrixCoilMode": "GRAPPA",
  "Modality": "MR",
  "NonlinearGradientCorrection": false,
  "ParallelReductionFactorInPlane": 2,
  "PartialFourier": 1,
  "PatientPosition": "HFS",
  "PercentPhaseFOV": 100,
  "PercentSampling": 100,
  "PhaseEncodingDirection": "j-",
  "PhaseEncodingSteps": 79,
  "PhaseResolution": 1,
  "PixelBandwidth": 2315,
  "ProcedureStepDescription": "dbic^QA",
  "ProtocolName": "func-bold_task-rest_acq-p2",
  "PulseSequenceDetails": "%SiemensSeq%\\ep2d_bold",
  "ReceiveCoilActiveElements": "HC1-7;NC1,2",
  "ReceiveCoilName": "HeadNeck_64",
  "ReconMatrixPE": 80,
  "RefLinesPE": 24,
  "RepetitionTime": 2,
  "SAR": 0.0407957,
  "ScanOptions": "FS",
  "ScanningSequence": "EP",
  "SequenceName": "*epfid2d1_80",
  "SequenceVariant": "SK",
  "SeriesDescription": "func-bold_task-rest_acq-p2",
  "SeriesNumber": 5,
  "ShimSetting": [4213, -7755, -7496, -120, -164, -270, -44, 121],
  "SliceThickness": 3.5,
  "SliceTiming": [0.99, 0, 1.055, 0.065, 1.12, 0.1325, 1.1875, 0.1975, 1.2525, 0.2625, 1.32, 0.33, 1.385, 0.395, 1.45, 0.4625, 1.5175, 0.5275, 1.5825, 0.5925, 1.65, 0.66, 1.715, 0.725, 1.78, 0.79, 1.8475, 0.8575, 1.9125, 0.9225],
  "SoftwareVersions": "syngo MR E11",
  "SpacingBetweenSlices": 3.99,
  "StationName": "AWP66112",
  "TaskName": "rest",
  "TotalReadoutTime": 0.02054,
  "TxRefAmp": 211.141,
  "dcmmeta_affine": [
    [-2.9634971618652344, 0.44395512342453003, 0.19083502888679504, 100.16411590576172],
    [0.46651577949523926, 2.833143949508667, 1.1561510562896729, -142.95291137695312],
    [0.006863130256533623, -0.8810220956802368, 3.8140525817871094, -20.118350982666016],
    [0.0, 0.0, 0.0, 1.0]
],
  "dcmmeta_reorient_transform": [
    [0.0, -1.0, 0.0, 79.0],
    [1.0, 0.0, 0.0, 0.0],
    [0.0, 0.0, 1.0, 0.0],
    [0.0, 0.0, 0.0, 1.0]
],
  "dcmmeta_shape": [80, 80, 30, 200],
  "dcmmeta_slice_dim": 2,
  "dcmmeta_version": 0.6,
  "global": {
    "const": {
      "AccessionNumber": "qa64",
      "AcquisitionMatrix": [80, 0, 0, 80],
      "AngioFlag": "N",
      "BitsAllocated": 16,
      "BitsStored": 12,
      "BodyPartExamined": "BRAIN",
      "Columns": 480,
      "EchoNumbers": 1,
      "EchoTime": 35.0,
      "EchoTrainLength": 39,
      "FlipAngle": 90.0,
      "HighBit": 11,
      "ImageOrientationPatient": [0.98783241461161, -0.1555052636567, 0.00228771013076, 0.14798503906651, 0.9443812772024, 0.29367402248421],
      "ImagePositionPatient": [-816.72703868079, -554.19105476509, -267.29613324328],
      "ImageType": [
        "ORIGINAL",
        "PRIMARY",
        "M",
        "ND",
        "NORM",
        "MOSAIC"
],
      "ImagedNucleus": "1H",
      "ImagingFrequency": 123.259117,
      "InPlanePhaseEncodingDirection": "COL",
      "MRAcquisitionType": "2D",
      "MagneticFieldStrength": 3.0,
      "Manufacturer": "SIEMENS",
      "ManufacturerModelName": "Prisma",
      "Modality": "MR",
      "NumberOfAverages": 1.0,
      "NumberOfPhaseEncodingSteps": 79,
      "PercentPhaseFieldOfView": 100.0,
      "PercentSampling": 100.0,
      "PerformedProcedureStepStartTime": "083408.878000",
      "PhotometricInterpretation": "MONOCHROME2",
      "PixelBandwidth": 2315.0,
      "PixelRepresentation": 0,
      "PixelSpacing": [3.0, 3.0],
      "ProtocolName": "func-bold_task-rest_acq-p2",
      "RepetitionTime": 2000.0,
      "Rows": 480,
      "SAR": 0.0407957110149,
      "SamplesPerPixel": 1,
      "ScanOptions": "FS",
      "ScanningSequence": "EP",
      "SequenceName": "*epfid2d1_80",
      "SequenceVariant": "SK",
      "SeriesDescription": "func-bold_task-rest_acq-p2",
      "SeriesNumber": 5,
      "SeriesTime": "083746.951000",
      "SliceLocation": -55.862854763319,
      "SliceThickness": 3.5,
      "SmallestImagePixelValue": 0,
      "SoftwareVersions": "syngo MR E11",
      "SpacingBetweenSlices": 3.9900000548205,
      "SpecificCharacterSet": "ISO_IR 100",
      "StudyID": "10",
      "StudyTime": "083408.785000",
      "TransmitCoilName": "Body",
      "VariableFlipAngleFlag": "N",
      "WindowCenterWidthExplanation": "Algo1"
    },
    "slices": {}
  },
  "time": {
    "samples": {
      "AcquisitionNumber": [1, 2, 3, 4, 5, 6, 7, 8, 9, 10, 11, 12, 13, 14, 15, 16, 17, 18, 19, 20, 21, 22, 23, 24, 25, 26, 27, 28, 29, 30, 31, 32, 33, 34, 35, 36, 37, 38, 39, 40, 41, 42, 43, 44, 45, 46, 47, 48, 49, 50, 51, 52, 53, 54, 55, 56, 57, 58, 59, 60, 61, 62, 63, 64, 65, 66, 67, 68, 69, 70, 71, 72, 73, 74, 75, 76, 77, 78, 79, 80, 81, 82, 83, 84, 85, 86, 87, 88, 89, 90, 91, 92, 93, 94, 95, 96, 97, 98, 99, 100, 101, 102, 103, 104, 105, 106, 107, 108, 109, 110, 111, 112, 113, 114, 115, 116, 117, 118, 119, 120, 121, 122, 123, 124, 125, 126, 127, 128, 129, 130, 131, 132, 133, 134, 135, 136, 137, 138, 139, 140, 141, 142, 143, 144, 145, 146, 147, 148, 149, 150, 151, 152, 153, 154, 155, 156, 157, 158, 159, 160, 161, 162, 163, 164, 165, 166, 167, 168, 169, 170, 171, 172, 173, 174, 175, 176, 177, 178, 179, 180, 181, 182, 183, 184, 185, 186, 187, 188, 189, 190, 191, 192, 193, 194, 195, 196, 197, 198, 199, 200],
      "AcquisitionTime": ["083656.772500", "083658.772500", "083700.772500", "083702.772500", "083704.772500", "083706.772500", "083708.772500", "083710.772500", "083712.772500", "083714.772500", "083716.772500", "083718.772500", "083720.772500", "083722.772500", "083724.772500", "083726.772500", "083728.772500", "083730.772500", "083732.772500", "083734.772500", "083736.772500", "083738.772500", "083740.772500", "083742.772500", "083744.772500", "083746.772500", "083748.772500", "083750.772500", "083752.772500", "083754.772500", "083756.772500", "083758.772500", "083800.772500", "083802.772500", "083804.772500", "083806.772500", "083808.772500", "083810.772500", "083812.772500", "083814.772500", "083816.772500", "083818.772500", "083820.772500", "083822.772500", "083824.772500", "083826.772500", "083828.772500", "083830.772500", "083832.772500", "083834.772500", "083836.772500", "083838.772500", "083840.772500", "083842.772500", "083844.772500", "083846.772500", "083848.772500", "083850.772500", "083852.772500", "083854.772500", "083856.772500", "083858.772500", "083900.772500", "083902.772500", "083904.772500", "083906.772500", "083908.772500", "083910.772500", "083912.772500", "083914.772500", "083916.772500", "083918.772500", "083920.772500", "083922.772500", "083924.772500", "083926.772500", "083928.772500", "083930.772500", "083932.772500", "083934.772500", "083936.772500", "083938.772500", "083940.772500", "083942.772500", "083944.772500", "083946.772500", "083948.772500", "083950.772500", "083952.772500", "083954.772500", "083956.772500", "083958.772500", "084000.772500", "084002.772500", "084004.772500", "084006.772500", "084008.772500", "084010.772500", "084012.772500", "084014.772500", "084016.772500", "084018.772500", "084020.772500", "084022.772500", "084024.772500", "084026.772500", "084028.772500", "084030.772500", "084032.772500", "084034.772500", "084036.772500", "084038.772500", "084040.772500", "084042.772500", "084044.772500", "084046.772500", "084048.772500", "084050.772500", "084052.772500", "084054.772500", "084056.772500", "084058.772500", "084100.772500", "084102.772500", "084104.772500", "084106.772500", "084108.772500", "084110.772500", "084112.772500", "084114.772500", "084116.772500", "084118.772500", "084120.772500", "084122.772500", "084124.772500", "084126.772500", "084128.772500", "084130.772500", "084132.772500", "084134.772500", "084136.772500", "084138.772500", "084140.772500", "084142.772500", "084144.772500", "084146.772500", "084148.772500", "084150.772500", "084152.772500", "084154.772500", "084156.772500", "084158.772500", "084200.772500", "084202.772500", "084204.772500", "084206.772500", "084208.772500", "084210.772500", "084212.772500", "084214.772500", "084216.772500", "084218.772500", "084220.772500", "084222.772500", "084224.772500", "084226.772500", "084228.772500", "084230.772500", "084232.772500", "084234.772500", "084236.772500", "084238.772500", "084240.772500", "084242.772500", "084244.772500", "084246.772500", "084248.772500", "084250.772500", "084252.772500", "084254.772500", "084256.772500", "084258.772500", "084300.772500", "084302.772500", "084304.772500", "084306.772500", "084308.772500", "084310.772500", "084312.772500", "084314.772500", "084316.772500", "084318.772500", "084320.772500", "084322.772500", "084324.772500", "084326.772500", "084328.772500", "084330.772500", "084332.772500", "084334.772500"],
      "ContentTime": ["083746.955000", "083746.958000", "083746.960000", "083746.962000", "083746.965000", "083746.967000", "083746.969000", "083746.972000", "083746.980000", "083746.982000", "083746.985000", "083746.987000", "083746.994000", "083746.997000", "083747.000000", "083747.005000", "083747.008000", "083747.010000", "083747.012000", "083747.015000", "083747.017000", "083747.019000", "083747.022000", "083747.024000", "083747.026000", "083826.949000", "083826.952000", "083826.954000", "083826.956000", "083826.959000", "083826.961000", "083826.963000", "083826.966000", "083826.968000", "083826.970000", "083826.973000", "083826.975000", "083826.977000", "083826.979000", "083826.982000", "083826.984000", "083826.986000", "083826.995000", "083826.997000", "083827.000000", "083906.949000", "083906.952000", "083906.954000", "083906.956000", "083906.959000", "083906.961000", "083906.963000", "083906.966000", "083906.968000", "083906.970000", "083906.973000", "083906.975000", "083906.977000", "083906.979000", "083906.982000", "083906.984000", "083906.986000", "083906.989000", "083906.991000", "083906.993000", "083946.950000", "083946.953000", "083946.955000", "083946.957000", "083946.960000", "083946.978000", "083946.980000", "083946.983000", "083946.985000", "083946.987000", "083946.990000", "083946.992000", "083946.994000", "083946.997000", "083947.000000", "083947.002000", "083947.005000", "083947.007000", "083947.009000", "083947.011000", "084026.949000", "084026.952000", "084026.954000", "084026.957000", "084026.959000", "084026.961000", "084026.964000", "084026.966000", "084026.968000", "084026.970000", "084026.973000", "084026.975000", "084026.977000", "084026.980000", "084026.982000", "084026.984000", "084026.986000", "084026.989000", "084026.991000", "084026.993000", "084106.950000", "084106.952000", "084106.954000", "084106.957000", "084106.959000", "084106.961000", "084106.964000", "084106.966000", "084106.968000", "084106.971000", "084106.973000", "084106.975000", "084106.977000", "084106.980000", "084106.982000", "084106.984000", "084106.987000", "084106.989000", "084106.991000", "084106.994000", "084146.950000", "084146.953000", "084146.955000", "084146.958000", "084146.960000", "084146.962000", "084146.965000", "084146.967000", "084146.969000", "084146.971000", "084146.974000", "084146.976000", "084146.979000", "084146.981000", "084146.983000", "084146.985000", "084146.988000", "084146.990000", "084146.992000", "084147.009000", "084226.949000", "084226.952000", "084226.954000", "084226.956000", "084226.959000", "084226.961000", "084226.963000", "084226.966000", "084226.968000", "084226.970000", "084226.973000", "084226.975000", "084226.977000", "084226.980000", "084226.982000", "084226.984000", "084226.987000", "084226.989000", "084226.991000", "084226.994000", "084306.949000", "084306.952000", "084306.954000", "084306.956000", "084306.959000", "084306.961000", "084306.964000", "084306.966000", "084306.968000", "084306.971000", "084306.973000", "084306.975000", "084306.978000", "084306.980000", "084306.982000", "084306.984000", "084306.987000", "084306.989000", "084306.991000", "084306.994000", "084335.907000", "084335.910000", "084335.912000", "084335.914000", "084335.917000", "084335.919000", "084335.921000", "084335.924000", "084335.926000", "084335.929000", "084335.931000", "084335.934000", "084335.939000", "084335.942000", "084335.945000"],
      "InstanceCreationTime": ["083746.955000", "083746.958000", "083746.960000", "083746.962000", "083746.965000", "083746.967000", "083746.969000", "083746.972000", "083746.980000", "083746.982000", "083746.985000", "083746.987000", "083746.994000", "083746.997000", "083747.000000", "083747.005000", "083747.008000", "083747.010000", "083747.012000", "083747.015000", "083747.017000", "083747.019000", "083747.022000", "083747.024000", "083747.026000", "083826.949000", "083826.952000", "083826.954000", "083826.956000", "083826.959000", "083826.961000", "083826.963000", "083826.966000", "083826.968000", "083826.970000", "083826.973000", "083826.975000", "083826.977000", "083826.979000", "083826.982000", "083826.984000", "083826.986000", "083826.995000", "083826.997000", "083827.000000", "083906.949000", "083906.952000", "083906.954000", "083906.956000", "083906.959000", "083906.961000", "083906.963000", "083906.966000", "083906.968000", "083906.970000", "083906.973000", "083906.975000", "083906.977000", "083906.979000", "083906.982000", "083906.984000", "083906.986000", "083906.989000", "083906.991000", "083906.993000", "083946.950000", "083946.953000", "083946.955000", "083946.957000", "083946.960000", "083946.978000", "083946.980000", "083946.983000", "083946.985000", "083946.987000", "083946.990000", "083946.992000", "083946.994000", "083946.997000", "083947.000000", "083947.002000", "083947.005000", "083947.007000", "083947.009000", "083947.011000", "084026.949000", "084026.952000", "084026.954000", "084026.957000", "084026.959000", "084026.961000", "084026.964000", "084026.966000", "084026.968000", "084026.970000", "084026.973000", "084026.975000", "084026.977000", "084026.980000", "084026.982000", "084026.984000", "084026.986000", "084026.989000", "084026.991000", "084026.993000", "084106.950000", "084106.952000", "084106.954000", "084106.957000", "084106.959000", "084106.961000", "084106.964000", "084106.966000", "084106.968000", "084106.971000", "084106.973000", "084106.975000", "084106.977000", "084106.980000", "084106.982000", "084106.984000", "084106.987000", "084106.989000", "084106.991000", "084106.994000", "084146.950000", "084146.953000", "084146.955000", "084146.958000", "084146.960000", "084146.962000", "084146.965000", "084146.967000", "084146.969000", "084146.971000", "084146.974000", "084146.976000", "084146.979000", "084146.981000", "084146.983000", "084146.985000", "084146.988000", "084146.990000", "084146.992000", "084147.009000", "084226.949000", "084226.952000", "084226.954000", "084226.956000", "084226.959000", "084226.961000", "084226.963000", "084226.966000", "084226.968000", "084226.970000", "084226.973000", "084226.975000", "084226.977000", "084226.980000", "084226.982000", "084226.984000", "084226.987000", "084226.989000", "084226.991000", "084226.994000", "084306.949000", "084306.952000", "084306.954000", "084306.956000", "084306.959000", "084306.961000", "084306.964000", "084306.966000", "084306.968000", "084306.971000", "084306.973000", "084306.975000", "084306.978000", "084306.980000", "084306.982000", "084306.984000", "084306.987000", "084306.989000", "084306.991000", "084306.994000", "084335.907000", "084335.910000", "084335.912000", "084335.914000", "084335.917000", "084335.919000", "084335.921000", "084335.924000", "084335.926000", "084335.929000", "084335.931000", "084335.934000", "084335.939000", "084335.942000", "084335.945000"],
      "InstanceNumber": [1, 2, 3, 4, 5, 6, 7, 8, 9, 10, 11, 12, 13, 14, 15, 16, 17, 18, 19, 20, 21, 22, 23, 24, 25, 26, 27, 28, 29, 30, 31, 32, 33, 34, 35, 36, 37, 38, 39, 40, 41, 42, 43, 44, 45, 46, 47, 48, 49, 50, 51, 52, 53, 54, 55, 56, 57, 58, 59, 60, 61, 62, 63, 64, 65, 66, 67, 68, 69, 70, 71, 72, 73, 74, 75, 76, 77, 78, 79, 80, 81, 82, 83, 84, 85, 86, 87, 88, 89, 90, 91, 92, 93, 94, 95, 96, 97, 98, 99, 100, 101, 102, 103, 104, 105, 106, 107, 108, 109, 110, 111, 112, 113, 114, 115, 116, 117, 118, 119, 120, 121, 122, 123, 124, 125, 126, 127, 128, 129, 130, 131, 132, 133, 134, 135, 136, 137, 138, 139, 140, 141, 142, 143, 144, 145, 146, 147, 148, 149, 150, 151, 152, 153, 154, 155, 156, 157, 158, 159, 160, 161, 162, 163, 164, 165, 166, 167, 168, 169, 170, 171, 172, 173, 174, 175, 176, 177, 178, 179, 180, 181, 182, 183, 184, 185, 186, 187, 188, 189, 190, 191, 192, 193, 194, 195, 196, 197, 198, 199, 200],
      "LargestImagePixelValue": [3906, 3910, 3913, 3910, 3939, 3899, 3905, 3932, 3906, 3915, 3925, 3928, 3913, 3918, 3915, 3915, 3896, 3929, 3901, 3909, 3895, 3917, 3904, 3915, 3923, 3914, 3906, 3897, 3911, 3923, 3913, 3912, 3921, 3922, 3917, 3923, 3912, 3920, 3916, 3915, 3912, 3917, 3906, 3918, 3913, 3906, 3910, 3910, 3905, 3917, 3906, 3898, 3919, 3902, 3916, 3917, 3926, 3905, 3920, 3918, 3917, 3914, 3919, 3919, 3922, 3922, 3920, 3900, 3908, 3901, 3914, 3913, 3915, 3912, 3906, 3906, 3904, 3923, 3923, 3920, 3923, 3903, 3905, 3910, 3906, 3926, 3925, 3910, 3918, 3916, 3916, 3912, 3906, 3915, 3906, 3912, 3920, 3933, 3919, 3915, 3911, 3915, 3916, 3914, 3913, 3903, 3927, 3908, 3921, 3907, 3900, 3909, 3908, 3914, 3913, 3904, 3908, 3909, 3913, 3902, 3909, 3908, 3918, 3909, 3912, 3909, 3909, 3910, 3910, 3912, 3908, 3921, 3901, 3909, 3912, 3913, 3914, 3905, 3923, 3920, 3929, 3907, 3907, 3905, 3905, 3916, 3914, 3903, 3911, 3907, 3895, 3905, 3903, 3900, 3916, 3912, 3916, 3914, 3910, 3916, 3908, 3912, 3919, 3905, 3902, 3902, 3909, 3907, 3898, 3903, 3905, 3913, 3908, 3902, 3908, 3912, 3912, 3912, 3909, 3907, 3907, 3918, 3917, 3920, 3903, 3894, 3916, 3914, 3899, 3906, 3903, 3901, 3910, 3931, 3902, 3902, 3903, 3902, 3919, 3911],
      "WindowCenter": [1474.0, 1473.0, 1473.0, 1473.0, 1473.0, 1473.0, 1473.0, 1472.0, 1472.0, 1471.0, 1472.0, 1472.0, 1472.0, 1472.0, 1472.0, 1472.0, 1471.0, 1471.0, 1472.0, 1472.0, 1472.0, 1471.0, 1471.0, 1471.0, 1471.0, 1472.0, 1472.0, 1471.0, 1471.0, 1471.0, 1471.0, 1471.0, 1471.0, 1471.0, 1470.0, 1470.0, 1471.0, 1470.0, 1470.0, 1471.0, 1470.0, 1470.0, 1471.0, 1471.0, 1471.0, 1470.0, 1471.0, 1470.0, 1470.0, 1469.0, 1470.0, 1469.0, 1470.0, 1469.0, 1470.0, 1469.0, 1469.0, 1470.0, 1469.0, 1470.0, 1470.0, 1469.0, 1470.0, 1470.0, 1470.0, 1469.0, 1469.0, 1469.0, 1469.0, 1469.0, 1469.0, 1469.0, 1469.0, 1469.0, 1469.0, 1469.0, 1469.0, 1470.0, 1469.0, 1469.0, 1468.0, 1469.0, 1469.0, 1469.0, 1469.0, 1469.0, 1469.0, 1469.0, 1469.0, 1468.0, 1469.0, 1469.0, 1468.0, 1469.0, 1470.0, 1469.0, 1468.0, 1468.0, 1468.0, 1468.0, 1468.0, 1468.0, 1469.0, 1468.0, 1468.0, 1469.0, 1467.0, 1469.0, 1469.0, 1468.0, 1468.0, 1469.0, 1469.0, 1468.0, 1467.0, 1468.0, 1469.0, 1468.0, 1468.0, 1468.0, 1468.0, 1467.0, 1468.0, 1468.0, 1468.0, 1468.0, 1469.0, 1467.0, 1468.0, 1467.0, 1467.0, 1468.0, 1467.0, 1468.0, 1468.0, 1468.0, 1467.0, 1468.0, 1468.0, 1468.0, 1467.0, 1468.0, 1467.0, 1467.0, 1467.0, 1468.0, 1467.0, 1467.0, 1467.0, 1467.0, 1467.0, 1468.0, 1467.0, 1467.0, 1467.0, 1467.0, 1467.0, 1466.0, 1466.0, 1467.0, 1467.0, 1467.0, 1467.0, 1467.0, 1466.0, 1466.0, 1466.0, 1466.0, 1467.0, 1467.0, 1467.0, 1467.0, 1467.0, 1467.0, 1467.0, 1466.0, 1467.0, 1467.0, 1466.0, 1466.0, 1466.0, 1466.0, 1466.0, 1465.0, 1466.0, 1466.0, 1466.0, 1466.0, 1466.0, 1466.0, 1466.0, 1466.0, 1465.0, 1466.0, 1466.0, 1466.0, 1466.0, 1466.0, 1466.0, 1466.0],
      "WindowWidth": [3371.0, 3370.0, 3371.0, 3370.0, 3370.0, 3370.0, 3370.0, 3369.0, 3370.0, 3370.0, 3369.0, 3370.0, 3370.0, 3369.0, 3369.0, 3369.0, 3369.0, 3369.0, 3369.0, 3369.0, 3369.0, 3369.0, 3369.0, 3369.0, 3369.0, 3369.0, 3369.0, 3369.0, 3369.0, 3369.0, 3369.0, 3369.0, 3369.0, 3368.0, 3369.0, 3369.0, 3369.0, 3369.0, 3369.0, 3369.0, 3369.0, 3369.0, 3368.0, 3368.0, 3369.0, 3368.0, 3368.0, 3369.0, 3369.0, 3369.0, 3369.0, 3369.0, 3368.0, 3369.0, 3368.0, 3368.0, 3369.0, 3368.0, 3368.0, 3368.0, 3368.0, 3368.0, 3368.0, 3368.0, 3368.0, 3368.0, 3368.0, 3368.0, 3368.0, 3368.0, 3368.0, 3367.0, 3367.0, 3367.0, 3367.0, 3368.0, 3367.0, 3367.0, 3367.0, 3367.0, 3367.0, 3367.0, 3367.0, 3367.0, 3367.0, 3367.0, 3367.0, 3366.0, 3367.0, 3367.0, 3366.0, 3367.0, 3367.0, 3366.0, 3366.0, 3366.0, 3366.0, 3366.0, 3366.0, 3366.0, 3366.0, 3366.0, 3365.0, 3366.0, 3366.0, 3365.0, 3366.0, 3365.0, 3365.0, 3365.0, 3365.0, 3365.0, 3365.0, 3365.0, 3366.0, 3365.0, 3365.0, 3365.0, 3365.0, 3365.0, 3365.0, 3365.0, 3365.0, 3365.0, 3365.0, 3365.0, 3365.0, 3365.0, 3365.0, 3365.0, 3365.0, 3365.0, 3365.0, 3365.0, 3364.0, 3365.0, 3365.0, 3364.0, 3364.0, 3365.0, 3364.0, 3364.0, 3364.0, 3364.0, 3364.0, 3364.0, 3364.0, 3364.0, 3364.0, 3364.0, 3364.0, 3364.0, 3364.0, 3364.0, 3364.0, 3364.0, 3364.0, 3365.0, 3365.0, 3364.0, 3364.0, 3364.0, 3364.0, 3364.0, 3365.0, 3364.0, 3364.0, 3364.0, 3364.0, 3364.0, 3364.0, 3364.0, 3364.0, 3364.0, 3364.0, 3364.0, 3364.0, 3364.0, 3363.0, 3363.0, 3363.0, 3363.0, 3363.0, 3364.0, 3363.0, 3363.0, 3363.0, 3363.0, 3363.0, 3363.0, 3363.0, 3363.0, 3364.0, 3363.0, 3363.0, 3363.0, 3363.0, 3363.0, 3363.0, 3363.0]
    },
    "slices": {}
  }
}