{
  "AcquisitionMatrixPE": 80,
  "AcquisitionNumber": 1,
  "AcquisitionTime": "08:50:34.480000",
  "BandwidthPerPixelPhaseEncode": 25,
  "BaseResolution": 80,
  "BodyPartExamined": "BRAIN",
  "CoilCombinationMethod": "Sum of Squares",
  "ConsistencyInfo": "N4_VE11E_LATEST_20181129",
  "ConversionSoftware": "dcm2niix",
  "ConversionSoftwareVersion": "v1.0.20220720",
  "DerivedVendorReportedEchoSpacing": 0.0005,
  "DeviceSerialNumber": "66112",
  "DwellTime": 2.7e-06,
  "EchoTime": 0.03,
  "EchoTrainLength": 80,
  "EffectiveEchoSpacing": 0.0005,
  "FlipAngle": 10,
  "HeudiconvVersion": "0.13.1",
  "ImageOrientationPatientDICOM": [0.987832, -0.155505, 0.00228771, 0.147985, 0.944381, 0.293674],
  "ImageOrientationText": "Tra>Cor(16.9)>Sag(2.7)",
  "ImageType": [
    "ORIGINAL",
    "PRIMARY",
    "M",
    "ND",
    "NORM",
    "MOSAIC"
],
  "ImagingFrequency": 123.259,
  "InPlanePhaseEncodingDirectionDICOM": "COL",
  "InstitutionAddress": "Maynard 3,Hanover,NH,US,03755",
  "InstitutionName": "Dartmouth College - PBS",
  "InstitutionalDepartmentName": "Department",
  "MRAcquisitionType": "2D",
  "MagneticFieldStrength": 3,
  "Manufacturer": "Siemens",
  "ManufacturersModelName": "Prisma",
  "MatrixCoilMode": "SENSE",
  "Modality": "MR",
  "NonlinearGradientCorrection": false,
  "PartialFourier": 1,
  "PatientPosition": "HFS",
  "PercentPhaseFOV": 100,
  "PercentSampling": 100,
  "PhaseEncodingDirection": "j-",
  "PhaseEncodingSteps": 80,
  "PhaseResolution": 1,
  "PixelBandwidth": 2315,
  "ProcedureStepDescription": "dbic^QA",
  "ProtocolName": "func-bold_fa-10",
  "PulseSequenceDetails": "%SiemensSeq%\\ep2d_bold",
  "ReceiveCoilActiveElements": "HC1-7;NC1,2",
  "ReceiveCoilName": "HeadNeck_64",
  "ReconMatrixPE": 80,
  "RepetitionTime": 2,
  "SAR": 0.00859988,
  "ScanOptions": "FS",
  "ScanningSequence": "EP",
  "SequenceName": "*epfid2d1_80",
  "SequenceVariant": "SK",
  "SeriesDescription": "func-bold_fa-10",
  "SeriesNumber": 7,
  "ShimSetting": [4213, -7755, -7496, -119, -163, -270, -44, 121],
  "SliceThickness": 3.5,
  "SliceTiming": [0.99, 0, 1.0575, 0.0675, 1.1225, 0.1325, 1.1875, 0.2, 1.255, 0.265, 1.32, 0.33, 1.3875, 0.3975, 1.4525, 0.4625, 1.5175, 0.53, 1.585, 0.595, 1.65, 0.66, 1.7175, 0.7275, 1.7825, 0.7925, 1.8475, 0.86, 1.915, 0.925],
  "SoftwareVersions": "syngo MR E11",
  "SpacingBetweenSlices": 3.99,
  "StationName": "AWP66112",
  "TotalReadoutTime": 0.0395,
  "TxRefAmp": 211.141,
  "dcmmeta_affine": [
    [-2.9634971618652344, 0.44395512342453003, 0.19083501398563385, 98.61308288574219],
    [0.46651577949523926, 2.833143949508667, 1.1561510562896729, -140.46937561035156],
    [0.006863130256533623, -0.8810220956802368, 3.8140523433685303, -19.456100463867188],
    [0.0, 0.0, 0.0, 1.0]
],
  "dcmmeta_reorient_transform": [
    [0.0, -1.0, 0.0, 79.0],
    [1.0, 0.0, 0.0, 0.0],
    [0.0, 0.0, 1.0, 0.0],
    [0.0, 0.0, 0.0, 1.0]
],
  "dcmmeta_shape": [80, 80, 30, 200],
  "dcmmeta_slice_dim": 2,
  "dcmmeta_version": 0.6,
  "global": {
    "const": {
      "AccessionNumber": "qa64",
      "AcquisitionMatrix": [80, 0, 0, 80],
      "AngioFlag": "N",
      "BitsAllocated": 16,
      "BitsStored": 12,
      "BodyPartExamined": "BRAIN",
      "Columns": 480,
      "EchoNumbers": 1,
      "EchoTime": 30.0,
      "EchoTrainLength": 80,
      "FlipAngle": 10.0,
      "HighBit": 11,
      "ImageOrientationPatient": [0.98783241461161, -0.1555052636567, 0.00228771013076, 0.14798503906651, 0.9443812772024, 0.29367402248421],
      "ImagePositionPatient": [-815.17600613761, -556.67459816109, -266.63388272448],
      "ImageType": [
        "ORIGINAL",
        "PRIMARY",
        "M",
        "ND",
        "NORM",
        "MOSAIC"
],
      "ImagedNucleus": "1H",
      "ImagingFrequency": 123.259119,
      "InPlanePhaseEncodingDirection": "COL",
      "MRAcquisitionType": "2D",
      "MagneticFieldStrength": 3.0,
      "Manufacturer": "SIEMENS",
      "ManufacturerModelName": "Prisma",
      "Modality": "MR",
      "NumberOfAverages": 1.0,
      "NumberOfPhaseEncodingSteps": 80,
      "PercentPhaseFieldOfView": 100.0,
      "PercentSampling": 100.0,
      "PerformedProcedureStepStartTime": "083408.878000",
      "PhotometricInterpretation": "MONOCHROME2",
      "PixelBandwidth": 2315.0,
      "PixelRepresentation": 0,
      "PixelSpacing": [3.0, 3.0],
      "ProtocolName": "func-bold_fa-10",
      "RepetitionTime": 2000.0,
      "Rows": 480,
      "SAR": 0.00859987965702,
      "SamplesPerPixel": 1,
      "ScanOptions": "FS",
      "ScanningSequence": "EP",
      "SequenceName": "*epfid2d1_80",
      "SequenceVariant": "SK",
      "SeriesDescription": "func-bold_fa-10",
      "SeriesNumber": 7,
      "SeriesTime": "085127.133000",
      "SliceLocation": -54.584353941745,
      "SliceThickness": 3.5,
      "SmallestImagePixelValue": 0,
      "SoftwareVersions": "syngo MR E11",
      "SpacingBetweenSlices": 3.9899999286866,
      "SpecificCharacterSet": "ISO_IR 100",
      "StudyID": "10",
      "StudyTime": "083408.785000",
      "TransmitCoilName": "Body",
      "VariableFlipAngleFlag": "N",
      "WindowCenterWidthExplanation": "Algo1"
    },
    "slices": {}
  },
  "time": {
    "samples": {
      "AcquisitionNumber": [1, 2, 3, 4, 5, 6, 7, 8, 9, 10, 11, 12, 13, 14, 15, 16, 17, 18, 19, 20, 21, 22, 23, 24, 25, 26, 27, 28, 29, 30, 31, 32, 33, 34, 35, 36, 37, 38, 39, 40, 41, 42, 43, 44, 45, 46, 47, 48, 49, 50, 51, 52, 53, 54, 55, 56, 57, 58, 59, 60, 61, 62, 63, 64, 65, 66, 67, 68, 69, 70, 71, 72, 73, 74, 75, 76, 77, 78, 79, 80, 81, 82, 83, 84, 85, 86, 87, 88, 89, 90, 91, 92, 93, 94, 95, 96, 97, 98, 99, 100, 101, 102, 103, 104, 105, 106, 107, 108, 109, 110, 111, 112, 113, 114, 115, 116, 117, 118, 119, 120, 121, 122, 123, 124, 125, 126, 127, 128, 129, 130, 131, 132, 133, 134, 135, 136, 137, 138, 139, 140, 141, 142, 143, 144, 145, 146, 147, 148, 149, 150, 151, 152, 153, 154, 155, 156, 157, 158, 159, 160, 161, 162, 163, 164, 165, 166, 167, 168, 169, 170, 171, 172, 173, 174, 175, 176, 177, 178, 179, 180, 181, 182, 183, 184, 185, 186, 187, 188, 189, 190, 191, 192, 193, 194, 195, 196, 197, 198, 199, 200],
      "AcquisitionTime": ["085034.480000", "085036.480000", "085038.480000", "085040.480000", "085042.480000", "085044.480000", "085046.480000", "085048.480000", "085050.480000", "085052.480000", "085054.480000", "085056.480000", "085058.480000", "085100.480000", "085102.480000", "085104.480000", "085106.480000", "085108.480000", "085110.480000", "085112.480000", "085114.480000", "085116.480000", "085118.480000", "085120.480000", "085122.480000", "085124.480000", "085126.480000", "085128.480000", "085130.480000", "085132.480000", "085134.480000", "085136.480000", "085138.480000", "085140.480000", "085142.480000", "085144.480000", "085146.480000", "085148.480000", "085150.480000", "085152.480000", "085154.480000", "085156.480000", "085158.480000", "085200.480000", "085202.480000", "085204.480000", "085206.480000", "085208.480000", "085210.480000", "085212.480000", "085214.480000", "085216.480000", "085218.480000", "085220.480000", "085222.480000", "085224.480000", "085226.480000", "085228.480000", "085230.480000", "085232.480000", "085234.480000", "085236.480000", "085238.480000", "085240.480000", "085242.480000", "085244.480000", "085246.480000", "085248.480000", "085250.480000", "085252.480000", "085254.480000", "085256.480000", "085258.480000", "085300.480000", "085302.480000", "085304.480000", "085306.480000", "085308.480000", "085310.480000", "085312.480000", "085314.480000", "085316.480000", "085318.480000", "085320.480000", "085322.480000", "085324.480000", "085326.480000", "085328.480000", "085330.480000", "085332.480000", "085334.480000", "085336.480000", "085338.480000", "085340.480000", "085342.480000", "085344.480000", "085346.480000", "085348.480000", "085350.480000", "085352.480000", "085354.480000", "085356.480000", "085358.480000", "085400.480000", "085402.480000", "085404.480000", "085406.480000", "085408.480000", "085410.480000", "085412.480000", "085414.480000", "085416.480000", "085418.480000", "085420.480000", "085422.480000", "085424.480000", "085426.480000", "085428.480000", "085430.480000", "085432.480000", "085434.480000", "085436.480000", "085438.480000", "085440.480000", "085442.480000", "085444.480000", "085446.480000", "085448.480000", "085450.480000", "085452.480000", "085454.480000", "085456.480000", "085458.480000", "085500.480000", "085502.480000", "085504.480000", "085506.480000", "085508.480000", "085510.480000", "085512.480000", "085514.480000", "085516.480000", "085518.480000", "085520.480000", "085522.480000", "085524.480000", "085526.480000", "085528.480000", "085530.480000", "085532.480000", "085534.480000", "085536.480000", "085538.480000", "085540.480000", "085542.480000", "085544.480000", "085546.480000", "085548.480000", "085550.480000", "085552.480000", "085554.480000", "085556.480000", "085558.480000", "085600.480000", "085602.480000", "085604.480000", "085606.480000", "085608.480000", "085610.480000", "085612.480000", "085614.480000", "085616.480000", "085618.480000", "085620.480000", "085622.480000", "085624.480000", "085626.480000", "085628.480000", "085630.480000", "085632.480000", "085634.480000", "085636.480000", "085638.480000", "085640.480000", "085642.480000", "085644.480000", "085646.480000", "085648.480000", "085650.480000", "085652.480000", "085654.480000", "085656.480000", "085658.480000", "085700.480000", "085702.480000", "085704.480000", "085706.480000", "085708.480000", "085710.480000", "085712.480000"],
      "ContentTime": ["085127.136000", "085127.139000", "085127.141000", "085127.144000", "085127.146000", "085127.148000", "085127.150000", "085127.153000", "085127.155000", "085127.157000", "085127.159000", "085127.162000", "085127.171000", "085127.173000", "085127.175000", "085127.178000", "085127.180000", "085127.190000", "085127.192000", "085127.194000", "085127.196000", "085127.199000", "085127.202000", "085127.204000", "085127.206000", "085127.208000", "085207.130000", "085207.133000", "085207.135000", "085207.137000", "085207.144000", "085207.147000", "085207.153000", "085207.156000", "085207.158000", "085207.160000", "085207.163000", "085207.165000", "085207.167000", "085207.169000", "085207.172000", "085207.174000", "085207.176000", "085207.189000", "085207.191000", "085207.193000", "085247.130000", "085247.133000", "085247.135000", "085247.137000", "085247.139000", "085247.142000", "085247.144000", "085247.146000", "085247.149000", "085247.151000", "085247.153000", "085247.155000", "085247.168000", "085247.170000", "085247.172000", "085247.175000", "085247.177000", "085247.179000", "085247.182000", "085247.184000", "085327.131000", "085327.134000", "085327.136000", "085327.138000", "085327.140000", "085327.143000", "085327.145000", "085327.147000", "085327.149000", "085327.152000", "085327.154000", "085327.156000", "085327.159000", "085327.161000", "085327.163000", "085327.166000", "085327.168000", "085327.170000", "085327.172000", "085327.175000", "085407.130000", "085407.133000", "085407.135000", "085407.137000", "085407.140000", "085407.142000", "085407.144000", "085407.146000", "085407.149000", "085407.151000", "085407.153000", "085407.155000", "085407.158000", "085407.160000", "085407.162000", "085407.165000", "085407.167000", "085407.169000", "085407.172000", "085407.174000", "085447.130000", "085447.132000", "085447.135000", "085447.137000", "085447.139000", "085447.142000", "085447.144000", "085447.146000", "085447.148000", "085447.151000", "085447.153000", "085447.155000", "085447.157000", "085447.160000", "085447.162000", "085447.164000", "085447.167000", "085447.169000", "085447.171000", "085447.173000", "085527.130000", "085527.133000", "085527.135000", "085527.137000", "085527.139000", "085527.142000", "085527.144000", "085527.146000", "085527.148000", "085527.151000", "085527.153000", "085527.155000", "085527.158000", "085527.160000", "085527.162000", "085527.164000", "085527.167000", "085527.169000", "085527.171000", "085527.173000", "085607.131000", "085607.134000", "085607.136000", "085607.139000", "085607.141000", "085607.143000", "085607.145000", "085607.148000", "085607.150000", "085607.152000", "085607.155000", "085607.157000", "085607.159000", "085607.162000", "085607.164000", "085607.166000", "085607.168000", "085607.171000", "085607.173000", "085607.175000", "085647.130000", "085647.133000", "085647.135000", "085647.137000", "085647.139000", "085647.142000", "085647.144000", "085647.146000", "085647.149000", "085647.151000", "085647.153000", "085647.156000", "085647.158000", "085647.160000", "085647.162000", "085647.165000", "085647.167000", "085647.169000", "085647.172000", "085647.174000", "085714.008000", "085714.011000", "085714.013000", "085714.015000", "085714.018000", "085714.020000", "085714.022000", "085714.025000", "085714.027000", "085714.029000", "085714.032000", "085714.034000", "085714.036000", "085714.039000"],
      "InstanceCreationTime": ["085127.136000", "085127.139000", "085127.141000", "085127.144000", "085127.146000", "085127.148000", "085127.150000", "085127.153000", "085127.155000", "085127.157000", "085127.159000", "085127.162000", "085127.171000", "085127.173000", "085127.175000", "085127.178000", "085127.180000", "085127.190000", "085127.192000", "085127.194000", "085127.196000", "085127.199000", "085127.202000", "085127.204000", "085127.206000", "085127.208000", "085207.130000", "085207.133000", "085207.135000", "085207.137000", "085207.144000", "085207.147000", "085207.153000", "085207.156000", "085207.158000", "085207.160000", "085207.163000", "085207.165000", "085207.167000", "085207.169000", "085207.172000", "085207.174000", "085207.176000", "085207.189000", "085207.191000", "085207.193000", "085247.130000", "085247.133000", "085247.135000", "085247.137000", "085247.139000", "085247.142000", "085247.144000", "085247.146000", "085247.149000", "085247.151000", "085247.153000", "085247.155000", "085247.168000", "085247.170000", "085247.172000", "085247.175000", "085247.177000", "085247.179000", "085247.182000", "085247.184000", "085327.131000", "085327.134000", "085327.136000", "085327.138000", "085327.140000", "085327.143000", "085327.145000", "085327.147000", "085327.149000", "085327.152000", "085327.154000", "085327.156000", "085327.159000", "085327.161000", "085327.163000", "085327.166000", "085327.168000", "085327.170000", "085327.172000", "085327.175000", "085407.130000", "085407.133000", "085407.135000", "085407.137000", "085407.140000", "085407.142000", "085407.144000", "085407.146000", "085407.149000", "085407.151000", "085407.153000", "085407.155000", "085407.158000", "085407.160000", "085407.162000", "085407.165000", "085407.167000", "085407.169000", "085407.172000", "085407.174000", "085447.130000", "085447.132000", "085447.135000", "085447.137000", "085447.139000", "085447.142000", "085447.144000", "085447.146000", "085447.148000", "085447.151000", "085447.153000", "085447.155000", "085447.157000", "085447.160000", "085447.162000", "085447.164000", "085447.167000", "085447.169000", "085447.171000", "085447.173000", "085527.130000", "085527.133000", "085527.135000", "085527.137000", "085527.139000", "085527.142000", "085527.144000", "085527.146000", "085527.148000", "085527.151000", "085527.153000", "085527.155000", "085527.158000", "085527.160000", "085527.162000", "085527.164000", "085527.167000", "085527.169000", "085527.171000", "085527.173000", "085607.131000", "085607.134000", "085607.136000", "085607.139000", "085607.141000", "085607.143000", "085607.145000", "085607.148000", "085607.150000", "085607.152000", "085607.155000", "085607.157000", "085607.159000", "085607.162000", "085607.164000", "085607.166000", "085607.168000", "085607.171000", "085607.173000", "085607.175000", "085647.130000", "085647.133000", "085647.135000", "085647.137000", "085647.139000", "085647.142000", "085647.144000", "085647.146000", "085647.149000", "085647.151000", "085647.153000", "085647.156000", "085647.158000", "085647.160000", "085647.162000", "085647.165000", "085647.167000", "085647.169000", "085647.172000", "085647.174000", "085714.008000", "085714.011000", "085714.013000", "085714.015000", "085714.018000", "085714.020000", "085714.022000", "085714.025000", "085714.027000", "085714.029000", "085714.032000", "085714.034000", "085714.036000", "085714.039000"],
      "InstanceNumber": [1, 2, 3, 4, 5, 6, 7, 8, 9, 10, 11, 12, 13, 14, 15, 16, 17, 18, 19, 20, 21, 22, 23, 24, 25, 26, 27, 28, 29, 30, 31, 32, 33, 34, 35, 36, 37, 38, 39, 40, 41, 42, 43, 44, 45, 46, 47, 48, 49, 50, 51, 52, 53, 54, 55, 56, 57, 58, 59, 60, 61, 62, 63, 64, 65, 66, 67, 68, 69, 70, 71, 72, 73, 74, 75, 76, 77, 78, 79, 80, 81, 82, 83, 84, 85, 86, 87, 88, 89, 90, 91, 92, 93, 94, 95, 96, 97, 98, 99, 100, 101, 102, 103, 104, 105, 106, 107, 108, 109, 110, 111, 112, 113, 114, 115, 116, 117, 118, 119, 120, 121, 122, 123, 124, 125, 126, 127, 128, 129, 130, 131, 132, 133, 134, 135, 136, 137, 138, 139, 140, 141, 142, 143, 144, 145, 146, 147, 148, 149, 150, 151, 152, 153, 154, 155, 156, 157, 158, 159, 160, 161, 162, 163, 164, 165, 166, 167, 168, 169, 170, 171, 172, 173, 174, 175, 176, 177, 178, 179, 180, 181, 182, 183, 184, 185, 186, 187, 188, 189, 190, 191, 192, 193, 194, 195, 196, 197, 198, 199, 200],
      "LargestImagePixelValue": [671, 674, 677, 676, 671, 672, 674, 672, 673, 676, 672, 674, 671, 673, 676, 674, 672, 672, 672, 673, 674, 672, 674, 675, 673, 676, 672, 674, 673, 673, 676, 670, 671, 673, 672, 674, 674, 675, 677, 672, 673, 674, 677, 672, 672, 675, 674, 672, 675, 678, 676, 670, 673, 675, 673, 673, 675, 676, 674, 669, 672, 677, 674, 671, 674, 674, 673, 671, 668, 672, 674, 673, 673, 676, 677, 668, 670, 678, 674, 669, 675, 676, 675, 674, 672, 676, 675, 671, 675, 680, 673, 673, 671, 673, 674, 670, 672, 676, 670, 670, 672, 677, 671, 669, 676, 674, 675, 671, 675, 675, 671, 670, 676, 673, 676, 670, 668, 674, 672, 671, 672, 671, 672, 671, 675, 671, 673, 673, 674, 672, 673, 671, 672, 676, 676, 675, 676, 675, 673, 674, 674, 676, 674, 673, 671, 676, 670, 672, 672, 679, 671, 672, 673, 676, 674, 674, 672, 677, 675, 671, 675, 675, 672, 669, 675, 673, 674, 677, 676, 677, 665, 674, 675, 675, 674, 673, 676, 677, 671, 675, 674, 673, 671, 673, 676, 671, 674, 672, 674, 673, 669, 668, 674, 673, 671, 675, 675, 670, 673, 672],
      "WindowCenter": [457.0, 457.0, 457.0, 457.0, 457.0, 457.0, 457.0, 457.0, 457.0, 457.0, 457.0, 457.0, 457.0, 457.0, 457.0, 457.0, 457.0, 457.0, 457.0, 457.0, 457.0, 457.0, 457.0, 457.0, 457.0, 457.0, 457.0, 457.0, 457.0, 457.0, 457.0, 457.0, 457.0, 457.0, 457.0, 457.0, 457.0, 457.0, 457.0, 457.0, 457.0, 457.0, 456.0, 457.0, 457.0, 457.0, 457.0, 457.0, 457.0, 457.0, 457.0, 457.0, 457.0, 457.0, 456.0, 457.0, 457.0, 457.0, 457.0, 456.0, 457.0, 457.0, 457.0, 456.0, 456.0, 457.0, 456.0, 457.0, 456.0, 457.0, 457.0, 456.0, 456.0, 456.0, 456.0, 456.0, 456.0, 457.0, 456.0, 456.0, 456.0, 457.0, 456.0, 456.0, 456.0, 456.0, 456.0, 456.0, 457.0, 456.0, 457.0, 456.0, 456.0, 456.0, 456.0, 456.0, 456.0, 456.0, 456.0, 456.0, 456.0, 456.0, 456.0, 456.0, 456.0, 456.0, 456.0, 456.0, 456.0, 456.0, 456.0, 456.0, 456.0, 456.0, 456.0, 456.0, 455.0, 456.0, 456.0, 456.0, 456.0, 456.0, 456.0, 456.0, 456.0, 456.0, 456.0, 456.0, 456.0, 456.0, 456.0, 456.0, 456.0, 456.0, 456.0, 456.0, 456.0, 456.0, 456.0, 456.0, 456.0, 456.0, 456.0, 456.0, 456.0, 456.0, 456.0, 456.0, 456.0, 456.0, 456.0, 456.0, 456.0, 456.0, 456.0, 456.0, 456.0, 456.0, 456.0, 456.0, 456.0, 456.0, 456.0, 455.0, 456.0, 456.0, 456.0, 456.0, 455.0, 456.0, 455.0, 456.0, 456.0, 456.0, 456.0, 456.0, 455.0, 456.0, 456.0, 456.0, 456.0, 456.0, 456.0, 455.0, 455.0, 456.0, 456.0, 456.0, 456.0, 456.0, 455.0, 455.0, 456.0, 456.0, 456.0, 455.0, 456.0, 456.0, 455.0, 456.0],
      "WindowWidth": [949.0, 949.0, 949.0, 949.0, 949.0, 949.0, 949.0, 949.0, 949.0, 949.0, 949.0, 949.0, 949.0, 949.0, 949.0, 949.0, 949.0, 949.0, 949.0, 949.0, 949.0, 949.0, 949.0, 949.0, 949.0, 949.0, 949.0, 949.0, 949.0, 949.0, 949.0, 949.0, 949.0, 949.0, 949.0, 949.0, 949.0, 949.0, 949.0, 949.0, 949.0, 949.0, 948.0, 949.0, 949.0, 949.0, 949.0, 949.0, 949.0, 949.0, 949.0, 949.0, 948.0, 949.0, 948.0, 949.0, 948.0, 949.0, 949.0, 947.0, 948.0, 948.0, 949.0, 948.0, 948.0, 948.0, 948.0, 948.0, 947.0, 948.0, 949.0, 948.0, 948.0, 948.0, 948.0, 947.0, 948.0, 948.0, 948.0, 947.0, 948.0, 948.0, 948.0, 948.0, 947.0, 948.0, 948.0, 948.0, 948.0, 948.0, 948.0, 948.0, 947.0, 948.0, 948.0, 948.0, 947.0, 948.0, 948.0, 947.0, 947.0, 948.0, 948.0, 947.0, 947.0, 947.0, 948.0, 947.0, 947.0, 948.0, 948.0, 947.0, 947.0, 947.0, 947.0, 947.0, 946.0, 947.0, 947.0, 947.0, 947.0, 947.0, 947.0, 947.0, 947.0, 947.0, 947.0, 947.0, 947.0, 947.0, 947.0, 947.0, 947.0, 947.0, 947.0, 947.0, 947.0, 947.0, 947.0, 947.0, 947.0, 947.0, 947.0, 947.0, 947.0, 947.0, 947.0, 947.0, 947.0, 947.0, 947.0, 947.0, 947.0, 947.0, 947.0, 947.0, 947.0, 947.0, 947.0, 947.0, 947.0, 947.0, 947.0, 946.0, 947.0, 947.0, 947.0, 947.0, 946.0, 947.0, 946.0, 947.0, 947.0, 947.0, 947.0, 947.0, 946.0, 947.0, 947.0, 947.0, 947.0, 947.0, 947.0, 946.0, 946.0, 947.0, 947.0, 947.0, 947.0, 947.0, 946.0, 945.0, 947.0, 947.0, 947.0, 946.0, 947.0, 947.0, 946.0, 947.0]
    },
    "slices": {}
  }
}