{
  "AcquisitionMatrixPE": 80,
  "AcquisitionNumber": 1,
  "AcquisitionTime": "09:14:54.535000",
  "BandwidthPerPixelPhaseEncode": 25,
  "BaseResolution": 80,
  "BodyPartExamined": "BRAIN",
  "CoilCombinationMethod": "Sum of Squares",
  "ConsistencyInfo": "N4_VE11C_LATEST_20160120",
  "ConversionSoftware": "dcm2niix",
  "ConversionSoftwareVersion": "v1.0.20220720",
  "DerivedVendorReportedEchoSpacing": 0.0005,
  "DeviceSerialNumber": "66112",
  "DwellTime": 2.7e-06,
  "EchoTime": 0.03,
  "EchoTrainLength": 80,
  "EffectiveEchoSpacing": 0.0005,
  "FlipAngle": 10,
  "HeudiconvVersion": "0.13.1",
  "ImageOrientationPatientDICOM": [0.994883, -0.100912, 0.00494451, 0.0942193, 0.944347, 0.315169],
  "ImageOrientationText": "Tra>Cor(18.3)>Sag(2.1)",
  "ImageType": [
    "ORIGINAL",
    "PRIMARY",
    "M",
    "ND",
    "NORM",
    "MOSAIC"
],
  "ImagingFrequency": 123.252,
  "InPlanePhaseEncodingDirectionDICOM": "COL",
  "InstitutionAddress": "Maynard 3,Hanover,NH,US,03755",
  "InstitutionName": "Dartmouth College - PBS",
  "InstitutionalDepartmentName": "Department",
  "MRAcquisitionType": "2D",
  "MagneticFieldStrength": 3,
  "Manufacturer": "Siemens",
  "ManufacturersModelName": "Prisma",
  "MatrixCoilMode": "SENSE",
  "Modality": "MR",
  "NonlinearGradientCorrection": false,
  "PartialFourier": 1,
  "PatientPosition": "HFS",
  "PercentPhaseFOV": 100,
  "PercentSampling": 100,
  "PhaseEncodingDirection": "j-",
  "PhaseEncodingSteps": 80,
  "PhaseResolution": 1,
  "PixelBandwidth": 2315,
  "ProcedureStepDescription": "dbic^QA",
  "ProtocolName": "func-bold_fa-10",
  "PulseSequenceDetails": "%SiemensSeq%\\ep2d_bold",
  "ReceiveCoilActiveElements": "HC1-7;NC1,2",
  "ReceiveCoilName": "HeadNeck_64",
  "ReconMatrixPE": 80,
  "RepetitionTime": 2,
  "SAR": 0.00762243,
  "ScanOptions": "FS",
  "ScanningSequence": "EP",
  "SequenceName": "*epfid2d1_80",
  "SequenceVariant": "SK",
  "SeriesDescription": "func-bold_fa-10",
  "SeriesNumber": 9,
  "ShimSetting": [4140, -7679, -7520, 212, -60, -349, -101, 57],
  "SliceThickness": 3.5,
  "SliceTiming": [0.99, 0, 1.0575, 0.0675, 1.1225, 0.1325, 1.19, 0.2, 1.255, 0.265, 1.32, 0.33, 1.3875, 0.3975, 1.4525, 0.4625, 1.52, 0.53, 1.585, 0.595, 1.65, 0.66, 1.7175, 0.7275, 1.7825, 0.7925, 1.85, 0.86, 1.915, 0.925],
  "SoftwareVersions": "syngo MR E11",
  "SpacingBetweenSlices": 3.99,
  "StationName": "AWP66112",
  "TotalReadoutTime": 0.0395,
  "TxRefAmp": 212.933,
  "dcmmeta_affine": [
    [-2.984649419784546, 0.2826579213142395, 0.1455293446779251, 107.26222229003906],
    [0.30273473262786865, 2.833041191101074, 1.2492302656173706, -141.39517211914062],
    [0.014833532273769379, -0.9455065131187439, 3.7866008281707764, -35.4051399230957],
    [0.0, 0.0, 0.0, 1.0]
],
  "dcmmeta_reorient_transform": [
    [0.0, -1.0, 0.0, 79.0],
    [1.0, 0.0, 0.0, 0.0],
    [0.0, 0.0, 1.0, 0.0],
    [0.0, 0.0, 0.0, 1.0]
],
  "dcmmeta_shape": [80, 80, 30, 200],
  "dcmmeta_slice_dim": 2,
  "dcmmeta_version": 0.6,
  "global": {
    "const": {
      "AccessionNumber": "qa64",
      "AcquisitionMatrix": [80, 0, 0, 80],
      "AngioFlag": "N",
      "BitsAllocated": 16,
      "BitsStored": 12,
      "BodyPartExamined": "BRAIN",
      "Columns": 480,
      "EchoNumbers": 1,
      "EchoTime": 30.0,
      "EchoTrainLength": 80,
      "FlipAngle": 10.0,
      "HighBit": 11,
      "ImageOrientationPatient": [0.9948831110273, -0.1009115811293, 0.00494451075807, 0.09421930632019, 0.94434703405406, 0.31516884616002],
      "ImagePositionPatient": [-783.05364950966, -588.47635165213, -302.1681709361],
      "ImageType": [
        "ORIGINAL",
        "PRIMARY",
        "M",
        "ND",
        "NORM",
        "MOSAIC"
],
      "ImagedNucleus": "1H",
      "ImagingFrequency": 123.252374,
      "InPlanePhaseEncodingDirection": "COL",
      "MRAcquisitionType": "2D",
      "MagneticFieldStrength": 3.0,
      "Manufacturer": "SIEMENS",
      "ManufacturerModelName": "Prisma",
      "Modality": "MR",
      "NumberOfAverages": 1.0,
      "NumberOfPhaseEncodingSteps": 80,
      "PercentPhaseFieldOfView": 100.0,
      "PercentSampling": 100.0,
      "PerformedProcedureStepStartTime": "085453.615000",
      "PhotometricInterpretation": "MONOCHROME2",
      "PixelBandwidth": 2315.0,
      "PixelRepresentation": 0,
      "PixelSpacing": [3.0, 3.0],
      "ProtocolName": "func-bold_fa-10",
      "RepetitionTime": 2000.0,
      "Rows": 480,
      "SAR": 0.00762243226215,
      "SamplesPerPixel": 1,
      "ScanOptions": "FS",
      "ScanningSequence": "EP",
      "SequenceName": "*epfid2d1_80",
      "SequenceVariant": "SK",
      "SeriesDescription": "func-bold_fa-10",
      "SeriesNumber": 9,
      "SeriesTime": "091547.611000",
      "SliceLocation": -73.957506510491,
      "SliceThickness": 3.5,
      "SmallestImagePixelValue": 0,
      "SoftwareVersions": "syngo MR E11",
      "SpacingBetweenSlices": 3.9900000015822,
      "SpecificCharacterSet": "ISO_IR 100",
      "StudyID": "23",
      "StudyTime": "085453.545000",
      "TransmitCoilName": "Body",
      "VariableFlipAngleFlag": "N",
      "WindowCenterWidthExplanation": "Algo1",
      "dBdt": 0.0},
    "slices": {}
  },
  "time": {
    "samples": {
      "AcquisitionNumber": [1, 2, 3, 4, 5, 6, 7, 8, 9, 10, 11, 12, 13, 14, 15, 16, 17, 18, 19, 20, 21, 22, 23, 24, 25, 26, 27, 28, 29, 30, 31, 32, 33, 34, 35, 36, 37, 38, 39, 40, 41, 42, 43, 44, 45, 46, 47, 48, 49, 50, 51, 52, 53, 54, 55, 56, 57, 58, 59, 60, 61, 62, 63, 64, 65, 66, 67, 68, 69, 70, 71, 72, 73, 74, 75, 76, 77, 78, 79, 80, 81, 82, 83, 84, 85, 86, 87, 88, 89, 90, 91, 92, 93, 94, 95, 96, 97, 98, 99, 100, 101, 102, 103, 104, 105, 106, 107, 108, 109, 110, 111, 112, 113, 114, 115, 116, 117, 118, 119, 120, 121, 122, 123, 124, 125, 126, 127, 128, 129, 130, 131, 132, 133, 134, 135, 136, 137, 138, 139, 140, 141, 142, 143, 144, 145, 146, 147, 148, 149, 150, 151, 152, 153, 154, 155, 156, 157, 158, 159, 160, 161, 162, 163, 164, 165, 166, 167, 168, 169, 170, 171, 172, 173, 174, 175, 176, 177, 178, 179, 180, 181, 182, 183, 184, 185, 186, 187, 188, 189, 190, 191, 192, 193, 194, 195, 196, 197, 198, 199, 200],
      "AcquisitionTime": ["091454.535000", "091456.535000", "091458.535000", "091500.535000", "091502.535000", "091504.535000", "091506.535000", "091508.535000", "091510.535000", "091512.535000", "091514.535000", "091516.535000", "091518.535000", "091520.535000", "091522.535000", "091524.535000", "091526.535000", "091528.535000", "091530.535000", "091532.535000", "091534.535000", "091536.535000", "091538.535000", "091540.535000", "091542.535000", "091544.535000", "091546.535000", "091548.535000", "091550.535000", "091552.535000", "091554.535000", "091556.535000", "091558.535000", "091600.535000", "091602.535000", "091604.535000", "091606.535000", "091608.535000", "091610.535000", "091612.535000", "091614.535000", "091616.535000", "091618.535000", "091620.535000", "091622.535000", "091624.535000", "091626.535000", "091628.535000", "091630.535000", "091632.535000", "091634.535000", "091636.535000", "091638.535000", "091640.535000", "091642.535000", "091644.535000", "091646.535000", "091648.535000", "091650.535000", "091652.535000", "091654.535000", "091656.535000", "091658.535000", "091700.535000", "091702.535000", "091704.535000", "091706.535000", "091708.535000", "091710.535000", "091712.535000", "091714.535000", "091716.535000", "091718.535000", "091720.535000", "091722.535000", "091724.535000", "091726.535000", "091728.535000", "091730.535000", "091732.535000", "091734.535000", "091736.535000", "091738.535000", "091740.535000", "091742.535000", "091744.535000", "091746.535000", "091748.535000", "091750.535000", "091752.535000", "091754.535000", "091756.535000", "091758.535000", "091800.535000", "091802.535000", "091804.535000", "091806.535000", "091808.535000", "091810.535000", "091812.535000", "091814.535000", "091816.535000", "091818.535000", "091820.535000", "091822.535000", "091824.535000", "091826.535000", "091828.535000", "091830.535000", "091832.535000", "091834.535000", "091836.535000", "091838.535000", "091840.535000", "091842.535000", "091844.535000", "091846.535000", "091848.535000", "091850.535000", "091852.535000", "091854.535000", "091856.535000", "091858.535000", "091900.535000", "091902.535000", "091904.535000", "091906.535000", "091908.535000", "091910.535000", "091912.535000", "091914.535000", "091916.535000", "091918.535000", "091920.535000", "091922.535000", "091924.535000", "091926.535000", "091928.535000", "091930.535000", "091932.535000", "091934.535000", "091936.535000", "091938.535000", "091940.535000", "091942.535000", "091944.535000", "091946.535000", "091948.535000", "091950.535000", "091952.535000", "091954.535000", "091956.535000", "091958.535000", "092000.535000", "092002.535000", "092004.535000", "092006.535000", "092008.535000", "092010.535000", "092012.535000", "092014.535000", "092016.535000", "092018.535000", "092020.535000", "092022.535000", "092024.535000", "092026.535000", "092028.535000", "092030.535000", "092032.535000", "092034.535000", "092036.535000", "092038.535000", "092040.535000", "092042.535000", "092044.535000", "092046.535000", "092048.535000", "092050.535000", "092052.535000", "092054.535000", "092056.535000", "092058.535000", "092100.535000", "092102.535000", "092104.535000", "092106.535000", "092108.535000", "092110.535000", "092112.535000", "092114.535000", "092116.535000", "092118.535000", "092120.535000", "092122.535000", "092124.535000", "092126.535000", "092128.535000", "092130.535000", "092132.535000"],
      "ContentTime": ["091547.614000", "091547.618000", "091547.620000", "091547.623000", "091547.625000", "091547.628000", "091547.630000", "091547.633000", "091547.635000", "091547.638000", "091547.640000", "091547.643000", "091547.653000", "091547.655000", "091547.658000", "091547.660000", "091547.663000", "091547.665000", "091547.668000", "091547.670000", "091547.673000", "091547.675000", "091547.678000", "091547.680000", "091547.689000", "091547.692000", "091627.610000", "091627.613000", "091627.616000", "091627.618000", "091627.621000", "091627.623000", "091627.626000", "091627.628000", "091627.631000", "091627.633000", "091627.636000", "091627.638000", "091627.641000", "091627.643000", "091627.646000", "091627.648000", "091627.651000", "091627.653000", "091627.656000", "091627.658000", "091707.611000", "091707.613000", "091707.616000", "091707.618000", "091707.621000", "091707.623000", "091707.626000", "091707.628000", "091707.631000", "091707.633000", "091707.636000", "091707.638000", "091707.641000", "091707.643000", "091707.646000", "091707.648000", "091707.651000", "091707.653000", "091707.668000", "091707.670000", "091747.609000", "091747.612000", "091747.615000", "091747.617000", "091747.620000", "091747.622000", "091747.625000", "091747.627000", "091747.630000", "091747.632000", "091747.635000", "091747.637000", "091747.640000", "091747.642000", "091747.645000", "091747.647000", "091747.650000", "091747.652000", "091747.655000", "091747.657000", "091807.609000", "091807.612000", "091807.615000", "091807.617000", "091807.620000", "091807.622000", "091807.625000", "091807.627000", "091807.630000", "091807.632000", "091847.610000", "091847.613000", "091847.616000", "091847.618000", "091847.621000", "091847.624000", "091847.626000", "091847.629000", "091847.631000", "091847.634000", "091847.648000", "091847.651000", "091847.653000", "091847.656000", "091847.658000", "091847.661000", "091847.663000", "091847.666000", "091847.668000", "091847.671000", "091927.610000", "091927.628000", "091927.631000", "091927.633000", "091927.636000", "091927.638000", "091927.641000", "091927.644000", "091927.646000", "091927.649000", "091927.651000", "091927.654000", "091927.656000", "091927.659000", "091927.661000", "091927.664000", "091927.666000", "091927.669000", "091927.671000", "091927.674000", "092007.609000", "092007.612000", "092007.615000", "092007.617000", "092007.620000", "092007.622000", "092007.625000", "092007.627000", "092007.630000", "092007.632000", "092007.635000", "092007.637000", "092007.640000", "092007.642000", "092007.645000", "092007.647000", "092007.650000", "092007.652000", "092007.655000", "092007.657000", "092047.609000", "092047.612000", "092047.615000", "092047.617000", "092047.620000", "092047.622000", "092047.625000", "092047.627000", "092047.630000", "092047.632000", "092047.635000", "092047.637000", "092047.640000", "092047.642000", "092047.645000", "092047.647000", "092047.650000", "092047.652000", "092047.655000", "092047.657000", "092127.611000", "092127.614000", "092127.616000", "092127.619000", "092127.621000", "092127.624000", "092127.626000", "092127.629000", "092127.631000", "092127.634000", "092127.636000", "092127.639000", "092127.641000", "092127.644000", "092127.646000", "092127.649000", "092127.651000", "092127.654000", "092127.656000", "092127.659000", "092133.876000", "092133.879000", "092133.882000", "092133.884000"],
      "InstanceCreationTime": ["091547.614000", "091547.618000", "091547.620000", "091547.623000", "091547.625000", "091547.628000", "091547.630000", "091547.633000", "091547.635000", "091547.638000", "091547.640000", "091547.643000", "091547.653000", "091547.655000", "091547.658000", "091547.660000", "091547.663000", "091547.665000", "091547.668000", "091547.670000", "091547.673000", "091547.675000", "091547.678000", "091547.680000", "091547.689000", "091547.692000", "091627.610000", "091627.613000", "091627.616000", "091627.618000", "091627.621000", "091627.623000", "091627.626000", "091627.628000", "091627.631000", "091627.633000", "091627.636000", "091627.638000", "091627.641000", "091627.643000", "091627.646000", "091627.648000", "091627.651000", "091627.653000", "091627.656000", "091627.658000", "091707.611000", "091707.613000", "091707.616000", "091707.618000", "091707.621000", "091707.623000", "091707.626000", "091707.628000", "091707.631000", "091707.633000", "091707.636000", "091707.638000", "091707.641000", "091707.643000", "091707.646000", "091707.648000", "091707.651000", "091707.653000", "091707.668000", "091707.670000", "091747.609000", "091747.612000", "091747.615000", "091747.617000", "091747.620000", "091747.622000", "091747.625000", "091747.627000", "091747.630000", "091747.632000", "091747.635000", "091747.637000", "091747.640000", "091747.642000", "091747.645000", "091747.647000", "091747.650000", "091747.652000", "091747.655000", "091747.657000", "091807.609000", "091807.612000", "091807.615000", "091807.617000", "091807.620000", "091807.622000", "091807.625000", "091807.627000", "091807.630000", "091807.632000", "091847.610000", "091847.613000", "091847.616000", "091847.618000", "091847.621000", "091847.624000", "091847.626000", "091847.629000", "091847.631000", "091847.634000", "091847.648000", "091847.651000", "091847.653000", "091847.656000", "091847.658000", "091847.661000", "091847.663000", "091847.666000", "091847.668000", "091847.671000", "091927.610000", "091927.628000", "091927.631000", "091927.633000", "091927.636000", "091927.638000", "091927.641000", "091927.644000", "091927.646000", "091927.649000", "091927.651000", "091927.654000", "091927.656000", "091927.659000", "091927.661000", "091927.664000", "091927.666000", "091927.669000", "091927.671000", "091927.674000", "092007.609000", "092007.612000", "092007.615000", "092007.617000", "092007.620000", "092007.622000", "092007.625000", "092007.627000", "092007.630000", "092007.632000", "092007.635000", "092007.637000", "092007.640000", "092007.642000", "092007.645000", "092007.647000", "092007.650000", "092007.652000", "092007.655000", "092007.657000", "092047.609000", "092047.612000", "092047.615000", "092047.617000", "092047.620000", "092047.622000", "092047.625000", "092047.627000", "092047.630000", "092047.632000", "092047.635000", "092047.637000", "092047.640000", "092047.642000", "092047.645000", "092047.647000", "092047.650000", "092047.652000", "092047.655000", "092047.657000", "092127.611000", "092127.614000", "092127.616000", "092127.619000", "092127.621000", "092127.624000", "092127.626000", "092127.629000", "092127.631000", "092127.634000", "092127.636000", "092127.639000", "092127.641000", "092127.644000", "092127.646000", "092127.649000", "092127.651000", "092127.654000", "092127.656000", "092127.659000", "092133.876000", "092133.879000", "092133.882000", "092133.884000"],
      "InstanceNumber": [1, 2, 3, 4, 5, 6, 7, 8, 9, 10, 11, 12, 13, 14, 15, 16, 17, 18, 19, 20, 21, 22, 23, 24, 25, 26, 27, 28, 29, 30, 31, 32, 33, 34, 35, 36, 37, 38, 39, 40, 41, 42, 43, 44, 45, 46, 47, 48, 49, 50, 51, 52, 53, 54, 55, 56, 57, 58, 59, 60, 61, 62, 63, 64, 65, 66, 67, 68, 69, 70, 71, 72, 73, 74, 75, 76, 77, 78, 79, 80, 81, 82, 83, 84, 85, 86, 87, 88, 89, 90, 91, 92, 93, 94, 95, 96, 97, 98, 99, 100, 101, 102, 103, 104, 105, 106, 107, 108, 109, 110, 111, 112, 113, 114, 115, 116, 117, 118, 119, 120, 121, 122, 123, 124, 125, 126, 127, 128, 129, 130, 131, 132, 133, 134, 135, 136, 137, 138, 139, 140, 141, 142, 143, 144, 145, 146, 147, 148, 149, 150, 151, 152, 153, 154, 155, 156, 157, 158, 159, 160, 161, 162, 163, 164, 165, 166, 167, 168, 169, 170, 171, 172, 173, 174, 175, 176, 177, 178, 179, 180, 181, 182, 183, 184, 185, 186, 187, 188, 189, 190, 191, 192, 193, 194, 195, 196, 197, 198, 199, 200],
      "LargestImagePixelValue": [815, 814, 815, 814, 816, 812, 813, 810, 816, 818, 813, 812, 814, 809, 816, 813, 812, 814, 814, 815, 809, 809, 813, 812, 814, 813, 816, 821, 819, 815, 818, 812, 813, 811, 810, 820, 815, 811, 813, 814, 816, 815, 820, 817, 819, 816, 819, 814, 811, 815, 817, 818, 815, 815, 816, 817, 817, 815, 817, 815, 817, 816, 817, 819, 815, 818, 815, 813, 812, 815, 818, 816, 817, 817, 819, 818, 819, 814, 816, 815, 814, 815, 816, 817, 812, 819, 819, 812, 811, 809, 812, 813, 813, 810, 816, 812, 810, 811, 814, 813, 810, 814, 810, 811, 813, 812, 810, 810, 812, 810, 817, 812, 811, 813, 808, 813, 810, 814, 810, 812, 813, 811, 812, 811, 809, 808, 814, 815, 809, 812, 809, 812, 813, 810, 813, 817, 815, 816, 816, 811, 810, 815, 817, 809, 816, 814, 813, 813, 814, 815, 817, 820, 817, 816, 813, 818, 817, 818, 812, 816, 818, 815, 815, 816, 814, 815, 816, 815, 815, 812, 814, 812, 815, 817, 815, 816, 809, 816, 816, 810, 809, 810, 810, 807, 812, 809, 809, 814, 810, 810, 811, 808, 809, 811, 810, 810, 810, 812, 809, 812],
      "WindowCenter": [492.0, 492.0, 492.0, 492.0, 492.0, 492.0, 492.0, 491.0, 492.0, 493.0, 493.0, 493.0, 491.0, 491.0, 494.0, 492.0, 492.0, 492.0, 491.0, 491.0, 491.0, 491.0, 491.0, 491.0, 492.0, 492.0, 491.0, 494.0, 494.0, 494.0, 494.0, 493.0, 491.0, 491.0, 492.0, 493.0, 491.0, 491.0, 491.0, 491.0, 491.0, 493.0, 494.0, 494.0, 494.0, 494.0, 493.0, 491.0, 491.0, 493.0, 494.0, 494.0, 494.0, 494.0, 494.0, 493.0, 494.0, 494.0, 494.0, 494.0, 494.0, 494.0, 494.0, 494.0, 494.0, 494.0, 494.0, 493.0, 491.0, 491.0, 493.0, 494.0, 494.0, 494.0, 494.0, 494.0, 494.0, 494.0, 494.0, 494.0, 494.0, 494.0, 494.0, 494.0, 494.0, 494.0, 494.0, 493.0, 492.0, 491.0, 491.0, 491.0, 491.0, 491.0, 491.0, 491.0, 492.0, 491.0, 491.0, 491.0, 491.0, 491.0, 491.0, 491.0, 491.0, 491.0, 492.0, 491.0, 491.0, 491.0, 492.0, 493.0, 491.0, 491.0, 491.0, 491.0, 491.0, 491.0, 491.0, 491.0, 491.0, 491.0, 491.0, 491.0, 491.0, 491.0, 491.0, 491.0, 491.0, 491.0, 491.0, 492.0, 493.0, 492.0, 493.0, 493.0, 493.0, 493.0, 493.0, 493.0, 493.0, 493.0, 493.0, 491.0, 491.0, 491.0, 493.0, 493.0, 493.0, 493.0, 493.0, 493.0, 493.0, 493.0, 493.0, 493.0, 493.0, 493.0, 493.0, 493.0, 493.0, 493.0, 493.0, 493.0, 493.0, 493.0, 493.0, 493.0, 493.0, 493.0, 492.0, 493.0, 493.0, 493.0, 493.0, 493.0, 493.0, 493.0, 493.0, 492.0, 490.0, 491.0, 491.0, 490.0, 491.0, 490.0, 491.0, 490.0, 490.0, 490.0, 490.0, 490.0, 490.0, 491.0, 490.0, 491.0, 490.0, 491.0, 490.0, 490.0],
      "WindowWidth": [1016.0, 1016.0, 1016.0, 1016.0, 1016.0, 1016.0, 1016.0, 1015.0, 1016.0, 1018.0, 1018.0, 1018.0, 1015.0, 1016.0, 1021.0, 1016.0, 1016.0, 1016.0, 1015.0, 1015.0, 1014.0, 1014.0, 1015.0, 1015.0, 1015.0, 1015.0, 1015.0, 1021.0, 1021.0, 1021.0, 1021.0, 1018.0, 1015.0, 1015.0, 1016.0, 1019.0, 1015.0, 1015.0, 1015.0, 1015.0, 1015.0, 1019.0, 1021.0, 1020.0, 1021.0, 1020.0, 1019.0, 1015.0, 1015.0, 1018.0, 1021.0, 1021.0, 1021.0, 1021.0, 1021.0, 1019.0, 1021.0, 1021.0, 1021.0, 1021.0, 1021.0, 1021.0, 1021.0, 1021.0, 1021.0, 1021.0, 1021.0, 1018.0, 1015.0, 1015.0, 1018.0, 1021.0, 1021.0, 1021.0, 1020.0, 1020.0, 1020.0, 1020.0, 1019.0, 1019.0, 1020.0, 1020.0, 1019.0, 1019.0, 1020.0, 1020.0, 1020.0, 1017.0, 1016.0, 1014.0, 1014.0, 1014.0, 1014.0, 1014.0, 1014.0, 1014.0, 1016.0, 1014.0, 1014.0, 1015.0, 1014.0, 1014.0, 1014.0, 1014.0, 1014.0, 1014.0, 1016.0, 1014.0, 1014.0, 1014.0, 1017.0, 1019.0, 1014.0, 1014.0, 1014.0, 1014.0, 1014.0, 1014.0, 1014.0, 1014.0, 1014.0, 1014.0, 1014.0, 1014.0, 1014.0, 1014.0, 1014.0, 1014.0, 1014.0, 1014.0, 1014.0, 1017.0, 1019.0, 1016.0, 1017.0, 1019.0, 1019.0, 1019.0, 1019.0, 1019.0, 1019.0, 1019.0, 1019.0, 1016.0, 1014.0, 1015.0, 1019.0, 1019.0, 1019.0, 1019.0, 1019.0, 1019.0, 1019.0, 1019.0, 1019.0, 1019.0, 1019.0, 1019.0, 1019.0, 1019.0, 1019.0, 1019.0, 1019.0, 1019.0, 1019.0, 1019.0, 1019.0, 1019.0, 1019.0, 1019.0, 1016.0, 1019.0, 1019.0, 1019.0, 1018.0, 1019.0, 1018.0, 1019.0, 1019.0, 1017.0, 1013.0, 1014.0, 1014.0, 1013.0, 1014.0, 1013.0, 1014.0, 1013.0, 1013.0, 1013.0, 1013.0, 1013.0, 1013.0, 1014.0, 1013.0, 1014.0, 1013.0, 1014.0, 1013.0, 1013.0]
    },
    "slices": {}
  }
}