{
  "AcquisitionMatrixPE": 80,
  "AcquisitionNumber": 1,
  "AcquisitionTime": "09:08:7.542500",
  "BandwidthPerPixelPhaseEncode": 25,
  "BaseResolution": 80,
  "BodyPartExamined": "BRAIN",
  "CoilCombinationMethod": "Sum of Squares",
  "ConsistencyInfo": "N4_VE11C_LATEST_20160120",
  "ConversionSoftware": "dcm2niix",
  "ConversionSoftwareVersion": "v1.0.20220720",
  "DerivedVendorReportedEchoSpacing": 0.0005,
  "DeviceSerialNumber": "66112",
  "DwellTime": 2.7e-06,
  "EchoTime": 0.03,
  "EchoTrainLength": 80,
  "EffectiveEchoSpacing": 0.0005,
  "FlipAngle": 77,
  "HeudiconvVersion": "0.13.1",
  "ImageOrientationPatientDICOM": [0.994883, -0.100912, 0.00494451, 0.0942193, 0.944347, 0.315169],
  "ImageOrientationText": "Tra>Cor(18.3)>Sag(2.1)",
  "ImageType": [
    "ORIGINAL",
    "PRIMARY",
    "M",
    "ND",
    "NORM",
    "MOSAIC"
],
  "ImagingFrequency": 123.252,
  "InPlanePhaseEncodingDirectionDICOM": "COL",
  "InstitutionAddress": "Maynard 3,Hanover,NH,US,03755",
  "InstitutionName": "Dartmouth College - PBS",
  "InstitutionalDepartmentName": "Department",
  "MRAcquisitionType": "2D",
  "MagneticFieldStrength": 3,
  "Manufacturer": "Siemens",
  "ManufacturersModelName": "Prisma",
  "MatrixCoilMode": "SENSE",
  "Modality": "MR",
  "NonlinearGradientCorrection": false,
  "PartialFourier": 1,
  "PatientPosition": "HFS",
  "PercentPhaseFOV": 100,
  "PercentSampling": 100,
  "PhaseEncodingDirection": "j-",
  "PhaseEncodingSteps": 80,
  "PhaseResolution": 1,
  "PixelBandwidth": 2315,
  "ProcedureStepDescription": "dbic^QA",
  "ProtocolName": "func-bold_fa-77",
  "PulseSequenceDetails": "%SiemensSeq%\\ep2d_bold",
  "ReceiveCoilActiveElements": "HC1-7;NC1,2",
  "ReceiveCoilName": "HeadNeck_64",
  "ReconMatrixPE": 80,
  "RepetitionTime": 2,
  "SAR": 0.0284155,
  "ScanOptions": "FS",
  "ScanningSequence": "EP",
  "SequenceName": "*epfid2d1_80",
  "SequenceVariant": "SK",
  "SeriesDescription": "func-bold_fa-77",
  "SeriesNumber": 7,
  "ShimSetting": [4140, -7679, -7520, 212, -60, -349, -101, 57],
  "SliceThickness": 3.5,
  "SliceTiming": [0.99, 0, 1.0575, 0.0675, 1.1225, 0.1325, 1.19, 0.2, 1.255, 0.265, 1.32, 0.33, 1.3875, 0.3975, 1.4525, 0.4625, 1.52, 0.53, 1.585, 0.595, 1.65, 0.66, 1.7175, 0.7275, 1.7825, 0.7925, 1.8475, 0.86, 1.915, 0.925],
  "SoftwareVersions": "syngo MR E11",
  "SpacingBetweenSlices": 3.99,
  "StationName": "AWP66112",
  "TotalReadoutTime": 0.0395,
  "TxRefAmp": 212.933,
  "dcmmeta_affine": [
    [-2.984649419784546, 0.2826579213142395, 0.1455293446779251, 107.26222229003906],
    [0.30273473262786865, 2.833041191101074, 1.2492302656173706, -141.39517211914062],
    [0.014833532273769379, -0.9455065131187439, 3.7866008281707764, -35.4051399230957],
    [0.0, 0.0, 0.0, 1.0]
],
  "dcmmeta_reorient_transform": [
    [0.0, -1.0, 0.0, 79.0],
    [1.0, 0.0, 0.0, 0.0],
    [0.0, 0.0, 1.0, 0.0],
    [0.0, 0.0, 0.0, 1.0]
],
  "dcmmeta_shape": [80, 80, 30, 200],
  "dcmmeta_slice_dim": 2,
  "dcmmeta_version": 0.6,
  "global": {
    "const": {
      "AccessionNumber": "qa64",
      "AcquisitionMatrix": [80, 0, 0, 80],
      "AngioFlag": "N",
      "BitsAllocated": 16,
      "BitsStored": 12,
      "BodyPartExamined": "BRAIN",
      "Columns": 480,
      "EchoNumbers": 1,
      "EchoTime": 30.0,
      "EchoTrainLength": 80,
      "FlipAngle": 77.0,
      "HighBit": 11,
      "ImageOrientationPatient": [0.9948831110273, -0.1009115811293, 0.00494451075807, 0.09421930632019, 0.94434703405406, 0.31516884616002],
      "ImagePositionPatient": [-783.05364950966, -588.47635165213, -302.1681709361],
      "ImageType": [
        "ORIGINAL",
        "PRIMARY",
        "M",
        "ND",
        "NORM",
        "MOSAIC"
],
      "ImagedNucleus": "1H",
      "ImagingFrequency": 123.252374,
      "InPlanePhaseEncodingDirection": "COL",
      "LargestImagePixelValue": 4095,
      "MRAcquisitionType": "2D",
      "MagneticFieldStrength": 3.0,
      "Manufacturer": "SIEMENS",
      "ManufacturerModelName": "Prisma",
      "Modality": "MR",
      "NumberOfAverages": 1.0,
      "NumberOfPhaseEncodingSteps": 80,
      "PercentPhaseFieldOfView": 100.0,
      "PercentSampling": 100.0,
      "PerformedProcedureStepStartTime": "085453.615000",
      "PhotometricInterpretation": "MONOCHROME2",
      "PixelBandwidth": 2315.0,
      "PixelRepresentation": 0,
      "PixelSpacing": [3.0, 3.0],
      "ProtocolName": "func-bold_fa-77",
      "RepetitionTime": 2000.0,
      "Rows": 480,
      "SAR": 0.02841550010401,
      "SamplesPerPixel": 1,
      "ScanOptions": "FS",
      "ScanningSequence": "EP",
      "SequenceName": "*epfid2d1_80",
      "SequenceVariant": "SK",
      "SeriesDescription": "func-bold_fa-77",
      "SeriesNumber": 7,
      "SeriesTime": "090827.752000",
      "SliceLocation": -73.957506510491,
      "SliceThickness": 3.5,
      "SmallestImagePixelValue": 0,
      "SoftwareVersions": "syngo MR E11",
      "SpacingBetweenSlices": 3.9900000015822,
      "SpecificCharacterSet": "ISO_IR 100",
      "StudyID": "23",
      "StudyTime": "085453.545000",
      "TransmitCoilName": "Body",
      "VariableFlipAngleFlag": "N",
      "WindowCenterWidthExplanation": "Algo1",
      "dBdt": 0.0},
    "slices": {}
  },
  "time": {
    "samples": {
      "AcquisitionNumber": [1, 2, 3, 4, 5, 6, 7, 8, 9, 10, 11, 12, 13, 14, 15, 16, 17, 18, 19, 20, 21, 22, 23, 24, 25, 26, 27, 28, 29, 30, 31, 32, 33, 34, 35, 36, 37, 38, 39, 40, 41, 42, 43, 44, 45, 46, 47, 48, 49, 50, 51, 52, 53, 54, 55, 56, 57, 58, 59, 60, 61, 62, 63, 64, 65, 66, 67, 68, 69, 70, 71, 72, 73, 74, 75, 76, 77, 78, 79, 80, 81, 82, 83, 84, 85, 86, 87, 88, 89, 90, 91, 92, 93, 94, 95, 96, 97, 98, 99, 100, 101, 102, 103, 104, 105, 106, 107, 108, 109, 110, 111, 112, 113, 114, 115, 116, 117, 118, 119, 120, 121, 122, 123, 124, 125, 126, 127, 128, 129, 130, 131, 132, 133, 134, 135, 136, 137, 138, 139, 140, 141, 142, 143, 144, 145, 146, 147, 148, 149, 150, 151, 152, 153, 154, 155, 156, 157, 158, 159, 160, 161, 162, 163, 164, 165, 166, 167, 168, 169, 170, 171, 172, 173, 174, 175, 176, 177, 178, 179, 180, 181, 182, 183, 184, 185, 186, 187, 188, 189, 190, 191, 192, 193, 194, 195, 196, 197, 198, 199, 200],
      "AcquisitionTime": ["090807.542500", "090809.542500", "090811.542500", "090813.542500", "090815.542500", "090817.542500", "090819.542500", "090821.542500", "090823.542500", "090825.542500", "090827.542500", "090829.542500", "090831.542500", "090833.542500", "090835.542500", "090837.542500", "090839.542500", "090841.542500", "090843.542500", "090845.542500", "090847.542500", "090849.542500", "090851.542500", "090853.542500", "090855.542500", "090857.542500", "090859.542500", "090901.542500", "090903.542500", "090905.542500", "090907.542500", "090909.542500", "090911.542500", "090913.542500", "090915.542500", "090917.542500", "090919.542500", "090921.542500", "090923.542500", "090925.542500", "090927.542500", "090929.542500", "090931.542500", "090933.542500", "090935.542500", "090937.542500", "090939.542500", "090941.542500", "090943.542500", "090945.542500", "090947.542500", "090949.542500", "090951.542500", "090953.542500", "090955.542500", "090957.542500", "090959.542500", "091001.542500", "091003.542500", "091005.542500", "091007.542500", "091009.542500", "091011.542500", "091013.542500", "091015.542500", "091017.542500", "091019.542500", "091021.542500", "091023.542500", "091025.542500", "091027.542500", "091029.542500", "091031.542500", "091033.542500", "091035.542500", "091037.542500", "091039.542500", "091041.542500", "091043.542500", "091045.542500", "091047.542500", "091049.542500", "091051.542500", "091053.542500", "091055.542500", "091057.542500", "091059.542500", "091101.542500", "091103.542500", "091105.542500", "091107.542500", "091109.542500", "091111.542500", "091113.542500", "091115.542500", "091117.542500", "091119.542500", "091121.542500", "091123.542500", "091125.542500", "091127.542500", "091129.542500", "091131.542500", "091133.542500", "091135.542500", "091137.542500", "091139.542500", "091141.542500", "091143.542500", "091145.542500", "091147.542500", "091149.542500", "091151.542500", "091153.542500", "091155.542500", "091157.542500", "091159.542500", "091201.542500", "091203.542500", "091205.542500", "091207.542500", "091209.542500", "091211.542500", "091213.542500", "091215.542500", "091217.542500", "091219.542500", "091221.542500", "091223.542500", "091225.542500", "091227.542500", "091229.542500", "091231.542500", "091233.542500", "091235.542500", "091237.542500", "091239.542500", "091241.542500", "091243.542500", "091245.542500", "091247.542500", "091249.542500", "091251.542500", "091253.542500", "091255.542500", "091257.542500", "091259.542500", "091301.542500", "091303.542500", "091305.542500", "091307.542500", "091309.542500", "091311.542500", "091313.542500", "091315.542500", "091317.542500", "091319.542500", "091321.542500", "091323.542500", "091325.542500", "091327.542500", "091329.542500", "091331.542500", "091333.542500", "091335.542500", "091337.542500", "091339.542500", "091341.542500", "091343.542500", "091345.542500", "091347.542500", "091349.542500", "091351.542500", "091353.542500", "091355.542500", "091357.542500", "091359.542500", "091401.542500", "091403.542500", "091405.542500", "091407.542500", "091409.542500", "091411.542500", "091413.542500", "091415.542500", "091417.542500", "091419.542500", "091421.542500", "091423.542500", "091425.542500", "091427.542500", "091429.542500", "091431.542500", "091433.542500", "091435.542500", "091437.542500", "091439.542500", "091441.542500", "091443.542500", "091445.542500"],
      "ContentTime": ["090827.755000", "090827.758000", "090827.770000", "090827.772000", "090827.775000", "090827.777000", "090827.780000", "090827.782000", "090827.785000", "090827.788000", "090907.761000", "090907.764000", "090907.773000", "090907.776000", "090907.778000", "090907.781000", "090907.783000", "090907.786000", "090907.788000", "090907.791000", "090907.793000", "090907.796000", "090907.798000", "090907.801000", "090907.803000", "090907.806000", "090907.808000", "090907.811000", "090907.813000", "090907.816000", "090947.751000", "090947.754000", "090947.757000", "090947.759000", "090947.762000", "090947.764000", "090947.767000", "090947.769000", "090947.772000", "090947.774000", "090947.777000", "090947.779000", "090947.782000", "090947.784000", "090947.787000", "090947.794000", "090947.797000", "090947.799000", "090947.802000", "090947.804000", "091027.751000", "091027.754000", "091027.757000", "091027.759000", "091027.762000", "091027.764000", "091027.767000", "091027.769000", "091027.772000", "091027.775000", "091027.777000", "091027.779000", "091027.782000", "091027.785000", "091027.787000", "091027.790000", "091027.792000", "091027.795000", "091027.797000", "091027.800000", "091107.750000", "091107.753000", "091107.756000", "091107.758000", "091107.761000", "091107.763000", "091107.766000", "091107.768000", "091107.771000", "091107.773000", "091107.776000", "091107.779000", "091107.781000", "091107.784000", "091107.786000", "091107.789000", "091107.791000", "091107.794000", "091107.796000", "091107.799000", "091147.751000", "091147.754000", "091147.757000", "091147.759000", "091147.762000", "091147.764000", "091147.767000", "091147.769000", "091147.772000", "091147.774000", "091147.777000", "091147.780000", "091147.782000", "091147.785000", "091147.787000", "091147.790000", "091147.792000", "091147.795000", "091147.797000", "091147.800000", "091227.751000", "091227.754000", "091227.757000", "091227.759000", "091227.762000", "091227.764000", "091227.767000", "091227.769000", "091227.772000", "091227.774000", "091227.777000", "091227.779000", "091227.782000", "091227.785000", "091227.787000", "091227.790000", "091227.792000", "091227.795000", "091227.797000", "091227.800000", "091307.750000", "091307.753000", "091307.756000", "091307.758000", "091307.761000", "091307.763000", "091307.766000", "091307.768000", "091307.771000", "091307.773000", "091307.776000", "091307.778000", "091307.781000", "091307.783000", "091307.786000", "091307.789000", "091307.791000", "091307.794000", "091307.796000", "091307.799000", "091347.750000", "091347.753000", "091347.756000", "091347.758000", "091347.761000", "091347.763000", "091347.766000", "091347.769000", "091347.771000", "091347.774000", "091347.776000", "091347.779000", "091347.781000", "091347.784000", "091347.786000", "091347.789000", "091347.791000", "091347.794000", "091347.807000", "091347.809000", "091427.752000", "091427.754000", "091427.757000", "091427.759000", "091427.762000", "091427.764000", "091427.767000", "091427.770000", "091427.772000", "091427.775000", "091427.777000", "091427.780000", "091427.782000", "091427.785000", "091427.787000", "091427.790000", "091427.792000", "091427.795000", "091427.797000", "091427.800000", "091447.331000", "091447.334000", "091447.337000", "091447.339000", "091447.342000", "091447.344000", "091447.347000", "091447.349000", "091447.352000", "091447.354000"],
      "InstanceCreationTime": ["090827.755000", "090827.758000", "090827.770000", "090827.772000", "090827.775000", "090827.777000", "090827.780000", "090827.782000", "090827.785000", "090827.788000", "090907.761000", "090907.764000", "090907.773000", "090907.776000", "090907.778000", "090907.781000", "090907.783000", "090907.786000", "090907.788000", "090907.791000", "090907.793000", "090907.796000", "090907.798000", "090907.801000", "090907.803000", "090907.806000", "090907.808000", "090907.811000", "090907.813000", "090907.816000", "090947.751000", "090947.754000", "090947.757000", "090947.759000", "090947.762000", "090947.764000", "090947.767000", "090947.769000", "090947.772000", "090947.774000", "090947.777000", "090947.779000", "090947.782000", "090947.784000", "090947.787000", "090947.794000", "090947.797000", "090947.799000", "090947.802000", "090947.804000", "091027.751000", "091027.754000", "091027.757000", "091027.759000", "091027.762000", "091027.764000", "091027.767000", "091027.769000", "091027.772000", "091027.775000", "091027.777000", "091027.779000", "091027.782000", "091027.785000", "091027.787000", "091027.790000", "091027.792000", "091027.795000", "091027.797000", "091027.800000", "091107.750000", "091107.753000", "091107.756000", "091107.758000", "091107.761000", "091107.763000", "091107.766000", "091107.768000", "091107.771000", "091107.773000", "091107.776000", "091107.779000", "091107.781000", "091107.784000", "091107.786000", "091107.789000", "091107.791000", "091107.794000", "091107.796000", "091107.799000", "091147.751000", "091147.754000", "091147.757000", "091147.759000", "091147.762000", "091147.764000", "091147.767000", "091147.769000", "091147.772000", "091147.774000", "091147.777000", "091147.780000", "091147.782000", "091147.785000", "091147.787000", "091147.790000", "091147.792000", "091147.795000", "091147.797000", "091147.800000", "091227.751000", "091227.754000", "091227.757000", "091227.759000", "091227.762000", "091227.764000", "091227.767000", "091227.769000", "091227.772000", "091227.774000", "091227.777000", "091227.779000", "091227.782000", "091227.785000", "091227.787000", "091227.790000", "091227.792000", "091227.795000", "091227.797000", "091227.800000", "091307.750000", "091307.753000", "091307.756000", "091307.758000", "091307.761000", "091307.763000", "091307.766000", "091307.768000", "091307.771000", "091307.773000", "091307.776000", "091307.778000", "091307.781000", "091307.783000", "091307.786000", "091307.789000", "091307.791000", "091307.794000", "091307.796000", "091307.799000", "091347.750000", "091347.753000", "091347.756000", "091347.758000", "091347.761000", "091347.763000", "091347.766000", "091347.769000", "091347.771000", "091347.774000", "091347.776000", "091347.779000", "091347.781000", "091347.784000", "091347.786000", "091347.789000", "091347.791000", "091347.794000", "091347.807000", "091347.809000", "091427.752000", "091427.754000", "091427.757000", "091427.759000", "091427.762000", "091427.764000", "091427.767000", "091427.770000", "091427.772000", "091427.775000", "091427.777000", "091427.780000", "091427.782000", "091427.785000", "091427.787000", "091427.790000", "091427.792000", "091427.795000", "091427.797000", "091427.800000", "091447.331000", "091447.334000", "091447.337000", "091447.339000", "091447.342000", "091447.344000", "091447.347000", "091447.349000", "091447.352000", "091447.354000"],
      "InstanceNumber": [1, 2, 3, 4, 5, 6, 7, 8, 9, 10, 11, 12, 13, 14, 15, 16, 17, 18, 19, 20, 21, 22, 23, 24, 25, 26, 27, 28, 29, 30, 31, 32, 33, 34, 35, 36, 37, 38, 39, 40, 41, 42, 43, 44, 45, 46, 47, 48, 49, 50, 51, 52, 53, 54, 55, 56, 57, 58, 59, 60, 61, 62, 63, 64, 65, 66, 67, 68, 69, 70, 71, 72, 73, 74, 75, 76, 77, 78, 79, 80, 81, 82, 83, 84, 85, 86, 87, 88, 89, 90, 91, 92, 93, 94, 95, 96, 97, 98, 99, 100, 101, 102, 103, 104, 105, 106, 107, 108, 109, 110, 111, 112, 113, 114, 115, 116, 117, 118, 119, 120, 121, 122, 123, 124, 125, 126, 127, 128, 129, 130, 131, 132, 133, 134, 135, 136, 137, 138, 139, 140, 141, 142, 143, 144, 145, 146, 147, 148, 149, 150, 151, 152, 153, 154, 155, 156, 157, 158, 159, 160, 161, 162, 163, 164, 165, 166, 167, 168, 169, 170, 171, 172, 173, 174, 175, 176, 177, 178, 179, 180, 181, 182, 183, 184, 185, 186, 187, 188, 189, 190, 191, 192, 193, 194, 195, 196, 197, 198, 199, 200],
      "WindowCenter": [1539.0, 1539.0, 1539.0, 1540.0, 1539.0, 1540.0, 1539.0, 1540.0, 1539.0, 1540.0, 1539.0, 1539.0, 1540.0, 1540.0, 1539.0, 1538.0, 1539.0, 1538.0, 1539.0, 1539.0, 1539.0, 1539.0, 1540.0, 1539.0, 1539.0, 1538.0, 1538.0, 1538.0, 1539.0, 1539.0, 1539.0, 1537.0, 1538.0, 1538.0, 1539.0, 1538.0, 1538.0, 1539.0, 1538.0, 1538.0, 1537.0, 1537.0, 1538.0, 1538.0, 1538.0, 1538.0, 1538.0, 1537.0, 1537.0, 1537.0, 1537.0, 1537.0, 1537.0, 1538.0, 1538.0, 1537.0, 1537.0, 1537.0, 1535.0, 1538.0, 1538.0, 1537.0, 1538.0, 1537.0, 1537.0, 1537.0, 1536.0, 1537.0, 1536.0, 1537.0, 1537.0, 1536.0, 1536.0, 1535.0, 1536.0, 1536.0, 1535.0, 1535.0, 1536.0, 1536.0, 1535.0, 1536.0, 1535.0, 1535.0, 1535.0, 1535.0, 1535.0, 1535.0, 1534.0, 1536.0, 1535.0, 1534.0, 1535.0, 1535.0, 1535.0, 1535.0, 1535.0, 1536.0, 1535.0, 1536.0, 1535.0, 1534.0, 1533.0, 1536.0, 1536.0, 1536.0, 1536.0, 1535.0, 1533.0, 1535.0, 1534.0, 1533.0, 1534.0, 1534.0, 1536.0, 1535.0, 1535.0, 1535.0, 1535.0, 1535.0, 1535.0, 1533.0, 1535.0, 1534.0, 1533.0, 1533.0, 1533.0, 1534.0, 1533.0, 1533.0, 1533.0, 1533.0, 1533.0, 1533.0, 1533.0, 1533.0, 1533.0, 1533.0, 1533.0, 1533.0, 1533.0, 1533.0, 1534.0, 1532.0, 1533.0, 1533.0, 1532.0, 1534.0, 1534.0, 1534.0, 1534.0, 1534.0, 1534.0, 1532.0, 1532.0, 1532.0, 1532.0, 1532.0, 1532.0, 1533.0, 1533.0, 1532.0, 1532.0, 1533.0, 1532.0, 1532.0, 1532.0, 1533.0, 1531.0, 1532.0, 1532.0, 1533.0, 1533.0, 1532.0, 1532.0, 1531.0, 1532.0, 1532.0, 1532.0, 1532.0, 1531.0, 1532.0, 1532.0, 1533.0, 1532.0, 1531.0, 1532.0, 1531.0, 1531.0, 1532.0, 1532.0, 1532.0, 1532.0, 1532.0, 1531.0, 1531.0, 1532.0, 1532.0, 1532.0, 1531.0],
      "WindowWidth": [3523.0, 3523.0, 3523.0, 3523.0, 3523.0, 3522.0, 3523.0, 3522.0, 3523.0, 3522.0, 3523.0, 3522.0, 3522.0, 3522.0, 3522.0, 3522.0, 3522.0, 3522.0, 3522.0, 3522.0, 3522.0, 3522.0, 3522.0, 3522.0, 3522.0, 3522.0, 3522.0, 3522.0, 3522.0, 3522.0, 3522.0, 3522.0, 3521.0, 3522.0, 3521.0, 3522.0, 3521.0, 3521.0, 3521.0, 3521.0, 3521.0, 3521.0, 3521.0, 3521.0, 3521.0, 3521.0, 3521.0, 3521.0, 3520.0, 3520.0, 3521.0, 3520.0, 3521.0, 3521.0, 3521.0, 3521.0, 3521.0, 3521.0, 3520.0, 3521.0, 3521.0, 3521.0, 3521.0, 3521.0, 3521.0, 3521.0, 3521.0, 3520.0, 3520.0, 3520.0, 3520.0, 3521.0, 3520.0, 3519.0, 3519.0, 3520.0, 3520.0, 3519.0, 3519.0, 3520.0, 3519.0, 3518.0, 3518.0, 3518.0, 3518.0, 3519.0, 3519.0, 3519.0, 3519.0, 3520.0, 3519.0, 3519.0, 3519.0, 3519.0, 3519.0, 3519.0, 3519.0, 3520.0, 3519.0, 3520.0, 3519.0, 3518.0, 3518.0, 3519.0, 3520.0, 3520.0, 3520.0, 3519.0, 3518.0, 3518.0, 3517.0, 3518.0, 3517.0, 3519.0, 3519.0, 3519.0, 3519.0, 3519.0, 3519.0, 3519.0, 3519.0, 3518.0, 3518.0, 3517.0, 3518.0, 3518.0, 3518.0, 3517.0, 3517.0, 3518.0, 3517.0, 3517.0, 3517.0, 3517.0, 3517.0, 3517.0, 3517.0, 3517.0, 3517.0, 3517.0, 3517.0, 3517.0, 3517.0, 3517.0, 3517.0, 3517.0, 3517.0, 3518.0, 3518.0, 3518.0, 3517.0, 3518.0, 3518.0, 3518.0, 3517.0, 3517.0, 3517.0, 3517.0, 3517.0, 3517.0, 3517.0, 3517.0, 3517.0, 3517.0, 3517.0, 3517.0, 3516.0, 3517.0, 3517.0, 3517.0, 3516.0, 3517.0, 3517.0, 3517.0, 3516.0, 3517.0, 3516.0, 3516.0, 3516.0, 3516.0, 3516.0, 3516.0, 3516.0, 3517.0, 3516.0, 3516.0, 3516.0, 3516.0, 3516.0, 3516.0, 3516.0, 3516.0, 3516.0, 3516.0, 3517.0, 3516.0, 3516.0, 3516.0, 3516.0, 3516.0]
    },
    "slices": {}
  }
}