{
  "AcquisitionMatrixPE": 80,
  "AcquisitionNumber": 1,
  "AcquisitionTime": "09:01:15.892500",
  "BandwidthPerPixelPhaseEncode": 48.077,
  "BaseResolution": 80,
  "BodyPartExamined": "BRAIN",
  "CoilCombinationMethod": "Sum of Squares",
  "ConsistencyInfo": "N4_VE11C_LATEST_20160120",
  "ConversionSoftware": "dcm2niix",
  "ConversionSoftwareVersion": "v1.0.20220720",
  "DerivedVendorReportedEchoSpacing": 0.000519999,
  "DeviceSerialNumber": "66112",
  "DwellTime": 2.7e-06,
  "EchoTime": 0.035,
  "EchoTrainLength": 39,
  "EffectiveEchoSpacing": 0.00026,
  "FlipAngle": 90,
  "HeudiconvVersion": "0.13.1",
  "ImageOrientationPatientDICOM": [0.994883, -0.100912, 0.00494451, 0.0942193, 0.944347, 0.315169],
  "ImageOrientationText": "Tra>Cor(18.3)>Sag(2.1)",
  "ImageType": [
    "ORIGINAL",
    "PRIMARY",
    "M",
    "ND",
    "NORM",
    "MOSAIC"
],
  "ImagingFrequency": 123.252,
  "InPlanePhaseEncodingDirectionDICOM": "COL",
  "InstitutionAddress": "Maynard 3,Hanover,NH,US,03755",
  "InstitutionName": "Dartmouth College - PBS",
  "InstitutionalDepartmentName": "Department",
  "MRAcquisitionType": "2D",
  "MagneticFieldStrength": 3,
  "Manufacturer": "Siemens",
  "ManufacturersModelName": "Prisma",
  "MatrixCoilMode": "GRAPPA",
  "Modality": "MR",
  "NonlinearGradientCorrection": false,
  "ParallelReductionFactorInPlane": 2,
  "PartialFourier": 1,
  "PatientPosition": "HFS",
  "PercentPhaseFOV": 100,
  "PercentSampling": 100,
  "PhaseEncodingDirection": "j-",
  "PhaseEncodingSteps": 79,
  "PhaseResolution": 1,
  "PixelBandwidth": 2315,
  "ProcedureStepDescription": "dbic^QA",
  "ProtocolName": "func-bold_task-rest_acq-p2",
  "PulseSequenceDetails": "%SiemensSeq%\\ep2d_bold",
  "ReceiveCoilActiveElements": "HC1-7;NC1,2",
  "ReceiveCoilName": "HeadNeck_64",
  "ReconMatrixPE": 80,
  "RefLinesPE": 24,
  "RepetitionTime": 2,
  "SAR": 0.0361589,
  "ScanOptions": "FS",
  "ScanningSequence": "EP",
  "SequenceName": "*epfid2d1_80",
  "SequenceVariant": "SK",
  "SeriesDescription": "func-bold_task-rest_acq-p2",
  "SeriesNumber": 5,
  "ShimSetting": [4140, -7679, -7520, 211, -60, -350, -104, 58],
  "SliceThickness": 3.5,
  "SliceTiming": [0.99, 0, 1.055, 0.065, 1.12, 0.13, 1.1875, 0.1975, 1.2525, 0.2625, 1.32, 0.33, 1.385, 0.395, 1.45, 0.46, 1.5175, 0.5275, 1.5825, 0.5925, 1.6475, 0.66, 1.715, 0.725, 1.78, 0.79, 1.8475, 0.8575, 1.9125, 0.9225],
  "SoftwareVersions": "syngo MR E11",
  "SpacingBetweenSlices": 3.99,
  "StationName": "AWP66112",
  "TaskName": "rest",
  "TotalReadoutTime": 0.02054,
  "TxRefAmp": 212.933,
  "dcmmeta_affine": [
    [-2.984649419784546, 0.2826579213142395, 0.1455293446779251, 107.64662170410156],
    [0.30273473262786865, 2.833041191101074, 1.2492302656173706, -143.89328002929688],
    [0.014833532273769379, -0.9455065131187439, 3.7866005897521973, -36.5086555480957],
    [0.0, 0.0, 0.0, 1.0]
],
  "dcmmeta_reorient_transform": [
    [0.0, -1.0, 0.0, 79.0],
    [1.0, 0.0, 0.0, 0.0],
    [0.0, 0.0, 1.0, 0.0],
    [0.0, 0.0, 0.0, 1.0]
],
  "dcmmeta_shape": [80, 80, 30, 200],
  "dcmmeta_slice_dim": 2,
  "dcmmeta_version": 0.6,
  "global": {
    "const": {
      "AccessionNumber": "qa64",
      "AcquisitionMatrix": [80, 0, 0, 80],
      "AngioFlag": "N",
      "BitsAllocated": 16,
      "BitsStored": 12,
      "BodyPartExamined": "BRAIN",
      "Columns": 480,
      "EchoNumbers": 1,
      "EchoTime": 35.0,
      "EchoTrainLength": 39,
      "FlipAngle": 90.0,
      "HighBit": 11,
      "ImageOrientationPatient": [0.9948831110273, -0.1009115811293, 0.00494451075807, 0.09421930632019, 0.94434703405406, 0.31516884616002],
      "ImagePositionPatient": [-783.43804463219, -585.97823992727, -303.2716865611],
      "ImageType": [
        "ORIGINAL",
        "PRIMARY",
        "M",
        "ND",
        "NORM",
        "MOSAIC"
],
      "ImagedNucleus": "1H",
      "ImagingFrequency": 123.252381,
      "InPlanePhaseEncodingDirection": "COL",
      "LargestImagePixelValue": 4095,
      "MRAcquisitionType": "2D",
      "MagneticFieldStrength": 3.0,
      "Manufacturer": "SIEMENS",
      "ManufacturerModelName": "Prisma",
      "Modality": "MR",
      "NumberOfAverages": 1.0,
      "NumberOfPhaseEncodingSteps": 79,
      "PercentPhaseFieldOfView": 100.0,
      "PercentSampling": 100.0,
      "PerformedProcedureStepStartTime": "085453.615000",
      "PhotometricInterpretation": "MONOCHROME2",
      "PixelBandwidth": 2315.0,
      "PixelRepresentation": 0,
      "PixelSpacing": [3.0, 3.0],
      "ProtocolName": "func-bold_task-rest_acq-p2",
      "RepetitionTime": 2000.0,
      "Rows": 480,
      "SAR": 0.0361589420809,
      "SamplesPerPixel": 1,
      "ScanOptions": "FS",
      "ScanningSequence": "EP",
      "SequenceName": "*epfid2d1_80",
      "SequenceVariant": "SK",
      "SeriesDescription": "func-bold_task-rest_acq-p2",
      "SeriesNumber": 5,
      "SeriesTime": "090207.681000",
      "SliceLocation": -75.772882216694,
      "SliceThickness": 3.5,
      "SmallestImagePixelValue": 0,
      "SoftwareVersions": "syngo MR E11",
      "SpacingBetweenSlices": 3.9899998870426,
      "SpecificCharacterSet": "ISO_IR 100",
      "StudyID": "23",
      "StudyTime": "085453.545000",
      "TransmitCoilName": "Body",
      "VariableFlipAngleFlag": "N",
      "WindowCenterWidthExplanation": "Algo1",
      "dBdt": 0.0},
    "slices": {}
  },
  "time": {
    "samples": {
      "AcquisitionNumber": [1, 2, 3, 4, 5, 6, 7, 8, 9, 10, 11, 12, 13, 14, 15, 16, 17, 18, 19, 20, 21, 22, 23, 24, 25, 26, 27, 28, 29, 30, 31, 32, 33, 34, 35, 36, 37, 38, 39, 40, 41, 42, 43, 44, 45, 46, 47, 48, 49, 50, 51, 52, 53, 54, 55, 56, 57, 58, 59, 60, 61, 62, 63, 64, 65, 66, 67, 68, 69, 70, 71, 72, 73, 74, 75, 76, 77, 78, 79, 80, 81, 82, 83, 84, 85, 86, 87, 88, 89, 90, 91, 92, 93, 94, 95, 96, 97, 98, 99, 100, 101, 102, 103, 104, 105, 106, 107, 108, 109, 110, 111, 112, 113, 114, 115, 116, 117, 118, 119, 120, 121, 122, 123, 124, 125, 126, 127, 128, 129, 130, 131, 132, 133, 134, 135, 136, 137, 138, 139, 140, 141, 142, 143, 144, 145, 146, 147, 148, 149, 150, 151, 152, 153, 154, 155, 156, 157, 158, 159, 160, 161, 162, 163, 164, 165, 166, 167, 168, 169, 170, 171, 172, 173, 174, 175, 176, 177, 178, 179, 180, 181, 182, 183, 184, 185, 186, 187, 188, 189, 190, 191, 192, 193, 194, 195, 196, 197, 198, 199, 200],
      "AcquisitionTime": ["090115.892500", "090117.892500", "090119.892500", "090121.892500", "090123.892500", "090125.892500", "090127.892500", "090129.892500", "090131.892500", "090133.892500", "090135.892500", "090137.892500", "090139.892500", "090141.892500", "090143.892500", "090145.892500", "090147.892500", "090149.892500", "090151.892500", "090153.892500", "090155.892500", "090157.892500", "090159.892500", "090201.892500", "090203.892500", "090205.892500", "090207.892500", "090209.892500", "090211.892500", "090213.892500", "090215.892500", "090217.892500", "090219.892500", "090221.892500", "090223.892500", "090225.892500", "090227.892500", "090229.892500", "090231.892500", "090233.892500", "090235.892500", "090237.892500", "090239.892500", "090241.892500", "090243.892500", "090245.892500", "090247.892500", "090249.892500", "090251.892500", "090253.892500", "090255.892500", "090257.892500", "090259.892500", "090301.892500", "090303.892500", "090305.892500", "090307.892500", "090309.892500", "090311.892500", "090313.892500", "090315.892500", "090317.892500", "090319.892500", "090321.892500", "090323.892500", "090325.892500", "090327.892500", "090329.892500", "090331.892500", "090333.892500", "090335.892500", "090337.892500", "090339.892500", "090341.892500", "090343.892500", "090345.892500", "090347.892500", "090349.892500", "090351.892500", "090353.892500", "090355.892500", "090357.892500", "090359.892500", "090401.892500", "090403.892500", "090405.892500", "090407.892500", "090409.892500", "090411.892500", "090413.892500", "090415.892500", "090417.892500", "090419.892500", "090421.892500", "090423.892500", "090425.892500", "090427.892500", "090429.892500", "090431.892500", "090433.892500", "090435.892500", "090437.892500", "090439.892500", "090441.892500", "090443.892500", "090445.892500", "090447.892500", "090449.892500", "090451.892500", "090453.892500", "090455.892500", "090457.892500", "090459.892500", "090501.892500", "090503.892500", "090505.892500", "090507.892500", "090509.892500", "090511.892500", "090513.892500", "090515.892500", "090517.892500", "090519.892500", "090521.892500", "090523.892500", "090525.892500", "090527.892500", "090529.892500", "090531.892500", "090533.892500", "090535.892500", "090537.892500", "090539.892500", "090541.892500", "090543.892500", "090545.892500", "090547.892500", "090549.892500", "090551.892500", "090553.892500", "090555.892500", "090557.892500", "090559.892500", "090601.892500", "090603.892500", "090605.892500", "090607.892500", "090609.892500", "090611.892500", "090613.892500", "090615.892500", "090617.892500", "090619.892500", "090621.892500", "090623.892500", "090625.892500", "090627.892500", "090629.892500", "090631.892500", "090633.892500", "090635.892500", "090637.892500", "090639.892500", "090641.892500", "090643.892500", "090645.892500", "090647.892500", "090649.892500", "090651.892500", "090653.892500", "090655.892500", "090657.892500", "090659.892500", "090701.892500", "090703.892500", "090705.892500", "090707.892500", "090709.892500", "090711.892500", "090713.892500", "090715.892500", "090717.892500", "090719.892500", "090721.892500", "090723.892500", "090725.892500", "090727.892500", "090729.892500", "090731.892500", "090733.892500", "090735.892500", "090737.892500", "090739.892500", "090741.892500", "090743.892500", "090745.892500", "090747.892500", "090749.892500", "090751.892500", "090753.892500"],
      "ContentTime": ["090207.685000", "090207.688000", "090207.691000", "090207.701000", "090207.704000", "090207.714000", "090207.717000", "090207.720000", "090207.722000", "090207.725000", "090207.728000", "090207.730000", "090207.733000", "090207.735000", "090207.738000", "090207.740000", "090207.743000", "090207.746000", "090207.748000", "090207.751000", "090207.753000", "090207.756000", "090207.759000", "090207.761000", "090207.764000", "090247.680000", "090247.688000", "090247.694000", "090247.696000", "090247.699000", "090247.701000", "090247.704000", "090247.706000", "090247.709000", "090247.711000", "090247.714000", "090247.717000", "090247.719000", "090247.722000", "090247.724000", "090247.727000", "090247.730000", "090247.732000", "090247.735000", "090247.737000", "090327.681000", "090327.683000", "090327.686000", "090327.689000", "090327.691000", "090327.694000", "090327.697000", "090327.699000", "090327.702000", "090327.704000", "090327.707000", "090327.710000", "090327.712000", "090327.715000", "090327.723000", "090327.725000", "090327.728000", "090327.731000", "090327.734000", "090327.736000", "090407.679000", "090407.682000", "090407.685000", "090407.687000", "090407.690000", "090407.693000", "090407.695000", "090407.698000", "090407.700000", "090407.703000", "090407.705000", "090407.708000", "090407.710000", "090407.713000", "090407.723000", "090407.725000", "090407.728000", "090407.730000", "090407.733000", "090407.736000", "090447.680000", "090447.683000", "090447.686000", "090447.688000", "090447.691000", "090447.694000", "090447.696000", "090447.699000", "090447.701000", "090447.704000", "090447.706000", "090447.709000", "090447.711000", "090447.714000", "090447.716000", "090447.719000", "090447.721000", "090447.724000", "090447.727000", "090447.729000", "090527.681000", "090527.694000", "090527.708000", "090527.710000", "090527.713000", "090527.716000", "090527.718000", "090527.721000", "090527.723000", "090527.726000", "090527.728000", "090527.731000", "090527.733000", "090527.736000", "090527.738000", "090527.741000", "090527.743000", "090527.746000", "090527.748000", "090527.751000", "090607.680000", "090607.692000", "090607.695000", "090607.698000", "090607.700000", "090607.703000", "090607.705000", "090607.708000", "090607.711000", "090607.713000", "090607.716000", "090607.718000", "090607.721000", "090607.723000", "090607.726000", "090607.728000", "090607.731000", "090607.734000", "090607.736000", "090607.739000", "090647.679000", "090647.682000", "090647.685000", "090647.688000", "090647.695000", "090647.698000", "090647.700000", "090647.703000", "090647.705000", "090647.708000", "090647.711000", "090647.730000", "090647.733000", "090647.735000", "090647.738000", "090647.740000", "090647.743000", "090647.745000", "090647.748000", "090647.750000", "090727.680000", "090727.683000", "090727.686000", "090727.688000", "090727.691000", "090727.694000", "090727.696000", "090727.699000", "090727.701000", "090727.704000", "090727.706000", "090727.709000", "090727.711000", "090727.714000", "090727.716000", "090727.719000", "090727.722000", "090727.724000", "090727.727000", "090727.729000", "090755.853000", "090755.856000", "090755.858000", "090755.861000", "090755.864000", "090755.866000", "090755.869000", "090755.872000", "090755.874000", "090755.877000", "090755.880000", "090755.886000", "090755.891000", "090755.894000", "090755.897000"],
      "InstanceCreationTime": ["090207.685000", "090207.688000", "090207.691000", "090207.701000", "090207.704000", "090207.714000", "090207.717000", "090207.720000", "090207.722000", "090207.725000", "090207.728000", "090207.730000", "090207.733000", "090207.735000", "090207.738000", "090207.740000", "090207.743000", "090207.746000", "090207.748000", "090207.751000", "090207.753000", "090207.756000", "090207.759000", "090207.761000", "090207.764000", "090247.680000", "090247.688000", "090247.694000", "090247.696000", "090247.699000", "090247.701000", "090247.704000", "090247.706000", "090247.709000", "090247.711000", "090247.714000", "090247.717000", "090247.719000", "090247.722000", "090247.724000", "090247.727000", "090247.730000", "090247.732000", "090247.735000", "090247.737000", "090327.681000", "090327.683000", "090327.686000", "090327.689000", "090327.691000", "090327.694000", "090327.697000", "090327.699000", "090327.702000", "090327.704000", "090327.707000", "090327.710000", "090327.712000", "090327.715000", "090327.723000", "090327.725000", "090327.728000", "090327.731000", "090327.734000", "090327.736000", "090407.679000", "090407.682000", "090407.685000", "090407.687000", "090407.690000", "090407.693000", "090407.695000", "090407.698000", "090407.700000", "090407.703000", "090407.705000", "090407.708000", "090407.710000", "090407.713000", "090407.723000", "090407.725000", "090407.728000", "090407.730000", "090407.733000", "090407.736000", "090447.680000", "090447.683000", "090447.686000", "090447.688000", "090447.691000", "090447.694000", "090447.696000", "090447.699000", "090447.701000", "090447.704000", "090447.706000", "090447.709000", "090447.711000", "090447.714000", "090447.716000", "090447.719000", "090447.721000", "090447.724000", "090447.727000", "090447.729000", "090527.681000", "090527.694000", "090527.708000", "090527.710000", "090527.713000", "090527.716000", "090527.718000", "090527.721000", "090527.723000", "090527.726000", "090527.728000", "090527.731000", "090527.733000", "090527.736000", "090527.738000", "090527.741000", "090527.743000", "090527.746000", "090527.748000", "090527.751000", "090607.680000", "090607.692000", "090607.695000", "090607.698000", "090607.700000", "090607.703000", "090607.705000", "090607.708000", "090607.711000", "090607.713000", "090607.716000", "090607.718000", "090607.721000", "090607.723000", "090607.726000", "090607.728000", "090607.731000", "090607.734000", "090607.736000", "090607.739000", "090647.679000", "090647.682000", "090647.685000", "090647.688000", "090647.695000", "090647.698000", "090647.700000", "090647.703000", "090647.705000", "090647.708000", "090647.711000", "090647.730000", "090647.733000", "090647.735000", "090647.738000", "090647.740000", "090647.743000", "090647.745000", "090647.748000", "090647.750000", "090727.680000", "090727.683000", "090727.686000", "090727.688000", "090727.691000", "090727.694000", "090727.696000", "090727.699000", "090727.701000", "090727.704000", "090727.706000", "090727.709000", "090727.711000", "090727.714000", "090727.716000", "090727.719000", "090727.722000", "090727.724000", "090727.727000", "090727.729000", "090755.853000", "090755.856000", "090755.858000", "090755.861000", "090755.864000", "090755.866000", "090755.869000", "090755.872000", "090755.874000", "090755.877000", "090755.880000", "090755.886000", "090755.891000", "090755.894000", "090755.897000"],
      "InstanceNumber": [1, 2, 3, 4, 5, 6, 7, 8, 9, 10, 11, 12, 13, 14, 15, 16, 17, 18, 19, 20, 21, 22, 23, 24, 25, 26, 27, 28, 29, 30, 31, 32, 33, 34, 35, 36, 37, 38, 39, 40, 41, 42, 43, 44, 45, 46, 47, 48, 49, 50, 51, 52, 53, 54, 55, 56, 57, 58, 59, 60, 61, 62, 63, 64, 65, 66, 67, 68, 69, 70, 71, 72, 73, 74, 75, 76, 77, 78, 79, 80, 81, 82, 83, 84, 85, 86, 87, 88, 89, 90, 91, 92, 93, 94, 95, 96, 97, 98, 99, 100, 101, 102, 103, 104, 105, 106, 107, 108, 109, 110, 111, 112, 113, 114, 115, 116, 117, 118, 119, 120, 121, 122, 123, 124, 125, 126, 127, 128, 129, 130, 131, 132, 133, 134, 135, 136, 137, 138, 139, 140, 141, 142, 143, 144, 145, 146, 147, 148, 149, 150, 151, 152, 153, 154, 155, 156, 157, 158, 159, 160, 161, 162, 163, 164, 165, 166, 167, 168, 169, 170, 171, 172, 173, 174, 175, 176, 177, 178, 179, 180, 181, 182, 183, 184, 185, 186, 187, 188, 189, 190, 191, 192, 193, 194, 195, 196, 197, 198, 199, 200],
      "WindowCenter": [1649.0, 1648.0, 1649.0, 1648.0, 1648.0, 1649.0, 1648.0, 1648.0, 1648.0, 1647.0, 1648.0, 1648.0, 1647.0, 1648.0, 1648.0, 1648.0, 1648.0, 1647.0, 1648.0, 1648.0, 1648.0, 1648.0, 1647.0, 1647.0, 1648.0, 1647.0, 1648.0, 1647.0, 1647.0, 1647.0, 1646.0, 1646.0, 1647.0, 1648.0, 1646.0, 1647.0, 1646.0, 1646.0, 1646.0, 1646.0, 1647.0, 1646.0, 1646.0, 1645.0, 1648.0, 1645.0, 1646.0, 1646.0, 1645.0, 1646.0, 1646.0, 1645.0, 1646.0, 1645.0, 1646.0, 1646.0, 1645.0, 1645.0, 1645.0, 1645.0, 1645.0, 1645.0, 1645.0, 1644.0, 1646.0, 1644.0, 1645.0, 1645.0, 1645.0, 1644.0, 1645.0, 1645.0, 1645.0, 1645.0, 1645.0, 1645.0, 1644.0, 1644.0, 1643.0, 1645.0, 1644.0, 1644.0, 1643.0, 1644.0, 1644.0, 1644.0, 1644.0, 1644.0, 1644.0, 1644.0, 1644.0, 1644.0, 1643.0, 1644.0, 1643.0, 1644.0, 1643.0, 1644.0, 1644.0, 1643.0, 1644.0, 1643.0, 1644.0, 1643.0, 1644.0, 1643.0, 1642.0, 1643.0, 1643.0, 1643.0, 1643.0, 1642.0, 1642.0, 1643.0, 1642.0, 1643.0, 1641.0, 1642.0, 1642.0, 1643.0, 1643.0, 1642.0, 1642.0, 1643.0, 1642.0, 1642.0, 1642.0, 1642.0, 1642.0, 1641.0, 1643.0, 1641.0, 1642.0, 1642.0, 1642.0, 1642.0, 1641.0, 1641.0, 1641.0, 1642.0, 1642.0, 1641.0, 1641.0, 1642.0, 1641.0, 1641.0, 1642.0, 1641.0, 1642.0, 1641.0, 1641.0, 1641.0, 1641.0, 1642.0, 1641.0, 1641.0, 1641.0, 1641.0, 1641.0, 1641.0, 1640.0, 1641.0, 1640.0, 1641.0, 1640.0, 1641.0, 1641.0, 1641.0, 1640.0, 1640.0, 1640.0, 1640.0, 1640.0, 1640.0, 1641.0, 1640.0, 1641.0, 1640.0, 1640.0, 1640.0, 1640.0, 1640.0, 1640.0, 1640.0, 1639.0, 1640.0, 1640.0, 1640.0, 1639.0, 1639.0, 1639.0, 1639.0, 1639.0, 1639.0, 1640.0, 1639.0, 1639.0, 1640.0, 1639.0, 1639.0],
      "WindowWidth": [3556.0, 3555.0, 3554.0, 3554.0, 3554.0, 3554.0, 3555.0, 3554.0, 3554.0, 3554.0, 3554.0, 3554.0, 3554.0, 3554.0, 3553.0, 3553.0, 3553.0, 3554.0, 3553.0, 3553.0, 3553.0, 3553.0, 3553.0, 3554.0, 3553.0, 3553.0, 3553.0, 3553.0, 3553.0, 3553.0, 3553.0, 3553.0, 3553.0, 3553.0, 3553.0, 3553.0, 3553.0, 3553.0, 3553.0, 3553.0, 3553.0, 3553.0, 3553.0, 3553.0, 3552.0, 3553.0, 3552.0, 3552.0, 3553.0, 3552.0, 3552.0, 3553.0, 3552.0, 3552.0, 3552.0, 3552.0, 3552.0, 3552.0, 3552.0, 3552.0, 3552.0, 3551.0, 3551.0, 3552.0, 3551.0, 3552.0, 3551.0, 3551.0, 3551.0, 3552.0, 3551.0, 3551.0, 3551.0, 3551.0, 3551.0, 3551.0, 3551.0, 3551.0, 3552.0, 3551.0, 3551.0, 3551.0, 3552.0, 3551.0, 3551.0, 3551.0, 3551.0, 3551.0, 3551.0, 3551.0, 3551.0, 3551.0, 3551.0, 3551.0, 3550.0, 3551.0, 3551.0, 3551.0, 3551.0, 3551.0, 3551.0, 3551.0, 3550.0, 3550.0, 3550.0, 3550.0, 3550.0, 3550.0, 3550.0, 3550.0, 3550.0, 3550.0, 3551.0, 3550.0, 3550.0, 3550.0, 3550.0, 3550.0, 3550.0, 3550.0, 3550.0, 3550.0, 3550.0, 3550.0, 3550.0, 3550.0, 3550.0, 3550.0, 3550.0, 3550.0, 3549.0, 3550.0, 3550.0, 3550.0, 3550.0, 3549.0, 3549.0, 3549.0, 3549.0, 3549.0, 3549.0, 3549.0, 3549.0, 3549.0, 3549.0, 3549.0, 3549.0, 3549.0, 3549.0, 3549.0, 3549.0, 3549.0, 3549.0, 3548.0, 3549.0, 3549.0, 3549.0, 3549.0, 3549.0, 3549.0, 3549.0, 3549.0, 3549.0, 3549.0, 3549.0, 3548.0, 3548.0, 3548.0, 3549.0, 3549.0, 3549.0, 3549.0, 3549.0, 3549.0, 3548.0, 3549.0, 3548.0, 3548.0, 3548.0, 3548.0, 3548.0, 3548.0, 3549.0, 3548.0, 3548.0, 3548.0, 3549.0, 3548.0, 3548.0, 3548.0, 3548.0, 3548.0, 3548.0, 3548.0, 3547.0, 3548.0, 3548.0, 3547.0, 3548.0, 3548.0]
    },
    "slices": {}
  }
}