{
  "AcquisitionMatrixPE": 80,
  "AcquisitionNumber": 1,
  "AcquisitionTime": "09:37:32.395000",
  "BandwidthPerPixelPhaseEncode": 25,
  "BaseResolution": 80,
  "BodyPartExamined": "BRAIN",
  "CoilCombinationMethod": "Sum of Squares",
  "ConsistencyInfo": "N4_VE11E_LATEST_20181129",
  "ConversionSoftware": "dcm2niix",
  "ConversionSoftwareVersion": "v1.0.20220720",
  "DerivedVendorReportedEchoSpacing": 0.0005,
  "DeviceSerialNumber": "66112",
  "DwellTime": 2.7e-06,
  "EchoTime": 0.03,
  "EchoTrainLength": 80,
  "EffectiveEchoSpacing": 0.0005,
  "FlipAngle": 77,
  "HeudiconvVersion": "0.13.1",
  "ImageOrientationPatientDICOM": [0.989657, 0.143183, 0.00884266, -0.139087, 0.942597, 0.303587],
  "ImageOrientationText": "Tra>Cor(17.6)>Sag(-2.0)",
  "ImageType": [
    "ORIGINAL",
    "PRIMARY",
    "M",
    "ND",
    "NORM",
    "MOSAIC"
],
  "ImagingFrequency": 123.259,
  "InPlanePhaseEncodingDirectionDICOM": "COL",
  "InstitutionAddress": "Maynard 3,Hanover,NH,US,03755",
  "InstitutionName": "Dartmouth College - PBS",
  "InstitutionalDepartmentName": "Department",
  "MRAcquisitionType": "2D",
  "MagneticFieldStrength": 3,
  "Manufacturer": "Siemens",
  "ManufacturersModelName": "Prisma",
  "MatrixCoilMode": "SENSE",
  "Modality": "MR",
  "NonlinearGradientCorrection": false,
  "PartialFourier": 1,
  "PatientPosition": "HFS",
  "PercentPhaseFOV": 100,
  "PercentSampling": 100,
  "PhaseEncodingDirection": "j-",
  "PhaseEncodingSteps": 80,
  "PhaseResolution": 1,
  "PixelBandwidth": 2315,
  "ProcedureStepDescription": "dbic^QA",
  "ProtocolName": "func-bold_fa-77",
  "PulseSequenceDetails": "%SiemensSeq%\\ep2d_bold",
  "ReceiveCoilActiveElements": "HEA;HEP",
  "ReceiveCoilName": "Head_32",
  "ReconMatrixPE": 80,
  "RepetitionTime": 2,
  "SAR": 0.0369003,
  "ScanOptions": "FS",
  "ScanningSequence": "EP",
  "SequenceName": "*epfid2d1_80",
  "SequenceVariant": "SK",
  "SeriesDescription": "func-bold_fa-77",
  "SeriesNumber": 7,
  "ShimSetting": [4220, -7744, -7496, -37, -130, -32, -8, 76],
  "SliceThickness": 3.5,
  "SliceTiming": [0.99, 0, 1.055, 0.065, 1.1225, 0.1325, 1.1875, 0.1975, 1.2525, 0.2625, 1.32, 0.33, 1.385, 0.395, 1.45, 0.4625, 1.5175, 0.5275, 1.5825, 0.5925, 1.65, 0.66, 1.715, 0.725, 1.78, 0.7925, 1.8475, 0.8575, 1.9125, 0.9225],
  "SoftwareVersions": "syngo MR E11",
  "SpacingBetweenSlices": 3.99,
  "StationName": "AWP66112",
  "TotalReadoutTime": 0.0395,
  "TxRefAmp": 227.617,
  "dcmmeta_affine": [
    [-2.9689700603485107, -0.4172615706920624, -0.14018240571022034, 138.47207641601562],
    [-0.4295494258403778, 2.827792167663574, 1.2036895751953125, -109.71312713623047],
    [0.026527991518378258, -0.9107603430747986, 3.801523447036743, -23.24015998840332],
    [0.0, 0.0, 0.0, 1.0]
],
  "dcmmeta_reorient_transform": [
    [0.0, -1.0, 0.0, 79.0],
    [1.0, 0.0, 0.0, 0.0],
    [0.0, 0.0, 1.0, 0.0],
    [0.0, 0.0, 0.0, 1.0]
],
  "dcmmeta_shape": [80, 80, 30, 200],
  "dcmmeta_slice_dim": 2,
  "dcmmeta_version": 0.6,
  "global": {
    "const": {
      "AccessionNumber": "qa",
      "AcquisitionMatrix": [80, 0, 0, 80],
      "AngioFlag": "N",
      "BitsAllocated": 16,
      "BitsStored": 12,
      "BodyPartExamined": "BRAIN",
      "Columns": 480,
      "EchoNumbers": 1,
      "EchoTime": 30.0,
      "EchoTrainLength": 80,
      "FlipAngle": 77.0,
      "HighBit": 11,
      "ImageOrientationPatient": [0.98965670544725, 0.14318314378372, 0.00884266359831, -0.1390871920173, 0.94259738236454, 0.30358677141184],
      "ImagePositionPatient": [-615.85012292129, -765.15076705001, -282.64788552908],
      "ImageType": [
        "ORIGINAL",
        "PRIMARY",
        "M",
        "ND",
        "NORM",
        "MOSAIC"
],
      "ImagedNucleus": "1H",
      "ImagingFrequency": 123.259116,
      "InPlanePhaseEncodingDirection": "COL",
      "MRAcquisitionType": "2D",
      "MagneticFieldStrength": 3.0,
      "Manufacturer": "SIEMENS",
      "ManufacturerModelName": "Prisma",
      "Modality": "MR",
      "NumberOfAverages": 1.0,
      "NumberOfPhaseEncodingSteps": 80,
      "PercentPhaseFieldOfView": 100.0,
      "PercentSampling": 100.0,
      "PerformedProcedureStepStartTime": "091936.766000",
      "PhotometricInterpretation": "MONOCHROME2",
      "PixelBandwidth": 2315.0,
      "PixelRepresentation": 0,
      "PixelSpacing": [3.0, 3.0],
      "ProtocolName": "func-bold_fa-77",
      "RepetitionTime": 2000.0,
      "Rows": 480,
      "SAR": 0.03690029387722,
      "SamplesPerPixel": 1,
      "ScanOptions": "FS",
      "ScanningSequence": "EP",
      "SequenceName": "*epfid2d1_80",
      "SequenceVariant": "SK",
      "SeriesDescription": "func-bold_fa-77",
      "SeriesNumber": 7,
      "SeriesTime": "093825.004000",
      "SliceLocation": -60.105240668071,
      "SliceThickness": 3.5,
      "SmallestImagePixelValue": 0,
      "SoftwareVersions": "syngo MR E11",
      "SpacingBetweenSlices": 3.9900000079711,
      "SpecificCharacterSet": "ISO_IR 100",
      "StudyID": "22",
      "StudyTime": "091936.692000",
      "TransmitCoilName": "Body",
      "VariableFlipAngleFlag": "N",
      "WindowCenterWidthExplanation": "Algo1"
    },
    "slices": {}
  },
  "time": {
    "samples": {
      "AcquisitionNumber": [1, 2, 3, 4, 5, 6, 7, 8, 9, 10, 11, 12, 13, 14, 15, 16, 17, 18, 19, 20, 21, 22, 23, 24, 25, 26, 27, 28, 29, 30, 31, 32, 33, 34, 35, 36, 37, 38, 39, 40, 41, 42, 43, 44, 45, 46, 47, 48, 49, 50, 51, 52, 53, 54, 55, 56, 57, 58, 59, 60, 61, 62, 63, 64, 65, 66, 67, 68, 69, 70, 71, 72, 73, 74, 75, 76, 77, 78, 79, 80, 81, 82, 83, 84, 85, 86, 87, 88, 89, 90, 91, 92, 93, 94, 95, 96, 97, 98, 99, 100, 101, 102, 103, 104, 105, 106, 107, 108, 109, 110, 111, 112, 113, 114, 115, 116, 117, 118, 119, 120, 121, 122, 123, 124, 125, 126, 127, 128, 129, 130, 131, 132, 133, 134, 135, 136, 137, 138, 139, 140, 141, 142, 143, 144, 145, 146, 147, 148, 149, 150, 151, 152, 153, 154, 155, 156, 157, 158, 159, 160, 161, 162, 163, 164, 165, 166, 167, 168, 169, 170, 171, 172, 173, 174, 175, 176, 177, 178, 179, 180, 181, 182, 183, 184, 185, 186, 187, 188, 189, 190, 191, 192, 193, 194, 195, 196, 197, 198, 199, 200],
      "AcquisitionTime": ["093732.395000", "093734.395000", "093736.395000", "093738.395000", "093740.395000", "093742.395000", "093744.395000", "093746.395000", "093748.395000", "093750.395000", "093752.395000", "093754.395000", "093756.395000", "093758.395000", "093800.395000", "093802.395000", "093804.395000", "093806.395000", "093808.395000", "093810.395000", "093812.395000", "093814.395000", "093816.395000", "093818.395000", "093820.395000", "093822.395000", "093824.395000", "093826.395000", "093828.395000", "093830.395000", "093832.395000", "093834.395000", "093836.395000", "093838.395000", "093840.395000", "093842.395000", "093844.395000", "093846.395000", "093848.395000", "093850.395000", "093852.395000", "093854.395000", "093856.395000", "093858.395000", "093900.395000", "093902.395000", "093904.395000", "093906.395000", "093908.395000", "093910.395000", "093912.395000", "093914.395000", "093916.395000", "093918.395000", "093920.395000", "093922.395000", "093924.395000", "093926.395000", "093928.395000", "093930.395000", "093932.395000", "093934.395000", "093936.395000", "093938.395000", "093940.395000", "093942.395000", "093944.395000", "093946.395000", "093948.395000", "093950.395000", "093952.395000", "093954.395000", "093956.395000", "093958.395000", "094000.395000", "094002.395000", "094004.395000", "094006.395000", "094008.395000", "094010.395000", "094012.395000", "094014.395000", "094016.395000", "094018.395000", "094020.395000", "094022.395000", "094024.395000", "094026.395000", "094028.395000", "094030.395000", "094032.395000", "094034.395000", "094036.395000", "094038.395000", "094040.395000", "094042.395000", "094044.395000", "094046.395000", "094048.395000", "094050.395000", "094052.395000", "094054.395000", "094056.395000", "094058.395000", "094100.395000", "094102.395000", "094104.395000", "094106.395000", "094108.395000", "094110.395000", "094112.395000", "094114.395000", "094116.395000", "094118.395000", "094120.395000", "094122.395000", "094124.395000", "094126.395000", "094128.395000", "094130.395000", "094132.395000", "094134.395000", "094136.395000", "094138.395000", "094140.395000", "094142.395000", "094144.395000", "094146.395000", "094148.395000", "094150.395000", "094152.395000", "094154.395000", "094156.395000", "094158.395000", "094200.395000", "094202.395000", "094204.395000", "094206.395000", "094208.395000", "094210.395000", "094212.395000", "094214.395000", "094216.395000", "094218.395000", "094220.395000", "094222.395000", "094224.395000", "094226.395000", "094228.395000", "094230.395000", "094232.395000", "094234.395000", "094236.395000", "094238.395000", "094240.395000", "094242.395000", "094244.395000", "094246.395000", "094248.395000", "094250.395000", "094252.395000", "094254.395000", "094256.395000", "094258.395000", "094300.395000", "094302.395000", "094304.395000", "094306.395000", "094308.395000", "094310.395000", "094312.395000", "094314.395000", "094316.395000", "094318.395000", "094320.395000", "094322.395000", "094324.395000", "094326.395000", "094328.395000", "094330.395000", "094332.395000", "094334.395000", "094336.395000", "094338.395000", "094340.395000", "094342.395000", "094344.395000", "094346.395000", "094348.395000", "094350.395000", "094352.395000", "094354.395000", "094356.395000", "094358.395000", "094400.395000", "094402.395000", "094404.395000", "094406.395000", "094408.395000", "094410.395000"],
      "ContentTime": ["093825.007000", "093825.010000", "093825.013000", "093825.015000", "093825.017000", "093825.020000", "093825.022000", "093825.025000", "093825.027000", "093825.029000", "093825.032000", "093825.034000", "093825.036000", "093825.045000", "093825.047000", "093825.050000", "093825.061000", "093825.063000", "093825.066000", "093825.068000", "093825.070000", "093825.073000", "093825.075000", "093825.078000", "093825.080000", "093825.082000", "093905.002000", "093905.005000", "093905.007000", "093905.010000", "093905.012000", "093905.014000", "093905.017000", "093905.019000", "093905.022000", "093905.024000", "093905.026000", "093905.038000", "093905.041000", "093905.043000", "093905.045000", "093905.048000", "093905.050000", "093905.052000", "093905.055000", "093905.058000", "093945.001000", "093945.004000", "093945.006000", "093945.009000", "093945.017000", "093945.019000", "093945.021000", "093945.024000", "093945.026000", "093945.028000", "093945.031000", "093945.033000", "093945.036000", "093945.038000", "093945.040000", "093945.043000", "093945.045000", "093945.048000", "093945.050000", "093945.052000", "094025.002000", "094025.005000", "094025.007000", "094025.009000", "094025.012000", "094025.014000", "094025.017000", "094025.019000", "094025.021000", "094025.024000", "094025.026000", "094025.029000", "094025.031000", "094025.033000", "094025.036000", "094025.038000", "094025.040000", "094025.043000", "094025.045000", "094025.048000", "094105.002000", "094105.005000", "094105.007000", "094105.009000", "094105.012000", "094105.014000", "094105.016000", "094105.019000", "094105.021000", "094105.023000", "094105.026000", "094105.028000", "094105.030000", "094105.032000", "094105.035000", "094105.037000", "094105.039000", "094105.042000", "094105.044000", "094105.046000", "094145.002000", "094145.005000", "094145.007000", "094145.010000", "094145.012000", "094145.014000", "094145.017000", "094145.019000", "094145.022000", "094145.024000", "094145.026000", "094145.029000", "094145.031000", "094145.033000", "094145.036000", "094145.038000", "094145.041000", "094145.043000", "094145.045000", "094145.048000", "094225.002000", "094225.005000", "094225.007000", "094225.010000", "094225.012000", "094225.014000", "094225.017000", "094225.019000", "094225.021000", "094225.024000", "094225.026000", "094225.028000", "094225.031000", "094225.033000", "094225.035000", "094225.038000", "094225.040000", "094225.042000", "094225.045000", "094225.047000", "094305.002000", "094305.005000", "094305.007000", "094305.010000", "094305.012000", "094305.014000", "094305.017000", "094305.019000", "094305.021000", "094305.024000", "094305.026000", "094305.029000", "094305.031000", "094305.033000", "094305.036000", "094305.038000", "094305.040000", "094305.043000", "094305.045000", "094305.047000", "094345.002000", "094345.005000", "094345.007000", "094345.009000", "094345.012000", "094345.014000", "094345.016000", "094345.019000", "094345.021000", "094345.023000", "094345.026000", "094345.028000", "094345.031000", "094345.033000", "094345.035000", "094345.038000", "094345.040000", "094345.042000", "094345.045000", "094345.047000", "094411.757000", "094411.760000", "094411.762000", "094411.765000", "094411.768000", "094411.770000", "094411.773000", "094411.775000", "094411.777000", "094411.780000", "094411.782000", "094411.785000", "094411.787000", "094411.792000"],
      "InstanceCreationTime": ["093825.007000", "093825.010000", "093825.013000", "093825.015000", "093825.017000", "093825.020000", "093825.022000", "093825.025000", "093825.027000", "093825.029000", "093825.032000", "093825.034000", "093825.036000", "093825.045000", "093825.047000", "093825.050000", "093825.061000", "093825.063000", "093825.066000", "093825.068000", "093825.070000", "093825.073000", "093825.075000", "093825.078000", "093825.080000", "093825.082000", "093905.002000", "093905.005000", "093905.007000", "093905.010000", "093905.012000", "093905.014000", "093905.017000", "093905.019000", "093905.022000", "093905.024000", "093905.026000", "093905.038000", "093905.041000", "093905.043000", "093905.045000", "093905.048000", "093905.050000", "093905.052000", "093905.055000", "093905.058000", "093945.001000", "093945.004000", "093945.006000", "093945.009000", "093945.017000", "093945.019000", "093945.021000", "093945.024000", "093945.026000", "093945.028000", "093945.031000", "093945.033000", "093945.036000", "093945.038000", "093945.040000", "093945.043000", "093945.045000", "093945.048000", "093945.050000", "093945.052000", "094025.002000", "094025.005000", "094025.007000", "094025.009000", "094025.012000", "094025.014000", "094025.017000", "094025.019000", "094025.021000", "094025.024000", "094025.026000", "094025.029000", "094025.031000", "094025.033000", "094025.036000", "094025.038000", "094025.040000", "094025.043000", "094025.045000", "094025.048000", "094105.002000", "094105.005000", "094105.007000", "094105.009000", "094105.012000", "094105.014000", "094105.016000", "094105.019000", "094105.021000", "094105.023000", "094105.026000", "094105.028000", "094105.030000", "094105.032000", "094105.035000", "094105.037000", "094105.039000", "094105.042000", "094105.044000", "094105.046000", "094145.002000", "094145.005000", "094145.007000", "094145.010000", "094145.012000", "094145.014000", "094145.017000", "094145.019000", "094145.022000", "094145.024000", "094145.026000", "094145.029000", "094145.031000", "094145.033000", "094145.036000", "094145.038000", "094145.041000", "094145.043000", "094145.045000", "094145.048000", "094225.002000", "094225.005000", "094225.007000", "094225.010000", "094225.012000", "094225.014000", "094225.017000", "094225.019000", "094225.021000", "094225.024000", "094225.026000", "094225.028000", "094225.031000", "094225.033000", "094225.035000", "094225.038000", "094225.040000", "094225.042000", "094225.045000", "094225.047000", "094305.002000", "094305.005000", "094305.007000", "094305.010000", "094305.012000", "094305.014000", "094305.017000", "094305.019000", "094305.021000", "094305.024000", "094305.026000", "094305.029000", "094305.031000", "094305.033000", "094305.036000", "094305.038000", "094305.040000", "094305.043000", "094305.045000", "094305.047000", "094345.002000", "094345.005000", "094345.007000", "094345.009000", "094345.012000", "094345.014000", "094345.016000", "094345.019000", "094345.021000", "094345.023000", "094345.026000", "094345.028000", "094345.031000", "094345.033000", "094345.035000", "094345.038000", "094345.040000", "094345.042000", "094345.045000", "094345.047000", "094411.757000", "094411.760000", "094411.762000", "094411.765000", "094411.768000", "094411.770000", "094411.773000", "094411.775000", "094411.777000", "094411.780000", "094411.782000", "094411.785000", "094411.787000", "094411.792000"],
      "InstanceNumber": [1, 2, 3, 4, 5, 6, 7, 8, 9, 10, 11, 12, 13, 14, 15, 16, 17, 18, 19, 20, 21, 22, 23, 24, 25, 26, 27, 28, 29, 30, 31, 32, 33, 34, 35, 36, 37, 38, 39, 40, 41, 42, 43, 44, 45, 46, 47, 48, 49, 50, 51, 52, 53, 54, 55, 56, 57, 58, 59, 60, 61, 62, 63, 64, 65, 66, 67, 68, 69, 70, 71, 72, 73, 74, 75, 76, 77, 78, 79, 80, 81, 82, 83, 84, 85, 86, 87, 88, 89, 90, 91, 92, 93, 94, 95, 96, 97, 98, 99, 100, 101, 102, 103, 104, 105, 106, 107, 108, 109, 110, 111, 112, 113, 114, 115, 116, 117, 118, 119, 120, 121, 122, 123, 124, 125, 126, 127, 128, 129, 130, 131, 132, 133, 134, 135, 136, 137, 138, 139, 140, 141, 142, 143, 144, 145, 146, 147, 148, 149, 150, 151, 152, 153, 154, 155, 156, 157, 158, 159, 160, 161, 162, 163, 164, 165, 166, 167, 168, 169, 170, 171, 172, 173, 174, 175, 176, 177, 178, 179, 180, 181, 182, 183, 184, 185, 186, 187, 188, 189, 190, 191, 192, 193, 194, 195, 196, 197, 198, 199, 200],
      "LargestImagePixelValue": [2192, 2192, 2192, 2193, 2193, 2192, 2193, 2191, 2194, 2192, 2193, 2193, 2193, 2193, 2193, 2191, 2193, 2193, 2193, 2193, 2193, 2192, 2196, 2195, 2193, 2193, 2194, 2194, 2195, 2194, 2195, 2195, 2195, 2193, 2194, 2193, 2195, 2193, 2194, 2193, 2191, 2193, 2194, 2195, 2192, 2193, 2193, 2192, 2193, 2192, 2191, 2193, 2191, 2194, 2193, 2193, 2193, 2192, 2194, 2192, 2192, 2193, 2191, 2194, 2194, 2193, 2193, 2193, 2193, 2194, 2192, 2193, 2193, 2194, 2194, 2194, 2193, 2196, 2193, 2193, 2193, 2194, 2193, 2194, 2196, 2194, 2192, 2194, 2192, 2194, 2193, 2194, 2195, 2193, 2193, 2192, 2195, 2194, 2192, 2195, 2193, 2198, 2193, 2193, 2197, 2194, 2194, 2194, 2193, 2194, 2192, 2195, 2191, 2193, 2194, 2192, 2193, 2195, 2194, 2194, 2193, 2192, 2193, 2193, 2192, 2194, 2193, 2193, 2195, 2195, 2195, 2194, 2193, 2192, 2194, 2195, 2193, 2195, 2195, 2193, 2195, 2197, 2196, 2193, 2196, 2197, 2196, 2194, 2193, 2197, 2195, 2196, 2195, 2196, 2195, 2191, 2194, 2194, 2196, 2193, 2195, 2195, 2197, 2194, 2195, 2197, 2194, 2194, 2194, 2194, 2193, 2196, 2195, 2193, 2194, 2192, 2194, 2194, 2195, 2194, 2194, 2195, 2195, 2195, 2196, 2192, 2196, 2195, 2193, 2194, 2196, 2195, 2196, 2194, 2193, 2197, 2195, 2195, 2196, 2196],
      "WindowCenter": [1021.0, 1022.0, 1021.0, 1023.0, 1022.0, 1022.0, 1022.0, 1021.0, 1021.0, 1022.0, 1022.0, 1022.0, 1021.0, 1020.0, 1021.0, 1022.0, 1021.0, 1021.0, 1020.0, 1022.0, 1020.0, 1022.0, 1021.0, 1020.0, 1022.0, 1021.0, 1020.0, 1021.0, 1021.0, 1021.0, 1022.0, 1022.0, 1022.0, 1021.0, 1022.0, 1021.0, 1021.0, 1021.0, 1021.0, 1020.0, 1022.0, 1022.0, 1022.0, 1022.0, 1021.0, 1021.0, 1020.0, 1022.0, 1021.0, 1021.0, 1020.0, 1022.0, 1020.0, 1021.0, 1022.0, 1020.0, 1021.0, 1021.0, 1021.0, 1021.0, 1021.0, 1020.0, 1020.0, 1020.0, 1021.0, 1021.0, 1021.0, 1020.0, 1019.0, 1021.0, 1021.0, 1021.0, 1022.0, 1021.0, 1020.0, 1021.0, 1021.0, 1021.0, 1020.0, 1020.0, 1021.0, 1020.0, 1019.0, 1021.0, 1021.0, 1020.0, 1021.0, 1020.0, 1021.0, 1021.0, 1022.0, 1021.0, 1020.0, 1020.0, 1021.0, 1019.0, 1021.0, 1020.0, 1020.0, 1020.0, 1021.0, 1021.0, 1020.0, 1020.0, 1020.0, 1019.0, 1020.0, 1019.0, 1020.0, 1021.0, 1020.0, 1020.0, 1020.0, 1020.0, 1019.0, 1020.0, 1021.0, 1019.0, 1021.0, 1019.0, 1020.0, 1021.0, 1019.0, 1020.0, 1020.0, 1018.0, 1021.0, 1021.0, 1020.0, 1019.0, 1019.0, 1020.0, 1021.0, 1020.0, 1019.0, 1020.0, 1021.0, 1019.0, 1021.0, 1021.0, 1021.0, 1022.0, 1020.0, 1020.0, 1020.0, 1020.0, 1020.0, 1020.0, 1020.0, 1020.0, 1021.0, 1021.0, 1020.0, 1021.0, 1020.0, 1021.0, 1021.0, 1021.0, 1020.0, 1020.0, 1021.0, 1018.0, 1020.0, 1020.0, 1020.0, 1020.0, 1020.0, 1020.0, 1019.0, 1020.0, 1018.0, 1021.0, 1020.0, 1019.0, 1021.0, 1019.0, 1020.0, 1019.0, 1020.0, 1020.0, 1020.0, 1019.0, 1020.0, 1018.0, 1020.0, 1019.0, 1020.0, 1019.0, 1020.0, 1020.0, 1018.0, 1019.0, 1020.0, 1020.0, 1019.0, 1020.0, 1019.0, 1021.0, 1019.0, 1019.0],
      "WindowWidth": [2284.0, 2284.0, 2284.0, 2285.0, 2284.0, 2285.0, 2285.0, 2283.0, 2283.0, 2285.0, 2284.0, 2284.0, 2284.0, 2283.0, 2283.0, 2284.0, 2283.0, 2283.0, 2282.0, 2284.0, 2282.0, 2284.0, 2283.0, 2282.0, 2284.0, 2283.0, 2282.0, 2283.0, 2283.0, 2283.0, 2284.0, 2284.0, 2284.0, 2283.0, 2284.0, 2283.0, 2283.0, 2283.0, 2283.0, 2282.0, 2284.0, 2284.0, 2284.0, 2284.0, 2283.0, 2283.0, 2282.0, 2283.0, 2283.0, 2283.0, 2282.0, 2283.0, 2283.0, 2283.0, 2283.0, 2283.0, 2283.0, 2282.0, 2282.0, 2283.0, 2283.0, 2282.0, 2282.0, 2282.0, 2283.0, 2283.0, 2283.0, 2281.0, 2282.0, 2283.0, 2283.0, 2283.0, 2283.0, 2283.0, 2282.0, 2283.0, 2283.0, 2282.0, 2282.0, 2282.0, 2282.0, 2282.0, 2281.0, 2282.0, 2282.0, 2282.0, 2282.0, 2282.0, 2282.0, 2282.0, 2283.0, 2282.0, 2282.0, 2282.0, 2282.0, 2281.0, 2282.0, 2282.0, 2282.0, 2281.0, 2282.0, 2282.0, 2281.0, 2281.0, 2281.0, 2281.0, 2281.0, 2280.0, 2281.0, 2282.0, 2281.0, 2281.0, 2281.0, 2281.0, 2281.0, 2281.0, 2282.0, 2280.0, 2281.0, 2280.0, 2281.0, 2281.0, 2280.0, 2281.0, 2281.0, 2279.0, 2281.0, 2281.0, 2281.0, 2280.0, 2280.0, 2281.0, 2281.0, 2281.0, 2280.0, 2281.0, 2281.0, 2280.0, 2281.0, 2281.0, 2281.0, 2282.0, 2281.0, 2281.0, 2281.0, 2281.0, 2281.0, 2281.0, 2281.0, 2281.0, 2281.0, 2282.0, 2280.0, 2281.0, 2280.0, 2281.0, 2281.0, 2281.0, 2280.0, 2280.0, 2281.0, 2279.0, 2280.0, 2281.0, 2280.0, 2280.0, 2280.0, 2281.0, 2280.0, 2281.0, 2279.0, 2280.0, 2281.0, 2280.0, 2280.0, 2280.0, 2280.0, 2280.0, 2280.0, 2280.0, 2281.0, 2280.0, 2280.0, 2279.0, 2280.0, 2280.0, 2280.0, 2280.0, 2280.0, 2280.0, 2279.0, 2280.0, 2280.0, 2280.0, 2280.0, 2280.0, 2280.0, 2281.0, 2280.0, 2280.0]
    },
    "slices": {}
  }
}