{
  "AcquisitionMatrixPE": 80,
  "AcquisitionNumber": 1,
  "AcquisitionTime": "09:54:16.167500",
  "BandwidthPerPixelPhaseEncode": 44.643,
  "BaseResolution": 80,
  "BodyPartExamined": "BRAIN",
  "CoilCombinationMethod": "Sum of Squares",
  "ConsistencyInfo": "N4_VE11C_LATEST_20160120",
  "ConversionSoftware": "dcm2niix",
  "ConversionSoftwareVersion": "v1.0.20220720",
  "DerivedVendorReportedEchoSpacing": 0.000559998,
  "DeviceSerialNumber": "66112",
  "DwellTime": 2.7e-06,
  "EchoTime": 0.035,
  "EchoTrainLength": 39,
  "EffectiveEchoSpacing": 0.000279999,
  "FlipAngle": 90,
  "HeudiconvVersion": "0.13.1",
  "ImageOrientationPatientDICOM": [0.988126, 0.153437, 0.00801115, -0.148205, 0.938085, 0.313099],
  "ImageOrientationText": "Tra>Cor(18.1)>Sag(-2.3)",
  "ImageType": [
    "ORIGINAL",
    "PRIMARY",
    "M",
    "ND",
    "NORM",
    "MOSAIC"
],
  "ImagingFrequency": 123.252,
  "InPlanePhaseEncodingDirectionDICOM": "COL",
  "InstitutionAddress": "Maynard 3,Hanover,NH,US,03755",
  "InstitutionName": "Dartmouth College - PBS",
  "InstitutionalDepartmentName": "Department",
  "MRAcquisitionType": "2D",
  "MagneticFieldStrength": 3,
  "Manufacturer": "Siemens",
  "ManufacturersModelName": "Prisma",
  "Modality": "MR",
  "MultibandAccelerationFactor": 4,
  "NonlinearGradientCorrection": false,
  "ParallelReductionFactorInPlane": 2,
  "PartialFourier": 1,
  "PatientPosition": "HFS",
  "PercentPhaseFOV": 100,
  "PercentSampling": 100,
  "PhaseEncodingDirection": "j-",
  "PhaseEncodingSteps": 79,
  "PhaseResolution": 1,
  "PixelBandwidth": 2315,
  "ProcedureStepDescription": "dbic^QA",
  "ProtocolName": "func-bold_task-rest_acq-p2-s4-3.5mm",
  "PulseSequenceDetails": "%SiemensSeq%\\ep2d_bold",
  "ReceiveCoilActiveElements": "HEA;HEP",
  "ReceiveCoilName": "Head_32",
  "ReconMatrixPE": 80,
  "RefLinesPE": 24,
  "RepetitionTime": 2,
  "SAR": 0.0209097,
  "ScanOptions": "FS",
  "ScanningSequence": "EP",
  "SequenceName": "*epfid2d1_80",
  "SequenceVariant": "SK",
  "SeriesDescription": "func-bold_task-rest_acq-p2-s4-3.5mm",
  "SeriesNumber": 7,
  "ShimSetting": [4147, -7701, -7516, 313, -37, -325, -48, 101],
  "SliceThickness": 3.5,
  "SliceTiming": [1.485, 0, 0.99, 0.2475, 1.2375, 0.7425, 1.7325, 0.495, 1.485, 0, 0.99, 0.2475, 1.2375, 0.7425, 1.7325, 0.495, 1.485, 0, 0.99, 0.2475, 1.2375, 0.7425, 1.7325, 0.495, 1.485, 0, 0.99, 0.2475, 1.2375, 0.7425, 1.7325, 0.495],
  "SoftwareVersions": "syngo MR E11",
  "SpacingBetweenSlices": 3.99,
  "StationName": "AWP66112",
  "TaskName": "rest",
  "TotalReadoutTime": 0.0221199,
  "TxRefAmp": 229.93,
  "dcmmeta_affine": [
    [-2.9643776416778564, -0.44461628794670105, -0.16169854998588562, 139.509521484375],
    [-0.4603120982646942, 2.814255952835083, 1.2391687631607056, -103.18254852294922],
    [0.024033455178141594, -0.9392971992492676, 3.789249897003174, -40.50336837768555],
    [0.0, 0.0, 0.0, 1.0]
],
  "dcmmeta_reorient_transform": [
    [0.0, -1.0, 0.0, 79.0],
    [1.0, 0.0, 0.0, 0.0],
    [0.0, 0.0, 1.0, 0.0],
    [0.0, 0.0, 0.0, 1.0]
],
  "dcmmeta_shape": [80, 80, 32, 200],
  "dcmmeta_slice_dim": 2,
  "dcmmeta_version": 0.6,
  "global": {
    "const": {
      "AccessionNumber": "qa",
      "AcquisitionMatrix": [80, 0, 0, 80],
      "AngioFlag": "N",
      "BitsAllocated": 16,
      "BitsStored": 12,
      "BodyPartExamined": "BRAIN",
      "Columns": 480,
      "EchoNumbers": 1,
      "EchoTime": 35.0,
      "EchoTrainLength": 39,
      "FlipAngle": 90.0,
      "HighBit": 11,
      "ImageOrientationPatient": [0.98812590124319, 0.15343736421024, 0.00801115201175, -0.1482054332782, 0.93808534690717, 0.31309907611629],
      "ImagePositionPatient": [-608.33711802875, -774.05730457259, -307.37398583422],
      "ImageType": [
        "ORIGINAL",
        "PRIMARY",
        "M",
        "ND",
        "NORM",
        "MOSAIC"
],
      "ImagedNucleus": "1H",
      "ImagingFrequency": 123.25246,
      "InPlanePhaseEncodingDirection": "COL",
      "MRAcquisitionType": "2D",
      "MagneticFieldStrength": 3.0,
      "Manufacturer": "SIEMENS",
      "ManufacturerModelName": "Prisma",
      "Modality": "MR",
      "NumberOfAverages": 1.0,
      "NumberOfPhaseEncodingSteps": 79,
      "PercentPhaseFieldOfView": 100.0,
      "PercentSampling": 100.0,
      "PerformedProcedureStepStartTime": "094556.910000",
      "PhotometricInterpretation": "MONOCHROME2",
      "PixelBandwidth": 2315.0,
      "PixelRepresentation": 0,
      "PixelSpacing": [3.0, 3.0],
      "ProtocolName": "func-bold_task-rest_acq-p2-s4-3.5mm",
      "RepetitionTime": 2000.0,
      "Rows": 480,
      "SAR": 0.02090968457212,
      "SamplesPerPixel": 1,
      "ScanOptions": "FS",
      "ScanningSequence": "EP",
      "SequenceName": "*epfid2d1_80",
      "SequenceVariant": "SK",
      "SeriesDescription": "func-bold_task-rest_acq-p2-s4-3.5mm",
      "SeriesNumber": 7,
      "SeriesTime": "095458.549000",
      "SliceLocation": -76.164525602941,
      "SliceThickness": 3.5,
      "SmallestImagePixelValue": 0,
      "SoftwareVersions": "syngo MR E11",
      "SpacingBetweenSlices": 3.9900000450245,
      "SpecificCharacterSet": "ISO_IR 100",
      "StudyID": "14",
      "StudyTime": "094556.797000",
      "TransmitCoilName": "Body",
      "VariableFlipAngleFlag": "N",
      "WindowCenterWidthExplanation": "Algo1",
      "dBdt": 0.0},
    "slices": {}
  },
  "time": {
    "samples": {
      "AcquisitionNumber": [1, 2, 3, 4, 5, 6, 7, 8, 9, 10, 11, 12, 13, 14, 15, 16, 17, 18, 19, 20, 21, 22, 23, 24, 25, 26, 27, 28, 29, 30, 31, 32, 33, 34, 35, 36, 37, 38, 39, 40, 41, 42, 43, 44, 45, 46, 47, 48, 49, 50, 51, 52, 53, 54, 55, 56, 57, 58, 59, 60, 61, 62, 63, 64, 65, 66, 67, 68, 69, 70, 71, 72, 73, 74, 75, 76, 77, 78, 79, 80, 81, 82, 83, 84, 85, 86, 87, 88, 89, 90, 91, 92, 93, 94, 95, 96, 97, 98, 99, 100, 101, 102, 103, 104, 105, 106, 107, 108, 109, 110, 111, 112, 113, 114, 115, 116, 117, 118, 119, 120, 121, 122, 123, 124, 125, 126, 127, 128, 129, 130, 131, 132, 133, 134, 135, 136, 137, 138, 139, 140, 141, 142, 143, 144, 145, 146, 147, 148, 149, 150, 151, 152, 153, 154, 155, 156, 157, 158, 159, 160, 161, 162, 163, 164, 165, 166, 167, 168, 169, 170, 171, 172, 173, 174, 175, 176, 177, 178, 179, 180, 181, 182, 183, 184, 185, 186, 187, 188, 189, 190, 191, 192, 193, 194, 195, 196, 197, 198, 199, 200],
      "AcquisitionTime": ["095416.167500", "095418.167500", "095420.167500", "095422.167500", "095424.167500", "095426.167500", "095428.167500", "095430.167500", "095432.167500", "095434.167500", "095436.167500", "095438.167500", "095440.167500", "095442.167500", "095444.167500", "095446.167500", "095448.167500", "095450.167500", "095452.167500", "095454.167500", "095456.167500", "095458.167500", "095500.167500", "095502.167500", "095504.167500", "095506.167500", "095508.167500", "095510.167500", "095512.167500", "095514.167500", "095516.167500", "095518.167500", "095520.167500", "095522.167500", "095524.167500", "095526.167500", "095528.167500", "095530.167500", "095532.167500", "095534.167500", "095536.167500", "095538.167500", "095540.167500", "095542.167500", "095544.167500", "095546.167500", "095548.167500", "095550.167500", "095552.167500", "095554.167500", "095556.167500", "095558.167500", "095600.167500", "095602.167500", "095604.167500", "095606.167500", "095608.167500", "095610.167500", "095612.167500", "095614.167500", "095616.167500", "095618.167500", "095620.167500", "095622.167500", "095624.167500", "095626.167500", "095628.167500", "095630.167500", "095632.167500", "095634.167500", "095636.167500", "095638.167500", "095640.167500", "095642.167500", "095644.167500", "095646.167500", "095648.167500", "095650.167500", "095652.167500", "095654.167500", "095656.167500", "095658.167500", "095700.167500", "095702.167500", "095704.167500", "095706.167500", "095708.167500", "095710.167500", "095712.167500", "095714.167500", "095716.167500", "095718.167500", "095720.167500", "095722.167500", "095724.167500", "095726.167500", "095728.167500", "095730.167500", "095732.167500", "095734.167500", "095736.167500", "095738.167500", "095740.167500", "095742.167500", "095744.167500", "095746.167500", "095748.167500", "095750.167500", "095752.167500", "095754.167500", "095756.167500", "095758.167500", "095800.167500", "095802.167500", "095804.167500", "095806.167500", "095808.167500", "095810.167500", "095812.167500", "095814.167500", "095816.167500", "095818.167500", "095820.167500", "095822.167500", "095824.167500", "095826.167500", "095828.167500", "095830.167500", "095832.167500", "095834.167500", "095836.167500", "095838.167500", "095840.167500", "095842.167500", "095844.167500", "095846.167500", "095848.167500", "095850.167500", "095852.167500", "095854.167500", "095856.167500", "095858.167500", "095900.167500", "095902.167500", "095904.167500", "095906.167500", "095908.167500", "095910.167500", "095912.167500", "095914.167500", "095916.167500", "095918.167500", "095920.167500", "095922.167500", "095924.167500", "095926.167500", "095928.167500", "095930.167500", "095932.167500", "095934.167500", "095936.167500", "095938.167500", "095940.167500", "095942.167500", "095944.167500", "095946.167500", "095948.167500", "095950.167500", "095952.167500", "095954.167500", "095956.167500", "095958.167500", "100000.167500", "100002.167500", "100004.167500", "100006.167500", "100008.167500", "100010.167500", "100012.167500", "100014.167500", "100016.167500", "100018.167500", "100020.167500", "100022.167500", "100024.167500", "100026.167500", "100028.167500", "100030.167500", "100032.167500", "100034.167500", "100036.167500", "100038.167500", "100040.167500", "100042.167500", "100044.167500", "100046.167500", "100048.167500", "100050.167500", "100052.167500", "100054.167500"],
      "ContentTime": ["095458.552000", "095458.555000", "095458.558000", "095458.561000", "095458.563000", "095458.566000", "095458.568000", "095458.571000", "095458.574000", "095458.576000", "095458.579000", "095458.581000", "095458.584000", "095458.586000", "095458.593000", "095458.599000", "095458.601000", "095458.604000", "095458.606000", "095458.609000", "095458.614000", "095538.547000", "095538.550000", "095538.553000", "095538.555000", "095538.558000", "095538.561000", "095538.563000", "095538.566000", "095538.568000", "095538.571000", "095538.573000", "095538.576000", "095538.579000", "095538.581000", "095538.584000", "095538.587000", "095538.589000", "095538.592000", "095538.594000", "095538.597000", "095618.548000", "095618.560000", "095618.562000", "095618.565000", "095618.567000", "095618.570000", "095618.573000", "095618.575000", "095618.578000", "095618.580000", "095618.583000", "095618.586000", "095618.588000", "095618.591000", "095618.594000", "095618.596000", "095618.599000", "095618.601000", "095618.604000", "095618.606000", "095658.548000", "095658.551000", "095658.554000", "095658.557000", "095658.559000", "095658.562000", "095658.564000", "095658.567000", "095658.570000", "095658.572000", "095658.575000", "095658.578000", "095658.580000", "095658.583000", "095658.585000", "095658.588000", "095658.591000", "095658.593000", "095658.596000", "095658.598000", "095738.547000", "095738.550000", "095738.553000", "095738.555000", "095738.558000", "095738.561000", "095738.563000", "095738.566000", "095738.569000", "095738.571000", "095738.574000", "095738.577000", "095738.579000", "095738.582000", "095738.584000", "095738.587000", "095738.589000", "095738.592000", "095738.595000", "095738.597000", "095818.547000", "095818.550000", "095818.553000", "095818.556000", "095818.558000", "095818.561000", "095818.564000", "095818.566000", "095818.569000", "095818.571000", "095818.574000", "095818.576000", "095818.579000", "095818.582000", "095818.584000", "095818.587000", "095818.589000", "095818.592000", "095818.594000", "095818.597000", "095858.548000", "095858.551000", "095858.554000", "095858.556000", "095858.559000", "095858.561000", "095858.564000", "095858.567000", "095858.569000", "095858.572000", "095858.574000", "095858.577000", "095858.579000", "095858.582000", "095858.585000", "095858.587000", "095858.590000", "095858.592000", "095858.595000", "095858.598000", "095938.547000", "095938.550000", "095938.553000", "095938.555000", "095938.558000", "095938.560000", "095938.563000", "095938.566000", "095938.568000", "095938.571000", "095938.573000", "095938.576000", "095938.578000", "095938.581000", "095938.583000", "095938.586000", "095938.588000", "095938.591000", "095938.593000", "095938.596000", "100018.547000", "100018.550000", "100018.553000", "100018.555000", "100018.558000", "100018.561000", "100018.563000", "100018.566000", "100018.568000", "100018.571000", "100018.573000", "100018.576000", "100018.579000", "100018.581000", "100018.584000", "100018.586000", "100018.589000", "100018.591000", "100018.594000", "100018.597000", "100055.228000", "100055.231000", "100055.233000", "100055.236000", "100055.239000", "100055.241000", "100055.244000", "100055.247000", "100055.249000", "100055.252000", "100055.255000", "100055.263000", "100055.268000", "100055.271000", "100055.279000", "100055.282000", "100055.285000", "100055.288000", "100055.291000"],
      "InstanceCreationTime": ["095458.552000", "095458.555000", "095458.558000", "095458.561000", "095458.563000", "095458.566000", "095458.568000", "095458.571000", "095458.574000", "095458.576000", "095458.579000", "095458.581000", "095458.584000", "095458.586000", "095458.593000", "095458.599000", "095458.601000", "095458.604000", "095458.606000", "095458.609000", "095458.614000", "095538.547000", "095538.550000", "095538.553000", "095538.555000", "095538.558000", "095538.561000", "095538.563000", "095538.566000", "095538.568000", "095538.571000", "095538.573000", "095538.576000", "095538.579000", "095538.581000", "095538.584000", "095538.587000", "095538.589000", "095538.592000", "095538.594000", "095538.597000", "095618.548000", "095618.560000", "095618.562000", "095618.565000", "095618.567000", "095618.570000", "095618.573000", "095618.575000", "095618.578000", "095618.580000", "095618.583000", "095618.586000", "095618.588000", "095618.591000", "095618.594000", "095618.596000", "095618.599000", "095618.601000", "095618.604000", "095618.606000", "095658.548000", "095658.551000", "095658.554000", "095658.557000", "095658.559000", "095658.562000", "095658.564000", "095658.567000", "095658.570000", "095658.572000", "095658.575000", "095658.578000", "095658.580000", "095658.583000", "095658.585000", "095658.588000", "095658.591000", "095658.593000", "095658.596000", "095658.598000", "095738.547000", "095738.550000", "095738.553000", "095738.555000", "095738.558000", "095738.561000", "095738.563000", "095738.566000", "095738.569000", "095738.571000", "095738.574000", "095738.577000", "095738.579000", "095738.582000", "095738.584000", "095738.587000", "095738.589000", "095738.592000", "095738.595000", "095738.597000", "095818.547000", "095818.550000", "095818.553000", "095818.556000", "095818.558000", "095818.561000", "095818.564000", "095818.566000", "095818.569000", "095818.571000", "095818.574000", "095818.576000", "095818.579000", "095818.582000", "095818.584000", "095818.587000", "095818.589000", "095818.592000", "095818.594000", "095818.597000", "095858.548000", "095858.551000", "095858.554000", "095858.556000", "095858.559000", "095858.561000", "095858.564000", "095858.567000", "095858.569000", "095858.572000", "095858.574000", "095858.577000", "095858.579000", "095858.582000", "095858.585000", "095858.587000", "095858.590000", "095858.592000", "095858.595000", "095858.598000", "095938.547000", "095938.550000", "095938.553000", "095938.555000", "095938.558000", "095938.560000", "095938.563000", "095938.566000", "095938.568000", "095938.571000", "095938.573000", "095938.576000", "095938.578000", "095938.581000", "095938.583000", "095938.586000", "095938.588000", "095938.591000", "095938.593000", "095938.596000", "100018.547000", "100018.550000", "100018.553000", "100018.555000", "100018.558000", "100018.561000", "100018.563000", "100018.566000", "100018.568000", "100018.571000", "100018.573000", "100018.576000", "100018.579000", "100018.581000", "100018.584000", "100018.586000", "100018.589000", "100018.591000", "100018.594000", "100018.597000", "100055.228000", "100055.231000", "100055.233000", "100055.236000", "100055.239000", "100055.241000", "100055.244000", "100055.247000", "100055.249000", "100055.252000", "100055.255000", "100055.263000", "100055.268000", "100055.271000", "100055.279000", "100055.282000", "100055.285000", "100055.288000", "100055.291000"],
      "InstanceNumber": [1, 2, 3, 4, 5, 6, 7, 8, 9, 10, 11, 12, 13, 14, 15, 16, 17, 18, 19, 20, 21, 22, 23, 24, 25, 26, 27, 28, 29, 30, 31, 32, 33, 34, 35, 36, 37, 38, 39, 40, 41, 42, 43, 44, 45, 46, 47, 48, 49, 50, 51, 52, 53, 54, 55, 56, 57, 58, 59, 60, 61, 62, 63, 64, 65, 66, 67, 68, 69, 70, 71, 72, 73, 74, 75, 76, 77, 78, 79, 80, 81, 82, 83, 84, 85, 86, 87, 88, 89, 90, 91, 92, 93, 94, 95, 96, 97, 98, 99, 100, 101, 102, 103, 104, 105, 106, 107, 108, 109, 110, 111, 112, 113, 114, 115, 116, 117, 118, 119, 120, 121, 122, 123, 124, 125, 126, 127, 128, 129, 130, 131, 132, 133, 134, 135, 136, 137, 138, 139, 140, 141, 142, 143, 144, 145, 146, 147, 148, 149, 150, 151, 152, 153, 154, 155, 156, 157, 158, 159, 160, 161, 162, 163, 164, 165, 166, 167, 168, 169, 170, 171, 172, 173, 174, 175, 176, 177, 178, 179, 180, 181, 182, 183, 184, 185, 186, 187, 188, 189, 190, 191, 192, 193, 194, 195, 196, 197, 198, 199, 200],
      "LargestImagePixelValue": [1875, 1882, 1871, 1874, 1882, 1883, 1876, 1877, 1877, 1875, 1880, 1885, 1889, 1878, 1879, 1883, 1881, 1884, 1882, 1884, 1883, 1877, 1883, 1881, 1881, 1876, 1885, 1881, 1878, 1879, 1882, 1887, 1879, 1881, 1881, 1881, 1885, 1885, 1878, 1876, 1881, 1881, 1879, 1878, 1881, 1883, 1880, 1880, 1880, 1878, 1885, 1882, 1882, 1884, 1877, 1881, 1878, 1879, 1882, 1881, 1891, 1882, 1878, 1880, 1882, 1881, 1877, 1879, 1872, 1879, 1878, 1880, 1880, 1881, 1880, 1883, 1882, 1885, 1887, 1884, 1879, 1875, 1878, 1878, 1881, 1878, 1881, 1879, 1882, 1880, 1883, 1875, 1877, 1875, 1886, 1885, 1882, 1877, 1876, 1884, 1882, 1883, 1882, 1878, 1879, 1879, 1877, 1882, 1877, 1884, 1885, 1878, 1879, 1883, 1885, 1880, 1874, 1873, 1871, 1877, 1882, 1876, 1874, 1880, 1879, 1882, 1889, 1879, 1883, 1887, 1878, 1883, 1886, 1875, 1873, 1877, 1876, 1881, 1883, 1874, 1879, 1875, 1876, 1889, 1888, 1882, 1881, 1875, 1882, 1878, 1886, 1886, 1879, 1883, 1881, 1885, 1882, 1882, 1879, 1883, 1881, 1880, 1878, 1881, 1881, 1879, 1877, 1887, 1879, 1877, 1880, 1879, 1882, 1882, 1885, 1883, 1880, 1880, 1878, 1883, 1882, 1882, 1876, 1880, 1885, 1883, 1880, 1885, 1885, 1885, 1883, 1875, 1885, 1882, 1878, 1884, 1887, 1882, 1886, 1888],
      "WindowCenter": [893.0, 893.0, 893.0, 893.0, 893.0, 893.0, 893.0, 893.0, 893.0, 893.0, 893.0, 893.0, 893.0, 893.0, 893.0, 893.0, 893.0, 893.0, 893.0, 893.0, 893.0, 893.0, 893.0, 893.0, 893.0, 893.0, 893.0, 893.0, 893.0, 893.0, 893.0, 893.0, 893.0, 893.0, 893.0, 893.0, 893.0, 893.0, 893.0, 893.0, 893.0, 893.0, 893.0, 893.0, 893.0, 893.0, 893.0, 893.0, 893.0, 893.0, 893.0, 893.0, 893.0, 893.0, 893.0, 893.0, 893.0, 893.0, 893.0, 893.0, 893.0, 893.0, 893.0, 893.0, 893.0, 893.0, 893.0, 893.0, 893.0, 893.0, 893.0, 893.0, 893.0, 893.0, 893.0, 893.0, 893.0, 893.0, 893.0, 893.0, 893.0, 893.0, 893.0, 893.0, 893.0, 893.0, 894.0, 893.0, 893.0, 893.0, 893.0, 893.0, 893.0, 893.0, 893.0, 893.0, 893.0, 893.0, 893.0, 893.0, 893.0, 893.0, 893.0, 893.0, 893.0, 893.0, 893.0, 893.0, 893.0, 893.0, 893.0, 893.0, 893.0, 893.0, 893.0, 893.0, 893.0, 893.0, 893.0, 893.0, 893.0, 893.0, 893.0, 893.0, 893.0, 893.0, 893.0, 893.0, 893.0, 893.0, 893.0, 893.0, 893.0, 893.0, 893.0, 893.0, 893.0, 893.0, 893.0, 893.0, 893.0, 893.0, 893.0, 893.0, 893.0, 893.0, 893.0, 893.0, 893.0, 893.0, 893.0, 893.0, 893.0, 893.0, 893.0, 893.0, 893.0, 893.0, 893.0, 893.0, 893.0, 893.0, 893.0, 893.0, 893.0, 893.0, 893.0, 893.0, 893.0, 893.0, 893.0, 893.0, 893.0, 893.0, 893.0, 893.0, 893.0, 893.0, 893.0, 893.0, 893.0, 893.0, 893.0, 893.0, 893.0, 893.0, 893.0, 893.0, 893.0, 893.0, 893.0, 893.0, 893.0, 893.0, 893.0, 893.0, 893.0, 893.0, 893.0, 893.0],
      "WindowWidth": [1999.0, 1998.0, 1999.0, 1999.0, 1999.0, 1999.0, 1999.0, 1998.0, 1999.0, 1999.0, 1999.0, 1999.0, 1998.0, 1999.0, 1999.0, 1999.0, 1999.0, 1999.0, 1999.0, 1999.0, 1999.0, 1999.0, 1999.0, 1999.0, 1999.0, 1999.0, 1999.0, 1999.0, 1999.0, 1999.0, 1999.0, 1999.0, 1999.0, 1999.0, 1999.0, 1999.0, 1999.0, 1999.0, 1999.0, 1999.0, 1999.0, 1999.0, 1999.0, 1999.0, 1999.0, 1999.0, 1999.0, 1999.0, 1999.0, 1999.0, 1999.0, 1999.0, 1999.0, 1999.0, 1999.0, 2000.0, 1999.0, 1999.0, 1999.0, 1999.0, 2000.0, 1999.0, 2000.0, 1999.0, 1999.0, 1999.0, 1999.0, 1999.0, 1999.0, 1999.0, 1999.0, 1999.0, 1999.0, 1999.0, 1999.0, 1999.0, 1999.0, 1999.0, 1999.0, 1999.0, 1999.0, 1999.0, 1999.0, 1999.0, 1999.0, 1999.0, 2000.0, 1999.0, 1999.0, 1999.0, 2000.0, 1999.0, 1999.0, 1999.0, 1999.0, 1999.0, 1999.0, 1999.0, 1999.0, 1999.0, 1999.0, 1999.0, 1999.0, 1999.0, 1999.0, 1999.0, 1999.0, 1999.0, 1999.0, 1999.0, 1999.0, 1999.0, 1999.0, 1999.0, 1999.0, 1999.0, 1999.0, 1999.0, 1999.0, 1999.0, 1999.0, 1999.0, 1999.0, 1999.0, 1999.0, 1999.0, 1999.0, 1999.0, 1999.0, 1999.0, 1999.0, 1999.0, 1999.0, 1999.0, 1999.0, 1999.0, 1999.0, 1999.0, 1999.0, 1999.0, 1999.0, 1999.0, 1999.0, 1999.0, 1999.0, 1999.0, 1999.0, 1999.0, 2000.0, 1999.0, 1999.0, 1999.0, 1999.0, 1999.0, 1999.0, 1999.0, 1999.0, 1999.0, 1999.0, 1999.0, 1999.0, 1999.0, 1999.0, 1999.0, 1999.0, 1999.0, 1999.0, 1999.0, 1999.0, 1999.0, 1998.0, 1999.0, 1999.0, 1999.0, 1999.0, 1999.0, 1999.0, 1999.0, 1999.0, 1999.0, 1999.0, 1999.0, 1999.0, 1999.0, 1999.0, 1999.0, 1999.0, 1999.0, 1999.0, 1999.0, 1999.0, 1999.0, 1999.0, 1999.0, 1999.0, 1999.0, 1999.0, 1999.0, 1999.0, 1999.0]
    },
    "slices": {}
  }
}