{
  "AcquisitionMatrixPE": 80,
  "AcquisitionNumber": 1,
  "AcquisitionTime": "09:47:21.202500",
  "BandwidthPerPixelPhaseEncode": 48.077,
  "BaseResolution": 80,
  "BodyPartExamined": "BRAIN",
  "CoilCombinationMethod": "Sum of Squares",
  "ConsistencyInfo": "N4_VE11C_LATEST_20160120",
  "ConversionSoftware": "dcm2niix",
  "ConversionSoftwareVersion": "v1.0.20220720",
  "DerivedVendorReportedEchoSpacing": 0.000519999,
  "DeviceSerialNumber": "66112",
  "DwellTime": 2.7e-06,
  "EchoTime": 0.035,
  "EchoTrainLength": 39,
  "EffectiveEchoSpacing": 0.00026,
  "FlipAngle": 90,
  "HeudiconvVersion": "0.13.1",
  "ImageOrientationPatientDICOM": [0.988126, 0.153437, 0.00801115, -0.148205, 0.938085, 0.313099],
  "ImageOrientationText": "Tra>Cor(18.1)>Sag(-2.3)",
  "ImageType": [
    "ORIGINAL",
    "PRIMARY",
    "M",
    "ND",
    "NORM",
    "MOSAIC"
],
  "ImagingFrequency": 123.252,
  "InPlanePhaseEncodingDirectionDICOM": "COL",
  "InstitutionAddress": "Maynard 3,Hanover,NH,US,03755",
  "InstitutionName": "Dartmouth College - PBS",
  "InstitutionalDepartmentName": "Department",
  "MRAcquisitionType": "2D",
  "MagneticFieldStrength": 3,
  "Manufacturer": "Siemens",
  "ManufacturersModelName": "Prisma",
  "MatrixCoilMode": "GRAPPA",
  "Modality": "MR",
  "NonlinearGradientCorrection": false,
  "ParallelReductionFactorInPlane": 2,
  "PartialFourier": 1,
  "PatientPosition": "HFS",
  "PercentPhaseFOV": 100,
  "PercentSampling": 100,
  "PhaseEncodingDirection": "j-",
  "PhaseEncodingSteps": 79,
  "PhaseResolution": 1,
  "PixelBandwidth": 2315,
  "ProcedureStepDescription": "dbic^QA",
  "ProtocolName": "func-bold_task-rest_acq-p2",
  "PulseSequenceDetails": "%SiemensSeq%\\ep2d_bold",
  "ReceiveCoilActiveElements": "HEA;HEP",
  "ReceiveCoilName": "Head_32",
  "ReconMatrixPE": 80,
  "RefLinesPE": 24,
  "RepetitionTime": 2,
  "SAR": 0.0556066,
  "ScanOptions": "FS",
  "ScanningSequence": "EP",
  "SequenceName": "*epfid2d1_80",
  "SequenceVariant": "SK",
  "SeriesDescription": "func-bold_task-rest_acq-p2",
  "SeriesNumber": 5,
  "ShimSetting": [4147, -7701, -7515, 324, -42, -319, -47, 103],
  "SliceThickness": 3.5,
  "SliceTiming": [0.99, 0, 1.055, 0.065, 1.12, 0.13, 1.1875, 0.1975, 1.2525, 0.2625, 1.32, 0.33, 1.385, 0.395, 1.45, 0.46, 1.5175, 0.5275, 1.5825, 0.5925, 1.65, 0.66, 1.715, 0.725, 1.78, 0.79, 1.8475, 0.8575, 1.9125, 0.9225],
  "SoftwareVersions": "syngo MR E11",
  "SpacingBetweenSlices": 3.99,
  "StationName": "AWP66112",
  "TaskName": "rest",
  "TotalReadoutTime": 0.02054,
  "TxRefAmp": 229.93,
  "dcmmeta_affine": [
    [-2.9643776416778564, -0.44461628794670105, -0.16169854998588562, 139.3478240966797],
    [-0.4603120982646942, 2.814255952835083, 1.2391687631607056, -101.9433822631836],
    [0.024033455178141594, -0.9392971992492676, 3.789249897003174, -36.714115142822266],
    [0.0, 0.0, 0.0, 1.0]
],
  "dcmmeta_reorient_transform": [
    [0.0, -1.0, 0.0, 79.0],
    [1.0, 0.0, 0.0, 0.0],
    [0.0, 0.0, 1.0, 0.0],
    [0.0, 0.0, 0.0, 1.0]
],
  "dcmmeta_shape": [80, 80, 30, 200],
  "dcmmeta_slice_dim": 2,
  "dcmmeta_version": 0.6,
  "global": {
    "const": {
      "AccessionNumber": "qa",
      "AcquisitionMatrix": [80, 0, 0, 80],
      "AngioFlag": "N",
      "BitsAllocated": 16,
      "BitsStored": 12,
      "BodyPartExamined": "BRAIN",
      "Columns": 480,
      "EchoNumbers": 1,
      "EchoTime": 35.0,
      "EchoTrainLength": 39,
      "FlipAngle": 90.0,
      "HighBit": 11,
      "ImageOrientationPatient": [0.98812590124319, 0.15343736421024, 0.00801115201175, -0.1482054332782, 0.93808534690717, 0.31309907611629],
      "ImagePositionPatient": [-608.17541944896, -775.29647369338, -303.58473259935],
      "ImageType": [
        "ORIGINAL",
        "PRIMARY",
        "M",
        "ND",
        "NORM",
        "MOSAIC"
],
      "ImagedNucleus": "1H",
      "ImagingFrequency": 123.25246,
      "InPlanePhaseEncodingDirection": "COL",
      "MRAcquisitionType": "2D",
      "MagneticFieldStrength": 3.0,
      "Manufacturer": "SIEMENS",
      "ManufacturerModelName": "Prisma",
      "Modality": "MR",
      "NumberOfAverages": 1.0,
      "NumberOfPhaseEncodingSteps": 79,
      "PercentPhaseFieldOfView": 100.0,
      "PercentSampling": 100.0,
      "PerformedProcedureStepStartTime": "094556.910000",
      "PhotometricInterpretation": "MONOCHROME2",
      "PixelBandwidth": 2315.0,
      "PixelRepresentation": 0,
      "PixelSpacing": [3.0, 3.0],
      "ProtocolName": "func-bold_task-rest_acq-p2",
      "RepetitionTime": 2000.0,
      "Rows": 480,
      "SAR": 0.05560655508295,
      "SamplesPerPixel": 1,
      "ScanOptions": "FS",
      "ScanningSequence": "EP",
      "SequenceName": "*epfid2d1_80",
      "SequenceVariant": "SK",
      "SeriesDescription": "func-bold_task-rest_acq-p2",
      "SeriesNumber": 5,
      "SeriesTime": "094818.689000",
      "SliceLocation": -72.174522267285,
      "SliceThickness": 3.5,
      "SmallestImagePixelValue": 0,
      "SoftwareVersions": "syngo MR E11",
      "SpacingBetweenSlices": 3.9899999532206,
      "SpecificCharacterSet": "ISO_IR 100",
      "StudyID": "14",
      "StudyTime": "094556.797000",
      "TransmitCoilName": "Body",
      "VariableFlipAngleFlag": "N",
      "WindowCenterWidthExplanation": "Algo1",
      "dBdt": 0.0},
    "slices": {}
  },
  "time": {
    "samples": {
      "AcquisitionNumber": [1, 2, 3, 4, 5, 6, 7, 8, 9, 10, 11, 12, 13, 14, 15, 16, 17, 18, 19, 20, 21, 22, 23, 24, 25, 26, 27, 28, 29, 30, 31, 32, 33, 34, 35, 36, 37, 38, 39, 40, 41, 42, 43, 44, 45, 46, 47, 48, 49, 50, 51, 52, 53, 54, 55, 56, 57, 58, 59, 60, 61, 62, 63, 64, 65, 66, 67, 68, 69, 70, 71, 72, 73, 74, 75, 76, 77, 78, 79, 80, 81, 82, 83, 84, 85, 86, 87, 88, 89, 90, 91, 92, 93, 94, 95, 96, 97, 98, 99, 100, 101, 102, 103, 104, 105, 106, 107, 108, 109, 110, 111, 112, 113, 114, 115, 116, 117, 118, 119, 120, 121, 122, 123, 124, 125, 126, 127, 128, 129, 130, 131, 132, 133, 134, 135, 136, 137, 138, 139, 140, 141, 142, 143, 144, 145, 146, 147, 148, 149, 150, 151, 152, 153, 154, 155, 156, 157, 158, 159, 160, 161, 162, 163, 164, 165, 166, 167, 168, 169, 170, 171, 172, 173, 174, 175, 176, 177, 178, 179, 180, 181, 182, 183, 184, 185, 186, 187, 188, 189, 190, 191, 192, 193, 194, 195, 196, 197, 198, 199, 200],
      "AcquisitionTime": ["094721.202500", "094723.202500", "094725.202500", "094727.202500", "094729.202500", "094731.202500", "094733.202500", "094735.202500", "094737.202500", "094739.202500", "094741.202500", "094743.202500", "094745.202500", "094747.202500", "094749.202500", "094751.202500", "094753.202500", "094755.202500", "094757.202500", "094759.202500", "094801.202500", "094803.202500", "094805.202500", "094807.202500", "094809.202500", "094811.202500", "094813.202500", "094815.202500", "094817.202500", "094819.202500", "094821.202500", "094823.202500", "094825.202500", "094827.202500", "094829.202500", "094831.202500", "094833.202500", "094835.202500", "094837.202500", "094839.202500", "094841.202500", "094843.202500", "094845.202500", "094847.202500", "094849.202500", "094851.202500", "094853.202500", "094855.202500", "094857.202500", "094859.202500", "094901.202500", "094903.202500", "094905.202500", "094907.202500", "094909.202500", "094911.202500", "094913.202500", "094915.202500", "094917.202500", "094919.202500", "094921.202500", "094923.202500", "094925.202500", "094927.202500", "094929.202500", "094931.202500", "094933.202500", "094935.202500", "094937.202500", "094939.202500", "094941.202500", "094943.202500", "094945.202500", "094947.202500", "094949.202500", "094951.202500", "094953.202500", "094955.202500", "094957.202500", "094959.202500", "095001.202500", "095003.202500", "095005.202500", "095007.202500", "095009.202500", "095011.202500", "095013.202500", "095015.202500", "095017.202500", "095019.202500", "095021.202500", "095023.202500", "095025.202500", "095027.202500", "095029.202500", "095031.202500", "095033.202500", "095035.202500", "095037.202500", "095039.202500", "095041.202500", "095043.202500", "095045.202500", "095047.202500", "095049.202500", "095051.202500", "095053.202500", "095055.202500", "095057.202500", "095059.202500", "095101.202500", "095103.202500", "095105.202500", "095107.202500", "095109.202500", "095111.202500", "095113.202500", "095115.202500", "095117.202500", "095119.202500", "095121.202500", "095123.202500", "095125.202500", "095127.202500", "095129.202500", "095131.202500", "095133.202500", "095135.202500", "095137.202500", "095139.202500", "095141.202500", "095143.202500", "095145.202500", "095147.202500", "095149.202500", "095151.202500", "095153.202500", "095155.202500", "095157.202500", "095159.202500", "095201.202500", "095203.202500", "095205.202500", "095207.202500", "095209.202500", "095211.202500", "095213.202500", "095215.202500", "095217.202500", "095219.202500", "095221.202500", "095223.202500", "095225.202500", "095227.202500", "095229.202500", "095231.202500", "095233.202500", "095235.202500", "095237.202500", "095239.202500", "095241.202500", "095243.202500", "095245.202500", "095247.202500", "095249.202500", "095251.202500", "095253.202500", "095255.202500", "095257.202500", "095259.202500", "095301.202500", "095303.202500", "095305.202500", "095307.202500", "095309.202500", "095311.202500", "095313.202500", "095315.202500", "095317.202500", "095319.202500", "095321.202500", "095323.202500", "095325.202500", "095327.202500", "095329.202500", "095331.202500", "095333.202500", "095335.202500", "095337.202500", "095339.202500", "095341.202500", "095343.202500", "095345.202500", "095347.202500", "095349.202500", "095351.202500", "095353.202500", "095355.202500", "095357.202500", "095359.202500"],
      "ContentTime": ["094818.693000", "094818.696000", "094818.699000", "094818.701000", "094818.704000", "094818.706000", "094818.709000", "094818.712000", "094818.720000", "094818.723000", "094818.726000", "094818.728000", "094818.731000", "094818.733000", "094818.736000", "094818.738000", "094818.741000", "094818.743000", "094818.746000", "094818.748000", "094818.751000", "094818.754000", "094818.756000", "094818.759000", "094818.762000", "094818.764000", "094818.767000", "094818.769000", "094858.687000", "094858.690000", "094858.693000", "094858.695000", "094858.698000", "094858.701000", "094858.703000", "094858.706000", "094858.709000", "094858.711000", "094858.714000", "094858.717000", "094858.719000", "094858.722000", "094858.724000", "094858.727000", "094858.729000", "094858.732000", "094858.734000", "094858.737000", "094938.688000", "094938.691000", "094938.694000", "094938.696000", "094938.699000", "094938.702000", "094938.704000", "094938.707000", "094938.709000", "094938.712000", "094938.715000", "094938.717000", "094938.720000", "094938.723000", "094938.725000", "094938.728000", "094938.730000", "094938.733000", "094938.735000", "094938.738000", "095018.687000", "095018.690000", "095018.693000", "095018.695000", "095018.698000", "095018.701000", "095018.703000", "095018.706000", "095018.708000", "095018.711000", "095018.713000", "095018.716000", "095018.719000", "095018.721000", "095018.724000", "095018.727000", "095018.729000", "095018.732000", "095018.734000", "095018.737000", "095058.687000", "095058.690000", "095058.693000", "095058.695000", "095058.698000", "095058.701000", "095058.703000", "095058.706000", "095058.708000", "095058.711000", "095058.714000", "095058.716000", "095058.719000", "095058.721000", "095058.735000", "095058.737000", "095058.740000", "095058.742000", "095058.745000", "095058.748000", "095138.689000", "095138.691000", "095138.694000", "095138.697000", "095138.699000", "095138.702000", "095138.705000", "095138.707000", "095138.710000", "095138.712000", "095138.715000", "095138.718000", "095138.720000", "095138.723000", "095138.725000", "095138.728000", "095138.731000", "095138.733000", "095138.736000", "095138.739000", "095158.688000", "095158.691000", "095158.694000", "095158.697000", "095158.699000", "095158.702000", "095158.704000", "095158.707000", "095158.710000", "095158.712000", "095238.687000", "095238.690000", "095238.693000", "095238.696000", "095238.698000", "095238.701000", "095238.710000", "095238.713000", "095238.715000", "095238.718000", "095238.721000", "095238.723000", "095238.726000", "095238.729000", "095238.731000", "095238.734000", "095238.736000", "095238.739000", "095238.742000", "095238.744000", "095318.687000", "095318.690000", "095318.693000", "095318.696000", "095318.698000", "095318.701000", "095318.704000", "095318.706000", "095318.709000", "095318.711000", "095318.714000", "095318.717000", "095318.719000", "095318.722000", "095318.724000", "095318.727000", "095318.730000", "095318.732000", "095318.735000", "095318.737000", "095358.689000", "095358.691000", "095358.694000", "095358.697000", "095358.699000", "095358.702000", "095358.704000", "095358.707000", "095358.710000", "095358.712000", "095358.715000", "095358.718000", "095358.720000", "095358.723000", "095358.725000", "095358.728000", "095358.731000", "095358.733000", "095358.736000", "095358.738000", "095401.178000", "095401.181000"],
      "InstanceCreationTime": ["094818.693000", "094818.696000", "094818.699000", "094818.701000", "094818.704000", "094818.706000", "094818.709000", "094818.712000", "094818.720000", "094818.723000", "094818.726000", "094818.728000", "094818.731000", "094818.733000", "094818.736000", "094818.738000", "094818.741000", "094818.743000", "094818.746000", "094818.748000", "094818.751000", "094818.754000", "094818.756000", "094818.759000", "094818.762000", "094818.764000", "094818.767000", "094818.769000", "094858.687000", "094858.690000", "094858.693000", "094858.695000", "094858.698000", "094858.701000", "094858.703000", "094858.706000", "094858.709000", "094858.711000", "094858.714000", "094858.717000", "094858.719000", "094858.722000", "094858.724000", "094858.727000", "094858.729000", "094858.732000", "094858.734000", "094858.737000", "094938.688000", "094938.691000", "094938.694000", "094938.696000", "094938.699000", "094938.702000", "094938.704000", "094938.707000", "094938.709000", "094938.712000", "094938.715000", "094938.717000", "094938.720000", "094938.723000", "094938.725000", "094938.728000", "094938.730000", "094938.733000", "094938.735000", "094938.738000", "095018.687000", "095018.690000", "095018.693000", "095018.695000", "095018.698000", "095018.701000", "095018.703000", "095018.706000", "095018.708000", "095018.711000", "095018.713000", "095018.716000", "095018.719000", "095018.721000", "095018.724000", "095018.727000", "095018.729000", "095018.732000", "095018.734000", "095018.737000", "095058.687000", "095058.690000", "095058.693000", "095058.695000", "095058.698000", "095058.701000", "095058.703000", "095058.706000", "095058.708000", "095058.711000", "095058.714000", "095058.716000", "095058.719000", "095058.721000", "095058.735000", "095058.737000", "095058.740000", "095058.742000", "095058.745000", "095058.748000", "095138.689000", "095138.691000", "095138.694000", "095138.697000", "095138.699000", "095138.702000", "095138.705000", "095138.707000", "095138.710000", "095138.712000", "095138.715000", "095138.718000", "095138.720000", "095138.723000", "095138.725000", "095138.728000", "095138.731000", "095138.733000", "095138.736000", "095138.739000", "095158.688000", "095158.691000", "095158.694000", "095158.697000", "095158.699000", "095158.702000", "095158.704000", "095158.707000", "095158.710000", "095158.712000", "095238.687000", "095238.690000", "095238.693000", "095238.696000", "095238.698000", "095238.701000", "095238.710000", "095238.713000", "095238.715000", "095238.718000", "095238.721000", "095238.723000", "095238.726000", "095238.729000", "095238.731000", "095238.734000", "095238.736000", "095238.739000", "095238.742000", "095238.744000", "095318.687000", "095318.690000", "095318.693000", "095318.696000", "095318.698000", "095318.701000", "095318.704000", "095318.706000", "095318.709000", "095318.711000", "095318.714000", "095318.717000", "095318.719000", "095318.722000", "095318.724000", "095318.727000", "095318.730000", "095318.732000", "095318.735000", "095318.737000", "095358.689000", "095358.691000", "095358.694000", "095358.697000", "095358.699000", "095358.702000", "095358.704000", "095358.707000", "095358.710000", "095358.712000", "095358.715000", "095358.718000", "095358.720000", "095358.723000", "095358.725000", "095358.728000", "095358.731000", "095358.733000", "095358.736000", "095358.738000", "095401.178000", "095401.181000"],
      "InstanceNumber": [1, 2, 3, 4, 5, 6, 7, 8, 9, 10, 11, 12, 13, 14, 15, 16, 17, 18, 19, 20, 21, 22, 23, 24, 25, 26, 27, 28, 29, 30, 31, 32, 33, 34, 35, 36, 37, 38, 39, 40, 41, 42, 43, 44, 45, 46, 47, 48, 49, 50, 51, 52, 53, 54, 55, 56, 57, 58, 59, 60, 61, 62, 63, 64, 65, 66, 67, 68, 69, 70, 71, 72, 73, 74, 75, 76, 77, 78, 79, 80, 81, 82, 83, 84, 85, 86, 87, 88, 89, 90, 91, 92, 93, 94, 95, 96, 97, 98, 99, 100, 101, 102, 103, 104, 105, 106, 107, 108, 109, 110, 111, 112, 113, 114, 115, 116, 117, 118, 119, 120, 121, 122, 123, 124, 125, 126, 127, 128, 129, 130, 131, 132, 133, 134, 135, 136, 137, 138, 139, 140, 141, 142, 143, 144, 145, 146, 147, 148, 149, 150, 151, 152, 153, 154, 155, 156, 157, 158, 159, 160, 161, 162, 163, 164, 165, 166, 167, 168, 169, 170, 171, 172, 173, 174, 175, 176, 177, 178, 179, 180, 181, 182, 183, 184, 185, 186, 187, 188, 189, 190, 191, 192, 193, 194, 195, 196, 197, 198, 199, 200],
      "LargestImagePixelValue": [1895, 1898, 1896, 1900, 1895, 1893, 1901, 1893, 1891, 1895, 1895, 1895, 1891, 1897, 1897, 1895, 1894, 1884, 1887, 1892, 1885, 1890, 1891, 1890, 1889, 1890, 1890, 1884, 1892, 1892, 1885, 1897, 1890, 1900, 1886, 1890, 1884, 1887, 1893, 1883, 1882, 1884, 1885, 1884, 1896, 1888, 1887, 1891, 1889, 1895, 1884, 1891, 1882, 1892, 1891, 1883, 1890, 1887, 1888, 1886, 1887, 1888, 1894, 1900, 1893, 1891, 1902, 1901, 1896, 1891, 1892, 1893, 1876, 1895, 1886, 1884, 1885, 1896, 1889, 1877, 1891, 1881, 1884, 1895, 1889, 1884, 1876, 1891, 1880, 1883, 1885, 1894, 1889, 1885, 1889, 1883, 1876, 1900, 1889, 1890, 1893, 1884, 1890, 1897, 1897, 1886, 1900, 1886, 1897, 1892, 1895, 1893, 1893, 1889, 1890, 1888, 1889, 1890, 1894, 1890, 1895, 1895, 1891, 1883, 1895, 1895, 1889, 1899, 1887, 1893, 1895, 1894, 1895, 1899, 1895, 1891, 1895, 1888, 1887, 1893, 1885, 1898, 1892, 1888, 1894, 1891, 1887, 1894, 1891, 1896, 1890, 1889, 1891, 1894, 1898, 1893, 1892, 1897, 1893, 1888, 1893, 1884, 1899, 1893, 1884, 1892, 1889, 1892, 1886, 1884, 1891, 1897, 1887, 1892, 1887, 1896, 1891, 1890, 1896, 1900, 1888, 1891, 1897, 1895, 1897, 1897, 1886, 1895, 1892, 1895, 1886, 1897, 1889, 1893, 1887, 1888, 1897, 1889, 1896, 1886],
      "WindowCenter": [952.0, 952.0, 952.0, 952.0, 952.0, 952.0, 953.0, 952.0, 954.0, 952.0, 953.0, 953.0, 953.0, 953.0, 953.0, 952.0, 952.0, 953.0, 952.0, 952.0, 952.0, 952.0, 952.0, 952.0, 953.0, 952.0, 952.0, 953.0, 954.0, 952.0, 952.0, 953.0, 953.0, 952.0, 953.0, 953.0, 953.0, 952.0, 953.0, 952.0, 952.0, 952.0, 952.0, 952.0, 953.0, 953.0, 953.0, 952.0, 953.0, 952.0, 952.0, 952.0, 952.0, 953.0, 952.0, 952.0, 952.0, 953.0, 952.0, 953.0, 952.0, 952.0, 952.0, 953.0, 952.0, 952.0, 952.0, 952.0, 952.0, 952.0, 952.0, 952.0, 952.0, 952.0, 952.0, 952.0, 952.0, 952.0, 952.0, 952.0, 952.0, 952.0, 952.0, 952.0, 952.0, 952.0, 952.0, 952.0, 952.0, 953.0, 952.0, 952.0, 952.0, 952.0, 952.0, 952.0, 952.0, 952.0, 952.0, 952.0, 952.0, 952.0, 952.0, 952.0, 953.0, 952.0, 952.0, 952.0, 952.0, 952.0, 952.0, 952.0, 952.0, 952.0, 953.0, 952.0, 952.0, 952.0, 952.0, 952.0, 952.0, 951.0, 951.0, 952.0, 952.0, 951.0, 952.0, 951.0, 951.0, 951.0, 952.0, 952.0, 953.0, 952.0, 953.0, 952.0, 952.0, 952.0, 952.0, 951.0, 953.0, 952.0, 951.0, 952.0, 951.0, 952.0, 951.0, 951.0, 952.0, 951.0, 953.0, 951.0, 952.0, 951.0, 952.0, 951.0, 951.0, 952.0, 952.0, 951.0, 951.0, 951.0, 951.0, 951.0, 951.0, 952.0, 951.0, 952.0, 953.0, 951.0, 951.0, 951.0, 951.0, 952.0, 952.0, 951.0, 951.0, 951.0, 951.0, 952.0, 951.0, 952.0, 953.0, 952.0, 951.0, 952.0, 951.0, 951.0, 953.0, 952.0, 952.0, 952.0, 951.0, 951.0, 952.0, 951.0, 951.0, 952.0, 951.0, 951.0],
      "WindowWidth": [2060.0, 2060.0, 2060.0, 2060.0, 2060.0, 2061.0, 2061.0, 2061.0, 2061.0, 2060.0, 2061.0, 2061.0, 2061.0, 2061.0, 2061.0, 2060.0, 2060.0, 2061.0, 2060.0, 2060.0, 2060.0, 2060.0, 2060.0, 2061.0, 2061.0, 2060.0, 2060.0, 2061.0, 2062.0, 2060.0, 2060.0, 2061.0, 2061.0, 2060.0, 2061.0, 2061.0, 2061.0, 2060.0, 2061.0, 2060.0, 2060.0, 2060.0, 2060.0, 2060.0, 2060.0, 2060.0, 2060.0, 2060.0, 2060.0, 2060.0, 2059.0, 2060.0, 2059.0, 2060.0, 2059.0, 2059.0, 2059.0, 2059.0, 2059.0, 2059.0, 2059.0, 2060.0, 2060.0, 2060.0, 2060.0, 2059.0, 2060.0, 2059.0, 2059.0, 2059.0, 2059.0, 2059.0, 2059.0, 2059.0, 2058.0, 2059.0, 2058.0, 2058.0, 2059.0, 2059.0, 2058.0, 2058.0, 2058.0, 2059.0, 2058.0, 2059.0, 2059.0, 2058.0, 2058.0, 2060.0, 2059.0, 2059.0, 2058.0, 2058.0, 2059.0, 2058.0, 2058.0, 2059.0, 2058.0, 2058.0, 2059.0, 2059.0, 2059.0, 2059.0, 2060.0, 2058.0, 2059.0, 2058.0, 2059.0, 2059.0, 2059.0, 2059.0, 2059.0, 2059.0, 2059.0, 2058.0, 2058.0, 2058.0, 2059.0, 2058.0, 2058.0, 2058.0, 2058.0, 2058.0, 2059.0, 2058.0, 2058.0, 2058.0, 2057.0, 2057.0, 2058.0, 2058.0, 2059.0, 2058.0, 2059.0, 2058.0, 2058.0, 2058.0, 2058.0, 2057.0, 2058.0, 2058.0, 2057.0, 2058.0, 2058.0, 2058.0, 2057.0, 2057.0, 2058.0, 2057.0, 2058.0, 2057.0, 2058.0, 2057.0, 2058.0, 2057.0, 2057.0, 2058.0, 2058.0, 2057.0, 2057.0, 2057.0, 2057.0, 2057.0, 2057.0, 2057.0, 2057.0, 2057.0, 2058.0, 2057.0, 2057.0, 2057.0, 2057.0, 2057.0, 2057.0, 2057.0, 2057.0, 2057.0, 2057.0, 2057.0, 2057.0, 2057.0, 2058.0, 2057.0, 2057.0, 2057.0, 2057.0, 2057.0, 2058.0, 2057.0, 2057.0, 2057.0, 2057.0, 2057.0, 2057.0, 2057.0, 2057.0, 2057.0, 2057.0, 2057.0]
    },
    "slices": {}
  }
}