{
  "AcquisitionMatrixPE": 80,
  "AcquisitionNumber": 1,
  "AcquisitionTime": "09:11:54.195000",
  "BandwidthPerPixelPhaseEncode": 48.077,
  "BaseResolution": 80,
  "BodyPartExamined": "BRAIN",
  "CoilCombinationMethod": "Sum of Squares",
  "ConsistencyInfo": "N4_VE11C_LATEST_20160120",
  "ConversionSoftware": "dcm2niix",
  "ConversionSoftwareVersion": "v1.0.20220720",
  "DerivedVendorReportedEchoSpacing": 0.000519999,
  "DeviceSerialNumber": "66112",
  "DwellTime": 2.7e-06,
  "EchoTime": 0.035,
  "EchoTrainLength": 39,
  "EffectiveEchoSpacing": 0.00026,
  "FlipAngle": 90,
  "HeudiconvVersion": "0.13.1",
  "ImageOrientationPatientDICOM": [0.972311, 0.233447, 0.0107183, -0.225727, 0.926308, 0.301665],
  "ImageOrientationText": "Tra>Cor(17.2)>Sag(-3.5)",
  "ImageType": [
    "ORIGINAL",
    "PRIMARY",
    "M",
    "ND",
    "NORM",
    "MOSAIC"
],
  "ImagingFrequency": 123.252,
  "InPlanePhaseEncodingDirectionDICOM": "COL",
  "InstitutionAddress": "Maynard 3,Hanover,NH,US,03755",
  "InstitutionName": "Dartmouth College - PBS",
  "InstitutionalDepartmentName": "Department",
  "MRAcquisitionType": "2D",
  "MagneticFieldStrength": 3,
  "Manufacturer": "Siemens",
  "ManufacturersModelName": "Prisma",
  "MatrixCoilMode": "GRAPPA",
  "Modality": "MR",
  "NonlinearGradientCorrection": false,
  "ParallelReductionFactorInPlane": 2,
  "PartialFourier": 1,
  "PatientPosition": "HFS",
  "PercentPhaseFOV": 100,
  "PercentSampling": 100,
  "PhaseEncodingDirection": "j-",
  "PhaseEncodingSteps": 79,
  "PhaseResolution": 1,
  "PixelBandwidth": 2315,
  "ProcedureStepDescription": "dbic^QA",
  "ProtocolName": "func-bold_task-rest_acq-p2",
  "PulseSequenceDetails": "%SiemensSeq%\\ep2d_bold",
  "ReceiveCoilActiveElements": "HEA;HEP",
  "ReceiveCoilName": "Head_32",
  "ReconMatrixPE": 80,
  "RefLinesPE": 24,
  "RepetitionTime": 2,
  "SAR": 0.055688,
  "ScanOptions": "FS",
  "ScanningSequence": "EP",
  "SequenceName": "*epfid2d1_80",
  "SequenceVariant": "SK",
  "SeriesDescription": "func-bold_task-rest_acq-p2",
  "SeriesNumber": 5,
  "ShimSetting": [4146, -7691, -7509, 270, -57, -124, -41, 53],
  "SliceThickness": 3.5,
  "SliceTiming": [0.99, 0, 1.055, 0.065, 1.1225, 0.1325, 1.1875, 0.1975, 1.255, 0.265, 1.32, 0.33, 1.385, 0.395, 1.4525, 0.4625, 1.5175, 0.5275, 1.5825, 0.595, 1.65, 0.66, 1.715, 0.725, 1.7825, 0.7925, 1.8475, 0.8575, 1.9125, 0.925],
  "SoftwareVersions": "syngo MR E11",
  "SpacingBetweenSlices": 3.99,
  "StationName": "AWP66112",
  "TaskName": "rest",
  "TotalReadoutTime": 0.02054,
  "TxRefAmp": 235.115,
  "dcmmeta_affine": [
    [-2.916931629180908, -0.6771812438964844, -0.24137155711650848, 148.57933044433594],
    [-0.7003401517868042, 2.7789227962493896, 1.179966926574707, -92.19454193115234],
    [0.03215503320097923, -0.9049937129020691, 3.803881883621216, -14.615610122680664],
    [0.0, 0.0, 0.0, 1.0]
],
  "dcmmeta_reorient_transform": [
    [0.0, -1.0, 0.0, 79.0],
    [1.0, 0.0, 0.0, 0.0],
    [0.0, 0.0, 1.0, 0.0],
    [0.0, 0.0, 0.0, 1.0]
],
  "dcmmeta_shape": [80, 80, 30, 200],
  "dcmmeta_slice_dim": 2,
  "dcmmeta_version": 0.6,
  "global": {
    "const": {
      "AccessionNumber": "qa",
      "AcquisitionMatrix": [80, 0, 0, 80],
      "AngioFlag": "N",
      "BitsAllocated": 16,
      "BitsStored": 12,
      "BodyPartExamined": "BRAIN",
      "Columns": 480,
      "EchoNumbers": 1,
      "EchoTime": 35.0,
      "EchoTrainLength": 39,
      "FlipAngle": 90.0,
      "HighBit": 11,
      "ImageOrientationPatient": [0.97231051763003, 0.23344672711769, 0.01071834427818, -0.2257270878754, 0.92630759714586, 0.30166457741861],
      "ImagePositionPatient": [-543.03207238735, -823.19295046774, -273.53986820298],
      "ImageType": [
        "ORIGINAL",
        "PRIMARY",
        "M",
        "ND",
        "NORM",
        "MOSAIC"
],
      "ImagedNucleus": "1H",
      "ImagingFrequency": 123.252459,
      "InPlanePhaseEncodingDirection": "COL",
      "MRAcquisitionType": "2D",
      "MagneticFieldStrength": 3.0,
      "Manufacturer": "SIEMENS",
      "ManufacturerModelName": "Prisma",
      "Modality": "MR",
      "NumberOfAverages": 1.0,
      "NumberOfPhaseEncodingSteps": 79,
      "PercentPhaseFieldOfView": 100.0,
      "PercentSampling": 100.0,
      "PerformedProcedureStepStartTime": "090057.598000",
      "PhotometricInterpretation": "MONOCHROME2",
      "PixelBandwidth": 2315.0,
      "PixelRepresentation": 0,
      "PixelSpacing": [3.0, 3.0],
      "ProtocolName": "func-bold_task-rest_acq-p2",
      "RepetitionTime": 2000.0,
      "Rows": 480,
      "SAR": 0.05568795449181,
      "SamplesPerPixel": 1,
      "ScanOptions": "FS",
      "ScanningSequence": "EP",
      "SequenceName": "*epfid2d1_80",
      "SequenceVariant": "SK",
      "SeriesDescription": "func-bold_task-rest_acq-p2",
      "SeriesNumber": 5,
      "SeriesTime": "091235.242000",
      "SliceLocation": -50.186816018146,
      "SliceThickness": 3.5,
      "SmallestImagePixelValue": 0,
      "SoftwareVersions": "syngo MR E11",
      "SpacingBetweenSlices": 3.9900000026109,
      "SpecificCharacterSet": "ISO_IR 100",
      "StudyID": "108",
      "StudyTime": "090057.517000",
      "TransmitCoilName": "Body",
      "VariableFlipAngleFlag": "N",
      "WindowCenterWidthExplanation": "Algo1",
      "dBdt": 0.0},
    "slices": {}
  },
  "time": {
    "samples": {
      "AcquisitionNumber": [1, 2, 3, 4, 5, 6, 7, 8, 9, 10, 11, 12, 13, 14, 15, 16, 17, 18, 19, 20, 21, 22, 23, 24, 25, 26, 27, 28, 29, 30, 31, 32, 33, 34, 35, 36, 37, 38, 39, 40, 41, 42, 43, 44, 45, 46, 47, 48, 49, 50, 51, 52, 53, 54, 55, 56, 57, 58, 59, 60, 61, 62, 63, 64, 65, 66, 67, 68, 69, 70, 71, 72, 73, 74, 75, 76, 77, 78, 79, 80, 81, 82, 83, 84, 85, 86, 87, 88, 89, 90, 91, 92, 93, 94, 95, 96, 97, 98, 99, 100, 101, 102, 103, 104, 105, 106, 107, 108, 109, 110, 111, 112, 113, 114, 115, 116, 117, 118, 119, 120, 121, 122, 123, 124, 125, 126, 127, 128, 129, 130, 131, 132, 133, 134, 135, 136, 137, 138, 139, 140, 141, 142, 143, 144, 145, 146, 147, 148, 149, 150, 151, 152, 153, 154, 155, 156, 157, 158, 159, 160, 161, 162, 163, 164, 165, 166, 167, 168, 169, 170, 171, 172, 173, 174, 175, 176, 177, 178, 179, 180, 181, 182, 183, 184, 185, 186, 187, 188, 189, 190, 191, 192, 193, 194, 195, 196, 197, 198, 199, 200],
      "AcquisitionTime": ["091154.195000", "091156.195000", "091158.195000", "091200.195000", "091202.195000", "091204.195000", "091206.195000", "091208.195000", "091210.195000", "091212.195000", "091214.195000", "091216.195000", "091218.195000", "091220.195000", "091222.195000", "091224.195000", "091226.195000", "091228.195000", "091230.195000", "091232.195000", "091234.195000", "091236.195000", "091238.195000", "091240.195000", "091242.195000", "091244.195000", "091246.195000", "091248.195000", "091250.195000", "091252.195000", "091254.195000", "091256.195000", "091258.195000", "091300.195000", "091302.195000", "091304.195000", "091306.195000", "091308.195000", "091310.195000", "091312.195000", "091314.195000", "091316.195000", "091318.195000", "091320.195000", "091322.195000", "091324.195000", "091326.195000", "091328.195000", "091330.195000", "091332.195000", "091334.195000", "091336.195000", "091338.195000", "091340.195000", "091342.195000", "091344.195000", "091346.195000", "091348.195000", "091350.195000", "091352.195000", "091354.195000", "091356.195000", "091358.195000", "091400.195000", "091402.195000", "091404.195000", "091406.195000", "091408.195000", "091410.195000", "091412.195000", "091414.195000", "091416.195000", "091418.195000", "091420.195000", "091422.195000", "091424.195000", "091426.195000", "091428.195000", "091430.195000", "091432.195000", "091434.195000", "091436.195000", "091438.195000", "091440.195000", "091442.195000", "091444.195000", "091446.195000", "091448.195000", "091450.195000", "091452.195000", "091454.195000", "091456.195000", "091458.195000", "091500.195000", "091502.195000", "091504.195000", "091506.195000", "091508.195000", "091510.195000", "091512.195000", "091514.195000", "091516.195000", "091518.195000", "091520.195000", "091522.195000", "091524.195000", "091526.195000", "091528.195000", "091530.195000", "091532.195000", "091534.195000", "091536.195000", "091538.195000", "091540.195000", "091542.195000", "091544.195000", "091546.195000", "091548.195000", "091550.195000", "091552.195000", "091554.195000", "091556.195000", "091558.195000", "091600.195000", "091602.195000", "091604.195000", "091606.195000", "091608.195000", "091610.195000", "091612.195000", "091614.195000", "091616.195000", "091618.195000", "091620.195000", "091622.195000", "091624.195000", "091626.195000", "091628.195000", "091630.195000", "091632.195000", "091634.195000", "091636.195000", "091638.195000", "091640.195000", "091642.195000", "091644.195000", "091646.195000", "091648.195000", "091650.195000", "091652.195000", "091654.195000", "091656.195000", "091658.195000", "091700.195000", "091702.195000", "091704.195000", "091706.195000", "091708.195000", "091710.195000", "091712.195000", "091714.195000", "091716.195000", "091718.195000", "091720.195000", "091722.195000", "091724.195000", "091726.195000", "091728.195000", "091730.195000", "091732.195000", "091734.195000", "091736.195000", "091738.195000", "091740.195000", "091742.195000", "091744.195000", "091746.195000", "091748.195000", "091750.195000", "091752.195000", "091754.195000", "091756.195000", "091758.195000", "091800.195000", "091802.195000", "091804.195000", "091806.195000", "091808.195000", "091810.195000", "091812.195000", "091814.195000", "091816.195000", "091818.195000", "091820.195000", "091822.195000", "091824.195000", "091826.195000", "091828.195000", "091830.195000", "091832.195000"],
      "ContentTime": ["091235.247000", "091235.250000", "091235.253000", "091235.255000", "091235.258000", "091235.261000", "091235.263000", "091235.266000", "091235.268000", "091235.271000", "091235.273000", "091235.276000", "091235.289000", "091235.292000", "091235.295000", "091235.297000", "091235.300000", "091235.303000", "091235.305000", "091235.308000", "091315.241000", "091315.243000", "091315.246000", "091315.249000", "091315.251000", "091315.254000", "091315.256000", "091315.259000", "091315.261000", "091315.264000", "091315.267000", "091315.269000", "091315.272000", "091315.274000", "091315.277000", "091315.279000", "091315.282000", "091315.285000", "091315.287000", "091315.290000", "091355.240000", "091355.242000", "091355.245000", "091355.248000", "091355.250000", "091355.253000", "091355.255000", "091355.258000", "091355.261000", "091355.263000", "091355.266000", "091355.268000", "091355.271000", "091355.274000", "091355.276000", "091355.279000", "091355.281000", "091355.284000", "091355.286000", "091355.289000", "091435.241000", "091435.243000", "091435.246000", "091435.249000", "091435.251000", "091435.254000", "091435.256000", "091435.259000", "091435.262000", "091435.264000", "091435.267000", "091435.269000", "091435.272000", "091435.274000", "091435.277000", "091435.280000", "091435.282000", "091435.285000", "091435.288000", "091435.291000", "091515.241000", "091515.243000", "091515.246000", "091515.249000", "091515.251000", "091515.254000", "091515.256000", "091515.259000", "091515.261000", "091515.264000", "091515.267000", "091515.269000", "091515.272000", "091515.274000", "091515.277000", "091515.279000", "091515.282000", "091515.285000", "091515.287000", "091515.290000", "091555.241000", "091555.244000", "091555.246000", "091555.259000", "091555.262000", "091555.265000", "091555.267000", "091555.270000", "091555.272000", "091555.275000", "091555.277000", "091555.280000", "091555.282000", "091555.285000", "091555.288000", "091555.290000", "091555.293000", "091555.295000", "091555.298000", "091555.301000", "091635.240000", "091635.242000", "091635.245000", "091635.248000", "091635.250000", "091635.253000", "091635.255000", "091635.258000", "091635.261000", "091635.263000", "091635.266000", "091635.268000", "091635.271000", "091635.273000", "091635.276000", "091635.279000", "091635.281000", "091635.285000", "091635.287000", "091635.290000", "091715.240000", "091715.243000", "091715.246000", "091715.249000", "091715.251000", "091715.254000", "091715.256000", "091715.259000", "091715.261000", "091715.264000", "091715.267000", "091715.269000", "091715.272000", "091715.274000", "091715.277000", "091715.279000", "091715.282000", "091715.285000", "091715.287000", "091715.290000", "091755.241000", "091755.244000", "091755.246000", "091755.249000", "091755.251000", "091755.254000", "091755.257000", "091755.259000", "091755.262000", "091755.264000", "091755.267000", "091755.269000", "091755.272000", "091755.274000", "091755.277000", "091755.280000", "091755.282000", "091755.285000", "091755.287000", "091755.290000", "091833.666000", "091833.669000", "091833.672000", "091833.675000", "091833.677000", "091833.680000", "091833.682000", "091833.685000", "091833.688000", "091833.690000", "091833.693000", "091833.697000", "091833.702000", "091833.706000", "091833.709000", "091833.716000", "091833.719000", "091833.722000", "091833.724000", "091833.727000"],
      "InstanceCreationTime": ["091235.247000", "091235.250000", "091235.253000", "091235.255000", "091235.258000", "091235.261000", "091235.263000", "091235.266000", "091235.268000", "091235.271000", "091235.273000", "091235.276000", "091235.289000", "091235.292000", "091235.295000", "091235.297000", "091235.300000", "091235.303000", "091235.305000", "091235.308000", "091315.241000", "091315.243000", "091315.246000", "091315.249000", "091315.251000", "091315.254000", "091315.256000", "091315.259000", "091315.261000", "091315.264000", "091315.267000", "091315.269000", "091315.272000", "091315.274000", "091315.277000", "091315.279000", "091315.282000", "091315.285000", "091315.287000", "091315.290000", "091355.240000", "091355.242000", "091355.245000", "091355.248000", "091355.250000", "091355.253000", "091355.255000", "091355.258000", "091355.261000", "091355.263000", "091355.266000", "091355.268000", "091355.271000", "091355.274000", "091355.276000", "091355.279000", "091355.281000", "091355.284000", "091355.286000", "091355.289000", "091435.241000", "091435.243000", "091435.246000", "091435.249000", "091435.251000", "091435.254000", "091435.256000", "091435.259000", "091435.262000", "091435.264000", "091435.267000", "091435.269000", "091435.272000", "091435.274000", "091435.277000", "091435.280000", "091435.282000", "091435.285000", "091435.288000", "091435.291000", "091515.241000", "091515.243000", "091515.246000", "091515.249000", "091515.251000", "091515.254000", "091515.256000", "091515.259000", "091515.261000", "091515.264000", "091515.267000", "091515.269000", "091515.272000", "091515.274000", "091515.277000", "091515.279000", "091515.282000", "091515.285000", "091515.287000", "091515.290000", "091555.241000", "091555.244000", "091555.246000", "091555.259000", "091555.262000", "091555.265000", "091555.267000", "091555.270000", "091555.272000", "091555.275000", "091555.277000", "091555.280000", "091555.282000", "091555.285000", "091555.288000", "091555.290000", "091555.293000", "091555.295000", "091555.298000", "091555.301000", "091635.240000", "091635.242000", "091635.245000", "091635.248000", "091635.250000", "091635.253000", "091635.255000", "091635.258000", "091635.261000", "091635.263000", "091635.266000", "091635.268000", "091635.271000", "091635.273000", "091635.276000", "091635.279000", "091635.281000", "091635.285000", "091635.287000", "091635.290000", "091715.240000", "091715.243000", "091715.246000", "091715.249000", "091715.251000", "091715.254000", "091715.256000", "091715.259000", "091715.261000", "091715.264000", "091715.267000", "091715.269000", "091715.272000", "091715.274000", "091715.277000", "091715.279000", "091715.282000", "091715.285000", "091715.287000", "091715.290000", "091755.241000", "091755.244000", "091755.246000", "091755.249000", "091755.251000", "091755.254000", "091755.257000", "091755.259000", "091755.262000", "091755.264000", "091755.267000", "091755.269000", "091755.272000", "091755.274000", "091755.277000", "091755.280000", "091755.282000", "091755.285000", "091755.287000", "091755.290000", "091833.666000", "091833.669000", "091833.672000", "091833.675000", "091833.677000", "091833.680000", "091833.682000", "091833.685000", "091833.688000", "091833.690000", "091833.693000", "091833.697000", "091833.702000", "091833.706000", "091833.709000", "091833.716000", "091833.719000", "091833.722000", "091833.724000", "091833.727000"],
      "InstanceNumber": [1, 2, 3, 4, 5, 6, 7, 8, 9, 10, 11, 12, 13, 14, 15, 16, 17, 18, 19, 20, 21, 22, 23, 24, 25, 26, 27, 28, 29, 30, 31, 32, 33, 34, 35, 36, 37, 38, 39, 40, 41, 42, 43, 44, 45, 46, 47, 48, 49, 50, 51, 52, 53, 54, 55, 56, 57, 58, 59, 60, 61, 62, 63, 64, 65, 66, 67, 68, 69, 70, 71, 72, 73, 74, 75, 76, 77, 78, 79, 80, 81, 82, 83, 84, 85, 86, 87, 88, 89, 90, 91, 92, 93, 94, 95, 96, 97, 98, 99, 100, 101, 102, 103, 104, 105, 106, 107, 108, 109, 110, 111, 112, 113, 114, 115, 116, 117, 118, 119, 120, 121, 122, 123, 124, 125, 126, 127, 128, 129, 130, 131, 132, 133, 134, 135, 136, 137, 138, 139, 140, 141, 142, 143, 144, 145, 146, 147, 148, 149, 150, 151, 152, 153, 154, 155, 156, 157, 158, 159, 160, 161, 162, 163, 164, 165, 166, 167, 168, 169, 170, 171, 172, 173, 174, 175, 176, 177, 178, 179, 180, 181, 182, 183, 184, 185, 186, 187, 188, 189, 190, 191, 192, 193, 194, 195, 196, 197, 198, 199, 200],
      "LargestImagePixelValue": [2036, 2025, 2020, 2021, 2021, 2018, 2022, 2034, 2024, 2023, 2026, 2029, 2027, 2020, 2028, 2016, 2019, 2014, 2014, 2025, 2026, 2024, 2025, 2024, 2023, 2016, 2016, 2022, 2021, 2020, 2025, 2018, 2024, 2025, 2019, 2017, 2025, 2021, 2024, 2017, 2026, 2026, 2019, 2022, 2021, 2017, 2024, 2019, 2025, 2025, 2024, 2019, 2016, 2021, 2012, 2007, 2005, 2017, 2003, 2016, 2011, 2013, 2011, 2018, 2015, 2015, 2017, 2010, 2015, 2016, 2019, 2020, 2029, 2023, 2016, 2021, 2025, 2029, 2026, 2022, 2021, 2025, 2018, 2020, 2022, 2021, 2021, 2024, 2015, 2028, 2014, 2020, 2016, 2014, 2020, 2024, 2024, 2025, 2017, 2024, 2025, 2019, 2027, 2025, 2018, 2014, 2006, 2014, 2018, 2019, 2020, 2026, 2019, 2020, 2013, 2014, 2018, 2008, 2019, 2013, 2007, 2010, 1999, 2011, 2013, 2008, 2013, 2018, 2012, 2012, 2008, 2013, 2021, 2010, 2006, 2015, 2018, 2017, 2014, 2006, 2012, 2007, 2008, 2000, 2002, 1997, 2003, 2001, 2009, 2005, 2005, 2014, 2013, 2013, 2014, 2014, 2007, 2001, 2006, 2004, 2009, 2009, 2015, 2015, 2017, 2014, 2012, 2010, 2014, 2016, 2016, 2014, 2014, 2009, 2015, 2012, 2024, 2022, 2023, 2014, 2021, 2010, 2021, 2018, 2017, 2014, 2018, 2014, 2019, 2018, 2013, 2007, 2014, 2001, 2005, 2004, 2007, 2009, 2020, 2015],
      "WindowCenter": [979.0, 979.0, 979.0, 979.0, 979.0, 979.0, 979.0, 979.0, 979.0, 979.0, 979.0, 979.0, 979.0, 979.0, 979.0, 979.0, 979.0, 979.0, 979.0, 979.0, 979.0, 979.0, 978.0, 979.0, 979.0, 979.0, 979.0, 978.0, 979.0, 979.0, 979.0, 979.0, 979.0, 978.0, 979.0, 979.0, 978.0, 979.0, 979.0, 978.0, 978.0, 978.0, 978.0, 978.0, 978.0, 979.0, 978.0, 978.0, 978.0, 978.0, 978.0, 978.0, 978.0, 979.0, 978.0, 978.0, 978.0, 978.0, 978.0, 978.0, 978.0, 978.0, 978.0, 978.0, 978.0, 978.0, 978.0, 979.0, 978.0, 978.0, 978.0, 978.0, 978.0, 978.0, 978.0, 978.0, 978.0, 978.0, 978.0, 978.0, 978.0, 978.0, 978.0, 978.0, 978.0, 978.0, 978.0, 978.0, 978.0, 978.0, 978.0, 978.0, 978.0, 978.0, 978.0, 978.0, 978.0, 979.0, 979.0, 978.0, 978.0, 978.0, 978.0, 978.0, 978.0, 978.0, 978.0, 979.0, 979.0, 978.0, 978.0, 978.0, 978.0, 978.0, 978.0, 978.0, 978.0, 978.0, 978.0, 979.0, 978.0, 979.0, 978.0, 978.0, 978.0, 979.0, 978.0, 978.0, 979.0, 978.0, 978.0, 978.0, 978.0, 978.0, 978.0, 980.0, 978.0, 978.0, 978.0, 978.0, 978.0, 979.0, 978.0, 978.0, 978.0, 978.0, 978.0, 978.0, 978.0, 978.0, 978.0, 978.0, 979.0, 979.0, 978.0, 978.0, 978.0, 979.0, 978.0, 978.0, 978.0, 978.0, 978.0, 978.0, 978.0, 978.0, 978.0, 978.0, 978.0, 978.0, 978.0, 978.0, 978.0, 978.0, 978.0, 978.0, 978.0, 978.0, 978.0, 978.0, 979.0, 979.0, 978.0, 978.0, 978.0, 979.0, 978.0, 979.0, 978.0, 978.0, 978.0, 978.0, 978.0, 978.0, 978.0, 978.0, 978.0, 978.0, 978.0, 978.0],
      "WindowWidth": [2131.0, 2130.0, 2131.0, 2130.0, 2130.0, 2130.0, 2130.0, 2130.0, 2130.0, 2130.0, 2130.0, 2130.0, 2130.0, 2130.0, 2130.0, 2130.0, 2130.0, 2130.0, 2130.0, 2130.0, 2130.0, 2130.0, 2130.0, 2130.0, 2130.0, 2130.0, 2130.0, 2130.0, 2130.0, 2130.0, 2130.0, 2130.0, 2130.0, 2130.0, 2130.0, 2130.0, 2130.0, 2130.0, 2130.0, 2130.0, 2130.0, 2130.0, 2130.0, 2130.0, 2130.0, 2130.0, 2130.0, 2131.0, 2130.0, 2131.0, 2130.0, 2131.0, 2131.0, 2131.0, 2131.0, 2131.0, 2131.0, 2131.0, 2131.0, 2131.0, 2131.0, 2131.0, 2131.0, 2131.0, 2130.0, 2131.0, 2130.0, 2131.0, 2130.0, 2130.0, 2131.0, 2131.0, 2131.0, 2131.0, 2131.0, 2131.0, 2130.0, 2131.0, 2131.0, 2131.0, 2130.0, 2131.0, 2131.0, 2131.0, 2131.0, 2131.0, 2131.0, 2131.0, 2131.0, 2131.0, 2131.0, 2131.0, 2131.0, 2131.0, 2131.0, 2131.0, 2131.0, 2132.0, 2131.0, 2131.0, 2131.0, 2131.0, 2131.0, 2131.0, 2131.0, 2131.0, 2131.0, 2132.0, 2132.0, 2131.0, 2131.0, 2131.0, 2131.0, 2131.0, 2131.0, 2131.0, 2131.0, 2131.0, 2131.0, 2132.0, 2131.0, 2132.0, 2131.0, 2131.0, 2131.0, 2132.0, 2131.0, 2131.0, 2132.0, 2131.0, 2131.0, 2131.0, 2131.0, 2131.0, 2131.0, 2133.0, 2131.0, 2131.0, 2131.0, 2131.0, 2131.0, 2132.0, 2132.0, 2131.0, 2131.0, 2131.0, 2131.0, 2131.0, 2131.0, 2131.0, 2131.0, 2131.0, 2132.0, 2132.0, 2131.0, 2131.0, 2131.0, 2132.0, 2131.0, 2131.0, 2132.0, 2132.0, 2131.0, 2131.0, 2132.0, 2131.0, 2131.0, 2131.0, 2131.0, 2131.0, 2131.0, 2132.0, 2132.0, 2132.0, 2132.0, 2131.0, 2132.0, 2131.0, 2131.0, 2131.0, 2132.0, 2132.0, 2131.0, 2132.0, 2132.0, 2132.0, 2132.0, 2132.0, 2132.0, 2132.0, 2131.0, 2131.0, 2131.0, 2131.0, 2131.0, 2131.0, 2131.0, 2131.0, 2131.0, 2132.0]
    },
    "slices": {}
  }
}