{
  "AcquisitionMatrixPE": 122,
  "AcquisitionNumber": 1,
  "AcquisitionTime": "10:25:26.460000",
  "BandwidthPerPixelPhaseEncode": 27.785,
  "BaseResolution": 122,
  "BodyPartExamined": "BRAIN",
  "CoilCombinationMethod": "Adaptive Combine",
  "ConsistencyInfo": "N4_VE11C_LATEST_20160120",
  "ConversionSoftware": "dcm2niix",
  "ConversionSoftwareVersion": "v1.0.20220720",
  "DerivedVendorReportedEchoSpacing": 0.000590011,
  "DeviceSerialNumber": "66112",
  "DiffusionScheme": "Monopolar",
  "DwellTime": 2e-06,
  "EchoTime": 0.068,
  "EchoTrainLength": 61,
  "EffectiveEchoSpacing": 0.000295005,
  "FlipAngle": 90,
  "HeudiconvVersion": "0.13.1",
  "ImageOrientationPatientDICOM": [0.986681, 0.16183, -0.0164609, -0.149045, 0.939963, 0.30701],
  "ImageOrientationText": "Tra>Cor(17.5)>Sag(-3.7)",
  "ImageType": [
    "ORIGINAL",
    "PRIMARY",
    "DIFFUSION",
    "NONE",
    "ND",
    "NORM"
],
  "ImagingFrequency": 123.252,
  "InPlanePhaseEncodingDirectionDICOM": "COL",
  "InstitutionAddress": "Maynard 3,Hanover,NH,US,03755",
  "InstitutionName": "Dartmouth College - PBS",
  "InstitutionalDepartmentName": "Department",
  "MRAcquisitionType": "2D",
  "MagneticFieldStrength": 3,
  "Manufacturer": "Siemens",
  "ManufacturersModelName": "Prisma",
  "Modality": "MR",
  "MultibandAccelerationFactor": 4,
  "NonlinearGradientCorrection": false,
  "ParallelReductionFactorInPlane": 2,
  "PartialFourier": 1,
  "PatientPosition": "HFS",
  "PercentPhaseFOV": 100,
  "PercentSampling": 100,
  "PhaseEncodingDirection": "j-",
  "PhaseEncodingSteps": 122,
  "PhaseResolution": 1,
  "PixelBandwidth": 2050,
  "ProcedureStepDescription": "dbic^QA",
  "ProtocolName": "dwi_acq-DTI-30-p2-s4",
  "PulseSequenceDetails": "%SiemensSeq%\\ep2d_diff",
  "ReceiveCoilActiveElements": "HEA;HEP",
  "ReceiveCoilName": "Head_32",
  "ReconMatrixPE": 122,
  "RefLinesPE": 38,
  "RepetitionTime": 3.6,
  "SAR": 0.161962,
  "ScanOptions": "FS",
  "ScanningSequence": "EP",
  "SequenceName": "*ep_b0",
  "SequenceVariant": "SK\\SP",
  "SeriesDescription": "dwi_acq-DTI-30-p2-s4",
  "SeriesNumber": 9,
  "ShimSetting": [4142, -7684, -7515, 313, -34, -208, -60, 44],
  "SliceThickness": 2,
  "SliceTiming": [2.58594, 0, 1.78906, 0.19531, 1.98438, 0.39844, 2.1875, 0.59375, 2.39062, 0.99219, 2.78125, 1.19531, 2.98438, 1.39062, 3.17969, 1.59375, 3.38281, 0.79688, 2.58594, 0, 1.78906, 0.19531, 1.98438, 0.39844, 2.1875, 0.59375, 2.39062, 0.99219, 2.78125, 1.19531, 2.98438, 1.39062, 3.17969, 1.59375, 3.38281, 0.79688, 2.58594, 0, 1.78906, 0.19531, 1.98438, 0.39844, 2.1875, 0.59375, 2.39062, 0.99219, 2.78125, 1.19531, 2.98438, 1.39062, 3.17969, 1.59375, 3.38281, 0.79688, 2.58594, 0, 1.78906, 0.19531, 1.98438, 0.39844, 2.1875, 0.59375, 2.39062, 0.99219, 2.78125, 1.19531, 2.98438, 1.39062, 3.17969, 1.59375, 3.38281, 0.79688],
  "SoftwareVersions": "syngo MR E11",
  "SpacingBetweenSlices": 2,
  "SpoilingState": true,
  "StationName": "AWP66112",
  "TotalReadoutTime": 0.0356956,
  "TxRefAmp": 231.326,
  "dcmmeta_affine": [
    [-1.9410126209259033, -0.29320409893989563, -0.1303120106458664, 144.96055603027344],
    [-0.31835368275642395, 1.849107265472412, 0.6009349822998047, -110.21859741210938],
    [-0.03238203749060631, -0.603954553604126, 1.9031257629394531, -40.31709671020508],
    [0.0, 0.0, 0.0, 1.0]
],
  "dcmmeta_reorient_transform": [
    [0.0, -1.0, 0.0, 121.0],
    [1.0, 0.0, 0.0, 0.0],
    [0.0, 0.0, -1.0, 71.0],
    [0.0, 0.0, 0.0, 1.0]
],
  "dcmmeta_shape": [122, 122, 72, 31],
  "dcmmeta_slice_dim": 2,
  "dcmmeta_version": 0.6,
  "global": {
    "const": {
      "AccessionNumber": "qa",
      "AcquisitionMatrix": [122, 0, 0, 122],
      "AngioFlag": "N",
      "BitsAllocated": 16,
      "BitsStored": 12,
      "BodyPartExamined": "BRAIN",
      "Columns": 122,
      "EchoNumbers": 1,
      "EchoTime": 68.0,
      "EchoTrainLength": 61,
      "FlipAngle": 90.0,
      "HighBit": 11,
      "ImageOrientationPatient": [0.98668138821778, 0.16182978077546, -0.0164608687137, -0.149045406495, 0.93996286142566, 0.30701023752185],
      "ImageType": [
        "ORIGINAL",
        "PRIMARY",
        "DIFFUSION",
        "NONE",
        "ND",
        "NORM"
],
      "ImagedNucleus": "1H",
      "ImagingFrequency": 123.252463,
      "InPlanePhaseEncodingDirection": "COL",
      "MRAcquisitionType": "2D",
      "MagneticFieldStrength": 3.0,
      "Manufacturer": "SIEMENS",
      "ManufacturerModelName": "Prisma",
      "Modality": "MR",
      "NumberOfAverages": 1.0,
      "NumberOfPhaseEncodingSteps": 122,
      "PercentPhaseFieldOfView": 100.0,
      "PercentSampling": 100.0,
      "PerformedProcedureStepStartTime": "095711.910000",
      "PhotometricInterpretation": "MONOCHROME2",
      "PixelBandwidth": 2050.0,
      "PixelRepresentation": 0,
      "PixelSpacing": [1.9672131538391, 1.9672131538391],
      "ProtocolName": "dwi_acq-DTI-30-p2-s4",
      "RepetitionTime": 3600.0,
      "Rows": 122,
      "SAR": 0.16196232894518,
      "SamplesPerPixel": 1,
      "ScanOptions": "FS",
      "ScanningSequence": "EP",
      "SequenceVariant": [
        "SK",
        "SP"
],
      "SeriesDescription": "dwi_acq-DTI-30-p2-s4",
      "SeriesNumber": 9,
      "SeriesTime": "102535.783000",
      "SliceThickness": 2.0,
      "SmallestImagePixelValue": 0,
      "SoftwareVersions": "syngo MR E11",
      "SpacingBetweenSlices": 2.0,
      "SpecificCharacterSet": "ISO_IR 100",
      "StudyID": "13",
      "StudyTime": "095711.838000",
      "TransmitCoilName": "Body",
      "VariableFlipAngleFlag": "N",
      "WindowCenterWidthExplanation": "Algo1",
      "dBdt": 0.0},
    "slices": {
      "AcquisitionTime": ["102526.460000", "102523.875000", "102525.665000", "102524.072500", "102525.862500", "102524.272500", "102526.062500", "102524.472500", "102526.262500", "102524.870000", "102526.660000", "102525.067500", "102526.857500", "102525.267500", "102527.057500", "102525.465000", "102527.255000", "102524.670000", "102526.460000", "102523.875000", "102525.665000", "102524.072500", "102525.862500", "102524.272500", "102526.062500", "102524.472500", "102526.262500", "102524.870000", "102526.660000", "102525.067500", "102526.857500", "102525.267500", "102527.057500", "102525.465000", "102527.255000", "102524.670000", "102526.460000", "102523.875000", "102525.665000", "102524.072500", "102525.862500", "102524.272500", "102526.062500", "102524.472500", "102526.262500", "102524.870000", "102526.660000", "102525.067500", "102526.857500", "102525.267500", "102527.057500", "102525.465000", "102527.255000", "102524.670000", "102526.460000", "102523.875000", "102525.665000", "102524.072500", "102525.862500", "102524.272500", "102526.062500", "102524.472500", "102526.262500", "102524.870000", "102526.660000", "102525.067500", "102526.857500", "102525.267500", "102527.057500", "102525.465000", "102527.255000", "102524.670000", "102530.060000", "102527.475000", "102529.265000", "102527.672500", "102529.462500", "102527.872500", "102529.662500", "102528.072500", "102529.862500", "102528.470000", "102530.260000", "102528.667500", "102530.457500", "102528.867500", "102530.657500", "102529.065000", "102530.855000", "102528.270000", "102530.060000", "102527.475000", "102529.265000", "102527.672500", "102529.462500", "102527.872500", "102529.662500", "102528.072500", "102529.862500", "102528.470000", "102530.260000", "102528.667500", "102530.457500", "102528.867500", "102530.657500", "102529.065000", "102530.855000", "102528.270000", "102530.060000", "102527.475000", "102529.265000", "102527.672500", "102529.462500", "102527.872500", "102529.662500", "102528.072500", "102529.862500", "102528.470000", "102530.260000", "102528.667500", "102530.457500", "102528.867500", "102530.657500", "102529.065000", "102530.855000", "102528.270000", "102530.060000", "102527.475000", "102529.265000", "102527.672500", "102529.462500", "102527.872500", "102529.662500", "102528.072500", "102529.862500", "102528.470000", "102530.260000", "102528.667500", "102530.457500", "102528.867500", "102530.657500", "102529.065000", "102530.855000", "102528.270000", "102533.660000", "102531.075000", "102532.865000", "102531.272500", "102533.062500", "102531.472500", "102533.262500", "102531.672500", "102533.462500", "102532.070000", "102533.860000", "102532.267500", "102534.057500", "102532.467500", "102534.257500", "102532.665000", "102534.455000", "102531.870000", "102533.660000", "102531.075000", "102532.865000", "102531.272500", "102533.062500", "102531.472500", "102533.262500", "102531.672500", "102533.462500", "102532.070000", "102533.860000", "102532.267500", "102534.057500", "102532.467500", "102534.257500", "102532.665000", "102534.455000", "102531.870000", "102533.660000", "102531.075000", "102532.865000", "102531.272500", "102533.062500", "102531.472500", "102533.262500", "102531.672500", "102533.462500", "102532.070000", "102533.860000", "102532.267500", "102534.057500", "102532.467500", "102534.257500", "102532.665000", "102534.455000", "102531.870000", "102533.660000", "102531.075000", "102532.865000", "102531.272500", "102533.062500", "102531.472500", "102533.262500", "102531.672500", "102533.462500", "102532.070000", "102533.860000", "102532.267500", "102534.057500", "102532.467500", "102534.257500", "102532.665000", "102534.455000", "102531.870000", "102537.260000", "102534.675000", "102536.465000", "102534.872500", "102536.662500", "102535.072500", "102536.862500", "102535.272500", "102537.062500", "102535.670000", "102537.460000", "102535.867500", "102537.657500", "102536.067500", "102537.857500", "102536.265000", "102538.055000", "102535.470000", "102537.260000", "102534.675000", "102536.465000", "102534.872500", "102536.662500", "102535.072500", "102536.862500", "102535.272500", "102537.062500", "102535.670000", "102537.460000", "102535.867500", "102537.657500", "102536.067500", "102537.857500", "102536.265000", "102538.055000", "102535.470000", "102537.260000", "102534.675000", "102536.465000", "102534.872500", "102536.662500", "102535.072500", "102536.862500", "102535.272500", "102537.062500", "102535.670000", "102537.460000", "102535.867500", "102537.657500", "102536.067500", "102537.857500", "102536.265000", "102538.055000", "102535.470000", "102537.260000", "102534.675000", "102536.465000", "102534.872500", "102536.662500", "102535.072500", "102536.862500", "102535.272500", "102537.062500", "102535.670000", "102537.460000", "102535.867500", "102537.657500", "102536.067500", "102537.857500", "102536.265000", "102538.055000", "102535.470000", "102540.860000", "102538.275000", "102540.065000", "102538.472500", "102540.262500", "102538.672500", "102540.462500", "102538.872500", "102540.662500", "102539.270000", "102541.060000", "102539.467500", "102541.257500", "102539.667500", "102541.457500", "102539.865000", "102541.655000", "102539.070000", "102540.860000", "102538.275000", "102540.065000", "102538.472500", "102540.262500", "102538.672500", "102540.462500", "102538.872500", "102540.662500", "102539.270000", "102541.060000", "102539.467500", "102541.257500", "102539.667500", "102541.457500", "102539.865000", "102541.655000", "102539.070000", "102540.860000", "102538.275000", "102540.065000", "102538.472500", "102540.262500", "102538.672500", "102540.462500", "102538.872500", "102540.662500", "102539.270000", "102541.060000", "102539.467500", "102541.257500", "102539.667500", "102541.457500", "102539.865000", "102541.655000", "102539.070000", "102540.860000", "102538.275000", "102540.065000", "102538.472500", "102540.262500", "102538.672500", "102540.462500", "102538.872500", "102540.662500", "102539.270000", "102541.060000", "102539.467500", "102541.257500", "102539.667500", "102541.457500", "102539.865000", "102541.655000", "102539.070000", "102544.460000", "102541.875000", "102543.665000", "102542.072500", "102543.862500", "102542.272500", "102544.062500", "102542.472500", "102544.262500", "102542.870000", "102544.660000", "102543.067500", "102544.857500", "102543.267500", "102545.057500", "102543.465000", "102545.255000", "102542.670000", "102544.460000", "102541.875000", "102543.665000", "102542.072500", "102543.862500", "102542.272500", "102544.062500", "102542.472500", "102544.262500", "102542.870000", "102544.660000", "102543.067500", "102544.857500", "102543.267500", "102545.057500", "102543.465000", "102545.255000", "102542.670000", "102544.460000", "102541.875000", "102543.665000", "102542.072500", "102543.862500", "102542.272500", "102544.062500", "102542.472500", "102544.262500", "102542.870000", "102544.660000", "102543.067500", "102544.857500", "102543.267500", "102545.057500", "102543.465000", "102545.255000", "102542.670000", "102544.460000", "102541.875000", "102543.665000", "102542.072500", "102543.862500", "102542.272500", "102544.062500", "102542.472500", "102544.262500", "102542.870000", "102544.660000", "102543.067500", "102544.857500", "102543.267500", "102545.057500", "102543.465000", "102545.255000", "102542.670000", "102548.060000", "102545.475000", "102547.265000", "102545.672500", "102547.462500", "102545.872500", "102547.662500", "102546.072500", "102547.862500", "102546.470000", "102548.260000", "102546.667500", "102548.457500", "102546.867500", "102548.657500", "102547.065000", "102548.855000", "102546.270000", "102548.060000", "102545.475000", "102547.265000", "102545.672500", "102547.462500", "102545.872500", "102547.662500", "102546.072500", "102547.862500", "102546.470000", "102548.260000", "102546.667500", "102548.457500", "102546.867500", "102548.657500", "102547.065000", "102548.855000", "102546.270000", "102548.060000", "102545.475000", "102547.265000", "102545.672500", "102547.462500", "102545.872500", "102547.662500", "102546.072500", "102547.862500", "102546.470000", "102548.260000", "102546.667500", "102548.457500", "102546.867500", "102548.657500", "102547.065000", "102548.855000", "102546.270000", "102548.060000", "102545.475000", "102547.265000", "102545.672500", "102547.462500", "102545.872500", "102547.662500", "102546.072500", "102547.862500", "102546.470000", "102548.260000", "102546.667500", "102548.457500", "102546.867500", "102548.657500", "102547.065000", "102548.855000", "102546.270000", "102551.660000", "102549.075000", "102550.865000", "102549.272500", "102551.062500", "102549.472500", "102551.262500", "102549.672500", "102551.462500", "102550.070000", "102551.860000", "102550.267500", "102552.057500", "102550.467500", "102552.257500", "102550.665000", "102552.455000", "102549.870000", "102551.660000", "102549.075000", "102550.865000", "102549.272500", "102551.062500", "102549.472500", "102551.262500", "102549.672500", "102551.462500", "102550.070000", "102551.860000", "102550.267500", "102552.057500", "102550.467500", "102552.257500", "102550.665000", "102552.455000", "102549.870000", "102551.660000", "102549.075000", "102550.865000", "102549.272500", "102551.062500", "102549.472500", "102551.262500", "102549.672500", "102551.462500", "102550.070000", "102551.860000", "102550.267500", "102552.057500", "102550.467500", "102552.257500", "102550.665000", "102552.455000", "102549.870000", "102551.660000", "102549.075000", "102550.865000", "102549.272500", "102551.062500", "102549.472500", "102551.262500", "102549.672500", "102551.462500", "102550.070000", "102551.860000", "102550.267500", "102552.057500", "102550.467500", "102552.257500", "102550.665000", "102552.455000", "102549.870000", "102555.260000", "102552.675000", "102554.465000", "102552.872500", "102554.662500", "102553.072500", "102554.862500", "102553.272500", "102555.062500", "102553.670000", "102555.460000", "102553.867500", "102555.657500", "102554.067500", "102555.857500", "102554.265000", "102556.055000", "102553.470000", "102555.260000", "102552.675000", "102554.465000", "102552.872500", "102554.662500", "102553.072500", "102554.862500", "102553.272500", "102555.062500", "102553.670000", "102555.460000", "102553.867500", "102555.657500", "102554.067500", "102555.857500", "102554.265000", "102556.055000", "102553.470000", "102555.260000", "102552.675000", "102554.465000", "102552.872500", "102554.662500", "102553.072500", "102554.862500", "102553.272500", "102555.062500", "102553.670000", "102555.460000", "102553.867500", "102555.657500", "102554.067500", "102555.857500", "102554.265000", "102556.055000", "102553.470000", "102555.260000", "102552.675000", "102554.465000", "102552.872500", "102554.662500", "102553.072500", "102554.862500", "102553.272500", "102555.062500", "102553.670000", "102555.460000", "102553.867500", "102555.657500", "102554.067500", "102555.857500", "102554.265000", "102556.055000", "102553.470000", "102558.860000", "102556.275000", "102558.065000", "102556.472500", "102558.262500", "102556.672500", "102558.462500", "102556.872500", "102558.662500", "102557.270000", "102559.060000", "102557.467500", "102559.257500", "102557.667500", "102559.457500", "102557.865000", "102559.655000", "102557.070000", "102558.860000", "102556.275000", "102558.065000", "102556.472500", "102558.262500", "102556.672500", "102558.462500", "102556.872500", "102558.662500", "102557.270000", "102559.060000", "102557.467500", "102559.257500", "102557.667500", "102559.457500", "102557.865000", "102559.655000", "102557.070000", "102558.860000", "102556.275000", "102558.065000", "102556.472500", "102558.262500", "102556.672500", "102558.462500", "102556.872500", "102558.662500", "102557.270000", "102559.060000", "102557.467500", "102559.257500", "102557.667500", "102559.457500", "102557.865000", "102559.655000", "102557.070000", "102558.860000", "102556.275000", "102558.065000", "102556.472500", "102558.262500", "102556.672500", "102558.462500", "102556.872500", "102558.662500", "102557.270000", "102559.060000", "102557.467500", "102559.257500", "102557.667500", "102559.457500", "102557.865000", "102559.655000", "102557.070000", "102602.460000", "102559.875000", "102601.665000", "102600.072500", "102601.862500", "102600.272500", "102602.062500", "102600.472500", "102602.262500", "102600.870000", "102602.660000", "102601.067500", "102602.857500", "102601.267500", "102603.057500", "102601.465000", "102603.255000", "102600.670000", "102602.460000", "102559.875000", "102601.665000", "102600.072500", "102601.862500", "102600.272500", "102602.062500", "102600.472500", "102602.262500", "102600.870000", "102602.660000", "102601.067500", "102602.857500", "102601.267500", "102603.057500", "102601.465000", "102603.255000", "102600.670000", "102602.460000", "102559.875000", "102601.665000", "102600.072500", "102601.862500", "102600.272500", "102602.062500", "102600.472500", "102602.262500", "102600.870000", "102602.660000", "102601.067500", "102602.857500", "102601.267500", "102603.057500", "102601.465000", "102603.255000", "102600.670000", "102602.460000", "102559.875000", "102601.665000", "102600.072500", "102601.862500", "102600.272500", "102602.062500", "102600.472500", "102602.262500", "102600.870000", "102602.660000", "102601.067500", "102602.857500", "102601.267500", "102603.057500", "102601.465000", "102603.255000", "102600.670000", "102606.060000", "102603.475000", "102605.265000", "102603.672500", "102605.462500", "102603.872500", "102605.662500", "102604.072500", "102605.862500", "102604.470000", "102606.260000", "102604.667500", "102606.457500", "102604.867500", "102606.657500", "102605.065000", "102606.855000", "102604.270000", "102606.060000", "102603.475000", "102605.265000", "102603.672500", "102605.462500", "102603.872500", "102605.662500", "102604.072500", "102605.862500", "102604.470000", "102606.260000", "102604.667500", "102606.457500", "102604.867500", "102606.657500", "102605.065000", "102606.855000", "102604.270000", "102606.060000", "102603.475000", "102605.265000", "102603.672500", "102605.462500", "102603.872500", "102605.662500", "102604.072500", "102605.862500", "102604.470000", "102606.260000", "102604.667500", "102606.457500", "102604.867500", "102606.657500", "102605.065000", "102606.855000", "102604.270000", "102606.060000", "102603.475000", "102605.265000", "102603.672500", "102605.462500", "102603.872500", "102605.662500", "102604.072500", "102605.862500", "102604.470000", "102606.260000", "102604.667500", "102606.457500", "102604.867500", "102606.657500", "102605.065000", "102606.855000", "102604.270000", "102609.660000", "102607.075000", "102608.865000", "102607.272500", "102609.062500", "102607.472500", "102609.262500", "102607.672500", "102609.462500", "102608.070000", "102609.860000", "102608.267500", "102610.057500", "102608.467500", "102610.257500", "102608.665000", "102610.455000", "102607.870000", "102609.660000", "102607.075000", "102608.865000", "102607.272500", "102609.062500", "102607.472500", "102609.262500", "102607.672500", "102609.462500", "102608.070000", "102609.860000", "102608.267500", "102610.057500", "102608.467500", "102610.257500", "102608.665000", "102610.455000", "102607.870000", "102609.660000", "102607.075000", "102608.865000", "102607.272500", "102609.062500", "102607.472500", "102609.262500", "102607.672500", "102609.462500", "102608.070000", "102609.860000", "102608.267500", "102610.057500", "102608.467500", "102610.257500", "102608.665000", "102610.455000", "102607.870000", "102609.660000", "102607.075000", "102608.865000", "102607.272500", "102609.062500", "102607.472500", "102609.262500", "102607.672500", "102609.462500", "102608.070000", "102609.860000", "102608.267500", "102610.057500", "102608.467500", "102610.257500", "102608.665000", "102610.455000", "102607.870000", "102613.260000", "102610.675000", "102612.465000", "102610.872500", "102612.662500", "102611.072500", "102612.862500", "102611.272500", "102613.062500", "102611.670000", "102613.460000", "102611.867500", "102613.657500", "102612.067500", "102613.857500", "102612.265000", "102614.055000", "102611.470000", "102613.260000", "102610.675000", "102612.465000", "102610.872500", "102612.662500", "102611.072500", "102612.862500", "102611.272500", "102613.062500", "102611.670000", "102613.460000", "102611.867500", "102613.657500", "102612.067500", "102613.857500", "102612.265000", "102614.055000", "102611.470000", "102613.260000", "102610.675000", "102612.465000", "102610.872500", "102612.662500", "102611.072500", "102612.862500", "102611.272500", "102613.062500", "102611.670000", "102613.460000", "102611.867500", "102613.657500", "102612.067500", "102613.857500", "102612.265000", "102614.055000", "102611.470000", "102613.260000", "102610.675000", "102612.465000", "102610.872500", "102612.662500", "102611.072500", "102612.862500", "102611.272500", "102613.062500", "102611.670000", "102613.460000", "102611.867500", "102613.657500", "102612.067500", "102613.857500", "102612.265000", "102614.055000", "102611.470000", "102616.860000", "102614.275000", "102616.065000", "102614.472500", "102616.262500", "102614.672500", "102616.462500", "102614.872500", "102616.662500", "102615.270000", "102617.060000", "102615.467500", "102617.257500", "102615.667500", "102617.457500", "102615.865000", "102617.655000", "102615.070000", "102616.860000", "102614.275000", "102616.065000", "102614.472500", "102616.262500", "102614.672500", "102616.462500", "102614.872500", "102616.662500", "102615.270000", "102617.060000", "102615.467500", "102617.257500", "102615.667500", "102617.457500", "102615.865000", "102617.655000", "102615.070000", "102616.860000", "102614.275000", "102616.065000", "102614.472500", "102616.262500", "102614.672500", "102616.462500", "102614.872500", "102616.662500", "102615.270000", "102617.060000", "102615.467500", "102617.257500", "102615.667500", "102617.457500", "102615.865000", "102617.655000", "102615.070000", "102616.860000", "102614.275000", "102616.065000", "102614.472500", "102616.262500", "102614.672500", "102616.462500", "102614.872500", "102616.662500", "102615.270000", "102617.060000", "102615.467500", "102617.257500", "102615.667500", "102617.457500", "102615.865000", "102617.655000", "102615.070000", "102620.460000", "102617.875000", "102619.665000", "102618.072500", "102619.862500", "102618.272500", "102620.062500", "102618.472500", "102620.262500", "102618.870000", "102620.660000", "102619.067500", "102620.857500", "102619.267500", "102621.057500", "102619.465000", "102621.255000", "102618.670000", "102620.460000", "102617.875000", "102619.665000", "102618.072500", "102619.862500", "102618.272500", "102620.062500", "102618.472500", "102620.262500", "102618.870000", "102620.660000", "102619.067500", "102620.857500", "102619.267500", "102621.057500", "102619.465000", "102621.255000", "102618.670000", "102620.460000", "102617.875000", "102619.665000", "102618.072500", "102619.862500", "102618.272500", "102620.062500", "102618.472500", "102620.262500", "102618.870000", "102620.660000", "102619.067500", "102620.857500", "102619.267500", "102621.057500", "102619.465000", "102621.255000", "102618.670000", "102620.460000", "102617.875000", "102619.665000", "102618.072500", "102619.862500", "102618.272500", "102620.062500", "102618.472500", "102620.262500", "102618.870000", "102620.660000", "102619.067500", "102620.857500", "102619.267500", "102621.057500", "102619.465000", "102621.255000", "102618.670000", "102624.060000", "102621.475000", "102623.265000", "102621.672500", "102623.462500", "102621.872500", "102623.662500", "102622.072500", "102623.862500", "102622.470000", "102624.260000", "102622.667500", "102624.457500", "102622.867500", "102624.657500", "102623.065000", "102624.855000", "102622.270000", "102624.060000", "102621.475000", "102623.265000", "102621.672500", "102623.462500", "102621.872500", "102623.662500", "102622.072500", "102623.862500", "102622.470000", "102624.260000", "102622.667500", "102624.457500", "102622.867500", "102624.657500", "102623.065000", "102624.855000", "102622.270000", "102624.060000", "102621.475000", "102623.265000", "102621.672500", "102623.462500", "102621.872500", "102623.662500", "102622.072500", "102623.862500", "102622.470000", "102624.260000", "102622.667500", "102624.457500", "102622.867500", "102624.657500", "102623.065000", "102624.855000", "102622.270000", "102624.060000", "102621.475000", "102623.265000", "102621.672500", "102623.462500", "102621.872500", "102623.662500", "102622.072500", "102623.862500", "102622.470000", "102624.260000", "102622.667500", "102624.457500", "102622.867500", "102624.657500", "102623.065000", "102624.855000", "102622.270000", "102627.660000", "102625.075000", "102626.865000", "102625.272500", "102627.062500", "102625.472500", "102627.262500", "102625.672500", "102627.462500", "102626.070000", "102627.860000", "102626.267500", "102628.057500", "102626.467500", "102628.257500", "102626.665000", "102628.455000", "102625.870000", "102627.660000", "102625.075000", "102626.865000", "102625.272500", "102627.062500", "102625.472500", "102627.262500", "102625.672500", "102627.462500", "102626.070000", "102627.860000", "102626.267500", "102628.057500", "102626.467500", "102628.257500", "102626.665000", "102628.455000", "102625.870000", "102627.660000", "102625.075000", "102626.865000", "102625.272500", "102627.062500", "102625.472500", "102627.262500", "102625.672500", "102627.462500", "102626.070000", "102627.860000", "102626.267500", "102628.057500", "102626.467500", "102628.257500", "102626.665000", "102628.455000", "102625.870000", "102627.660000", "102625.075000", "102626.865000", "102625.272500", "102627.062500", "102625.472500", "102627.262500", "102625.672500", "102627.462500", "102626.070000", "102627.860000", "102626.267500", "102628.057500", "102626.467500", "102628.257500", "102626.665000", "102628.455000", "102625.870000", "102631.260000", "102628.675000", "102630.465000", "102628.872500", "102630.662500", "102629.072500", "102630.862500", "102629.272500", "102631.062500", "102629.670000", "102631.460000", "102629.867500", "102631.657500", "102630.067500", "102631.857500", "102630.265000", "102632.055000", "102629.470000", "102631.260000", "102628.675000", "102630.465000", "102628.872500", "102630.662500", "102629.072500", "102630.862500", "102629.272500", "102631.062500", "102629.670000", "102631.460000", "102629.867500", "102631.657500", "102630.067500", "102631.857500", "102630.265000", "102632.055000", "102629.470000", "102631.260000", "102628.675000", "102630.465000", "102628.872500", "102630.662500", "102629.072500", "102630.862500", "102629.272500", "102631.062500", "102629.670000", "102631.460000", "102629.867500", "102631.657500", "102630.067500", "102631.857500", "102630.265000", "102632.055000", "102629.470000", "102631.260000", "102628.675000", "102630.465000", "102628.872500", "102630.662500", "102629.072500", "102630.862500", "102629.272500", "102631.062500", "102629.670000", "102631.460000", "102629.867500", "102631.657500", "102630.067500", "102631.857500", "102630.265000", "102632.055000", "102629.470000", "102634.860000", "102632.275000", "102634.065000", "102632.472500", "102634.262500", "102632.672500", "102634.462500", "102632.872500", "102634.662500", "102633.270000", "102635.060000", "102633.467500", "102635.257500", "102633.667500", "102635.457500", "102633.865000", "102635.655000", "102633.070000", "102634.860000", "102632.275000", "102634.065000", "102632.472500", "102634.262500", "102632.672500", "102634.462500", "102632.872500", "102634.662500", "102633.270000", "102635.060000", "102633.467500", "102635.257500", "102633.667500", "102635.457500", "102633.865000", "102635.655000", "102633.070000", "102634.860000", "102632.275000", "102634.065000", "102632.472500", "102634.262500", "102632.672500", "102634.462500", "102632.872500", "102634.662500", "102633.270000", "102635.060000", "102633.467500", "102635.257500", "102633.667500", "102635.457500", "102633.865000", "102635.655000", "102633.070000", "102634.860000", "102632.275000", "102634.065000", "102632.472500", "102634.262500", "102632.672500", "102634.462500", "102632.872500", "102634.662500", "102633.270000", "102635.060000", "102