{
  "AcquisitionMatrixPE": 80,
  "AcquisitionNumber": 1,
  "AcquisitionTime": "09:15:31.545000",
  "BandwidthPerPixelPhaseEncode": 25,
  "BaseResolution": 80,
  "BodyPartExamined": "BRAIN",
  "CoilCombinationMethod": "Sum of Squares",
  "ConsistencyInfo": "N4_VE11C_LATEST_20160120",
  "ConversionSoftware": "dcm2niix",
  "ConversionSoftwareVersion": "v1.0.20220720",
  "DerivedVendorReportedEchoSpacing": 0.0005,
  "DeviceSerialNumber": "66112",
  "DwellTime": 2.7e-06,
  "EchoTime": 0.03,
  "EchoTrainLength": 80,
  "EffectiveEchoSpacing": 0.0005,
  "FlipAngle": 10,
  "HeudiconvVersion": "0.13.1",
  "ImageOrientationPatientDICOM": [0.983446, 0.180908, 0.0102641, -0.174647, 0.931271, 0.319737],
  "ImageOrientationText": "Tra>Cor(18.5)>Sag(-2.8)",
  "ImageType": [
    "ORIGINAL",
    "PRIMARY",
    "M",
    "ND",
    "NORM",
    "MOSAIC"
],
  "ImagingFrequency": 123.252,
  "InPlanePhaseEncodingDirectionDICOM": "COL",
  "InstitutionAddress": "Maynard 3,Hanover,NH,US,03755",
  "InstitutionName": "Dartmouth College - PBS",
  "InstitutionalDepartmentName": "Department",
  "MRAcquisitionType": "2D",
  "MagneticFieldStrength": 3,
  "Manufacturer": "Siemens",
  "ManufacturersModelName": "Prisma",
  "MatrixCoilMode": "SENSE",
  "Modality": "MR",
  "NonlinearGradientCorrection": false,
  "PartialFourier": 1,
  "PatientPosition": "HFS",
  "PercentPhaseFOV": 100,
  "PercentSampling": 100,
  "PhaseEncodingDirection": "j-",
  "PhaseEncodingSteps": 80,
  "PhaseResolution": 1,
  "PixelBandwidth": 2315,
  "ProcedureStepDescription": "dbic^QA",
  "ProtocolName": "func-bold_fa-10",
  "PulseSequenceDetails": "%SiemensSeq%\\ep2d_bold",
  "ReceiveCoilActiveElements": "HC1-7;NC1,2",
  "ReceiveCoilName": "HeadNeck_64",
  "ReconMatrixPE": 80,
  "RepetitionTime": 2,
  "SAR": 0.00865408,
  "ScanOptions": "FS",
  "ScanningSequence": "EP",
  "SequenceName": "*epfid2d1_80",
  "SequenceVariant": "SK",
  "SeriesDescription": "func-bold_fa-10",
  "SeriesNumber": 9,
  "ShimSetting": [4141, -7702, -7511, 173, -68, -207, -43, 80],
  "SliceThickness": 3.5,
  "SliceTiming": [0.99, 0, 1.0575, 0.0675, 1.1225, 0.1325, 1.19, 0.2, 1.255, 0.265, 1.32, 0.33, 1.3875, 0.3975, 1.4525, 0.4625, 1.52, 0.53, 1.585, 0.595, 1.65, 0.66, 1.7175, 0.7275, 1.7825, 0.7925, 1.85, 0.86, 1.915, 0.925],
  "SoftwareVersions": "syngo MR E11",
  "SpacingBetweenSlices": 3.99,
  "StationName": "AWP66112",
  "TotalReadoutTime": 0.0395,
  "TxRefAmp": 206.96,
  "dcmmeta_affine": [
    [-2.9503393173217773, -0.5239417552947998, -0.19265443086624146, 142.4546356201172],
    [-0.5427238345146179, 2.793814182281494, 1.2617861032485962, -86.04120635986328],
    [0.03079240396618843, -0.9592118859291077, 3.7803280353546143, -21.689300537109375],
    [0.0, 0.0, 0.0, 1.0]
],
  "dcmmeta_reorient_transform": [
    [0.0, -1.0, 0.0, 79.0],
    [1.0, 0.0, 0.0, 0.0],
    [0.0, 0.0, 1.0, 0.0],
    [0.0, 0.0, 0.0, 1.0]
],
  "dcmmeta_shape": [80, 80, 30, 200],
  "dcmmeta_slice_dim": 2,
  "dcmmeta_version": 0.6,
  "global": {
    "const": {
      "AccessionNumber": "qa64",
      "AcquisitionMatrix": [80, 0, 0, 80],
      "AngioFlag": "N",
      "BitsAllocated": 16,
      "BitsStored": 12,
      "BodyPartExamined": "BRAIN",
      "Columns": 480,
      "EchoNumbers": 1,
      "EchoTime": 30.0,
      "EchoTrainLength": 80,
      "FlipAngle": 10.0,
      "HighBit": 11,
      "ImageOrientationPatient": [0.98344647293005, 0.18090793909316, 0.01026413437743, -0.1746472427431, 0.93127139267953, 0.31973728869021],
      "ImagePositionPatient": [-586.34277758275, -801.97770926463, -295.46789167413],
      "ImageType": [
        "ORIGINAL",
        "PRIMARY",
        "M",
        "ND",
        "NORM",
        "MOSAIC"
],
      "ImagedNucleus": "1H",
      "ImagingFrequency": 123.252314,
      "InPlanePhaseEncodingDirection": "COL",
      "MRAcquisitionType": "2D",
      "MagneticFieldStrength": 3.0,
      "Manufacturer": "SIEMENS",
      "ManufacturerModelName": "Prisma",
      "Modality": "MR",
      "NumberOfAverages": 1.0,
      "NumberOfPhaseEncodingSteps": 80,
      "PercentPhaseFieldOfView": 100.0,
      "PercentSampling": 100.0,
      "PerformedProcedureStepStartTime": "084857.915000",
      "PhotometricInterpretation": "MONOCHROME2",
      "PixelBandwidth": 2315.0,
      "PixelRepresentation": 0,
      "PixelSpacing": [3.0, 3.0],
      "ProtocolName": "func-bold_fa-10",
      "RepetitionTime": 2000.0,
      "Rows": 480,
      "SAR": 0.00865408379491,
      "SamplesPerPixel": 1,
      "ScanOptions": "FS",
      "ScanningSequence": "EP",
      "SequenceName": "*epfid2d1_80",
      "SequenceVariant": "SK",
      "SeriesDescription": "func-bold_fa-10",
      "SeriesNumber": 9,
      "SeriesTime": "091627.851000",
      "SliceLocation": -54.637290347776,
      "SliceThickness": 3.5,
      "SmallestImagePixelValue": 0,
      "SoftwareVersions": "syngo MR E11",
      "SpacingBetweenSlices": 3.9899999980593,
      "SpecificCharacterSet": "ISO_IR 100",
      "StudyID": "59",
      "StudyTime": "084857.848000",
      "TransmitCoilName": "Body",
      "VariableFlipAngleFlag": "N",
      "WindowCenterWidthExplanation": "Algo1",
      "dBdt": 0.0},
    "slices": {}
  },
  "time": {
    "samples": {
      "AcquisitionNumber": [1, 2, 3, 4, 5, 6, 7, 8, 9, 10, 11, 12, 13, 14, 15, 16, 17, 18, 19, 20, 21, 22, 23, 24, 25, 26, 27, 28, 29, 30, 31, 32, 33, 34, 35, 36, 37, 38, 39, 40, 41, 42, 43, 44, 45, 46, 47, 48, 49, 50, 51, 52, 53, 54, 55, 56, 57, 58, 59, 60, 61, 62, 63, 64, 65, 66, 67, 68, 69, 70, 71, 72, 73, 74, 75, 76, 77, 78, 79, 80, 81, 82, 83, 84, 85, 86, 87, 88, 89, 90, 91, 92, 93, 94, 95, 96, 97, 98, 99, 100, 101, 102, 103, 104, 105, 106, 107, 108, 109, 110, 111, 112, 113, 114, 115, 116, 117, 118, 119, 120, 121, 122, 123, 124, 125, 126, 127, 128, 129, 130, 131, 132, 133, 134, 135, 136, 137, 138, 139, 140, 141, 142, 143, 144, 145, 146, 147, 148, 149, 150, 151, 152, 153, 154, 155, 156, 157, 158, 159, 160, 161, 162, 163, 164, 165, 166, 167, 168, 169, 170, 171, 172, 173, 174, 175, 176, 177, 178, 179, 180, 181, 182, 183, 184, 185, 186, 187, 188, 189, 190, 191, 192, 193, 194, 195, 196, 197, 198, 199, 200],
      "AcquisitionTime": ["091531.545000", "091533.545000", "091535.545000", "091537.545000", "091539.545000", "091541.545000", "091543.545000", "091545.545000", "091547.545000", "091549.545000", "091551.545000", "091553.545000", "091555.545000", "091557.545000", "091559.545000", "091601.545000", "091603.545000", "091605.545000", "091607.545000", "091609.545000", "091611.545000", "091613.545000", "091615.545000", "091617.545000", "091619.545000", "091621.545000", "091623.545000", "091625.545000", "091627.545000", "091629.545000", "091631.545000", "091633.545000", "091635.545000", "091637.545000", "091639.545000", "091641.545000", "091643.545000", "091645.545000", "091647.545000", "091649.545000", "091651.545000", "091653.545000", "091655.545000", "091657.545000", "091659.545000", "091701.545000", "091703.545000", "091705.545000", "091707.545000", "091709.545000", "091711.545000", "091713.545000", "091715.545000", "091717.545000", "091719.545000", "091721.545000", "091723.545000", "091725.545000", "091727.545000", "091729.545000", "091731.545000", "091733.545000", "091735.545000", "091737.545000", "091739.545000", "091741.545000", "091743.545000", "091745.545000", "091747.545000", "091749.545000", "091751.545000", "091753.545000", "091755.545000", "091757.545000", "091759.545000", "091801.545000", "091803.545000", "091805.545000", "091807.545000", "091809.545000", "091811.545000", "091813.545000", "091815.545000", "091817.545000", "091819.545000", "091821.545000", "091823.545000", "091825.545000", "091827.545000", "091829.545000", "091831.545000", "091833.545000", "091835.545000", "091837.545000", "091839.545000", "091841.545000", "091843.545000", "091845.545000", "091847.545000", "091849.545000", "091851.545000", "091853.545000", "091855.545000", "091857.545000", "091859.545000", "091901.545000", "091903.545000", "091905.545000", "091907.545000", "091909.545000", "091911.545000", "091913.545000", "091915.545000", "091917.545000", "091919.545000", "091921.545000", "091923.545000", "091925.545000", "091927.545000", "091929.545000", "091931.545000", "091933.545000", "091935.545000", "091937.545000", "091939.545000", "091941.545000", "091943.545000", "091945.545000", "091947.545000", "091949.545000", "091951.545000", "091953.545000", "091955.545000", "091957.545000", "091959.545000", "092001.545000", "092003.545000", "092005.545000", "092007.545000", "092009.545000", "092011.545000", "092013.545000", "092015.545000", "092017.545000", "092019.545000", "092021.545000", "092023.545000", "092025.545000", "092027.545000", "092029.545000", "092031.545000", "092033.545000", "092035.545000", "092037.545000", "092039.545000", "092041.545000", "092043.545000", "092045.545000", "092047.545000", "092049.545000", "092051.545000", "092053.545000", "092055.545000", "092057.545000", "092059.545000", "092101.545000", "092103.545000", "092105.545000", "092107.545000", "092109.545000", "092111.545000", "092113.545000", "092115.545000", "092117.545000", "092119.545000", "092121.545000", "092123.545000", "092125.545000", "092127.545000", "092129.545000", "092131.545000", "092133.545000", "092135.545000", "092137.545000", "092139.545000", "092141.545000", "092143.545000", "092145.545000", "092147.545000", "092149.545000", "092151.545000", "092153.545000", "092155.545000", "092157.545000", "092159.545000", "092201.545000", "092203.545000", "092205.545000", "092207.545000", "092209.545000"],
      "ContentTime": ["091627.854000", "091627.858000", "091627.860000", "091627.863000", "091627.865000", "091627.868000", "091627.870000", "091627.873000", "091627.875000", "091627.878000", "091627.881000", "091627.883000", "091627.886000", "091627.888000", "091627.891000", "091627.893000", "091627.896000", "091627.898000", "091627.901000", "091627.904000", "091627.906000", "091627.909000", "091627.912000", "091627.914000", "091627.917000", "091627.925000", "091627.928000", "091627.930000", "091707.850000", "091707.852000", "091707.855000", "091707.858000", "091707.860000", "091707.863000", "091707.865000", "091707.868000", "091707.870000", "091707.873000", "091707.875000", "091707.878000", "091707.880000", "091707.883000", "091707.885000", "091707.893000", "091707.896000", "091707.899000", "091707.902000", "091707.904000", "091747.850000", "091747.853000", "091747.856000", "091747.858000", "091747.861000", "091747.863000", "091747.866000", "091747.869000", "091747.871000", "091747.874000", "091747.876000", "091747.879000", "091747.881000", "091747.884000", "091747.886000", "091747.889000", "091747.891000", "091747.894000", "091747.896000", "091747.899000", "091827.851000", "091827.853000", "091827.856000", "091827.858000", "091827.861000", "091827.864000", "091827.866000", "091827.869000", "091827.871000", "091827.874000", "091827.876000", "091827.879000", "091827.881000", "091827.884000", "091827.886000", "091827.889000", "091827.891000", "091827.894000", "091827.896000", "091827.899000", "091907.850000", "091907.852000", "091907.855000", "091907.857000", "091907.860000", "091907.863000", "091907.865000", "091907.868000", "091907.870000", "091907.873000", "091907.875000", "091907.878000", "091907.880000", "091907.883000", "091907.885000", "091907.888000", "091907.890000", "091907.893000", "091907.895000", "091907.898000", "091947.851000", "091947.854000", "091947.856000", "091947.859000", "091947.861000", "091947.864000", "091947.866000", "091947.869000", "091947.871000", "091947.874000", "091947.877000", "091947.879000", "091947.882000", "091947.884000", "091947.887000", "091947.889000", "091947.892000", "091947.894000", "091947.897000", "091947.900000", "092027.851000", "092027.853000", "092027.856000", "092027.858000", "092027.861000", "092027.864000", "092027.866000", "092027.869000", "092027.871000", "092027.874000", "092027.888000", "092027.890000", "092027.893000", "092027.895000", "092027.898000", "092027.901000", "092027.903000", "092027.906000", "092027.908000", "092027.911000", "092107.849000", "092107.852000", "092107.855000", "092107.857000", "092107.860000", "092107.863000", "092107.865000", "092107.868000", "092107.870000", "092107.873000", "092107.875000", "092107.878000", "092107.880000", "092107.883000", "092107.885000", "092107.888000", "092107.890000", "092107.893000", "092107.896000", "092107.899000", "092147.849000", "092147.852000", "092147.855000", "092147.857000", "092147.860000", "092147.862000", "092147.865000", "092147.867000", "092147.870000", "092147.873000", "092147.875000", "092147.878000", "092147.880000", "092147.883000", "092147.885000", "092147.888000", "092147.890000", "092147.893000", "092147.897000", "092147.899000", "092210.893000", "092210.895000", "092210.898000", "092210.901000", "092210.903000", "092210.906000", "092210.908000", "092210.911000", "092210.914000", "092210.916000", "092210.919000", "092210.921000"],
      "InstanceCreationTime": ["091627.854000", "091627.858000", "091627.860000", "091627.863000", "091627.865000", "091627.868000", "091627.870000", "091627.873000", "091627.875000", "091627.878000", "091627.881000", "091627.883000", "091627.886000", "091627.888000", "091627.891000", "091627.893000", "091627.896000", "091627.898000", "091627.901000", "091627.904000", "091627.906000", "091627.909000", "091627.912000", "091627.914000", "091627.917000", "091627.925000", "091627.928000", "091627.930000", "091707.850000", "091707.852000", "091707.855000", "091707.858000", "091707.860000", "091707.863000", "091707.865000", "091707.868000", "091707.870000", "091707.873000", "091707.875000", "091707.878000", "091707.880000", "091707.883000", "091707.885000", "091707.893000", "091707.896000", "091707.899000", "091707.902000", "091707.904000", "091747.850000", "091747.853000", "091747.856000", "091747.858000", "091747.861000", "091747.863000", "091747.866000", "091747.869000", "091747.871000", "091747.874000", "091747.876000", "091747.879000", "091747.881000", "091747.884000", "091747.886000", "091747.889000", "091747.891000", "091747.894000", "091747.896000", "091747.899000", "091827.851000", "091827.853000", "091827.856000", "091827.858000", "091827.861000", "091827.864000", "091827.866000", "091827.869000", "091827.871000", "091827.874000", "091827.876000", "091827.879000", "091827.881000", "091827.884000", "091827.886000", "091827.889000", "091827.891000", "091827.894000", "091827.896000", "091827.899000", "091907.850000", "091907.852000", "091907.855000", "091907.857000", "091907.860000", "091907.863000", "091907.865000", "091907.868000", "091907.870000", "091907.873000", "091907.875000", "091907.878000", "091907.880000", "091907.883000", "091907.885000", "091907.888000", "091907.890000", "091907.893000", "091907.895000", "091907.898000", "091947.851000", "091947.854000", "091947.856000", "091947.859000", "091947.861000", "091947.864000", "091947.866000", "091947.869000", "091947.871000", "091947.874000", "091947.877000", "091947.879000", "091947.882000", "091947.884000", "091947.887000", "091947.889000", "091947.892000", "091947.894000", "091947.897000", "091947.900000", "092027.851000", "092027.853000", "092027.856000", "092027.858000", "092027.861000", "092027.864000", "092027.866000", "092027.869000", "092027.871000", "092027.874000", "092027.888000", "092027.890000", "092027.893000", "092027.895000", "092027.898000", "092027.901000", "092027.903000", "092027.906000", "092027.908000", "092027.911000", "092107.849000", "092107.852000", "092107.855000", "092107.857000", "092107.860000", "092107.863000", "092107.865000", "092107.868000", "092107.870000", "092107.873000", "092107.875000", "092107.878000", "092107.880000", "092107.883000", "092107.885000", "092107.888000", "092107.890000", "092107.893000", "092107.896000", "092107.899000", "092147.849000", "092147.852000", "092147.855000", "092147.857000", "092147.860000", "092147.862000", "092147.865000", "092147.867000", "092147.870000", "092147.873000", "092147.875000", "092147.878000", "092147.880000", "092147.883000", "092147.885000", "092147.888000", "092147.890000", "092147.893000", "092147.897000", "092147.899000", "092210.893000", "092210.895000", "092210.898000", "092210.901000", "092210.903000", "092210.906000", "092210.908000", "092210.911000", "092210.914000", "092210.916000", "092210.919000", "092210.921000"],
      "InstanceNumber": [1, 2, 3, 4, 5, 6, 7, 8, 9, 10, 11, 12, 13, 14, 15, 16, 17, 18, 19, 20, 21, 22, 23, 24, 25, 26, 27, 28, 29, 30, 31, 32, 33, 34, 35, 36, 37, 38, 39, 40, 41, 42, 43, 44, 45, 46, 47, 48, 49, 50, 51, 52, 53, 54, 55, 56, 57, 58, 59, 60, 61, 62, 63, 64, 65, 66, 67, 68, 69, 70, 71, 72, 73, 74, 75, 76, 77, 78, 79, 80, 81, 82, 83, 84, 85, 86, 87, 88, 89, 90, 91, 92, 93, 94, 95, 96, 97, 98, 99, 100, 101, 102, 103, 104, 105, 106, 107, 108, 109, 110, 111, 112, 113, 114, 115, 116, 117, 118, 119, 120, 121, 122, 123, 124, 125, 126, 127, 128, 129, 130, 131, 132, 133, 134, 135, 136, 137, 138, 139, 140, 141, 142, 143, 144, 145, 146, 147, 148, 149, 150, 151, 152, 153, 154, 155, 156, 157, 158, 159, 160, 161, 162, 163, 164, 165, 166, 167, 168, 169, 170, 171, 172, 173, 174, 175, 176, 177, 178, 179, 180, 181, 182, 183, 184, 185, 186, 187, 188, 189, 190, 191, 192, 193, 194, 195, 196, 197, 198, 199, 200],
      "LargestImagePixelValue": [593, 593, 591, 598, 594, 594, 598, 595, 590, 591, 596, 591, 592, 596, 593, 591, 594, 597, 588, 594, 591, 589, 589, 587, 592, 589, 594, 596, 606, 589, 594, 591, 593, 594, 590, 590, 594, 596, 598, 592, 585, 594, 593, 591, 597, 594, 594, 592, 590, 591, 591, 594, 588, 588, 593, 592, 603, 596, 591, 596, 596, 596, 591, 590, 592, 588, 603, 590, 590, 596, 595, 596, 595, 595, 595, 596, 586, 589, 589, 588, 590, 591, 590, 589, 594, 590, 588, 594, 594, 589, 589, 600, 593, 590, 590, 594, 584, 591, 590, 589, 591, 596, 589, 591, 586, 589, 588, 591, 595, 588, 590, 594, 593, 592, 589, 594, 593, 591, 591, 588, 590, 589, 587, 600, 596, 590, 592, 590, 590, 587, 592, 589, 590, 591, 593, 589, 590, 589, 588, 592, 587, 588, 594, 594, 593, 594, 599, 587, 589, 589, 588, 598, 594, 588, 593, 589, 589, 589, 590, 588, 591, 592, 591, 593, 595, 594, 591, 588, 597, 594, 591, 589, 590, 589, 593, 589, 588, 588, 596, 591, 592, 586, 592, 597, 589, 588, 591, 594, 589, 589, 592, 600, 588, 589, 588, 583, 583, 589, 586, 593],
      "WindowCenter": [434.0, 434.0, 434.0, 434.0, 434.0, 434.0, 434.0, 434.0, 433.0, 434.0, 434.0, 434.0, 433.0, 434.0, 434.0, 434.0, 434.0, 434.0, 432.0, 434.0, 433.0, 432.0, 432.0, 432.0, 434.0, 432.0, 433.0, 434.0, 433.0, 432.0, 434.0, 433.0, 433.0, 433.0, 433.0, 433.0, 433.0, 433.0, 433.0, 433.0, 432.0, 434.0, 433.0, 433.0, 434.0, 433.0, 433.0, 433.0, 433.0, 433.0, 433.0, 433.0, 432.0, 432.0, 433.0, 433.0, 433.0, 433.0, 433.0, 433.0, 433.0, 433.0, 433.0, 433.0, 433.0, 432.0, 433.0, 433.0, 433.0, 433.0, 433.0, 433.0, 433.0, 433.0, 433.0, 433.0, 432.0, 432.0, 432.0, 432.0, 433.0, 433.0, 433.0, 432.0, 433.0, 433.0, 432.0, 433.0, 433.0, 432.0, 432.0, 433.0, 433.0, 433.0, 433.0, 433.0, 432.0, 433.0, 433.0, 432.0, 433.0, 433.0, 432.0, 433.0, 432.0, 432.0, 432.0, 433.0, 433.0, 432.0, 433.0, 433.0, 433.0, 433.0, 432.0, 433.0, 433.0, 433.0, 433.0, 432.0, 433.0, 432.0, 432.0, 433.0, 433.0, 433.0, 433.0, 433.0, 433.0, 432.0, 433.0, 432.0, 433.0, 433.0, 433.0, 432.0, 433.0, 432.0, 432.0, 433.0, 432.0, 432.0, 433.0, 433.0, 433.0, 433.0, 433.0, 432.0, 432.0, 432.0, 432.0, 433.0, 433.0, 432.0, 433.0, 432.0, 432.0, 432.0, 433.0, 432.0, 433.0, 433.0, 433.0, 433.0, 433.0, 433.0, 433.0, 431.0, 433.0, 433.0, 433.0, 431.0, 433.0, 431.0, 433.0, 431.0, 431.0, 431.0, 433.0, 433.0, 432.0, 431.0, 433.0, 432.0, 431.0, 431.0, 432.0, 432.0, 431.0, 431.0, 432.0, 432.0, 431.0, 431.0, 431.0, 431.0, 431.0, 431.0, 431.0, 432.0],
      "WindowWidth": [907.0, 906.0, 906.0, 906.0, 906.0, 906.0, 906.0, 906.0, 905.0, 906.0, 906.0, 906.0, 905.0, 906.0, 906.0, 906.0, 906.0, 906.0, 904.0, 906.0, 905.0, 904.0, 904.0, 904.0, 906.0, 904.0, 905.0, 906.0, 905.0, 904.0, 906.0, 905.0, 905.0, 905.0, 905.0, 905.0, 905.0, 905.0, 905.0, 905.0, 904.0, 906.0, 905.0, 905.0, 906.0, 905.0, 905.0, 905.0, 905.0, 905.0, 905.0, 905.0, 904.0, 904.0, 905.0, 905.0, 905.0, 905.0, 905.0, 905.0, 905.0, 905.0, 905.0, 905.0, 905.0, 903.0, 905.0, 905.0, 905.0, 905.0, 905.0, 905.0, 905.0, 905.0, 905.0, 905.0, 903.0, 903.0, 903.0, 903.0, 905.0, 905.0, 905.0, 903.0, 905.0, 905.0, 903.0, 905.0, 905.0, 903.0, 903.0, 905.0, 905.0, 905.0, 905.0, 905.0, 903.0, 905.0, 905.0, 903.0, 905.0, 905.0, 903.0, 905.0, 903.0, 903.0, 902.0, 905.0, 905.0, 903.0, 905.0, 905.0, 905.0, 905.0, 902.0, 904.0, 904.0, 904.0, 904.0, 902.0, 904.0, 903.0, 903.0, 904.0, 904.0, 904.0, 904.0, 904.0, 904.0, 903.0, 904.0, 902.0, 904.0, 904.0, 904.0, 903.0, 904.0, 902.0, 902.0, 904.0, 902.0, 903.0, 904.0, 904.0, 904.0, 904.0, 904.0, 902.0, 902.0, 902.0, 902.0, 904.0, 904.0, 902.0, 904.0, 902.0, 902.0, 902.0, 904.0, 902.0, 904.0, 904.0, 903.0, 904.0, 903.0, 903.0, 903.0, 902.0, 903.0, 903.0, 903.0, 902.0, 903.0, 902.0, 903.0, 902.0, 902.0, 902.0, 903.0, 903.0, 903.0, 902.0, 903.0, 903.0, 902.0, 902.0, 903.0, 903.0, 902.0, 902.0, 903.0, 903.0, 902.0, 902.0, 902.0, 902.0, 902.0, 902.0, 902.0, 903.0]
    },
    "slices": {}
  }
}