{
  "AcquisitionMatrixPE": 80,
  "AcquisitionNumber": 1,
  "AcquisitionTime": "09:08:44.537500",
  "BandwidthPerPixelPhaseEncode": 25,
  "BaseResolution": 80,
  "BodyPartExamined": "BRAIN",
  "CoilCombinationMethod": "Sum of Squares",
  "ConsistencyInfo": "N4_VE11C_LATEST_20160120",
  "ConversionSoftware": "dcm2niix",
  "ConversionSoftwareVersion": "v1.0.20220720",
  "DerivedVendorReportedEchoSpacing": 0.0005,
  "DeviceSerialNumber": "66112",
  "DwellTime": 2.7e-06,
  "EchoTime": 0.03,
  "EchoTrainLength": 80,
  "EffectiveEchoSpacing": 0.0005,
  "FlipAngle": 77,
  "HeudiconvVersion": "0.13.1",
  "ImageOrientationPatientDICOM": [0.983446, 0.180908, 0.0102641, -0.174647, 0.931271, 0.319737],
  "ImageOrientationText": "Tra>Cor(18.5)>Sag(-2.8)",
  "ImageType": [
    "ORIGINAL",
    "PRIMARY",
    "M",
    "ND",
    "NORM",
    "MOSAIC"
],
  "ImagingFrequency": 123.252,
  "InPlanePhaseEncodingDirectionDICOM": "COL",
  "InstitutionAddress": "Maynard 3,Hanover,NH,US,03755",
  "InstitutionName": "Dartmouth College - PBS",
  "InstitutionalDepartmentName": "Department",
  "MRAcquisitionType": "2D",
  "MagneticFieldStrength": 3,
  "Manufacturer": "Siemens",
  "ManufacturersModelName": "Prisma",
  "MatrixCoilMode": "SENSE",
  "Modality": "MR",
  "NonlinearGradientCorrection": false,
  "PartialFourier": 1,
  "PatientPosition": "HFS",
  "PercentPhaseFOV": 100,
  "PercentSampling": 100,
  "PhaseEncodingDirection": "j-",
  "PhaseEncodingSteps": 80,
  "PhaseResolution": 1,
  "PixelBandwidth": 2315,
  "ProcedureStepDescription": "dbic^QA",
  "ProtocolName": "func-bold_fa-77",
  "PulseSequenceDetails": "%SiemensSeq%\\ep2d_bold",
  "ReceiveCoilActiveElements": "HC1-7;NC1,2",
  "ReceiveCoilName": "HeadNeck_64",
  "ReconMatrixPE": 80,
  "RepetitionTime": 2,
  "SAR": 0.0322614,
  "ScanOptions": "FS",
  "ScanningSequence": "EP",
  "SequenceName": "*epfid2d1_80",
  "SequenceVariant": "SK",
  "SeriesDescription": "func-bold_fa-77",
  "SeriesNumber": 7,
  "ShimSetting": [4141, -7702, -7511, 173, -68, -207, -43, 80],
  "SliceThickness": 3.5,
  "SliceTiming": [0.99, 0, 1.0575, 0.0675, 1.1225, 0.1325, 1.19, 0.2, 1.255, 0.265, 1.32, 0.33, 1.3875, 0.3975, 1.4525, 0.4625, 1.52, 0.53, 1.585, 0.595, 1.65, 0.66, 1.7175, 0.7275, 1.7825, 0.7925, 1.8475, 0.86, 1.915, 0.925],
  "SoftwareVersions": "syngo MR E11",
  "SpacingBetweenSlices": 3.99,
  "StationName": "AWP66112",
  "TotalReadoutTime": 0.0395,
  "TxRefAmp": 206.96,
  "dcmmeta_affine": [
    [-2.9503393173217773, -0.5239417552947998, -0.19265443086624146, 142.4546356201172],
    [-0.5427238345146179, 2.793814182281494, 1.2617861032485962, -86.04120635986328],
    [0.03079240396618843, -0.9592118859291077, 3.7803280353546143, -21.689300537109375],
    [0.0, 0.0, 0.0, 1.0]
],
  "dcmmeta_reorient_transform": [
    [0.0, -1.0, 0.0, 79.0],
    [1.0, 0.0, 0.0, 0.0],
    [0.0, 0.0, 1.0, 0.0],
    [0.0, 0.0, 0.0, 1.0]
],
  "dcmmeta_shape": [80, 80, 30, 200],
  "dcmmeta_slice_dim": 2,
  "dcmmeta_version": 0.6,
  "global": {
    "const": {
      "AccessionNumber": "qa64",
      "AcquisitionMatrix": [80, 0, 0, 80],
      "AngioFlag": "N",
      "BitsAllocated": 16,
      "BitsStored": 12,
      "BodyPartExamined": "BRAIN",
      "Columns": 480,
      "EchoNumbers": 1,
      "EchoTime": 30.0,
      "EchoTrainLength": 80,
      "FlipAngle": 77.0,
      "HighBit": 11,
      "ImageOrientationPatient": [0.98344647293005, 0.18090793909316, 0.01026413437743, -0.1746472427431, 0.93127139267953, 0.31973728869021],
      "ImagePositionPatient": [-586.34277758275, -801.97770926463, -295.46789167413],
      "ImageType": [
        "ORIGINAL",
        "PRIMARY",
        "M",
        "ND",
        "NORM",
        "MOSAIC"
],
      "ImagedNucleus": "1H",
      "ImagingFrequency": 123.252311,
      "InPlanePhaseEncodingDirection": "COL",
      "MRAcquisitionType": "2D",
      "MagneticFieldStrength": 3.0,
      "Manufacturer": "SIEMENS",
      "ManufacturerModelName": "Prisma",
      "Modality": "MR",
      "NumberOfAverages": 1.0,
      "NumberOfPhaseEncodingSteps": 80,
      "PercentPhaseFieldOfView": 100.0,
      "PercentSampling": 100.0,
      "PerformedProcedureStepStartTime": "084857.915000",
      "PhotometricInterpretation": "MONOCHROME2",
      "PixelBandwidth": 2315.0,
      "PixelRepresentation": 0,
      "PixelSpacing": [3.0, 3.0],
      "ProtocolName": "func-bold_fa-77",
      "RepetitionTime": 2000.0,
      "Rows": 480,
      "SAR": 0.03226136952312,
      "SamplesPerPixel": 1,
      "ScanOptions": "FS",
      "ScanningSequence": "EP",
      "SequenceName": "*epfid2d1_80",
      "SequenceVariant": "SK",
      "SeriesDescription": "func-bold_fa-77",
      "SeriesNumber": 7,
      "SeriesTime": "090927.781000",
      "SliceLocation": -54.637290347776,
      "SliceThickness": 3.5,
      "SmallestImagePixelValue": 0,
      "SoftwareVersions": "syngo MR E11",
      "SpacingBetweenSlices": 3.9899999980593,
      "SpecificCharacterSet": "ISO_IR 100",
      "StudyID": "59",
      "StudyTime": "084857.848000",
      "TransmitCoilName": "Body",
      "VariableFlipAngleFlag": "N",
      "WindowCenterWidthExplanation": "Algo1",
      "dBdt": 0.0},
    "slices": {}
  },
  "time": {
    "samples": {
      "AcquisitionNumber": [1, 2, 3, 4, 5, 6, 7, 8, 9, 10, 11, 12, 13, 14, 15, 16, 17, 18, 19, 20, 21, 22, 23, 24, 25, 26, 27, 28, 29, 30, 31, 32, 33, 34, 35, 36, 37, 38, 39, 40, 41, 42, 43, 44, 45, 46, 47, 48, 49, 50, 51, 52, 53, 54, 55, 56, 57, 58, 59, 60, 61, 62, 63, 64, 65, 66, 67, 68, 69, 70, 71, 72, 73, 74, 75, 76, 77, 78, 79, 80, 81, 82, 83, 84, 85, 86, 87, 88, 89, 90, 91, 92, 93, 94, 95, 96, 97, 98, 99, 100, 101, 102, 103, 104, 105, 106, 107, 108, 109, 110, 111, 112, 113, 114, 115, 116, 117, 118, 119, 120, 121, 122, 123, 124, 125, 126, 127, 128, 129, 130, 131, 132, 133, 134, 135, 136, 137, 138, 139, 140, 141, 142, 143, 144, 145, 146, 147, 148, 149, 150, 151, 152, 153, 154, 155, 156, 157, 158, 159, 160, 161, 162, 163, 164, 165, 166, 167, 168, 169, 170, 171, 172, 173, 174, 175, 176, 177, 178, 179, 180, 181, 182, 183, 184, 185, 186, 187, 188, 189, 190, 191, 192, 193, 194, 195, 196, 197, 198, 199, 200],
      "AcquisitionTime": ["090844.537500", "090846.537500", "090848.537500", "090850.537500", "090852.537500", "090854.537500", "090856.537500", "090858.537500", "090900.537500", "090902.537500", "090904.537500", "090906.537500", "090908.537500", "090910.537500", "090912.537500", "090914.537500", "090916.537500", "090918.537500", "090920.537500", "090922.537500", "090924.537500", "090926.537500", "090928.537500", "090930.537500", "090932.537500", "090934.537500", "090936.537500", "090938.537500", "090940.537500", "090942.537500", "090944.537500", "090946.537500", "090948.537500", "090950.537500", "090952.537500", "090954.537500", "090956.537500", "090958.537500", "091000.537500", "091002.537500", "091004.537500", "091006.537500", "091008.537500", "091010.537500", "091012.537500", "091014.537500", "091016.537500", "091018.537500", "091020.537500", "091022.537500", "091024.537500", "091026.537500", "091028.537500", "091030.537500", "091032.537500", "091034.537500", "091036.537500", "091038.537500", "091040.537500", "091042.537500", "091044.537500", "091046.537500", "091048.537500", "091050.537500", "091052.537500", "091054.537500", "091056.537500", "091058.537500", "091100.537500", "091102.537500", "091104.537500", "091106.537500", "091108.537500", "091110.537500", "091112.537500", "091114.537500", "091116.537500", "091118.537500", "091120.537500", "091122.537500", "091124.537500", "091126.537500", "091128.537500", "091130.537500", "091132.537500", "091134.537500", "091136.537500", "091138.537500", "091140.537500", "091142.537500", "091144.537500", "091146.537500", "091148.537500", "091150.537500", "091152.537500", "091154.537500", "091156.537500", "091158.537500", "091200.537500", "091202.537500", "091204.537500", "091206.537500", "091208.537500", "091210.537500", "091212.537500", "091214.537500", "091216.537500", "091218.537500", "091220.537500", "091222.537500", "091224.537500", "091226.537500", "091228.537500", "091230.537500", "091232.537500", "091234.537500", "091236.537500", "091238.537500", "091240.537500", "091242.537500", "091244.537500", "091246.537500", "091248.537500", "091250.537500", "091252.537500", "091254.537500", "091256.537500", "091258.537500", "091300.537500", "091302.537500", "091304.537500", "091306.537500", "091308.537500", "091310.537500", "091312.537500", "091314.537500", "091316.537500", "091318.537500", "091320.537500", "091322.537500", "091324.537500", "091326.537500", "091328.537500", "091330.537500", "091332.537500", "091334.537500", "091336.537500", "091338.537500", "091340.537500", "091342.537500", "091344.537500", "091346.537500", "091348.537500", "091350.537500", "091352.537500", "091354.537500", "091356.537500", "091358.537500", "091400.537500", "091402.537500", "091404.537500", "091406.537500", "091408.537500", "091410.537500", "091412.537500", "091414.537500", "091416.537500", "091418.537500", "091420.537500", "091422.537500", "091424.537500", "091426.537500", "091428.537500", "091430.537500", "091432.537500", "091434.537500", "091436.537500", "091438.537500", "091440.537500", "091442.537500", "091444.537500", "091446.537500", "091448.537500", "091450.537500", "091452.537500", "091454.537500", "091456.537500", "091458.537500", "091500.537500", "091502.537500", "091504.537500", "091506.537500", "091508.537500", "091510.537500", "091512.537500", "091514.537500", "091516.537500", "091518.537500", "091520.537500", "091522.537500"],
      "ContentTime": ["090927.784000", "090927.788000", "090927.790000", "090927.793000", "090927.795000", "090927.798000", "090927.800000", "090927.803000", "090927.805000", "090927.808000", "090927.811000", "090927.813000", "090927.816000", "090927.818000", "090927.821000", "090927.823000", "090927.826000", "090927.828000", "090927.831000", "090927.833000", "090927.836000", "091007.779000", "091007.782000", "091007.785000", "091007.787000", "091007.790000", "091007.792000", "091007.795000", "091007.797000", "091007.800000", "091007.803000", "091007.805000", "091007.808000", "091007.810000", "091007.813000", "091007.815000", "091007.818000", "091007.820000", "091007.823000", "091007.825000", "091007.828000", "091047.780000", "091047.783000", "091047.786000", "091047.788000", "091047.791000", "091047.793000", "091047.796000", "091047.799000", "091047.801000", "091047.804000", "091047.806000", "091047.809000", "091047.812000", "091047.814000", "091047.817000", "091047.819000", "091047.822000", "091047.824000", "091047.827000", "091047.829000", "091127.780000", "091127.783000", "091127.786000", "091127.788000", "091127.791000", "091127.794000", "091127.796000", "091127.799000", "091127.801000", "091127.804000", "091127.806000", "091127.809000", "091127.811000", "091127.814000", "091127.816000", "091127.819000", "091127.822000", "091127.824000", "091127.827000", "091127.829000", "091207.780000", "091207.782000", "091207.785000", "091207.787000", "091207.790000", "091207.793000", "091207.795000", "091207.798000", "091207.800000", "091207.803000", "091207.805000", "091207.808000", "091207.810000", "091207.813000", "091207.815000", "091207.818000", "091207.820000", "091207.823000", "091207.826000", "091207.828000", "091247.780000", "091247.782000", "091247.785000", "091247.787000", "091247.790000", "091247.793000", "091247.795000", "091247.798000", "091247.800000", "091247.803000", "091247.805000", "091247.808000", "091247.811000", "091247.813000", "091247.816000", "091247.818000", "091247.821000", "091247.823000", "091247.826000", "091247.828000", "091327.780000", "091327.783000", "091327.786000", "091327.788000", "091327.791000", "091327.793000", "091327.796000", "091327.799000", "091327.801000", "091327.804000", "091327.806000", "091327.809000", "091327.811000", "091327.814000", "091327.817000", "091327.819000", "091327.822000", "091327.824000", "091327.827000", "091327.829000", "091407.779000", "091407.782000", "091407.785000", "091407.787000", "091407.790000", "091407.793000", "091407.795000", "091407.798000", "091407.800000", "091407.803000", "091407.806000", "091407.808000", "091407.811000", "091407.813000", "091407.816000", "091407.818000", "091407.821000", "091407.823000", "091407.826000", "091407.829000", "091427.779000", "091427.782000", "091427.785000", "091427.787000", "091427.790000", "091427.792000", "091427.795000", "091427.798000", "091427.800000", "091427.803000", "091507.780000", "091507.782000", "091507.785000", "091507.788000", "091507.790000", "091507.793000", "091507.795000", "091507.798000", "091507.800000", "091507.803000", "091507.805000", "091507.808000", "091507.810000", "091507.813000", "091507.815000", "091507.818000", "091507.821000", "091507.823000", "091507.826000", "091507.828000", "091524.360000", "091524.363000", "091524.365000", "091524.368000", "091524.371000", "091524.373000", "091524.376000", "091524.378000", "091524.381000"],
      "InstanceCreationTime": ["090927.784000", "090927.788000", "090927.790000", "090927.793000", "090927.795000", "090927.798000", "090927.800000", "090927.803000", "090927.805000", "090927.808000", "090927.811000", "090927.813000", "090927.816000", "090927.818000", "090927.821000", "090927.823000", "090927.826000", "090927.828000", "090927.831000", "090927.833000", "090927.836000", "091007.779000", "091007.782000", "091007.785000", "091007.787000", "091007.790000", "091007.792000", "091007.795000", "091007.797000", "091007.800000", "091007.803000", "091007.805000", "091007.808000", "091007.810000", "091007.813000", "091007.815000", "091007.818000", "091007.820000", "091007.823000", "091007.825000", "091007.828000", "091047.780000", "091047.783000", "091047.786000", "091047.788000", "091047.791000", "091047.793000", "091047.796000", "091047.799000", "091047.801000", "091047.804000", "091047.806000", "091047.809000", "091047.812000", "091047.814000", "091047.817000", "091047.819000", "091047.822000", "091047.824000", "091047.827000", "091047.829000", "091127.780000", "091127.783000", "091127.786000", "091127.788000", "091127.791000", "091127.794000", "091127.796000", "091127.799000", "091127.801000", "091127.804000", "091127.806000", "091127.809000", "091127.811000", "091127.814000", "091127.816000", "091127.819000", "091127.822000", "091127.824000", "091127.827000", "091127.829000", "091207.780000", "091207.782000", "091207.785000", "091207.787000", "091207.790000", "091207.793000", "091207.795000", "091207.798000", "091207.800000", "091207.803000", "091207.805000", "091207.808000", "091207.810000", "091207.813000", "091207.815000", "091207.818000", "091207.820000", "091207.823000", "091207.826000", "091207.828000", "091247.780000", "091247.782000", "091247.785000", "091247.787000", "091247.790000", "091247.793000", "091247.795000", "091247.798000", "091247.800000", "091247.803000", "091247.805000", "091247.808000", "091247.811000", "091247.813000", "091247.816000", "091247.818000", "091247.821000", "091247.823000", "091247.826000", "091247.828000", "091327.780000", "091327.783000", "091327.786000", "091327.788000", "091327.791000", "091327.793000", "091327.796000", "091327.799000", "091327.801000", "091327.804000", "091327.806000", "091327.809000", "091327.811000", "091327.814000", "091327.817000", "091327.819000", "091327.822000", "091327.824000", "091327.827000", "091327.829000", "091407.779000", "091407.782000", "091407.785000", "091407.787000", "091407.790000", "091407.793000", "091407.795000", "091407.798000", "091407.800000", "091407.803000", "091407.806000", "091407.808000", "091407.811000", "091407.813000", "091407.816000", "091407.818000", "091407.821000", "091407.823000", "091407.826000", "091407.829000", "091427.779000", "091427.782000", "091427.785000", "091427.787000", "091427.790000", "091427.792000", "091427.795000", "091427.798000", "091427.800000", "091427.803000", "091507.780000", "091507.782000", "091507.785000", "091507.788000", "091507.790000", "091507.793000", "091507.795000", "091507.798000", "091507.800000", "091507.803000", "091507.805000", "091507.808000", "091507.810000", "091507.813000", "091507.815000", "091507.818000", "091507.821000", "091507.823000", "091507.826000", "091507.828000", "091524.360000", "091524.363000", "091524.365000", "091524.368000", "091524.371000", "091524.373000", "091524.376000", "091524.378000", "091524.381000"],
      "InstanceNumber": [1, 2, 3, 4, 5, 6, 7, 8, 9, 10, 11, 12, 13, 14, 15, 16, 17, 18, 19, 20, 21, 22, 23, 24, 25, 26, 27, 28, 29, 30, 31, 32, 33, 34, 35, 36, 37, 38, 39, 40, 41, 42, 43, 44, 45, 46, 47, 48, 49, 50, 51, 52, 53, 54, 55, 56, 57, 58, 59, 60, 61, 62, 63, 64, 65, 66, 67, 68, 69, 70, 71, 72, 73, 74, 75, 76, 77, 78, 79, 80, 81, 82, 83, 84, 85, 86, 87, 88, 89, 90, 91, 92, 93, 94, 95, 96, 97, 98, 99, 100, 101, 102, 103, 104, 105, 106, 107, 108, 109, 110, 111, 112, 113, 114, 115, 116, 117, 118, 119, 120, 121, 122, 123, 124, 125, 126, 127, 128, 129, 130, 131, 132, 133, 134, 135, 136, 137, 138, 139, 140, 141, 142, 143, 144, 145, 146, 147, 148, 149, 150, 151, 152, 153, 154, 155, 156, 157, 158, 159, 160, 161, 162, 163, 164, 165, 166, 167, 168, 169, 170, 171, 172, 173, 174, 175, 176, 177, 178, 179, 180, 181, 182, 183, 184, 185, 186, 187, 188, 189, 190, 191, 192, 193, 194, 195, 196, 197, 198, 199, 200],
      "LargestImagePixelValue": [3506, 3506, 3509, 3504, 3503, 3503, 3502, 3494, 3490, 3494, 3494, 3495, 3490, 3487, 3491, 3491, 3489, 3487, 3488, 3488, 3488, 3496, 3493, 3491, 3494, 3483, 3488, 3492, 3490, 3489, 3493, 3496, 3495, 3500, 3505, 3502, 3506, 3504, 3501, 3503, 3510, 3514, 3513, 3509, 3511, 3517, 3518, 3522, 3512, 3509, 3505, 3507, 3505, 3505, 3502, 3501, 3496, 3497, 3504, 3503, 3500, 3499, 3498, 3507, 3508, 3509, 3514, 3511, 3512, 3514, 3519, 3520, 3522, 3518, 3520, 3524, 3525, 3526, 3526, 3525, 3513, 3511, 3511, 3514, 3519, 3521, 3511, 3510, 3513, 3519, 3523, 3522, 3526, 3524, 3520, 3523, 3520, 3525, 3527, 3528, 3522, 3524, 3526, 3523, 3525, 3522, 3522, 3525, 3519, 3517, 3518, 3517, 3520, 3523, 3522, 3523, 3521, 3518, 3524, 3524, 3528, 3526, 3520, 3516, 3521, 3533, 3531, 3528, 3525, 3518, 3510, 3516, 3520, 3521, 3519, 3518, 3515, 3513, 3507, 3510, 3512, 3519, 3521, 3516, 3519, 3517, 3519, 3520, 3524, 3525, 3526, 3525, 3528, 3530, 3527, 3523, 3522, 3523, 3521, 3526, 3531, 3528, 3519, 3512, 3514, 3522, 3518, 3512, 3513, 3517, 3514, 3519, 3519, 3521, 3526, 3519, 3526, 3521, 3524, 3522, 3517, 3522, 3520, 3522, 3520, 3525, 3528, 3524, 3528, 3530, 3538, 3533, 3531, 3530, 3524, 3526, 3524, 3529, 3522, 3526],
      "WindowCenter": [1323.0, 1322.0, 1323.0, 1323.0, 1323.0, 1323.0, 1322.0, 1322.0, 1323.0, 1322.0, 1323.0, 1322.0, 1323.0, 1322.0, 1322.0, 1322.0, 1322.0, 1322.0, 1322.0, 1322.0, 1322.0, 1322.0, 1322.0, 1322.0, 1322.0, 1321.0, 1321.0, 1321.0, 1321.0, 1321.0, 1322.0, 1321.0, 1321.0, 1321.0, 1321.0, 1321.0, 1321.0, 1322.0, 1322.0, 1321.0, 1321.0, 1321.0, 1321.0, 1321.0, 1321.0, 1321.0, 1321.0, 1321.0, 1321.0, 1321.0, 1321.0, 1321.0, 1321.0, 1321.0, 1321.0, 1320.0, 1320.0, 1320.0, 1320.0, 1321.0, 1321.0, 1321.0, 1320.0, 1321.0, 1320.0, 1321.0, 1321.0, 1321.0, 1320.0, 1320.0, 1320.0, 1319.0, 1320.0, 1320.0, 1320.0, 1320.0, 1320.0, 1320.0, 1320.0, 1320.0, 1320.0, 1320.0, 1321.0, 1320.0, 1320.0, 1320.0, 1320.0, 1320.0, 1320.0, 1320.0, 1320.0, 1320.0, 1319.0, 1320.0, 1319.0, 1320.0, 1320.0, 1320.0, 1320.0, 1321.0, 1320.0, 1320.0, 1320.0, 1320.0, 1319.0, 1320.0, 1319.0, 1320.0, 1319.0, 1320.0, 1319.0, 1320.0, 1320.0, 1319.0, 1320.0, 1320.0, 1320.0, 1320.0, 1319.0, 1320.0, 1320.0, 1320.0, 1320.0, 1320.0, 1319.0, 1319.0, 1320.0, 1319.0, 1320.0, 1319.0, 1319.0, 1319.0, 1319.0, 1319.0, 1319.0, 1319.0, 1320.0, 1320.0, 1319.0, 1319.0, 1320.0, 1320.0, 1320.0, 1319.0, 1319.0, 1319.0, 1319.0, 1319.0, 1319.0, 1318.0, 1319.0, 1319.0, 1319.0, 1319.0, 1319.0, 1318.0, 1319.0, 1319.0, 1319.0, 1319.0, 1319.0, 1319.0, 1319.0, 1319.0, 1319.0, 1319.0, 1319.0, 1319.0, 1318.0, 1319.0, 1318.0, 1319.0, 1318.0, 1318.0, 1318.0, 1319.0, 1319.0, 1319.0, 1318.0, 1318.0, 1319.0, 1318.0, 1318.0, 1318.0, 1318.0, 1318.0, 1319.0, 1318.0, 1318.0, 1318.0, 1318.0, 1318.0, 1318.0, 1317.0, 1318.0, 1318.0, 1319.0, 1318.0, 1318.0, 1319.0],
      "WindowWidth": [3185.0, 3185.0, 3185.0, 3185.0, 3185.0, 3184.0, 3184.0, 3184.0, 3184.0, 3184.0, 3184.0, 3184.0, 3184.0, 3184.0, 3184.0, 3183.0, 3183.0, 3183.0, 3183.0, 3183.0, 3183.0, 3183.0, 3183.0, 3183.0, 3183.0, 3183.0, 3183.0, 3183.0, 3183.0, 3183.0, 3183.0, 3183.0, 3183.0, 3183.0, 3183.0, 3183.0, 3183.0, 3183.0, 3183.0, 3183.0, 3183.0, 3183.0, 3183.0, 3183.0, 3183.0, 3183.0, 3183.0, 3183.0, 3183.0, 3183.0, 3183.0, 3182.0, 3182.0, 3182.0, 3182.0, 3182.0, 3182.0, 3182.0, 3182.0, 3182.0, 3182.0, 3183.0, 3182.0, 3183.0, 3183.0, 3182.0, 3182.0, 3182.0, 3182.0, 3183.0, 3182.0, 3183.0, 3182.0, 3182.0, 3182.0, 3182.0, 3182.0, 3182.0, 3182.0, 3182.0, 3182.0, 3183.0, 3182.0, 3182.0, 3182.0, 3182.0, 3182.0, 3182.0, 3182.0, 3182.0, 3181.0, 3181.0, 3182.0, 3181.0, 3182.0, 3182.0, 3182.0, 3182.0, 3182.0, 3182.0, 3182.0, 3182.0, 3182.0, 3182.0, 3182.0, 3182.0, 3182.0, 3181.0, 3182.0, 3181.0, 3182.0, 3182.0, 3181.0, 3182.0, 3181.0, 3181.0, 3181.0, 3181.0, 3181.0, 3181.0, 3181.0, 3181.0, 3181.0, 3181.0, 3181.0, 3182.0, 3181.0, 3181.0, 3181.0, 3181.0, 3181.0, 3181.0, 3181.0, 3181.0, 3181.0, 3181.0, 3181.0, 3181.0, 3182.0, 3182.0, 3181.0, 3181.0, 3181.0, 3181.0, 3181.0, 3180.0, 3180.0, 3180.0, 3180.0, 3181.0, 3180.0, 3180.0, 3180.0, 3180.0, 3180.0, 3181.0, 3180.0, 3180.0, 3180.0, 3180.0, 3180.0, 3180.0, 3180.0, 3180.0, 3180.0, 3180.0, 3180.0, 3180.0, 3180.0, 3180.0, 3180.0, 3180.0, 3180.0, 3180.0, 3180.0, 3180.0, 3180.0, 3180.0, 3180.0, 3180.0, 3180.0, 3180.0, 3180.0, 3180.0, 3180.0, 3180.0, 3180.0, 3180.0, 3180.0, 3180.0, 3180.0, 3180.0, 3180.0, 3180.0, 3180.0, 3180.0, 3180.0, 3180.0, 3180.0, 3180.0]
    },
    "slices": {}
  }
}