{
  "AcquisitionMatrixPE": 80,
  "AcquisitionNumber": 1,
  "AcquisitionTime": "09:15:27.440000",
  "BandwidthPerPixelPhaseEncode": 25,
  "BaseResolution": 80,
  "BodyPartExamined": "BRAIN",
  "CoilCombinationMethod": "Sum of Squares",
  "ConsistencyInfo": "N4_VE11E_LATEST_20181129",
  "ConversionSoftware": "dcm2niix",
  "ConversionSoftwareVersion": "v1.0.20220720",
  "DerivedVendorReportedEchoSpacing": 0.0005,
  "DeviceSerialNumber": "66112",
  "DwellTime": 2.7e-06,
  "EchoTime": 0.03,
  "EchoTrainLength": 80,
  "EffectiveEchoSpacing": 0.0005,
  "FlipAngle": 77,
  "HeudiconvVersion": "0.13.1",
  "ImageOrientationPatientDICOM": [0.988905, 0.148446, 0.00552, -0.14268, 0.938835, 0.313418],
  "ImageOrientationText": "Tra>Cor(18.1)>Sag(-2.4)",
  "ImageType": [
    "ORIGINAL",
    "PRIMARY",
    "M",
    "ND",
    "NORM",
    "MOSAIC"
],
  "ImagingFrequency": 123.259,
  "InPlanePhaseEncodingDirectionDICOM": "COL",
  "InstitutionAddress": "Maynard 3,Hanover,NH,US,03755",
  "InstitutionName": "Dartmouth College - PBS",
  "InstitutionalDepartmentName": "Department",
  "MRAcquisitionType": "2D",
  "MagneticFieldStrength": 3,
  "Manufacturer": "Siemens",
  "ManufacturersModelName": "Prisma",
  "MatrixCoilMode": "SENSE",
  "Modality": "MR",
  "NonlinearGradientCorrection": false,
  "PartialFourier": 1,
  "PatientPosition": "HFS",
  "PercentPhaseFOV": 100,
  "PercentSampling": 100,
  "PhaseEncodingDirection": "j-",
  "PhaseEncodingSteps": 80,
  "PhaseResolution": 1,
  "PixelBandwidth": 2315,
  "ProcedureStepDescription": "dbic^QA",
  "ProtocolName": "func-bold_fa-77",
  "PulseSequenceDetails": "%SiemensSeq%\\ep2d_bold",
  "ReceiveCoilActiveElements": "HC1-7;NC1,2",
  "ReceiveCoilName": "HeadNeck_64",
  "ReconMatrixPE": 80,
  "RepetitionTime": 2,
  "SAR": 0.0283566,
  "ScanOptions": "FS",
  "ScanningSequence": "EP",
  "SequenceName": "*epfid2d1_80",
  "SequenceVariant": "SK",
  "SeriesDescription": "func-bold_fa-77",
  "SeriesNumber": 6,
  "ShimSetting": [4215, -7744, -7480, -102, -145, -266, -88, 91],
  "SliceThickness": 3.5,
  "SliceTiming": [0.99, 0, 1.055, 0.0675, 1.1225, 0.1325, 1.1875, 0.1975, 1.255, 0.265, 1.32, 0.33, 1.385, 0.3975, 1.4525, 0.4625, 1.5175, 0.5275, 1.585, 0.595, 1.65, 0.66, 1.715, 0.7275, 1.7825, 0.7925, 1.8475, 0.8575, 1.915, 0.925],
  "SoftwareVersions": "syngo MR E11",
  "SpacingBetweenSlices": 3.99,
  "StationName": "AWP66112",
  "TotalReadoutTime": 0.0395,
  "TxRefAmp": 215.36,
  "dcmmeta_affine": [
    [-2.9667153358459473, -0.428038626909256, -0.16495974361896515, 139.1024627685547],
    [-0.44533833861351013, 2.8165059089660645, 1.2398052215576172, -108.71349334716797],
    [0.01655999757349491, -0.9402536153793335, 3.788900852203369, -14.84218692779541],
    [0.0, 0.0, 0.0, 1.0]
],
  "dcmmeta_reorient_transform": [
    [0.0, -1.0, 0.0, 79.0],
    [1.0, 0.0, 0.0, 0.0],
    [0.0, 0.0, 1.0, 0.0],
    [0.0, 0.0, 0.0, 1.0]
],
  "dcmmeta_shape": [80, 80, 30, 200],
  "dcmmeta_slice_dim": 2,
  "dcmmeta_version": 0.6,
  "global": {
    "const": {
      "AccessionNumber": "qa64",
      "AcquisitionMatrix": [80, 0, 0, 80],
      "AngioFlag": "N",
      "BitsAllocated": 16,
      "BitsStored": 12,
      "BodyPartExamined": "BRAIN",
      "Columns": 480,
      "EchoNumbers": 1,
      "EchoTime": 30.0,
      "EchoTrainLength": 80,
      "FlipAngle": 77.0,
      "HighBit": 11,
      "ImageOrientationPatient": [0.98890509168146, 0.1484461156575, 0.00551999933714, -0.1426795414605, 0.93883533396222, 0.31341787465409],
      "ImagePositionPatient": [-613.02273472303, -766.15935133728, -280.48494731324],
      "ImageType": [
        "ORIGINAL",
        "PRIMARY",
        "M",
        "ND",
        "NORM",
        "MOSAIC"
],
      "ImagedNucleus": "1H",
      "ImagingFrequency": 123.259243,
      "InPlanePhaseEncodingDirection": "COL",
      "MRAcquisitionType": "2D",
      "MagneticFieldStrength": 3.0,
      "Manufacturer": "SIEMENS",
      "ManufacturerModelName": "Prisma",
      "Modality": "MR",
      "NumberOfAverages": 1.0,
      "NumberOfPhaseEncodingSteps": 80,
      "PercentPhaseFieldOfView": 100.0,
      "PercentSampling": 100.0,
      "PerformedProcedureStepStartTime": "090652.366000",
      "PhotometricInterpretation": "MONOCHROME2",
      "PixelBandwidth": 2315.0,
      "PixelRepresentation": 0,
      "PixelSpacing": [3.0, 3.0],
      "ProtocolName": "func-bold_fa-77",
      "RepetitionTime": 2000.0,
      "Rows": 480,
      "SAR": 0.02835655025447,
      "SamplesPerPixel": 1,
      "ScanOptions": "FS",
      "ScanningSequence": "EP",
      "SequenceName": "*epfid2d1_80",
      "SequenceVariant": "SK",
      "SeriesDescription": "func-bold_fa-77",
      "SeriesNumber": 6,
      "SeriesTime": "091617.856000",
      "SliceLocation": -53.625422981692,
      "SliceThickness": 3.5,
      "SmallestImagePixelValue": 0,
      "SoftwareVersions": "syngo MR E11",
      "SpacingBetweenSlices": 3.98999988503,
      "SpecificCharacterSet": "ISO_IR 100",
      "StudyID": "10",
      "StudyTime": "090652.270000",
      "TransmitCoilName": "Body",
      "VariableFlipAngleFlag": "N",
      "WindowCenterWidthExplanation": "Algo1"
    },
    "slices": {}
  },
  "time": {
    "samples": {
      "AcquisitionNumber": [1, 2, 3, 4, 5, 6, 7, 8, 9, 10, 11, 12, 13, 14, 15, 16, 17, 18, 19, 20, 21, 22, 23, 24, 25, 26, 27, 28, 29, 30, 31, 32, 33, 34, 35, 36, 37, 38, 39, 40, 41, 42, 43, 44, 45, 46, 47, 48, 49, 50, 51, 52, 53, 54, 55, 56, 57, 58, 59, 60, 61, 62, 63, 64, 65, 66, 67, 68, 69, 70, 71, 72, 73, 74, 75, 76, 77, 78, 79, 80, 81, 82, 83, 84, 85, 86, 87, 88, 89, 90, 91, 92, 93, 94, 95, 96, 97, 98, 99, 100, 101, 102, 103, 104, 105, 106, 107, 108, 109, 110, 111, 112, 113, 114, 115, 116, 117, 118, 119, 120, 121, 122, 123, 124, 125, 126, 127, 128, 129, 130, 131, 132, 133, 134, 135, 136, 137, 138, 139, 140, 141, 142, 143, 144, 145, 146, 147, 148, 149, 150, 151, 152, 153, 154, 155, 156, 157, 158, 159, 160, 161, 162, 163, 164, 165, 166, 167, 168, 169, 170, 171, 172, 173, 174, 175, 176, 177, 178, 179, 180, 181, 182, 183, 184, 185, 186, 187, 188, 189, 190, 191, 192, 193, 194, 195, 196, 197, 198, 199, 200],
      "AcquisitionTime": ["091527.440000", "091529.440000", "091531.440000", "091533.440000", "091535.440000", "091537.440000", "091539.440000", "091541.440000", "091543.440000", "091545.440000", "091547.440000", "091549.440000", "091551.440000", "091553.440000", "091555.440000", "091557.440000", "091559.440000", "091601.440000", "091603.440000", "091605.440000", "091607.440000", "091609.440000", "091611.440000", "091613.440000", "091615.440000", "091617.440000", "091619.440000", "091621.440000", "091623.440000", "091625.440000", "091627.440000", "091629.440000", "091631.440000", "091633.440000", "091635.440000", "091637.440000", "091639.440000", "091641.440000", "091643.440000", "091645.440000", "091647.440000", "091649.440000", "091651.440000", "091653.440000", "091655.440000", "091657.440000", "091659.440000", "091701.440000", "091703.440000", "091705.440000", "091707.440000", "091709.440000", "091711.440000", "091713.440000", "091715.440000", "091717.440000", "091719.440000", "091721.440000", "091723.440000", "091725.440000", "091727.440000", "091729.440000", "091731.440000", "091733.440000", "091735.440000", "091737.440000", "091739.440000", "091741.440000", "091743.440000", "091745.440000", "091747.440000", "091749.440000", "091751.440000", "091753.440000", "091755.440000", "091757.440000", "091759.440000", "091801.440000", "091803.440000", "091805.440000", "091807.440000", "091809.440000", "091811.440000", "091813.440000", "091815.440000", "091817.440000", "091819.440000", "091821.440000", "091823.440000", "091825.440000", "091827.440000", "091829.440000", "091831.440000", "091833.440000", "091835.440000", "091837.440000", "091839.440000", "091841.440000", "091843.440000", "091845.440000", "091847.440000", "091849.440000", "091851.440000", "091853.440000", "091855.440000", "091857.440000", "091859.440000", "091901.440000", "091903.440000", "091905.440000", "091907.440000", "091909.440000", "091911.440000", "091913.440000", "091915.440000", "091917.440000", "091919.440000", "091921.440000", "091923.440000", "091925.440000", "091927.440000", "091929.440000", "091931.440000", "091933.440000", "091935.440000", "091937.440000", "091939.440000", "091941.440000", "091943.440000", "091945.440000", "091947.440000", "091949.440000", "091951.440000", "091953.440000", "091955.440000", "091957.440000", "091959.440000", "092001.440000", "092003.440000", "092005.440000", "092007.440000", "092009.440000", "092011.440000", "092013.440000", "092015.440000", "092017.440000", "092019.440000", "092021.440000", "092023.440000", "092025.440000", "092027.440000", "092029.440000", "092031.440000", "092033.440000", "092035.440000", "092037.440000", "092039.440000", "092041.440000", "092043.440000", "092045.440000", "092047.440000", "092049.440000", "092051.440000", "092053.440000", "092055.440000", "092057.440000", "092059.440000", "092101.440000", "092103.440000", "092105.440000", "092107.440000", "092109.440000", "092111.440000", "092113.440000", "092115.440000", "092117.440000", "092119.440000", "092121.440000", "092123.440000", "092125.440000", "092127.440000", "092129.440000", "092131.440000", "092133.440000", "092135.440000", "092137.440000", "092139.440000", "092141.440000", "092143.440000", "092145.440000", "092147.440000", "092149.440000", "092151.440000", "092153.440000", "092155.440000", "092157.440000", "092159.440000", "092201.440000", "092203.440000", "092205.440000"],
      "ContentTime": ["091617.860000", "091617.863000", "091617.865000", "091617.867000", "091617.869000", "091617.872000", "091617.874000", "091617.876000", "091617.879000", "091617.881000", "091617.883000", "091617.885000", "091617.888000", "091617.890000", "091617.892000", "091617.894000", "091617.897000", "091617.899000", "091617.901000", "091617.904000", "091617.906000", "091617.908000", "091617.911000", "091617.913000", "091617.916000", "091657.861000", "091657.864000", "091657.866000", "091657.869000", "091657.871000", "091657.873000", "091657.875000", "091657.878000", "091657.880000", "091657.882000", "091657.885000", "091657.887000", "091657.889000", "091657.892000", "091657.894000", "091657.896000", "091657.899000", "091657.901000", "091657.903000", "091657.906000", "091737.855000", "091737.858000", "091737.860000", "091737.862000", "091737.864000", "091737.867000", "091737.869000", "091737.871000", "091737.874000", "091737.876000", "091737.878000", "091737.880000", "091737.883000", "091737.885000", "091737.887000", "091737.890000", "091737.892000", "091737.894000", "091737.896000", "091737.899000", "091817.854000", "091817.857000", "091817.860000", "091817.862000", "091817.865000", "091817.867000", "091817.869000", "091817.872000", "091817.874000", "091817.876000", "091817.879000", "091817.881000", "091817.883000", "091817.886000", "091817.888000", "091817.890000", "091817.893000", "091817.895000", "091817.897000", "091817.900000", "091857.855000", "091857.858000", "091857.860000", "091857.862000", "091857.865000", "091857.867000", "091857.869000", "091857.871000", "091857.874000", "091857.876000", "091857.878000", "091857.881000", "091857.883000", "091857.885000", "091857.887000", "091857.890000", "091857.892000", "091857.894000", "091857.897000", "091857.899000", "091937.855000", "091937.868000", "091937.870000", "091937.872000", "091937.874000", "091937.877000", "091937.879000", "091937.881000", "091937.884000", "091937.886000", "091937.888000", "091937.890000", "091937.893000", "091937.895000", "091937.897000", "091937.900000", "091937.902000", "091937.904000", "091937.907000", "091937.909000", "092017.854000", "092017.857000", "092017.859000", "092017.862000", "092017.864000", "092017.866000", "092017.868000", "092017.871000", "092017.873000", "092017.875000", "092017.878000", "092017.880000", "092017.882000", "092017.884000", "092017.887000", "092017.889000", "092017.891000", "092017.893000", "092017.896000", "092017.898000", "092057.855000", "092057.858000", "092057.860000", "092057.863000", "092057.865000", "092057.867000", "092057.869000", "092057.872000", "092057.874000", "092057.876000", "092057.879000", "092057.881000", "092057.883000", "092057.886000", "092057.888000", "092057.890000", "092057.892000", "092057.895000", "092057.897000", "092057.899000", "092137.855000", "092137.858000", "092137.860000", "092137.862000", "092137.865000", "092137.867000", "092137.869000", "092137.872000", "092137.874000", "092137.876000", "092137.879000", "092137.881000", "092137.883000", "092137.885000", "092137.888000", "092137.890000", "092137.892000", "092137.895000", "092137.897000", "092137.899000", "092206.581000", "092206.584000", "092206.586000", "092206.589000", "092206.592000", "092206.594000", "092206.596000", "092206.599000", "092206.601000", "092206.603000", "092206.606000", "092206.608000", "092206.611000", "092206.615000", "092206.619000"],
      "InstanceCreationTime": ["091617.860000", "091617.863000", "091617.865000", "091617.867000", "091617.869000", "091617.872000", "091617.874000", "091617.876000", "091617.879000", "091617.881000", "091617.883000", "091617.885000", "091617.888000", "091617.890000", "091617.892000", "091617.894000", "091617.897000", "091617.899000", "091617.901000", "091617.904000", "091617.906000", "091617.908000", "091617.911000", "091617.913000", "091617.916000", "091657.861000", "091657.864000", "091657.866000", "091657.869000", "091657.871000", "091657.873000", "091657.875000", "091657.878000", "091657.880000", "091657.882000", "091657.885000", "091657.887000", "091657.889000", "091657.892000", "091657.894000", "091657.896000", "091657.899000", "091657.901000", "091657.903000", "091657.906000", "091737.855000", "091737.858000", "091737.860000", "091737.862000", "091737.864000", "091737.867000", "091737.869000", "091737.871000", "091737.874000", "091737.876000", "091737.878000", "091737.880000", "091737.883000", "091737.885000", "091737.887000", "091737.890000", "091737.892000", "091737.894000", "091737.896000", "091737.899000", "091817.854000", "091817.857000", "091817.860000", "091817.862000", "091817.865000", "091817.867000", "091817.869000", "091817.872000", "091817.874000", "091817.876000", "091817.879000", "091817.881000", "091817.883000", "091817.886000", "091817.888000", "091817.890000", "091817.893000", "091817.895000", "091817.897000", "091817.900000", "091857.855000", "091857.858000", "091857.860000", "091857.862000", "091857.865000", "091857.867000", "091857.869000", "091857.871000", "091857.874000", "091857.876000", "091857.878000", "091857.881000", "091857.883000", "091857.885000", "091857.887000", "091857.890000", "091857.892000", "091857.894000", "091857.897000", "091857.899000", "091937.855000", "091937.868000", "091937.870000", "091937.872000", "091937.874000", "091937.877000", "091937.879000", "091937.881000", "091937.884000", "091937.886000", "091937.888000", "091937.890000", "091937.893000", "091937.895000", "091937.897000", "091937.900000", "091937.902000", "091937.904000", "091937.907000", "091937.909000", "092017.854000", "092017.857000", "092017.859000", "092017.862000", "092017.864000", "092017.866000", "092017.868000", "092017.871000", "092017.873000", "092017.875000", "092017.878000", "092017.880000", "092017.882000", "092017.884000", "092017.887000", "092017.889000", "092017.891000", "092017.893000", "092017.896000", "092017.898000", "092057.855000", "092057.858000", "092057.860000", "092057.863000", "092057.865000", "092057.867000", "092057.869000", "092057.872000", "092057.874000", "092057.876000", "092057.879000", "092057.881000", "092057.883000", "092057.886000", "092057.888000", "092057.890000", "092057.892000", "092057.895000", "092057.897000", "092057.899000", "092137.855000", "092137.858000", "092137.860000", "092137.862000", "092137.865000", "092137.867000", "092137.869000", "092137.872000", "092137.874000", "092137.876000", "092137.879000", "092137.881000", "092137.883000", "092137.885000", "092137.888000", "092137.890000", "092137.892000", "092137.895000", "092137.897000", "092137.899000", "092206.581000", "092206.584000", "092206.586000", "092206.589000", "092206.592000", "092206.594000", "092206.596000", "092206.599000", "092206.601000", "092206.603000", "092206.606000", "092206.608000", "092206.611000", "092206.615000", "092206.619000"],
      "InstanceNumber": [1, 2, 3, 4, 5, 6, 7, 8, 9, 10, 11, 12, 13, 14, 15, 16, 17, 18, 19, 20, 21, 22, 23, 24, 25, 26, 27, 28, 29, 30, 31, 32, 33, 34, 35, 36, 37, 38, 39, 40, 41, 42, 43, 44, 45, 46, 47, 48, 49, 50, 51, 52, 53, 54, 55, 56, 57, 58, 59, 60, 61, 62, 63, 64, 65, 66, 67, 68, 69, 70, 71, 72, 73, 74, 75, 76, 77, 78, 79, 80, 81, 82, 83, 84, 85, 86, 87, 88, 89, 90, 91, 92, 93, 94, 95, 96, 97, 98, 99, 100, 101, 102, 103, 104, 105, 106, 107, 108, 109, 110, 111, 112, 113, 114, 115, 116, 117, 118, 119, 120, 121, 122, 123, 124, 125, 126, 127, 128, 129, 130, 131, 132, 133, 134, 135, 136, 137, 138, 139, 140, 141, 142, 143, 144, 145, 146, 147, 148, 149, 150, 151, 152, 153, 154, 155, 156, 157, 158, 159, 160, 161, 162, 163, 164, 165, 166, 167, 168, 169, 170, 171, 172, 173, 174, 175, 176, 177, 178, 179, 180, 181, 182, 183, 184, 185, 186, 187, 188, 189, 190, 191, 192, 193, 194, 195, 196, 197, 198, 199, 200],
      "LargestImagePixelValue": [4091, 4088, 4092, 4085, 4086, 4087, 4087, 4087, 4083, 4088, 4087, 4088, 4087, 4081, 4082, 4083, 4082, 4089, 4085, 4082, 4081, 4085, 4079, 4082, 4083, 4084, 4083, 4079, 4084, 4079, 4086, 4082, 4081, 4087, 4086, 4080, 4079, 4081, 4086, 4079, 4077, 4083, 4080, 4078, 4075, 4079, 4075, 4084, 4082, 4076, 4080, 4080, 4077, 4071, 4074, 4076, 4077, 4075, 4078, 4074, 4076, 4077, 4077, 4078, 4084, 4081, 4077, 4076, 4080, 4075, 4075, 4077, 4073, 4071, 4077, 4078, 4074, 4076, 4074, 4070, 4080, 4077, 4077, 4072, 4069, 4075, 4071, 4070, 4076, 4077, 4073, 4076, 4075, 4072, 4080, 4072, 4072, 4071, 4071, 4073, 4071, 4069, 4073, 4066, 4066, 4073, 4071, 4072, 4076, 4074, 4071, 4073, 4069, 4071, 4074, 4070, 4071, 4072, 4071, 4073, 4075, 4071, 4071, 4074, 4070, 4077, 4072, 4072, 4073, 4070, 4070, 4070, 4066, 4073, 4071, 4071, 4069, 4069, 4073, 4070, 4070, 4068, 4067, 4067, 4063, 4069, 4070, 4067, 4065, 4066, 4069, 4073, 4065, 4068, 4067, 4072, 4067, 4068, 4071, 4068, 4071, 4069, 4066, 4064, 4074, 4065, 4069, 4073, 4069, 4071, 4067, 4071, 4066, 4069, 4067, 4067, 4069, 4065, 4066, 4065, 4068, 4064, 4065, 4063, 4062, 4065, 4066, 4065, 4062, 4066, 4060, 4066, 4061, 4065, 4070, 4064, 4067, 4064, 4068, 4064],
      "WindowCenter": [1419.0, 1419.0, 1419.0, 1419.0, 1419.0, 1418.0, 1418.0, 1418.0, 1418.0, 1419.0, 1418.0, 1418.0, 1418.0, 1418.0, 1418.0, 1418.0, 1417.0, 1418.0, 1418.0, 1417.0, 1418.0, 1418.0, 1418.0, 1418.0, 1417.0, 1418.0, 1417.0, 1417.0, 1417.0, 1417.0, 1417.0, 1417.0, 1417.0, 1418.0, 1418.0, 1418.0, 1418.0, 1418.0, 1417.0, 1417.0, 1417.0, 1417.0, 1417.0, 1417.0, 1417.0, 1417.0, 1417.0, 1417.0, 1417.0, 1417.0, 1417.0, 1416.0, 1416.0, 1417.0, 1416.0, 1416.0, 1416.0, 1416.0, 1416.0, 1417.0, 1416.0, 1416.0, 1416.0, 1416.0, 1416.0, 1416.0, 1416.0, 1416.0, 1416.0, 1416.0, 1416.0, 1416.0, 1416.0, 1416.0, 1416.0, 1416.0, 1415.0, 1415.0, 1416.0, 1415.0, 1415.0, 1416.0, 1416.0, 1415.0, 1416.0, 1415.0, 1416.0, 1415.0, 1415.0, 1415.0, 1415.0, 1415.0, 1415.0, 1415.0, 1415.0, 1415.0, 1416.0, 1415.0, 1415.0, 1415.0, 1415.0, 1415.0, 1415.0, 1415.0, 1415.0, 1414.0, 1415.0, 1414.0, 1415.0, 1415.0, 1415.0, 1414.0, 1415.0, 1415.0, 1414.0, 1415.0, 1414.0, 1414.0, 1414.0, 1414.0, 1414.0, 1414.0, 1414.0, 1414.0, 1415.0, 1414.0, 1414.0, 1414.0, 1414.0, 1414.0, 1414.0, 1414.0, 1415.0, 1414.0, 1414.0, 1414.0, 1414.0, 1414.0, 1413.0, 1414.0, 1413.0, 1414.0, 1414.0, 1414.0, 1413.0, 1413.0, 1413.0, 1413.0, 1413.0, 1414.0, 1413.0, 1413.0, 1414.0, 1413.0, 1413.0, 1414.0, 1413.0, 1414.0, 1413.0, 1413.0, 1413.0, 1412.0, 1413.0, 1412.0, 1412.0, 1413.0, 1413.0, 1413.0, 1413.0, 1413.0, 1413.0, 1413.0, 1413.0, 1413.0, 1413.0, 1413.0, 1412.0, 1413.0, 1412.0, 1412.0, 1413.0, 1412.0, 1413.0, 1412.0, 1413.0, 1412.0, 1412.0, 1413.0, 1413.0, 1413.0, 1412.0, 1412.0, 1412.0, 1413.0, 1411.0, 1412.0, 1412.0, 1412.0, 1412.0, 1412.0],
      "WindowWidth": [3359.0, 3359.0, 3359.0, 3359.0, 3359.0, 3359.0, 3359.0, 3359.0, 3359.0, 3359.0, 3359.0, 3359.0, 3359.0, 3359.0, 3359.0, 3359.0, 3359.0, 3358.0, 3359.0, 3359.0, 3358.0, 3358.0, 3359.0, 3358.0, 3358.0, 3358.0, 3358.0, 3358.0, 3358.0, 3358.0, 3358.0, 3358.0, 3358.0, 3358.0, 3358.0, 3358.0, 3358.0, 3358.0, 3358.0, 3358.0, 3358.0, 3358.0, 3358.0, 3358.0, 3357.0, 3357.0, 3357.0, 3357.0, 3357.0, 3357.0, 3357.0, 3357.0, 3357.0, 3357.0, 3357.0, 3357.0, 3357.0, 3357.0, 3357.0, 3357.0, 3357.0, 3357.0, 3357.0, 3357.0, 3357.0, 3357.0, 3357.0, 3357.0, 3357.0, 3357.0, 3357.0, 3357.0, 3356.0, 3356.0, 3356.0, 3356.0, 3356.0, 3356.0, 3356.0, 3356.0, 3356.0, 3356.0, 3356.0, 3356.0, 3356.0, 3356.0, 3356.0, 3356.0, 3356.0, 3356.0, 3356.0, 3356.0, 3356.0, 3356.0, 3356.0, 3356.0, 3355.0, 3356.0, 3355.0, 3355.0, 3355.0, 3355.0, 3355.0, 3355.0, 3355.0, 3355.0, 3355.0, 3355.0, 3355.0, 3355.0, 3355.0, 3355.0, 3355.0, 3355.0, 3355.0, 3354.0, 3355.0, 3355.0, 3355.0, 3355.0, 3355.0, 3355.0, 3355.0, 3355.0, 3354.0, 3355.0, 3355.0, 3354.0, 3354.0, 3354.0, 3354.0, 3354.0, 3354.0, 3354.0, 3354.0, 3354.0, 3354.0, 3354.0, 3354.0, 3354.0, 3354.0, 3354.0, 3354.0, 3353.0, 3354.0, 3354.0, 3354.0, 3354.0, 3354.0, 3353.0, 3354.0, 3354.0, 3353.0, 3354.0, 3354.0, 3353.0, 3354.0, 3353.0, 3354.0, 3353.0, 3353.0, 3354.0, 3353.0, 3354.0, 3354.0, 3353.0, 3353.0, 3353.0, 3353.0, 3353.0, 3353.0, 3353.0, 3353.0, 3353.0, 3353.0, 3353.0, 3353.0, 3353.0, 3353.0, 3353.0, 3353.0, 3353.0, 3353.0, 3353.0, 3353.0, 3353.0, 3353.0, 3353.0, 3352.0, 3352.0, 3352.0, 3352.0, 3352.0, 3352.0, 3353.0, 3352.0, 3352.0, 3352.0, 3352.0, 3352.0]
    },
    "slices": {}
  }
}