{
  "AcquisitionMatrixPE": 80,
  "AcquisitionNumber": 1,
  "AcquisitionTime": "09:08:35.750000",
  "BandwidthPerPixelPhaseEncode": 48.077,
  "BaseResolution": 80,
  "BodyPartExamined": "BRAIN",
  "CoilCombinationMethod": "Sum of Squares",
  "ConsistencyInfo": "N4_VE11E_LATEST_20181129",
  "ConversionSoftware": "dcm2niix",
  "ConversionSoftwareVersion": "v1.0.20220720",
  "DerivedVendorReportedEchoSpacing": 0.000519999,
  "DeviceSerialNumber": "66112",
  "DwellTime": 2.7e-06,
  "EchoTime": 0.035,
  "EchoTrainLength": 39,
  "EffectiveEchoSpacing": 0.00026,
  "FlipAngle": 90,
  "HeudiconvVersion": "0.13.1",
  "ImageOrientationPatientDICOM": [0.988905, 0.148446, 0.00552, -0.14268, 0.938835, 0.313418],
  "ImageOrientationText": "Tra>Cor(18.1)>Sag(-2.4)",
  "ImageType": [
    "ORIGINAL",
    "PRIMARY",
    "M",
    "ND",
    "NORM",
    "MOSAIC"
],
  "ImagingFrequency": 123.259,
  "InPlanePhaseEncodingDirectionDICOM": "COL",
  "InstitutionAddress": "Maynard 3,Hanover,NH,US,03755",
  "InstitutionName": "Dartmouth College - PBS",
  "InstitutionalDepartmentName": "Department",
  "MRAcquisitionType": "2D",
  "MagneticFieldStrength": 3,
  "Manufacturer": "Siemens",
  "ManufacturersModelName": "Prisma",
  "MatrixCoilMode": "GRAPPA",
  "Modality": "MR",
  "NonlinearGradientCorrection": false,
  "ParallelReductionFactorInPlane": 2,
  "PartialFourier": 1,
  "PatientPosition": "HFS",
  "PercentPhaseFOV": 100,
  "PercentSampling": 100,
  "PhaseEncodingDirection": "j-",
  "PhaseEncodingSteps": 79,
  "PhaseResolution": 1,
  "PixelBandwidth": 2315,
  "ProcedureStepDescription": "dbic^QA",
  "ProtocolName": "func-bold_task-rest_acq-p2",
  "PulseSequenceDetails": "%SiemensSeq%\\ep2d_bold",
  "ReceiveCoilActiveElements": "HC1-7;NC1,2",
  "ReceiveCoilName": "HeadNeck_64",
  "ReconMatrixPE": 80,
  "RefLinesPE": 24,
  "RepetitionTime": 2,
  "SAR": 0.0360839,
  "ScanOptions": "FS",
  "ScanningSequence": "EP",
  "SequenceName": "*epfid2d1_80",
  "SequenceVariant": "SK",
  "SeriesDescription": "func-bold_task-rest_acq-p2",
  "SeriesNumber": 5,
  "ShimSetting": [4215, -7744, -7480, -108, -146, -268, -93, 91],
  "SliceThickness": 3.5,
  "SliceTiming": [0.99, 0, 1.055, 0.0675, 1.1225, 0.1325, 1.1875, 0.1975, 1.255, 0.265, 1.32, 0.33, 1.385, 0.395, 1.4525, 0.4625, 1.5175, 0.5275, 1.585, 0.595, 1.65, 0.66, 1.715, 0.725, 1.7825, 0.7925, 1.8475, 0.8575, 1.915, 0.925],
  "SoftwareVersions": "syngo MR E11",
  "SpacingBetweenSlices": 3.99,
  "StationName": "AWP66112",
  "TaskName": "rest",
  "TotalReadoutTime": 0.02054,
  "TxRefAmp": 215.36,
  "dcmmeta_affine": [
    [-2.9667153358459473, -0.428038626909256, -0.16495974361896515, 141.34251403808594],
    [-0.44533833861351013, 2.8165059089660645, 1.2398052215576172, -110.82366180419922],
    [0.01655999757349491, -0.9402536153793335, 3.7889010906219482, -18.096050262451172],
    [0.0, 0.0, 0.0, 1.0]
],
  "dcmmeta_reorient_transform": [
    [0.0, -1.0, 0.0, 79.0],
    [1.0, 0.0, 0.0, 0.0],
    [0.0, 0.0, 1.0, 0.0],
    [0.0, 0.0, 0.0, 1.0]
],
  "dcmmeta_shape": [80, 80, 30, 200],
  "dcmmeta_slice_dim": 2,
  "dcmmeta_version": 0.6,
  "global": {
    "const": {
      "AccessionNumber": "qa64",
      "AcquisitionMatrix": [80, 0, 0, 80],
      "AngioFlag": "N",
      "BitsAllocated": 16,
      "BitsStored": 12,
      "BodyPartExamined": "BRAIN",
      "Columns": 480,
      "EchoNumbers": 1,
      "EchoTime": 35.0,
      "EchoTrainLength": 39,
      "FlipAngle": 90.0,
      "HighBit": 11,
      "ImageOrientationPatient": [0.98890509168146, 0.1484461156575, 0.00551999933714, -0.1426795414605, 0.93883533396222, 0.31341787465409],
      "ImagePositionPatient": [-615.26279481405, -764.0491809729, -283.73881160157],
      "ImageType": [
        "ORIGINAL",
        "PRIMARY",
        "M",
        "ND",
        "NORM",
        "MOSAIC"
],
      "ImagedNucleus": "1H",
      "ImagingFrequency": 123.259244,
      "InPlanePhaseEncodingDirection": "COL",
      "LargestImagePixelValue": 4095,
      "MRAcquisitionType": "2D",
      "MagneticFieldStrength": 3.0,
      "Manufacturer": "SIEMENS",
      "ManufacturerModelName": "Prisma",
      "Modality": "MR",
      "NumberOfAverages": 1.0,
      "NumberOfPhaseEncodingSteps": 79,
      "PercentPhaseFieldOfView": 100.0,
      "PercentSampling": 100.0,
      "PerformedProcedureStepStartTime": "090652.366000",
      "PhotometricInterpretation": "MONOCHROME2",
      "PixelBandwidth": 2315.0,
      "PixelRepresentation": 0,
      "PixelSpacing": [3.0, 3.0],
      "ProtocolName": "func-bold_task-rest_acq-p2",
      "RepetitionTime": 2000.0,
      "Rows": 480,
      "SAR": 0.03608392845014,
      "SamplesPerPixel": 1,
      "ScanOptions": "FS",
      "ScanningSequence": "EP",
      "SequenceName": "*epfid2d1_80",
      "SequenceVariant": "SK",
      "SeriesDescription": "func-bold_task-rest_acq-p2",
      "SeriesNumber": 5,
      "SeriesTime": "090917.772000",
      "SliceLocation": -57.463590863881,
      "SliceThickness": 3.5,
      "SmallestImagePixelValue": 0,
      "SoftwareVersions": "syngo MR E11",
      "SpacingBetweenSlices": 3.9900000305482,
      "SpecificCharacterSet": "ISO_IR 100",
      "StudyID": "10",
      "StudyTime": "090652.270000",
      "TransmitCoilName": "Body",
      "VariableFlipAngleFlag": "N",
      "WindowCenterWidthExplanation": "Algo1"
    },
    "slices": {}
  },
  "time": {
    "samples": {
      "AcquisitionNumber": [1, 2, 3, 4, 5, 6, 7, 8, 9, 10, 11, 12, 13, 14, 15, 16, 17, 18, 19, 20, 21, 22, 23, 24, 25, 26, 27, 28, 29, 30, 31, 32, 33, 34, 35, 36, 37, 38, 39, 40, 41, 42, 43, 44, 45, 46, 47, 48, 49, 50, 51, 52, 53, 54, 55, 56, 57, 58, 59, 60, 61, 62, 63, 64, 65, 66, 67, 68, 69, 70, 71, 72, 73, 74, 75, 76, 77, 78, 79, 80, 81, 82, 83, 84, 85, 86, 87, 88, 89, 90, 91, 92, 93, 94, 95, 96, 97, 98, 99, 100, 101, 102, 103, 104, 105, 106, 107, 108, 109, 110, 111, 112, 113, 114, 115, 116, 117, 118, 119, 120, 121, 122, 123, 124, 125, 126, 127, 128, 129, 130, 131, 132, 133, 134, 135, 136, 137, 138, 139, 140, 141, 142, 143, 144, 145, 146, 147, 148, 149, 150, 151, 152, 153, 154, 155, 156, 157, 158, 159, 160, 161, 162, 163, 164, 165, 166, 167, 168, 169, 170, 171, 172, 173, 174, 175, 176, 177, 178, 179, 180, 181, 182, 183, 184, 185, 186, 187, 188, 189, 190, 191, 192, 193, 194, 195, 196, 197, 198, 199, 200],
      "AcquisitionTime": ["090835.750000", "090837.750000", "090839.750000", "090841.750000", "090843.750000", "090845.750000", "090847.750000", "090849.750000", "090851.750000", "090853.750000", "090855.750000", "090857.750000", "090859.750000", "090901.750000", "090903.750000", "090905.750000", "090907.750000", "090909.750000", "090911.750000", "090913.750000", "090915.750000", "090917.750000", "090919.750000", "090921.750000", "090923.750000", "090925.750000", "090927.750000", "090929.750000", "090931.750000", "090933.750000", "090935.750000", "090937.750000", "090939.750000", "090941.750000", "090943.750000", "090945.750000", "090947.750000", "090949.750000", "090951.750000", "090953.750000", "090955.750000", "090957.750000", "090959.750000", "091001.750000", "091003.750000", "091005.750000", "091007.750000", "091009.750000", "091011.750000", "091013.750000", "091015.750000", "091017.750000", "091019.750000", "091021.750000", "091023.750000", "091025.750000", "091027.750000", "091029.750000", "091031.750000", "091033.750000", "091035.750000", "091037.750000", "091039.750000", "091041.750000", "091043.750000", "091045.750000", "091047.750000", "091049.750000", "091051.750000", "091053.750000", "091055.750000", "091057.750000", "091059.750000", "091101.750000", "091103.750000", "091105.750000", "091107.750000", "091109.750000", "091111.750000", "091113.750000", "091115.750000", "091117.750000", "091119.750000", "091121.750000", "091123.750000", "091125.750000", "091127.750000", "091129.750000", "091131.750000", "091133.750000", "091135.750000", "091137.750000", "091139.750000", "091141.750000", "091143.750000", "091145.750000", "091147.750000", "091149.750000", "091151.750000", "091153.750000", "091155.750000", "091157.750000", "091159.750000", "091201.750000", "091203.750000", "091205.750000", "091207.750000", "091209.750000", "091211.750000", "091213.750000", "091215.750000", "091217.750000", "091219.750000", "091221.750000", "091223.750000", "091225.750000", "091227.750000", "091229.750000", "091231.750000", "091233.750000", "091235.750000", "091237.750000", "091239.750000", "091241.750000", "091243.750000", "091245.750000", "091247.750000", "091249.750000", "091251.750000", "091253.750000", "091255.750000", "091257.750000", "091259.750000", "091301.750000", "091303.750000", "091305.750000", "091307.750000", "091309.750000", "091311.750000", "091313.750000", "091315.750000", "091317.750000", "091319.750000", "091321.750000", "091323.750000", "091325.750000", "091327.750000", "091329.750000", "091331.750000", "091333.750000", "091335.750000", "091337.750000", "091339.750000", "091341.750000", "091343.750000", "091345.750000", "091347.750000", "091349.750000", "091351.750000", "091353.750000", "091355.750000", "091357.750000", "091359.750000", "091401.750000", "091403.750000", "091405.750000", "091407.750000", "091409.750000", "091411.750000", "091413.750000", "091415.750000", "091417.750000", "091419.750000", "091421.750000", "091423.750000", "091425.750000", "091427.750000", "091429.750000", "091431.750000", "091433.750000", "091435.750000", "091437.750000", "091439.750000", "091441.750000", "091443.750000", "091445.750000", "091447.750000", "091449.750000", "091451.750000", "091453.750000", "091455.750000", "091457.750000", "091459.750000", "091501.750000", "091503.750000", "091505.750000", "091507.750000", "091509.750000", "091511.750000", "091513.750000"],
      "ContentTime": ["090917.776000", "090917.792000", "090917.795000", "090917.797000", "090917.799000", "090917.802000", "090917.804000", "090917.808000", "090917.811000", "090917.813000", "090917.864000", "090917.866000", "090917.869000", "090917.871000", "090917.873000", "090917.893000", "090917.896000", "090917.898000", "090917.900000", "090917.903000", "090917.905000", "090957.770000", "090957.773000", "090957.776000", "090957.778000", "090957.793000", "090957.795000", "090957.798000", "090957.800000", "090957.802000", "090957.805000", "090957.807000", "090957.809000", "090957.812000", "090957.814000", "090957.817000", "090957.819000", "090957.821000", "090957.823000", "090957.826000", "090957.828000", "091037.770000", "091037.773000", "091037.775000", "091037.778000", "091037.780000", "091037.782000", "091037.785000", "091037.787000", "091037.789000", "091037.792000", "091037.794000", "091037.804000", "091037.807000", "091037.809000", "091037.811000", "091037.814000", "091037.816000", "091037.818000", "091037.821000", "091037.823000", "091117.769000", "091117.772000", "091117.775000", "091117.777000", "091117.780000", "091117.782000", "091117.784000", "091117.787000", "091117.789000", "091117.791000", "091117.794000", "091117.796000", "091117.798000", "091117.801000", "091117.803000", "091117.806000", "091117.808000", "091117.810000", "091117.813000", "091117.815000", "091157.770000", "091157.773000", "091157.775000", "091157.777000", "091157.780000", "091157.782000", "091157.785000", "091157.787000", "091157.789000", "091157.791000", "091157.794000", "091157.802000", "091157.804000", "091157.806000", "091157.809000", "091157.811000", "091157.814000", "091157.816000", "091157.819000", "091157.821000", "091237.770000", "091237.773000", "091237.775000", "091237.778000", "091237.780000", "091237.782000", "091237.785000", "091237.787000", "091237.790000", "091237.792000", "091237.794000", "091237.797000", "091237.799000", "091237.801000", "091237.804000", "091237.817000", "091237.819000", "091237.821000", "091237.824000", "091237.826000", "091317.769000", "091317.772000", "091317.774000", "091317.777000", "091317.779000", "091317.781000", "091317.784000", "091317.786000", "091317.788000", "091317.791000", "091317.793000", "091317.795000", "091317.798000", "091317.800000", "091317.802000", "091317.805000", "091317.807000", "091317.809000", "091317.812000", "091317.814000", "091357.770000", "091357.773000", "091357.775000", "091357.777000", "091357.780000", "091357.782000", "091357.785000", "091357.787000", "091357.789000", "091357.792000", "091357.794000", "091357.796000", "091357.799000", "091357.801000", "091357.803000", "091357.806000", "091357.808000", "091357.810000", "091357.812000", "091357.815000", "091437.770000", "091437.773000", "091437.775000", "091437.778000", "091437.780000", "091437.783000", "091437.785000", "091437.787000", "091437.790000", "091437.806000", "091437.808000", "091437.811000", "091437.813000", "091437.816000", "091437.818000", "091437.820000", "091437.823000", "091437.825000", "091437.827000", "091437.830000", "091515.188000", "091515.191000", "091515.193000", "091515.195000", "091515.198000", "091515.200000", "091515.202000", "091515.205000", "091515.207000", "091515.210000", "091515.212000", "091515.215000", "091515.217000", "091515.222000", "091515.225000", "091515.229000", "091515.232000", "091515.235000", "091515.237000"],
      "InstanceCreationTime": ["090917.776000", "090917.792000", "090917.795000", "090917.797000", "090917.799000", "090917.802000", "090917.804000", "090917.808000", "090917.811000", "090917.813000", "090917.864000", "090917.866000", "090917.869000", "090917.871000", "090917.873000", "090917.893000", "090917.896000", "090917.898000", "090917.900000", "090917.903000", "090917.905000", "090957.770000", "090957.773000", "090957.776000", "090957.778000", "090957.793000", "090957.795000", "090957.798000", "090957.800000", "090957.802000", "090957.805000", "090957.807000", "090957.809000", "090957.812000", "090957.814000", "090957.817000", "090957.819000", "090957.821000", "090957.823000", "090957.826000", "090957.828000", "091037.770000", "091037.773000", "091037.775000", "091037.778000", "091037.780000", "091037.782000", "091037.785000", "091037.787000", "091037.789000", "091037.792000", "091037.794000", "091037.804000", "091037.807000", "091037.809000", "091037.811000", "091037.814000", "091037.816000", "091037.818000", "091037.821000", "091037.823000", "091117.769000", "091117.772000", "091117.775000", "091117.777000", "091117.780000", "091117.782000", "091117.784000", "091117.787000", "091117.789000", "091117.791000", "091117.794000", "091117.796000", "091117.798000", "091117.801000", "091117.803000", "091117.806000", "091117.808000", "091117.810000", "091117.813000", "091117.815000", "091157.770000", "091157.773000", "091157.775000", "091157.777000", "091157.780000", "091157.782000", "091157.785000", "091157.787000", "091157.789000", "091157.791000", "091157.794000", "091157.802000", "091157.804000", "091157.806000", "091157.809000", "091157.811000", "091157.814000", "091157.816000", "091157.819000", "091157.821000", "091237.770000", "091237.773000", "091237.775000", "091237.778000", "091237.780000", "091237.782000", "091237.785000", "091237.787000", "091237.790000", "091237.792000", "091237.794000", "091237.797000", "091237.799000", "091237.801000", "091237.804000", "091237.817000", "091237.819000", "091237.821000", "091237.824000", "091237.826000", "091317.769000", "091317.772000", "091317.774000", "091317.777000", "091317.779000", "091317.781000", "091317.784000", "091317.786000", "091317.788000", "091317.791000", "091317.793000", "091317.795000", "091317.798000", "091317.800000", "091317.802000", "091317.805000", "091317.807000", "091317.809000", "091317.812000", "091317.814000", "091357.770000", "091357.773000", "091357.775000", "091357.777000", "091357.780000", "091357.782000", "091357.785000", "091357.787000", "091357.789000", "091357.792000", "091357.794000", "091357.796000", "091357.799000", "091357.801000", "091357.803000", "091357.806000", "091357.808000", "091357.810000", "091357.812000", "091357.815000", "091437.770000", "091437.773000", "091437.775000", "091437.778000", "091437.780000", "091437.783000", "091437.785000", "091437.787000", "091437.790000", "091437.806000", "091437.808000", "091437.811000", "091437.813000", "091437.816000", "091437.818000", "091437.820000", "091437.823000", "091437.825000", "091437.827000", "091437.830000", "091515.188000", "091515.191000", "091515.193000", "091515.195000", "091515.198000", "091515.200000", "091515.202000", "091515.205000", "091515.207000", "091515.210000", "091515.212000", "091515.215000", "091515.217000", "091515.222000", "091515.225000", "091515.229000", "091515.232000", "091515.235000", "091515.237000"],
      "InstanceNumber": [1, 2, 3, 4, 5, 6, 7, 8, 9, 10, 11, 12, 13, 14, 15, 16, 17, 18, 19, 20, 21, 22, 23, 24, 25, 26, 27, 28, 29, 30, 31, 32, 33, 34, 35, 36, 37, 38, 39, 40, 41, 42, 43, 44, 45, 46, 47, 48, 49, 50, 51, 52, 53, 54, 55, 56, 57, 58, 59, 60, 61, 62, 63, 64, 65, 66, 67, 68, 69, 70, 71, 72, 73, 74, 75, 76, 77, 78, 79, 80, 81, 82, 83, 84, 85, 86, 87, 88, 89, 90, 91, 92, 93, 94, 95, 96, 97, 98, 99, 100, 101, 102, 103, 104, 105, 106, 107, 108, 109, 110, 111, 112, 113, 114, 115, 116, 117, 118, 119, 120, 121, 122, 123, 124, 125, 126, 127, 128, 129, 130, 131, 132, 133, 134, 135, 136, 137, 138, 139, 140, 141, 142, 143, 144, 145, 146, 147, 148, 149, 150, 151, 152, 153, 154, 155, 156, 157, 158, 159, 160, 161, 162, 163, 164, 165, 166, 167, 168, 169, 170, 171, 172, 173, 174, 175, 176, 177, 178, 179, 180, 181, 182, 183, 184, 185, 186, 187, 188, 189, 190, 191, 192, 193, 194, 195, 196, 197, 198, 199, 200],
      "WindowCenter": [1507.0, 1506.0, 1505.0, 1506.0, 1507.0, 1506.0, 1507.0, 1507.0, 1506.0, 1506.0, 1506.0, 1505.0, 1506.0, 1506.0, 1506.0, 1505.0, 1504.0, 1505.0, 1504.0, 1505.0, 1505.0, 1505.0, 1505.0, 1505.0, 1506.0, 1505.0, 1505.0, 1505.0, 1504.0, 1505.0, 1504.0, 1504.0, 1505.0, 1505.0, 1505.0, 1505.0, 1505.0, 1505.0, 1505.0, 1505.0, 1504.0, 1505.0, 1505.0, 1504.0, 1505.0, 1505.0, 1504.0, 1504.0, 1504.0, 1504.0, 1505.0, 1505.0, 1504.0, 1503.0, 1504.0, 1504.0, 1503.0, 1504.0, 1504.0, 1504.0, 1504.0, 1503.0, 1503.0, 1503.0, 1504.0, 1504.0, 1503.0, 1503.0, 1504.0, 1504.0, 1503.0, 1504.0, 1503.0, 1503.0, 1503.0, 1504.0, 1504.0, 1503.0, 1503.0, 1503.0, 1503.0, 1503.0, 1503.0, 1503.0, 1503.0, 1503.0, 1503.0, 1502.0, 1503.0, 1503.0, 1503.0, 1502.0, 1503.0, 1503.0, 1503.0, 1502.0, 1503.0, 1502.0, 1503.0, 1502.0, 1502.0, 1503.0, 1502.0, 1503.0, 1502.0, 1502.0, 1502.0, 1502.0, 1502.0, 1503.0, 1502.0, 1502.0, 1502.0, 1502.0, 1501.0, 1502.0, 1501.0, 1501.0, 1501.0, 1501.0, 1501.0, 1501.0, 1501.0, 1503.0, 1503.0, 1501.0, 1501.0, 1502.0, 1502.0, 1501.0, 1502.0, 1501.0, 1502.0, 1502.0, 1500.0, 1501.0, 1502.0, 1502.0, 1501.0, 1501.0, 1500.0, 1501.0, 1501.0, 1501.0, 1501.0, 1501.0, 1501.0, 1501.0, 1502.0, 1501.0, 1500.0, 1500.0, 1501.0, 1501.0, 1500.0, 1501.0, 1501.0, 1501.0, 1500.0, 1500.0, 1501.0, 1501.0, 1501.0, 1501.0, 1501.0, 1501.0, 1501.0, 1500.0, 1500.0, 1500.0, 1499.0, 1500.0, 1500.0, 1500.0, 1500.0, 1500.0, 1500.0, 1500.0, 1500.0, 1500.0, 1500.0, 1500.0, 1500.0, 1500.0, 1500.0, 1500.0, 1500.0, 1500.0, 1499.0, 1500.0, 1499.0, 1500.0, 1500.0, 1499.0, 1499.0, 1500.0, 1499.0, 1500.0, 1498.0, 1500.0],
      "WindowWidth": [3409.0, 3408.0, 3408.0, 3408.0, 3407.0, 3408.0, 3407.0, 3407.0, 3408.0, 3407.0, 3408.0, 3407.0, 3407.0, 3408.0, 3407.0, 3407.0, 3408.0, 3407.0, 3407.0, 3407.0, 3407.0, 3407.0, 3407.0, 3407.0, 3406.0, 3407.0, 3406.0, 3407.0, 3407.0, 3406.0, 3407.0, 3406.0, 3406.0, 3406.0, 3406.0, 3406.0, 3406.0, 3406.0, 3406.0, 3406.0, 3406.0, 3406.0, 3406.0, 3406.0, 3406.0, 3406.0, 3406.0, 3406.0, 3406.0, 3406.0, 3405.0, 3406.0, 3406.0, 3406.0, 3406.0, 3406.0, 3406.0, 3405.0, 3406.0, 3406.0, 3405.0, 3406.0, 3406.0, 3406.0, 3405.0, 3405.0, 3406.0, 3406.0, 3405.0, 3405.0, 3406.0, 3405.0, 3405.0, 3405.0, 3405.0, 3405.0, 3405.0, 3405.0, 3405.0, 3405.0, 3405.0, 3405.0, 3405.0, 3405.0, 3405.0, 3404.0, 3404.0, 3405.0, 3404.0, 3404.0, 3404.0, 3405.0, 3404.0, 3404.0, 3404.0, 3405.0, 3404.0, 3404.0, 3404.0, 3405.0, 3405.0, 3404.0, 3405.0, 3404.0, 3404.0, 3404.0, 3404.0, 3404.0, 3404.0, 3404.0, 3404.0, 3404.0, 3404.0, 3404.0, 3404.0, 3404.0, 3404.0, 3404.0, 3404.0, 3404.0, 3404.0, 3404.0, 3404.0, 3403.0, 3403.0, 3404.0, 3403.0, 3403.0, 3403.0, 3404.0, 3404.0, 3404.0, 3403.0, 3403.0, 3404.0, 3403.0, 3403.0, 3403.0, 3403.0, 3403.0, 3404.0, 3403.0, 3403.0, 3403.0, 3403.0, 3403.0, 3403.0, 3403.0, 3403.0, 3403.0, 3403.0, 3403.0, 3403.0, 3403.0, 3403.0, 3403.0, 3403.0, 3403.0, 3403.0, 3403.0, 3403.0, 3402.0, 3402.0, 3403.0, 3403.0, 3402.0, 3403.0, 3402.0, 3403.0, 3402.0, 3403.0, 3402.0, 3402.0, 3402.0, 3402.0, 3402.0, 3402.0, 3402.0, 3402.0, 3402.0, 3402.0, 3402.0, 3402.0, 3402.0, 3402.0, 3402.0, 3402.0, 3402.0, 3402.0, 3402.0, 3402.0, 3402.0, 3402.0, 3402.0, 3402.0, 3402.0, 3402.0, 3402.0, 3403.0, 3402.0]
    },
    "slices": {}
  }
}