{
  "AcquisitionMatrixPE": 122,
  "AcquisitionNumber": 1,
  "AcquisitionTime": "09:49:23.212500",
  "BandwidthPerPixelPhaseEncode": 28.76,
  "BaseResolution": 122,
  "BodyPartExamined": "BRAIN",
  "CoilCombinationMethod": "Adaptive Combine",
  "ConsistencyInfo": "N4_VE11C_LATEST_20160120",
  "ConversionSoftware": "dcm2niix",
  "ConversionSoftwareVersion": "v1.0.20220720",
  "DerivedVendorReportedEchoSpacing": 0.000570008,
  "DeviceSerialNumber": "66112",
  "DiffusionScheme": "Monopolar",
  "DwellTime": 2e-06,
  "EchoTime": 0.075,
  "EchoTrainLength": 61,
  "EffectiveEchoSpacing": 0.000285004,
  "FlipAngle": 90,
  "HeudiconvVersion": "0.13.1",
  "ImageOrientationPatientDICOM": [0.986311, -0.164854, 0.00368752, 0.15604, 0.940342, 0.302338],
  "ImageOrientationText": "Tra>Cor(17.3)>Sag(3.1)",
  "ImageType": [
    "ORIGINAL",
    "PRIMARY",
    "DIFFUSION",
    "NONE",
    "ND",
    "NORM"
],
  "ImagingFrequency": 123.252,
  "InPlanePhaseEncodingDirectionDICOM": "COL",
  "InstitutionAddress": "Maynard 3,Hanover,NH,US,03755",
  "InstitutionName": "Dartmouth College - PBS",
  "InstitutionalDepartmentName": "Department",
  "MRAcquisitionType": "2D",
  "MagneticFieldStrength": 3,
  "Manufacturer": "Siemens",
  "ManufacturersModelName": "Prisma",
  "MatrixCoilMode": "GRAPPA",
  "Modality": "MR",
  "NonlinearGradientCorrection": false,
  "ParallelReductionFactorInPlane": 2,
  "PartialFourier": 1,
  "PatientPosition": "HFS",
  "PercentPhaseFOV": 100,
  "PercentSampling": 100,
  "PhaseEncodingDirection": "j-",
  "PhaseEncodingSteps": 122,
  "PhaseResolution": 1,
  "PixelBandwidth": 2050,
  "ProcedureStepDescription": "dbic^QA",
  "ProtocolName": "dwi_acq-DTI-30-p2",
  "PulseSequenceDetails": "%SiemensSeq%\\ep2d_diff",
  "ReceiveCoilActiveElements": "HEA;HEP",
  "ReceiveCoilName": "Head_32",
  "ReconMatrixPE": 122,
  "RefLinesPE": 38,
  "RepetitionTime": 7.7,
  "SAR": 0.101748,
  "ScanOptions": "FS",
  "ScanningSequence": "EP",
  "SequenceName": "*ep_b0",
  "SequenceVariant": "SK\\SP",
  "SeriesDescription": "dwi_acq-DTI-30-p2",
  "SeriesNumber": 12,
  "ShimSetting": [4144, -7694, -7516, 305, -88, -130, 14, 67],
  "SliceThickness": 2,
  "SliceTiming": [3.83594, 0, 3.94531, 0.10938, 4.05469, 0.21875, 4.16406, 0.32812, 4.28125, 0.4375, 4.39062, 0.54688, 4.5, 0.65625, 4.60938, 0.76562, 4.71875, 0.875, 4.82812, 0.98438, 4.9375, 1.09375, 5.04688, 1.20312, 5.15625, 1.3125, 5.26562, 1.42188, 5.375, 1.53125, 5.48438, 1.64844, 5.59375, 1.75781, 5.70312, 1.85938, 5.8125, 1.96875, 5.92188, 2.08594, 6.03125, 2.19531, 6.14062, 2.30469, 6.25, 2.41406, 6.35938, 2.52344, 6.46875, 2.63281, 6.57812, 2.74219, 6.6875, 2.85156, 6.79688, 2.96094, 6.90625, 3.07031, 7.02344, 3.17969, 7.13281, 3.28906, 7.24219, 3.39844, 7.35156, 3.50781, 7.46094, 3.61719, 7.57031, 3.72656],
  "SoftwareVersions": "syngo MR E11",
  "SpacingBetweenSlices": 2,
  "SpoilingState": true,
  "StationName": "AWP66112",
  "TotalReadoutTime": 0.0344855,
  "TxRefAmp": 222.457,
  "dcmmeta_affine": [
    [-1.940284252166748, 0.30696365237236023, 0.10661792755126953, 94.8635482788086],
    [0.3243020474910736, 1.8498533964157104, 0.5952472686767578, -144.77163696289062],
    [0.0072541311383247375, -0.5947633981704712, 1.9063873291015625, -30.79932975769043],
    [0.0, 0.0, 0.0, 1.0]
],
  "dcmmeta_reorient_transform": [
    [0.0, -1.0, 0.0, 121.0],
    [1.0, 0.0, 0.0, 0.0],
    [0.0, 0.0, -1.0, 69.0],
    [0.0, 0.0, 0.0, 1.0]
],
  "dcmmeta_shape": [122, 122, 70, 31],
  "dcmmeta_slice_dim": 2,
  "dcmmeta_version": 0.6,
  "global": {
    "const": {
      "AccessionNumber": "qa",
      "AcquisitionMatrix": [122, 0, 0, 122],
      "AngioFlag": "N",
      "BitsAllocated": 16,
      "BitsStored": 12,
      "BodyPartExamined": "BRAIN",
      "Columns": 122,
      "EchoNumbers": 1,
      "EchoTime": 75.0,
      "EchoTrainLength": 61,
      "FlipAngle": 90.0,
      "HighBit": 11,
      "ImageOrientationPatient": [0.98631116422429, -0.1648535396865, 0.00368751669163, 0.1560398505318, 0.94034209755909, 0.30233806343923],
      "ImageType": [
        "ORIGINAL",
        "PRIMARY",
        "DIFFUSION",
        "NONE",
        "ND",
        "NORM"
],
      "ImagedNucleus": "1H",
      "ImagingFrequency": 123.252324,
      "InPlanePhaseEncodingDirection": "COL",
      "MRAcquisitionType": "2D",
      "MagneticFieldStrength": 3.0,
      "Manufacturer": "SIEMENS",
      "ManufacturerModelName": "Prisma",
      "Modality": "MR",
      "NumberOfAverages": 1.0,
      "NumberOfPhaseEncodingSteps": 122,
      "PercentPhaseFieldOfView": 100.0,
      "PercentSampling": 100.0,
      "PerformedProcedureStepStartTime": "091837.086000",
      "PhotometricInterpretation": "MONOCHROME2",
      "PixelBandwidth": 2050.0,
      "PixelRepresentation": 0,
      "PixelSpacing": [1.9672131538391, 1.9672131538391],
      "ProtocolName": "dwi_acq-DTI-30-p2",
      "RepetitionTime": 7700.0,
      "Rows": 122,
      "SAR": 0.10174761104918,
      "SamplesPerPixel": 1,
      "ScanOptions": "FS",
      "ScanningSequence": "EP",
      "SequenceVariant": [
        "SK",
        "SP"
],
      "SeriesDescription": "dwi_acq-DTI-30-p2",
      "SeriesNumber": 12,
      "SeriesTime": "094931.372000",
      "SliceThickness": 2.0,
      "SmallestImagePixelValue": 0,
      "SoftwareVersions": "syngo MR E11",
      "SpacingBetweenSlices": 2.0,
      "SpecificCharacterSet": "ISO_IR 100",
      "StudyID": "4",
      "StudyTime": "091837.043000",
      "TransmitCoilName": "Body",
      "VariableFlipAngleFlag": "N",
      "WindowCenterWidthExplanation": "Algo1",
      "dBdt": 0.0},
    "slices": {
      "AcquisitionTime": ["094923.212500", "094919.372500", "094923.322500", "094919.482500", "094923.432500", "094919.592500", "094923.542500", "094919.702500", "094923.652500", "094919.812500", "094923.762500", "094919.922500", "094923.872500", "094920.032500", "094923.982500", "094920.142500", "094924.090000", "094920.250000", "094924.200000", "094920.360000", "094924.310000", "094920.470000", "094924.420000", "094920.580000", "094924.530000", "094920.690000", "094924.640000", "094920.800000", "094924.750000", "094920.910000", "094924.860000", "094921.020000", "094924.967500", "094921.130000", "094925.077500", "094921.237500", "094925.187500", "094921.347500", "094925.297500", "094921.457500", "094925.407500", "094921.567500", "094925.517500", "094921.677500", "094925.627500", "094921.787500", "094925.737500", "094921.897500", "094925.847500", "094922.007500", "094925.955000", "094922.115000", "094926.065000", "094922.225000", "094926.175000", "094922.335000", "094926.285000", "094922.445000", "094926.395000", "094922.555000", "094926.505000", "094922.665000", "094926.615000", "094922.775000", "094926.725000", "094922.885000", "094926.832500", "094922.995000", "094926.942500", "094923.102500", "094930.912500", "094927.072500", "094931.022500", "094927.182500", "094931.132500", "094927.292500", "094931.242500", "094927.402500", "094931.352500", "094927.512500", "094931.462500", "094927.622500", "094931.572500", "094927.732500", "094931.682500", "094927.842500", "094931.790000", "094927.950000", "094931.900000", "094928.060000", "094932.010000", "094928.170000", "094932.120000", "094928.280000", "094932.230000", "094928.390000", "094932.340000", "094928.500000", "094932.450000", "094928.610000", "094932.560000", "094928.720000", "094932.667500", "094928.830000", "094932.777500", "094928.937500", "094932.887500", "094929.047500", "094932.997500", "094929.157500", "094933.107500", "094929.267500", "094933.217500", "094929.377500", "094933.327500", "094929.487500", "094933.437500", "094929.597500", "094933.547500", "094929.707500", "094933.655000", "094929.815000", "094933.765000", "094929.925000", "094933.875000", "094930.035000", "094933.985000", "094930.145000", "094934.095000", "094930.255000", "094934.205000", "094930.365000", "094934.315000", "094930.475000", "094934.425000", "094930.585000", "094934.532500", "094930.695000", "094934.642500", "094930.802500", "094938.612500", "094934.772500", "094938.722500", "094934.882500", "094938.832500", "094934.992500", "094938.942500", "094935.102500", "094939.052500", "094935.212500", "094939.162500", "094935.322500", "094939.272500", "094935.432500", "094939.382500", "094935.542500", "094939.490000", "094935.650000", "094939.600000", "094935.760000", "094939.710000", "094935.870000", "094939.820000", "094935.980000", "094939.930000", "094936.090000", "094940.040000", "094936.200000", "094940.150000", "094936.310000", "094940.260000", "094936.420000", "094940.367500", "094936.530000", "094940.477500", "094936.637500", "094940.587500", "094936.747500", "094940.697500", "094936.857500", "094940.807500", "094936.967500", "094940.917500", "094937.077500", "094941.027500", "094937.187500", "094941.137500", "094937.297500", "094941.247500", "094937.407500", "094941.355000", "094937.515000", "094941.465000", "094937.625000", "094941.575000", "094937.735000", "094941.685000", "094937.845000", "094941.795000", "094937.955000", "094941.905000", "094938.065000", "094942.015000", "094938.175000", "094942.125000", "094938.285000", "094942.232500", "094938.395000", "094942.342500", "094938.502500", "094946.312500", "094942.472500", "094946.422500", "094942.582500", "094946.532500", "094942.692500", "094946.642500", "094942.802500", "094946.752500", "094942.912500", "094946.862500", "094943.022500", "094946.972500", "094943.132500", "094947.082500", "094943.242500", "094947.190000", "094943.350000", "094947.300000", "094943.460000", "094947.410000", "094943.570000", "094947.520000", "094943.680000", "094947.630000", "094943.790000", "094947.740000", "094943.900000", "094947.850000", "094944.010000", "094947.960000", "094944.120000", "094948.067500", "094944.230000", "094948.177500", "094944.337500", "094948.287500", "094944.447500", "094948.397500", "094944.557500", "094948.507500", "094944.667500", "094948.617500", "094944.777500", "094948.727500", "094944.887500", "094948.837500", "094944.997500", "094948.947500", "094945.107500", "094949.055000", "094945.215000", "094949.165000", "094945.325000", "094949.275000", "094945.435000", "094949.385000", "094945.545000", "094949.495000", "094945.655000", "094949.605000", "094945.765000", "094949.715000", "094945.875000", "094949.825000", "094945.985000", "094949.932500", "094946.095000", "094950.042500", "094946.202500", "094954.012500", "094950.172500", "094954.122500", "094950.282500", "094954.232500", "094950.392500", "094954.342500", "094950.502500", "094954.452500", "094950.612500", "094954.562500", "094950.722500", "094954.672500", "094950.832500", "094954.782500", "094950.942500", "094954.890000", "094951.050000", "094955.000000", "094951.160000", "094955.110000", "094951.270000", "094955.220000", "094951.380000", "094955.330000", "094951.490000", "094955.440000", "094951.600000", "094955.550000", "094951.710000", "094955.660000", "094951.820000", "094955.767500", "094951.930000", "094955.877500", "094952.037500", "094955.987500", "094952.147500", "094956.097500", "094952.257500", "094956.207500", "094952.367500", "094956.317500", "094952.477500", "094956.427500", "094952.587500", "094956.537500", "094952.697500", "094956.647500", "094952.807500", "094956.755000", "094952.915000", "094956.865000", "094953.025000", "094956.975000", "094953.135000", "094957.085000", "094953.245000", "094957.195000", "094953.355000", "094957.305000", "094953.465000", "094957.415000", "094953.575000", "094957.525000", "094953.685000", "094957.632500", "094953.795000", "094957.742500", "094953.902500", "095001.712500", "094957.872500", "095001.822500", "094957.982500", "095001.932500", "094958.092500", "095002.042500", "094958.202500", "095002.152500", "094958.312500", "095002.262500", "094958.422500", "095002.372500", "094958.532500", "095002.482500", "094958.642500", "095002.590000", "094958.750000", "095002.700000", "094958.860000", "095002.810000", "094958.970000", "095002.920000", "094959.080000", "095003.030000", "094959.190000", "095003.140000", "094959.300000", "095003.250000", "094959.410000", "095003.360000", "094959.520000", "095003.467500", "094959.630000", "095003.577500", "094959.737500", "095003.687500", "094959.847500", "095003.797500", "094959.957500", "095003.907500", "095000.067500", "095004.017500", "095000.177500", "095004.127500", "095000.287500", "095004.237500", "095000.397500", "095004.347500", "095000.507500", "095004.455000", "095000.615000", "095004.565000", "095000.725000", "095004.675000", "095000.835000", "095004.785000", "095000.945000", "095004.895000", "095001.055000", "095005.005000", "095001.165000", "095005.115000", "095001.275000", "095005.225000", "095001.385000", "095005.332500", "095001.495000", "095005.442500", "095001.602500", "095009.412500", "095005.572500", "095009.522500", "095005.682500", "095009.632500", "095005.792500", "095009.742500", "095005.902500", "095009.852500", "095006.012500", "095009.962500", "095006.122500", "095010.072500", "095006.232500", "095010.182500", "095006.342500", "095010.290000", "095006.450000", "095010.400000", "095006.560000", "095010.510000", "095006.670000", "095010.620000", "095006.780000", "095010.730000", "095006.890000", "095010.840000", "095007.000000", "095010.950000", "095007.110000", "095011.060000", "095007.220000", "095011.167500", "095007.330000", "095011.277500", "095007.437500", "095011.387500", "095007.547500", "095011.497500", "095007.657500", "095011.607500", "095007.767500", "095011.717500", "095007.877500", "095011.827500", "095007.987500", "095011.937500", "095008.097500", "095012.047500", "095008.207500", "095012.155000", "095008.315000", "095012.265000", "095008.425000", "095012.375000", "095008.535000", "095012.485000", "095008.645000", "095012.595000", "095008.755000", "095012.705000", "095008.865000", "095012.815000", "095008.975000", "095012.925000", "095009.085000", "095013.032500", "095009.195000", "095013.142500", "095009.302500", "095017.112500", "095013.272500", "095017.222500", "095013.382500", "095017.332500", "095013.492500", "095017.442500", "095013.602500", "095017.552500", "095013.712500", "095017.662500", "095013.822500", "095017.772500", "095013.932500", "095017.882500", "095014.042500", "095017.990000", "095014.150000", "095018.100000", "095014.260000", "095018.210000", "095014.370000", "095018.320000", "095014.480000", "095018.430000", "095014.590000", "095018.540000", "095014.700000", "095018.650000", "095014.810000", "095018.760000", "095014.920000", "095018.867500", "095015.030000", "095018.977500", "095015.137500", "095019.087500", "095015.247500", "095019.197500", "095015.357500", "095019.307500", "095015.467500", "095019.417500", "095015.577500", "095019.527500", "095015.687500", "095019.637500", "095015.797500", "095019.747500", "095015.907500", "095019.855000", "095016.015000", "095019.965000", "095016.125000", "095020.075000", "095016.235000", "095020.185000", "095016.345000", "095020.295000", "095016.455000", "095020.405000", "095016.565000", "095020.515000", "095016.675000", "095020.625000", "095016.785000", "095020.732500", "095016.895000", "095020.842500", "095017.002500", "095024.812500", "095020.972500", "095024.922500", "095021.082500", "095025.032500", "095021.192500", "095025.142500", "095021.302500", "095025.252500", "095021.412500", "095025.362500", "095021.522500", "095025.472500", "095021.632500", "095025.582500", "095021.742500", "095025.690000", "095021.850000", "095025.800000", "095021.960000", "095025.910000", "095022.070000", "095026.020000", "095022.180000", "095026.130000", "095022.290000", "095026.240000", "095022.400000", "095026.350000", "095022.510000", "095026.460000", "095022.620000", "095026.567500", "095022.730000", "095026.677500", "095022.837500", "095026.787500", "095022.947500", "095026.897500", "095023.057500", "095027.007500", "095023.167500", "095027.117500", "095023.277500", "095027.227500", "095023.387500", "095027.337500", "095023.497500", "095027.447500", "095023.607500", "095027.555000", "095023.715000", "095027.665000", "095023.825000", "095027.775000", "095023.935000", "095027.885000", "095024.045000", "095027.995000", "095024.155000", "095028.105000", "095024.265000", "095028.215000", "095024.375000", "095028.325000", "095024.485000", "095028.432500", "095024.595000", "095028.542500", "095024.702500", "095032.512500", "095028.672500", "095032.622500", "095028.782500", "095032.732500", "095028.892500", "095032.842500", "095029.002500", "095032.952500", "095029.112500", "095033.062500", "095029.222500", "095033.172500", "095029.332500", "095033.282500", "095029.442500", "095033.390000", "095029.550000", "095033.500000", "095029.660000", "095033.610000", "095029.770000", "095033.720000", "095029.880000", "095033.830000", "095029.990000", "095033.940000", "095030.100000", "095034.050000", "095030.210000", "095034.160000", "095030.320000", "095034.267500", "095030.430000", "095034.377500", "095030.537500", "095034.487500", "095030.647500", "095034.597500", "095030.757500", "095034.707500", "095030.867500", "095034.817500", "095030.977500", "095034.927500", "095031.087500", "095035.037500", "095031.197500", "095035.147500", "095031.307500", "095035.255000", "095031.415000", "095035.365000", "095031.525000", "095035.475000", "095031.635000", "095035.585000", "095031.745000", "095035.695000", "095031.855000", "095035.805000", "095031.965000", "095035.915000", "095032.075000", "095036.025000", "095032.185000", "095036.132500", "095032.295000", "095036.242500", "095032.402500", "095040.212500", "095036.372500", "095040.322500", "095036.482500", "095040.432500", "095036.592500", "095040.542500", "095036.702500", "095040.652500", "095036.812500", "095040.762500", "095036.922500", "095040.872500", "095037.032500", "095040.982500", "095037.142500", "095041.090000", "095037.250000", "095041.200000", "095037.360000", "095041.310000", "095037.470000", "095041.420000", "095037.580000", "095041.530000", "095037.690000", "095041.640000", "095037.800000", "095041.750000", "095037.910000", "095041.860000", "095038.020000", "095041.967500", "095038.130000", "095042.077500", "095038.237500", "095042.187500", "095038.347500", "095042.297500", "095038.457500", "095042.407500", "095038.567500", "095042.517500", "095038.677500", "095042.627500", "095038.787500", "095042.737500", "095038.897500", "095042.847500", "095039.007500", "095042.955000", "095039.115000", "095043.065000", "095039.225000", "095043.175000", "095039.335000", "095043.285000", "095039.445000", "095043.395000", "095039.555000", "095043.505000", "095039.665000", "095043.615000", "095039.775000", "095043.725000", "095039.885000", "095043.832500", "095039.995000", "095043.942500", "095040.102500", "095047.912500", "095044.072500", "095048.022500", "095044.182500", "095048.132500", "095044.292500", "095048.242500", "095044.402500", "095048.352500", "095044.512500", "095048.462500", "095044.622500", "095048.572500", "095044.732500", "095048.682500", "095044.842500", "095048.790000", "095044.950000", "095048.900000", "095045.060000", "095049.010000", "095045.170000", "095049.120000", "095045.280000", "095049.230000", "095045.390000", "095049.340000", "095045.500000", "095049.450000", "095045.610000", "095049.560000", "095045.720000", "095049.667500", "095045.830000", "095049.777500", "095045.937500", "095049.887500", "095046.047500", "095049.997500", "095046.157500", "095050.107500", "095046.267500", "095050.217500", "095046.377500", "095050.327500", "095046.487500", "095050.437500", "095046.597500", "095050.547500", "095046.707500", "095050.655000", "095046.815000", "095050.765000", "095046.925000", "095050.875000", "095047.035000", "095050.985000", "095047.145000", "095051.095000", "095047.255000", "095051.205000", "095047.365000", "095051.315000", "095047.475000", "095051.425000", "095047.585000", "095051.532500", "095047.695000", "095051.642500", "095047.802500", "095055.612500", "095051.772500", "095055.722500", "095051.882500", "095055.832500", "095051.992500", "095055.942500", "095052.102500", "095056.052500", "095052.212500", "095056.162500", "095052.322500", "095056.272500", "095052.432500", "095056.382500", "095052.542500", "095056.490000", "095052.650000", "095056.600000", "095052.760000", "095056.710000", "095052.870000", "095056.820000", "095052.980000", "095056.930000", "095053.090000", "095057.040000", "095053.200000", "095057.150000", "095053.310000", "095057.260000", "095053.420000", "095057.367500", "095053.530000", "095057.477500", "095053.637500", "095057.587500", "095053.747500", "095057.697500", "095053.857500", "095057.807500", "095053.967500", "095057.917500", "095054.077500", "095058.027500", "095054.187500", "095058.137500", "095054.297500", "095058.247500", "095054.407500", "095058.355000", "095054.515000", "095058.465000", "095054.625000", "095058.575000", "095054.735000", "095058.685000", "095054.845000", "095058.795000", "095054.955000", "095058.905000", "095055.065000", "095059.015000", "095055.175000", "095059.125000", "095055.285000", "095059.232500", "095055.395000", "095059.342500", "095055.502500", "095103.312500", "095059.472500", "095103.422500", "095059.582500", "095103.532500", "095059.692500", "095103.642500", "095059.802500", "095103.752500", "095059.912500", "095103.862500", "095100.022500", "095103.972500", "095100.132500", "095104.082500", "095100.242500", "095104.190000", "095100.350000", "095104.300000", "095100.460000", "095104.410000", "095100.570000", "095104.520000", "095100.680000", "095104.630000", "095100.790000", "095104.740000", "095100.900000", "095104.850000", "095101.010000", "095104.960000", "095101.120000", "095105.067500", "095101.230000", "095105.177500", "095101.337500", "095105.287500", "095101.447500", "095105.397500", "095101.557500", "095105.507500", "095101.667500", "095105.617500", "095101.777500", "095105.727500", "095101.887500", "095105.837500", "095101.997500", "095105.947500", "095102.107500", "095106.055000", "095102.215000", "095106.165000", "095102.325000", "095106.275000", "095102.435000", "095106.385000", "095102.545000", "095106.495000", "095102.655000", "095106.605000", "095102.765000", "095106.715000", "095102.875000", "095106.825000", "095102.985000", "095106.932500", "095103.095000", "095107.042500", "095103.202500", "095111.012500", "095107.172500", "095111.122500", "095107.282500", "095111.232500", "095107.392500", "095111.342500", "095107.502500", "095111.452500", "095107.612500", "095111.562500", "095107.722500", "095111.672500", "095107.832500", "095111.782500", "095107.942500", "095111.890000", "095108.050000", "095112.000000", "095108.160000", "095112.110000", "095108.270000", "095112.220000", "095108.380000", "095112.330000", "095108.490000", "095112.440000", "095108.600000", "095112.550000", "095108.710000", "095112.660000", "095108.820000", "095112.767500", "095108.930000", "095112.877500", "095109.037500", "095112.987500", "095109.147500", "095113.097500", "095109.257500", "095113.207500", "095109.367500", "095113.317500", "095109.477500", "095113.427500", "095109.587500", "095113.537500", "095109.697500", "095113.647500", "095109.807500", "095113.755000", "095109.915000", "095113.865000", "095110.025000", "095113.975000", "095110.135000", "095114.085000", "095110.245000", "095114.195000", "095110.355000", "095114.305000", "095110.465000", "095114.415000", "095110.575000", "095114.525000", "095110.685000", "095114.632500", "095110.795000", "095114.742500", "095110.902500", "095118.712500", "095114.872500", "095118.822500", "095114.982500", "095118.932500", "095115.092500", "095119.042500", "095115.202500", "095119.152500", "095115.312500", "095119.262500", "095115.422500", "095119.372500", "095115.532500", "095119.482500", "095115.642500", "095119.590000", "095115.750000", "095119.700000", "095115.860000", "095119.810000", "095115.970000", "095119.920000", "095116.080000", "095120.030000", "095116.190000", "095120.140000", "095116.300000", "095120.250000", "095116.410000", "095120.360000", "095116.520000", "095120.467500", "095116.630000", "095120.577500", "095116.737500", "095120.687500", "095116.847500", "095120.797500", "095116.957500", "095120.907500", "095117.067500", "095121.017500", "095117.177500", "095121.127500", "095117.287500", "095121.237500", "095117.397500", "095121.347500", "095117.507500", "095121.455000", "095117.615000", "095121.565000", "095117.725000", "095121.675000", "095117.835000", "095121.785000", "095117.945000", "095121.895000", "095118.055000", "095122.005000", "095118.165000", "095122.115000", "095118.275000", "095122.225000", "095118.385000", "095122.332500", "095118.495000", "095122.442500", "095118.602500", "095126.412500", "095122.572500", "095126.522500", "095122.682500", "095126.632500", "095122.792500", "095126.742500", "095122.902500", "095126.852500", "095123.012500", "095126.962500", "095123.122500", "095127.072500", "095123.232500", "095127.182500", "095123.342500", "095127.290000", "095123.450000", "095127.400000", "095123.560000", "095127.510000", "095123.670000", "095127.620000", "095123.780000", "095127.730000", "095123.890000", "095127.840000", "095124.000000", "095127.950000", "095124.110000", "095128.060000", "095124.220000", "095128.167500", "095124.330000", "095128.277500", "095124.437500", "095128.387500", "095124.547500", "095128.497500", "095124.657500", "095128.607500", "095124.767500", "095128.717500", "095124.877500", "095128.827500", "095124.987500", "095128.937500", "095125.097500", "095129.047500", "095125.207500", "095129.155000", "095125.315000", "095129.265000", "095125.425000", "095129.375000", "095125.535000", "095129.485000", "095125.645000", "095129.595000", "095125.755000", "095129.705000", "095125.865000", "095129.815000", "095125.975000", "095129.925000", "095126.085000", "095130.032500", "095126.195000", "095130.142500", "095126.302500", "095134.112500", "095130.272500", "095134.222500", "095130.382500", "095134.332500", "095130.492500", "095134.442500", "095130.602500", "095134.552500", "095130.712500", "095134.662500", "095130.822500", "095134.772500", "095130.932500", "095134.882500", "095131.042500", "095134.990000", "095131.150000", "095135.100000", "095131.260000", "095135.210000", "095131.370000", "095135.320000", "095131.480000", "095135.430000", "095131.590000", "095135.540000", "095131.700000", "095135.650000", "095131.810000", "095135.760000", "095131.920000", "095135.867500", "095132.030000", "095135.977500", "095132.137500", "095136.087500", "095132.247500", "095136.197500", "095132.357500", "095136.307500", "095132.467500", "095136.417500", "095132.577500", "095136.527500", "095132.687500", "095136.637500", "095132.797500", "095136.747500", "095132.907500", "095136.855000", "095133.015000", "095136.965000", "095133.125000", "095137.075000", "095133.235000", "095137.185000", "095133.345000", "095137.295000", "095133.455000", "095137.405000", "095133.565000", "095137.515000", "095133.675000", "095137.625000", "095133.785000", "095137.732500", "095133.895000", "095137.842500", "095134.002500", "095141.812500", "095137.972500", "095141.922500", "095138.082500", "095142.032500", "095138.192500", "095142.142500", "095138.302500", "095142.252500", "095138.412500", "095142.362500", "095138.522500", "095142.472500", "095138.632500", "095142.582500", "095138.742500", "095142.690000", "095138.850000", "095142.800000", "095138.960000", "095142.910000", "095139.070000", "095143.020000", "095139.180000", "095143.130000", "095139.290000", "095143.240000", "095139.400000", "095143.350000", "095139.510000", "095143.460000", "095139.620000", "095143.567500", "095139.730000", "095143.677500", "095139.837500", "095143.787500", "095139.947500", "095143.897500", "095140.057500", "095144.007500", "095140.167500", "095144.117500", "095140.277500", "095144.227500", "095140.387500", "095144.337500", "095140.497500", "095144.447500", "095140.607500", "095144.555000", "095140.715000", "095144.665000", "095140.825000", "095144.775000", "095140.935000", "095144.885000", "095141.045000", "095144.995000", "095141.155000", "095145.105000", "095141.265000", "095145.215000", "095141.375000", "095145.325000", "095141.485000", "095145.432500", "095141.595000", "095145.542500", "095141.702500", "095149.512500", "095145.672500", "095149.622500", "095145.782500", "095149.732500", "095145.892500", "095149.842500", "095146.002500", "095149.952500", "095146.112500", "095150.062500", "095146.222500", "095150.172500", "095146.332500", "095150.282500", "095146.442500", "095150.390000", "095146.550000", "095150.500000", "095146.660000", "095150.610000", "095146.770000", "095150.720000", "095146.880000", "095150.830000", "095146.990000", "095150.940000", "095147.100000", "095151.050000", "095147.210000", "095151.160000", "095147.320000", "095151.267500", "095147.430000", "095151.377500", "095147.537500", "095151.487500", "095147.647500", "095151.597500", "095147.757500", "095151.707500", "095147.867500", "095151.817500", "095147.977500", "095151.927500", "095148.087500", "095152.037500", "095148.197500", "095152.147500", "095148.307500", "095152.255000", "095148.415000", "095152.365000", "095148.525000", "095152.475000", "095148.635000", "095152.585000", "095148.745000", "095152.695000", "095148.855000", "095152.805000", "095148.965000", "095152.915000", "095149.075000", "095153.025000", "095149.185000", "095153.132500", "095149.295000", "095153.242500", "095149.402500", "095157.212500", "095153.372500", "095157.322500", "095153.482500", "095157.432500", "095153.592500", "095157.542500", "095153.702500", "095157.652500", "095153.812500", "095157.762500", "095153.922500", "095157.872500", "095154.032500", "095157.982500", "095154.142500", "095158.090000", "095154.250000", "095158.200000", "095154.360000", "095158.310000", "095154.470000", "095158.420000", "095154.580000", "095158.530000", "095154.690000", "095158.640000", "095154.800000", "095158.750000", "095154.910000", "095158.860000", "095155.020000", "095158.967500", "095155.130000", "095159.077500", "095