{
  "AcquisitionMatrixPE": 122,
  "AcquisitionNumber": 1,
  "AcquisitionTime": "09:09:24.457500",
  "BandwidthPerPixelPhaseEncode": 27.785,
  "BaseResolution": 122,
  "BodyPartExamined": "BRAIN",
  "CoilCombinationMethod": "Adaptive Combine",
  "ConsistencyInfo": "N4_VE11C_LATEST_20160120",
  "ConversionSoftware": "dcm2niix",
  "ConversionSoftwareVersion": "v1.0.20220720",
  "DerivedVendorReportedEchoSpacing": 0.000590011,
  "DeviceSerialNumber": "66112",
  "DiffusionScheme": "Monopolar",
  "DwellTime": 2e-06,
  "EchoTime": 0.068,
  "EchoTrainLength": 61,
  "EffectiveEchoSpacing": 0.000295005,
  "FlipAngle": 90,
  "HeudiconvVersion": "0.13.1",
  "ImageOrientationPatientDICOM": [0.98467, 0.174064, 0.0112958, -0.16902, 0.936127, 0.308381],
  "ImageOrientationText": "Tra>Cor(17.8)>Sag(-2.5)",
  "ImageType": [
    "ORIGINAL",
    "PRIMARY",
    "DIFFUSION",
    "NONE",
    "ND",
    "NORM"
],
  "ImagingFrequency": 123.252,
  "InPlanePhaseEncodingDirectionDICOM": "COL",
  "InstitutionAddress": "Maynard 3,Hanover,NH,US,03755",
  "InstitutionName": "Dartmouth College - PBS",
  "InstitutionalDepartmentName": "Department",
  "MRAcquisitionType": "2D",
  "MagneticFieldStrength": 3,
  "Manufacturer": "Siemens",
  "ManufacturersModelName": "Prisma",
  "Modality": "MR",
  "MultibandAccelerationFactor": 4,
  "NonlinearGradientCorrection": false,
  "ParallelReductionFactorInPlane": 2,
  "PartialFourier": 1,
  "PatientPosition": "HFS",
  "PercentPhaseFOV": 100,
  "PercentSampling": 100,
  "PhaseEncodingDirection": "j-",
  "PhaseEncodingSteps": 122,
  "PhaseResolution": 1,
  "PixelBandwidth": 2050,
  "ProcedureStepDescription": "dbic^QA",
  "ProtocolName": "dwi_acq-DTI-30-p2-s4",
  "PulseSequenceDetails": "%SiemensSeq%\\ep2d_diff",
  "ReceiveCoilActiveElements": "HEA;HEP",
  "ReceiveCoilName": "Head_32",
  "ReconMatrixPE": 122,
  "RefLinesPE": 38,
  "RepetitionTime": 3.6,
  "SAR": 0.160481,
  "ScanOptions": "FS",
  "ScanningSequence": "EP",
  "SequenceName": "*ep_b0",
  "SequenceVariant": "SK\\SP",
  "SeriesDescription": "dwi_acq-DTI-30-p2-s4",
  "SeriesNumber": 9,
  "ShimSetting": [4145, -7690, -7504, 294, -63, -193, -55, 45],
  "SliceThickness": 2,
  "SliceTiming": [2.58594, 0, 1.78906, 0.19531, 1.98438, 0.39844, 2.1875, 0.59375, 2.38281, 0.99219, 2.78125, 1.1875, 2.97656, 1.39062, 3.17969, 1.58594, 3.375, 0.78906, 2.58594, 0, 1.78906, 0.19531, 1.98438, 0.39844, 2.1875, 0.59375, 2.38281, 0.99219, 2.78125, 1.1875, 2.97656, 1.39062, 3.17969, 1.58594, 3.375, 0.78906, 2.58594, 0, 1.78906, 0.19531, 1.98438, 0.39844, 2.1875, 0.59375, 2.38281, 0.99219, 2.78125, 1.1875, 2.97656, 1.39062, 3.17969, 1.58594, 3.375, 0.78906, 2.58594, 0, 1.78906, 0.19531, 1.98438, 0.39844, 2.1875, 0.59375, 2.38281, 0.99219, 2.78125, 1.1875, 2.97656, 1.39062, 3.17969, 1.58594, 3.375, 0.78906],
  "SoftwareVersions": "syngo MR E11",
  "SpacingBetweenSlices": 2,
  "SpoilingState": true,
  "StationName": "AWP66112",
  "TotalReadoutTime": 0.0356956,
  "TxRefAmp": 232.198,
  "dcmmeta_affine": [
    [-1.937054991722107, -0.3324989080429077, -0.08620709180831909, 144.83432006835938],
    [-0.34242042899131775, 1.841560959815979, 0.6111259460449219, -99.57738494873047],
    [0.022221334278583527, -0.6066507697105408, 1.9023895263671875, -32.78107833862305],
    [0.0, 0.0, 0.0, 1.0]
],
  "dcmmeta_reorient_transform": [
    [0.0, -1.0, 0.0, 121.0],
    [1.0, 0.0, 0.0, 0.0],
    [0.0, 0.0, -1.0, 71.0],
    [0.0, 0.0, 0.0, 1.0]
],
  "dcmmeta_shape": [122, 122, 72, 31],
  "dcmmeta_slice_dim": 2,
  "dcmmeta_version": 0.6,
  "global": {
    "const": {
      "AccessionNumber": "qa",
      "AcquisitionMatrix": [122, 0, 0, 122],
      "AngioFlag": "N",
      "BitsAllocated": 16,
      "BitsStored": 12,
      "BodyPartExamined": "BRAIN",
      "Columns": 122,
      "EchoNumbers": 1,
      "EchoTime": 68.0,
      "EchoTrainLength": 61,
      "FlipAngle": 90.0,
      "HighBit": 11,
      "ImageOrientationPatient": [0.98466960314337, 0.17406371404253, 0.01129584433341, -0.1690202807306, 0.93612682046453, 0.30838080470211],
      "ImageType": [
        "ORIGINAL",
        "PRIMARY",
        "DIFFUSION",
        "NONE",
        "ND",
        "NORM"
],
      "ImagedNucleus": "1H",
      "ImagingFrequency": 123.252461,
      "InPlanePhaseEncodingDirection": "COL",
      "MRAcquisitionType": "2D",
      "MagneticFieldStrength": 3.0,
      "Manufacturer": "SIEMENS",
      "ManufacturerModelName": "Prisma",
      "Modality": "MR",
      "NumberOfAverages": 1.0,
      "NumberOfPhaseEncodingSteps": 122,
      "PercentPhaseFieldOfView": 100.0,
      "PercentSampling": 100.0,
      "PerformedProcedureStepStartTime": "084719.988000",
      "PhotometricInterpretation": "MONOCHROME2",
      "PixelBandwidth": 2050.0,
      "PixelRepresentation": 0,
      "PixelSpacing": [1.9672131538391, 1.9672131538391],
      "ProtocolName": "dwi_acq-DTI-30-p2-s4",
      "RepetitionTime": 3600.0,
      "Rows": 122,
      "SAR": 0.16048088723784,
      "SamplesPerPixel": 1,
      "ScanOptions": "FS",
      "ScanningSequence": "EP",
      "SequenceVariant": [
        "SK",
        "SP"
],
      "SeriesDescription": "dwi_acq-DTI-30-p2-s4",
      "SeriesNumber": 9,
      "SeriesTime": "090933.552000",
      "SliceThickness": 2.0,
      "SmallestImagePixelValue": 0,
      "SoftwareVersions": "syngo MR E11",
      "SpacingBetweenSlices": 2.0,
      "SpecificCharacterSet": "ISO_IR 100",
      "StudyID": "43",
      "StudyTime": "084719.909000",
      "TransmitCoilName": "Body",
      "VariableFlipAngleFlag": "N",
      "WindowCenterWidthExplanation": "Algo1",
      "dBdt": 0.0},
    "slices": {
      "AcquisitionTime": ["090924.457500", "090921.872500", "090923.662500", "090922.070000", "090923.860000", "090922.270000", "090924.060000", "090922.467500", "090924.257500", "090922.865000", "090924.655000", "090923.065000", "090924.855000", "090923.262500", "090925.052500", "090923.462500", "090925.252500", "090922.667500", "090924.457500", "090921.872500", "090923.662500", "090922.070000", "090923.860000", "090922.270000", "090924.060000", "090922.467500", "090924.257500", "090922.865000", "090924.655000", "090923.065000", "090924.855000", "090923.262500", "090925.052500", "090923.462500", "090925.252500", "090922.667500", "090924.457500", "090921.872500", "090923.662500", "090922.070000", "090923.860000", "090922.270000", "090924.060000", "090922.467500", "090924.257500", "090922.865000", "090924.655000", "090923.065000", "090924.855000", "090923.262500", "090925.052500", "090923.462500", "090925.252500", "090922.667500", "090924.457500", "090921.872500", "090923.662500", "090922.070000", "090923.860000", "090922.270000", "090924.060000", "090922.467500", "090924.257500", "090922.865000", "090924.655000", "090923.065000", "090924.855000", "090923.262500", "090925.052500", "090923.462500", "090925.252500", "090922.667500", "090928.057500", "090925.472500", "090927.262500", "090925.670000", "090927.460000", "090925.870000", "090927.660000", "090926.067500", "090927.857500", "090926.465000", "090928.255000", "090926.665000", "090928.455000", "090926.862500", "090928.652500", "090927.062500", "090928.852500", "090926.267500", "090928.057500", "090925.472500", "090927.262500", "090925.670000", "090927.460000", "090925.870000", "090927.660000", "090926.067500", "090927.857500", "090926.465000", "090928.255000", "090926.665000", "090928.455000", "090926.862500", "090928.652500", "090927.062500", "090928.852500", "090926.267500", "090928.057500", "090925.472500", "090927.262500", "090925.670000", "090927.460000", "090925.870000", "090927.660000", "090926.067500", "090927.857500", "090926.465000", "090928.255000", "090926.665000", "090928.455000", "090926.862500", "090928.652500", "090927.062500", "090928.852500", "090926.267500", "090928.057500", "090925.472500", "090927.262500", "090925.670000", "090927.460000", "090925.870000", "090927.660000", "090926.067500", "090927.857500", "090926.465000", "090928.255000", "090926.665000", "090928.455000", "090926.862500", "090928.652500", "090927.062500", "090928.852500", "090926.267500", "090931.657500", "090929.072500", "090930.862500", "090929.270000", "090931.060000", "090929.470000", "090931.260000", "090929.667500", "090931.457500", "090930.065000", "090931.855000", "090930.265000", "090932.055000", "090930.462500", "090932.252500", "090930.662500", "090932.452500", "090929.867500", "090931.657500", "090929.072500", "090930.862500", "090929.270000", "090931.060000", "090929.470000", "090931.260000", "090929.667500", "090931.457500", "090930.065000", "090931.855000", "090930.265000", "090932.055000", "090930.462500", "090932.252500", "090930.662500", "090932.452500", "090929.867500", "090931.657500", "090929.072500", "090930.862500", "090929.270000", "090931.060000", "090929.470000", "090931.260000", "090929.667500", "090931.457500", "090930.065000", "090931.855000", "090930.265000", "090932.055000", "090930.462500", "090932.252500", "090930.662500", "090932.452500", "090929.867500", "090931.657500", "090929.072500", "090930.862500", "090929.270000", "090931.060000", "090929.470000", "090931.260000", "090929.667500", "090931.457500", "090930.065000", "090931.855000", "090930.265000", "090932.055000", "090930.462500", "090932.252500", "090930.662500", "090932.452500", "090929.867500", "090935.257500", "090932.672500", "090934.462500", "090932.870000", "090934.660000", "090933.070000", "090934.860000", "090933.267500", "090935.057500", "090933.665000", "090935.455000", "090933.865000", "090935.655000", "090934.062500", "090935.852500", "090934.262500", "090936.052500", "090933.467500", "090935.257500", "090932.672500", "090934.462500", "090932.870000", "090934.660000", "090933.070000", "090934.860000", "090933.267500", "090935.057500", "090933.665000", "090935.455000", "090933.865000", "090935.655000", "090934.062500", "090935.852500", "090934.262500", "090936.052500", "090933.467500", "090935.257500", "090932.672500", "090934.462500", "090932.870000", "090934.660000", "090933.070000", "090934.860000", "090933.267500", "090935.057500", "090933.665000", "090935.455000", "090933.865000", "090935.655000", "090934.062500", "090935.852500", "090934.262500", "090936.052500", "090933.467500", "090935.257500", "090932.672500", "090934.462500", "090932.870000", "090934.660000", "090933.070000", "090934.860000", "090933.267500", "090935.057500", "090933.665000", "090935.455000", "090933.865000", "090935.655000", "090934.062500", "090935.852500", "090934.262500", "090936.052500", "090933.467500", "090938.857500", "090936.272500", "090938.062500", "090936.470000", "090938.260000", "090936.670000", "090938.460000", "090936.867500", "090938.657500", "090937.265000", "090939.055000", "090937.465000", "090939.255000", "090937.662500", "090939.452500", "090937.862500", "090939.652500", "090937.067500", "090938.857500", "090936.272500", "090938.062500", "090936.470000", "090938.260000", "090936.670000", "090938.460000", "090936.867500", "090938.657500", "090937.265000", "090939.055000", "090937.465000", "090939.255000", "090937.662500", "090939.452500", "090937.862500", "090939.652500", "090937.067500", "090938.857500", "090936.272500", "090938.062500", "090936.470000", "090938.260000", "090936.670000", "090938.460000", "090936.867500", "090938.657500", "090937.265000", "090939.055000", "090937.465000", "090939.255000", "090937.662500", "090939.452500", "090937.862500", "090939.652500", "090937.067500", "090938.857500", "090936.272500", "090938.062500", "090936.470000", "090938.260000", "090936.670000", "090938.460000", "090936.867500", "090938.657500", "090937.265000", "090939.055000", "090937.465000", "090939.255000", "090937.662500", "090939.452500", "090937.862500", "090939.652500", "090937.067500", "090942.457500", "090939.872500", "090941.662500", "090940.070000", "090941.860000", "090940.270000", "090942.060000", "090940.467500", "090942.257500", "090940.865000", "090942.655000", "090941.065000", "090942.855000", "090941.262500", "090943.052500", "090941.462500", "090943.252500", "090940.667500", "090942.457500", "090939.872500", "090941.662500", "090940.070000", "090941.860000", "090940.270000", "090942.060000", "090940.467500", "090942.257500", "090940.865000", "090942.655000", "090941.065000", "090942.855000", "090941.262500", "090943.052500", "090941.462500", "090943.252500", "090940.667500", "090942.457500", "090939.872500", "090941.662500", "090940.070000", "090941.860000", "090940.270000", "090942.060000", "090940.467500", "090942.257500", "090940.865000", "090942.655000", "090941.065000", "090942.855000", "090941.262500", "090943.052500", "090941.462500", "090943.252500", "090940.667500", "090942.457500", "090939.872500", "090941.662500", "090940.070000", "090941.860000", "090940.270000", "090942.060000", "090940.467500", "090942.257500", "090940.865000", "090942.655000", "090941.065000", "090942.855000", "090941.262500", "090943.052500", "090941.462500", "090943.252500", "090940.667500", "090946.057500", "090943.472500", "090945.262500", "090943.670000", "090945.460000", "090943.870000", "090945.660000", "090944.067500", "090945.857500", "090944.465000", "090946.255000", "090944.665000", "090946.455000", "090944.862500", "090946.652500", "090945.062500", "090946.852500", "090944.267500", "090946.057500", "090943.472500", "090945.262500", "090943.670000", "090945.460000", "090943.870000", "090945.660000", "090944.067500", "090945.857500", "090944.465000", "090946.255000", "090944.665000", "090946.455000", "090944.862500", "090946.652500", "090945.062500", "090946.852500", "090944.267500", "090946.057500", "090943.472500", "090945.262500", "090943.670000", "090945.460000", "090943.870000", "090945.660000", "090944.067500", "090945.857500", "090944.465000", "090946.255000", "090944.665000", "090946.455000", "090944.862500", "090946.652500", "090945.062500", "090946.852500", "090944.267500", "090946.057500", "090943.472500", "090945.262500", "090943.670000", "090945.460000", "090943.870000", "090945.660000", "090944.067500", "090945.857500", "090944.465000", "090946.255000", "090944.665000", "090946.455000", "090944.862500", "090946.652500", "090945.062500", "090946.852500", "090944.267500", "090949.657500", "090947.072500", "090948.862500", "090947.270000", "090949.060000", "090947.470000", "090949.260000", "090947.667500", "090949.457500", "090948.065000", "090949.855000", "090948.265000", "090950.055000", "090948.462500", "090950.252500", "090948.662500", "090950.452500", "090947.867500", "090949.657500", "090947.072500", "090948.862500", "090947.270000", "090949.060000", "090947.470000", "090949.260000", "090947.667500", "090949.457500", "090948.065000", "090949.855000", "090948.265000", "090950.055000", "090948.462500", "090950.252500", "090948.662500", "090950.452500", "090947.867500", "090949.657500", "090947.072500", "090948.862500", "090947.270000", "090949.060000", "090947.470000", "090949.260000", "090947.667500", "090949.457500", "090948.065000", "090949.855000", "090948.265000", "090950.055000", "090948.462500", "090950.252500", "090948.662500", "090950.452500", "090947.867500", "090949.657500", "090947.072500", "090948.862500", "090947.270000", "090949.060000", "090947.470000", "090949.260000", "090947.667500", "090949.457500", "090948.065000", "090949.855000", "090948.265000", "090950.055000", "090948.462500", "090950.252500", "090948.662500", "090950.452500", "090947.867500", "090953.257500", "090950.672500", "090952.462500", "090950.870000", "090952.660000", "090951.070000", "090952.860000", "090951.267500", "090953.057500", "090951.665000", "090953.455000", "090951.865000", "090953.655000", "090952.062500", "090953.852500", "090952.262500", "090954.052500", "090951.467500", "090953.257500", "090950.672500", "090952.462500", "090950.870000", "090952.660000", "090951.070000", "090952.860000", "090951.267500", "090953.057500", "090951.665000", "090953.455000", "090951.865000", "090953.655000", "090952.062500", "090953.852500", "090952.262500", "090954.052500", "090951.467500", "090953.257500", "090950.672500", "090952.462500", "090950.870000", "090952.660000", "090951.070000", "090952.860000", "090951.267500", "090953.057500", "090951.665000", "090953.455000", "090951.865000", "090953.655000", "090952.062500", "090953.852500", "090952.262500", "090954.052500", "090951.467500", "090953.257500", "090950.672500", "090952.462500", "090950.870000", "090952.660000", "090951.070000", "090952.860000", "090951.267500", "090953.057500", "090951.665000", "090953.455000", "090951.865000", "090953.655000", "090952.062500", "090953.852500", "090952.262500", "090954.052500", "090951.467500", "090956.857500", "090954.272500", "090956.062500", "090954.470000", "090956.260000", "090954.670000", "090956.460000", "090954.867500", "090956.657500", "090955.265000", "090957.055000", "090955.465000", "090957.255000", "090955.662500", "090957.452500", "090955.862500", "090957.652500", "090955.067500", "090956.857500", "090954.272500", "090956.062500", "090954.470000", "090956.260000", "090954.670000", "090956.460000", "090954.867500", "090956.657500", "090955.265000", "090957.055000", "090955.465000", "090957.255000", "090955.662500", "090957.452500", "090955.862500", "090957.652500", "090955.067500", "090956.857500", "090954.272500", "090956.062500", "090954.470000", "090956.260000", "090954.670000", "090956.460000", "090954.867500", "090956.657500", "090955.265000", "090957.055000", "090955.465000", "090957.255000", "090955.662500", "090957.452500", "090955.862500", "090957.652500", "090955.067500", "090956.857500", "090954.272500", "090956.062500", "090954.470000", "090956.260000", "090954.670000", "090956.460000", "090954.867500", "090956.657500", "090955.265000", "090957.055000", "090955.465000", "090957.255000", "090955.662500", "090957.452500", "090955.862500", "090957.652500", "090955.067500", "091000.457500", "090957.872500", "090959.662500", "090958.070000", "090959.860000", "090958.270000", "091000.060000", "090958.467500", "091000.257500", "090958.865000", "091000.655000", "090959.065000", "091000.855000", "090959.262500", "091001.052500", "090959.462500", "091001.252500", "090958.667500", "091000.457500", "090957.872500", "090959.662500", "090958.070000", "090959.860000", "090958.270000", "091000.060000", "090958.467500", "091000.257500", "090958.865000", "091000.655000", "090959.065000", "091000.855000", "090959.262500", "091001.052500", "090959.462500", "091001.252500", "090958.667500", "091000.457500", "090957.872500", "090959.662500", "090958.070000", "090959.860000", "090958.270000", "091000.060000", "090958.467500", "091000.257500", "090958.865000", "091000.655000", "090959.065000", "091000.855000", "090959.262500", "091001.052500", "090959.462500", "091001.252500", "090958.667500", "091000.457500", "090957.872500", "090959.662500", "090958.070000", "090959.860000", "090958.270000", "091000.060000", "090958.467500", "091000.257500", "090958.865000", "091000.655000", "090959.065000", "091000.855000", "090959.262500", "091001.052500", "090959.462500", "091001.252500", "090958.667500", "091004.057500", "091001.472500", "091003.262500", "091001.670000", "091003.460000", "091001.870000", "091003.660000", "091002.067500", "091003.857500", "091002.465000", "091004.255000", "091002.665000", "091004.455000", "091002.862500", "091004.652500", "091003.062500", "091004.852500", "091002.267500", "091004.057500", "091001.472500", "091003.262500", "091001.670000", "091003.460000", "091001.870000", "091003.660000", "091002.067500", "091003.857500", "091002.465000", "091004.255000", "091002.665000", "091004.455000", "091002.862500", "091004.652500", "091003.062500", "091004.852500", "091002.267500", "091004.057500", "091001.472500", "091003.262500", "091001.670000", "091003.460000", "091001.870000", "091003.660000", "091002.067500", "091003.857500", "091002.465000", "091004.255000", "091002.665000", "091004.455000", "091002.862500", "091004.652500", "091003.062500", "091004.852500", "091002.267500", "091004.057500", "091001.472500", "091003.262500", "091001.670000", "091003.460000", "091001.870000", "091003.660000", "091002.067500", "091003.857500", "091002.465000", "091004.255000", "091002.665000", "091004.455000", "091002.862500", "091004.652500", "091003.062500", "091004.852500", "091002.267500", "091007.657500", "091005.072500", "091006.862500", "091005.270000", "091007.060000", "091005.470000", "091007.260000", "091005.667500", "091007.457500", "091006.065000", "091007.855000", "091006.265000", "091008.055000", "091006.462500", "091008.252500", "091006.662500", "091008.452500", "091005.867500", "091007.657500", "091005.072500", "091006.862500", "091005.270000", "091007.060000", "091005.470000", "091007.260000", "091005.667500", "091007.457500", "091006.065000", "091007.855000", "091006.265000", "091008.055000", "091006.462500", "091008.252500", "091006.662500", "091008.452500", "091005.867500", "091007.657500", "091005.072500", "091006.862500", "091005.270000", "091007.060000", "091005.470000", "091007.260000", "091005.667500", "091007.457500", "091006.065000", "091007.855000", "091006.265000", "091008.055000", "091006.462500", "091008.252500", "091006.662500", "091008.452500", "091005.867500", "091007.657500", "091005.072500", "091006.862500", "091005.270000", "091007.060000", "091005.470000", "091007.260000", "091005.667500", "091007.457500", "091006.065000", "091007.855000", "091006.265000", "091008.055000", "091006.462500", "091008.252500", "091006.662500", "091008.452500", "091005.867500", "091011.257500", "091008.672500", "091010.462500", "091008.870000", "091010.660000", "091009.070000", "091010.860000", "091009.267500", "091011.057500", "091009.665000", "091011.455000", "091009.865000", "091011.655000", "091010.062500", "091011.852500", "091010.262500", "091012.052500", "091009.467500", "091011.257500", "091008.672500", "091010.462500", "091008.870000", "091010.660000", "091009.070000", "091010.860000", "091009.267500", "091011.057500", "091009.665000", "091011.455000", "091009.865000", "091011.655000", "091010.062500", "091011.852500", "091010.262500", "091012.052500", "091009.467500", "091011.257500", "091008.672500", "091010.462500", "091008.870000", "091010.660000", "091009.070000", "091010.860000", "091009.267500", "091011.057500", "091009.665000", "091011.455000", "091009.865000", "091011.655000", "091010.062500", "091011.852500", "091010.262500", "091012.052500", "091009.467500", "091011.257500", "091008.672500", "091010.462500", "091008.870000", "091010.660000", "091009.070000", "091010.860000", "091009.267500", "091011.057500", "091009.665000", "091011.455000", "091009.865000", "091011.655000", "091010.062500", "091011.852500", "091010.262500", "091012.052500", "091009.467500", "091014.857500", "091012.272500", "091014.062500", "091012.470000", "091014.260000", "091012.670000", "091014.460000", "091012.867500", "091014.657500", "091013.265000", "091015.055000", "091013.465000", "091015.255000", "091013.662500", "091015.452500", "091013.862500", "091015.652500", "091013.067500", "091014.857500", "091012.272500", "091014.062500", "091012.470000", "091014.260000", "091012.670000", "091014.460000", "091012.867500", "091014.657500", "091013.265000", "091015.055000", "091013.465000", "091015.255000", "091013.662500", "091015.452500", "091013.862500", "091015.652500", "091013.067500", "091014.857500", "091012.272500", "091014.062500", "091012.470000", "091014.260000", "091012.670000", "091014.460000", "091012.867500", "091014.657500", "091013.265000", "091015.055000", "091013.465000", "091015.255000", "091013.662500", "091015.452500", "091013.862500", "091015.652500", "091013.067500", "091014.857500", "091012.272500", "091014.062500", "091012.470000", "091014.260000", "091012.670000", "091014.460000", "091012.867500", "091014.657500", "091013.265000", "091015.055000", "091013.465000", "091015.255000", "091013.662500", "091015.452500", "091013.862500", "091015.652500", "091013.067500", "091018.457500", "091015.872500", "091017.662500", "091016.070000", "091017.860000", "091016.270000", "091018.060000", "091016.467500", "091018.257500", "091016.865000", "091018.655000", "091017.065000", "091018.855000", "091017.262500", "091019.052500", "091017.462500", "091019.252500", "091016.667500", "091018.457500", "091015.872500", "091017.662500", "091016.070000", "091017.860000", "091016.270000", "091018.060000", "091016.467500", "091018.257500", "091016.865000", "091018.655000", "091017.065000", "091018.855000", "091017.262500", "091019.052500", "091017.462500", "091019.252500", "091016.667500", "091018.457500", "091015.872500", "091017.662500", "091016.070000", "091017.860000", "091016.270000", "091018.060000", "091016.467500", "091018.257500", "091016.865000", "091018.655000", "091017.065000", "091018.855000", "091017.262500", "091019.052500", "091017.462500", "091019.252500", "091016.667500", "091018.457500", "091015.872500", "091017.662500", "091016.070000", "091017.860000", "091016.270000", "091018.060000", "091016.467500", "091018.257500", "091016.865000", "091018.655000", "091017.065000", "091018.855000", "091017.262500", "091019.052500", "091017.462500", "091019.252500", "091016.667500", "091022.057500", "091019.472500", "091021.262500", "091019.670000", "091021.460000", "091019.870000", "091021.660000", "091020.067500", "091021.857500", "091020.465000", "091022.255000", "091020.665000", "091022.455000", "091020.862500", "091022.652500", "091021.062500", "091022.852500", "091020.267500", "091022.057500", "091019.472500", "091021.262500", "091019.670000", "091021.460000", "091019.870000", "091021.660000", "091020.067500", "091021.857500", "091020.465000", "091022.255000", "091020.665000", "091022.455000", "091020.862500", "091022.652500", "091021.062500", "091022.852500", "091020.267500", "091022.057500", "091019.472500", "091021.262500", "091019.670000", "091021.460000", "091019.870000", "091021.660000", "091020.067500", "091021.857500", "091020.465000", "091022.255000", "091020.665000", "091022.455000", "091020.862500", "091022.652500", "091021.062500", "091022.852500", "091020.267500", "091022.057500", "091019.472500", "091021.262500", "091019.670000", "091021.460000", "091019.870000", "091021.660000", "091020.067500", "091021.857500", "091020.465000", "091022.255000", "091020.665000", "091022.455000", "091020.862500", "091022.652500", "091021.062500", "091022.852500", "091020.267500", "091025.657500", "091023.072500", "091024.862500", "091023.270000", "091025.060000", "091023.470000", "091025.260000", "091023.667500", "091025.457500", "091024.065000", "091025.855000", "091024.265000", "091026.055000", "091024.462500", "091026.252500", "091024.662500", "091026.452500", "091023.867500", "091025.657500", "091023.072500", "091024.862500", "091023.270000", "091025.060000", "091023.470000", "091025.260000", "091023.667500", "091025.457500", "091024.065000", "091025.855000", "091024.265000", "091026.055000", "091024.462500", "091026.252500", "091024.662500", "091026.452500", "091023.867500", "091025.657500", "091023.072500", "091024.862500", "091023.270000", "091025.060000", "091023.470000", "091025.260000", "091023.667500", "091025.457500", "091024.065000", "091025.855000", "091024.265000", "091026.055000", "091024.462500", "091026.252500", "091024.662500", "091026.452500", "091023.867500", "091025.657500", "091023.072500", "091024.862500", "091023.270000", "091025.060000", "091023.470000", "091025.260000", "091023.667500", "091025.457500", "091024.065000", "091025.855000", "091024.265000", "091026.055000", "091024.462500", "091026.252500", "091024.662500", "091026.452500", "091023.867500", "091029.257500", "091026.672500", "091028.462500", "091026.870000", "091028.660000", "091027.070000", "091028.860000", "091027.267500", "091029.057500", "091027.665000", "091029.455000", "091027.865000", "091029.655000", "091028.062500", "091029.852500", "091028.262500", "091030.052500", "091027.467500", "091029.257500", "091026.672500", "091028.462500", "091026.870000", "091028.660000", "091027.070000", "091028.860000", "091027.267500", "091029.057500", "091027.665000", "091029.455000", "091027.865000", "091029.655000", "091028.062500", "091029.852500", "091028.262500", "091030.052500", "091027.467500", "091029.257500", "091026.672500", "091028.462500", "091026.870000", "091028.660000", "091027.070000", "091028.860000", "091027.267500", "091029.057500", "091027.665000", "091029.455000", "091027.865000", "091029.655000", "091028.062500", "091029.852500", "091028.262500", "091030.052500", "091027.467500", "091029.257500", "091026.672500", "091028.462500", "091026.870000", "091028.660000", "091027.070000", "091028.860000", "091027.267500", "091029.057500", "091027.665000", "091029.455000", "091027.865000", "091029.655000", "091028.062500", "091029.852500", "091028.262500", "091030.052500", "091027.467500", "091032.857500", "091030.272500", "091032.062500", "091030.470000", "091032.260000", "091030.670000", "091032.460000", "091030.867500", "091032.657500", "091031.265000", "091033.055000", "091031.465000", "091033.255000", "091031.662500", "091033.452500", "091031.862500", "091033.652500", "091031.067500", "091032.857500", "091030.272500", "091032.062500", "091030.470000", "091032.260000", "091030.670000", "091032.460000", "091030.867500", "091032.657500", "091031.265000", "091033.055000", "091031.465000", "091033.255000", "091031.662500", "091033.452500", "091031.862500", "091033.652500", "091031.067500", "091032.857500", "091030.272500", "091032.062500", "091030.470000", "091032.260000", "091030.670000", "091032.460000", "091030.867500", "091032.657500", "091031.265000", "091033.055000", "091031.465000", "091033.255000", "091031.662500", "091033.452500", "091031.862500", "091033.652500", "091031.067500", "091032.857500", "091030.272500", "091032.062500", "091030.470000", "091032.260000", "091030.670000", "091032.460000", "091030.867500", "091032.657500", "091031.265000", "091033.055000", "091031.465000", 