{
  "AcquisitionMatrixPE": 80,
  "AcquisitionNumber": 1,
  "AcquisitionTime": "10:56:49.367500",
  "BandwidthPerPixelPhaseEncode": 44.643,
  "BaseResolution": 80,
  "BodyPartExamined": "BRAIN",
  "CoilCombinationMethod": "Sum of Squares",
  "ConsistencyInfo": "N4_VE11C_LATEST_20160120",
  "ConversionSoftware": "dcm2niix",
  "ConversionSoftwareVersion": "v1.0.20220720",
  "DerivedVendorReportedEchoSpacing": 0.000559998,
  "DeviceSerialNumber": "66112",
  "DwellTime": 2.7e-06,
  "EchoTime": 0.035,
  "EchoTrainLength": 39,
  "EffectiveEchoSpacing": 0.000279999,
  "FlipAngle": 90,
  "HeudiconvVersion": "0.13.1",
  "ImageOrientationPatientDICOM": [0.989288, 0.145424, 0.0127016, -0.14203, 0.938783, 0.31387],
  "ImageOrientationText": "Tra>Cor(18.2)>Sag(-1.9)",
  "ImageType": [
    "ORIGINAL",
    "PRIMARY",
    "M",
    "ND",
    "NORM",
    "MOSAIC"
],
  "ImagingFrequency": 123.252,
  "InPlanePhaseEncodingDirectionDICOM": "COL",
  "InstitutionAddress": "Maynard 3,Hanover,NH,US,03755",
  "InstitutionName": "Dartmouth College - PBS",
  "InstitutionalDepartmentName": "Department",
  "MRAcquisitionType": "2D",
  "MagneticFieldStrength": 3,
  "Manufacturer": "Siemens",
  "ManufacturersModelName": "Prisma",
  "Modality": "MR",
  "MultibandAccelerationFactor": 4,
  "NonlinearGradientCorrection": false,
  "ParallelReductionFactorInPlane": 2,
  "PartialFourier": 1,
  "PatientPosition": "HFS",
  "PercentPhaseFOV": 100,
  "PercentSampling": 100,
  "PhaseEncodingDirection": "j-",
  "PhaseEncodingSteps": 79,
  "PhaseResolution": 1,
  "PixelBandwidth": 2315,
  "ProcedureStepDescription": "dbic^QA",
  "ProtocolName": "func-bold_task-rest_acq-p2-s4-3.5mm",
  "PulseSequenceDetails": "%SiemensSeq%\\ep2d_bold",
  "ReceiveCoilActiveElements": "HEA;HEP",
  "ReceiveCoilName": "Head_32",
  "ReconMatrixPE": 80,
  "RefLinesPE": 24,
  "RepetitionTime": 2,
  "SAR": 0.0208672,
  "ScanOptions": "FS",
  "ScanningSequence": "EP",
  "SequenceName": "*epfid2d1_80",
  "SequenceVariant": "SK",
  "SeriesDescription": "func-bold_task-rest_acq-p2-s4-3.5mm",
  "SeriesNumber": 7,
  "ShimSetting": [4143, -7695, -7517, 296, -83, -60, -63, 37],
  "SliceThickness": 3.5,
  "SliceTiming": [1.485, 0, 0.99, 0.2475, 1.2375, 0.7425, 1.7325, 0.495, 1.485, 0, 0.99, 0.2475, 1.2375, 0.7425, 1.7325, 0.495, 1.485, 0, 0.99, 0.2475, 1.2375, 0.7425, 1.7325, 0.495, 1.485, 0, 0.99, 0.2475, 1.2375, 0.7425, 1.7325, 0.495],
  "SoftwareVersions": "syngo MR E11",
  "SpacingBetweenSlices": 3.99,
  "StationName": "AWP66112",
  "TaskName": "rest",
  "TotalReadoutTime": 0.0221199,
  "TxRefAmp": 217.636,
  "dcmmeta_affine": [
    [-2.9678635597229004, -0.4260895848274231, -0.13454410433769226, 141.1758575439453],
    [-0.4362727403640747, 2.816348075866699, 1.246125340461731, -110.8365478515625],
    [0.038104768842458725, -0.9416110515594482, 3.788029909133911, -31.975479125976562],
    [0.0, 0.0, 0.0, 1.0]
],
  "dcmmeta_reorient_transform": [
    [0.0, -1.0, 0.0, 79.0],
    [1.0, 0.0, 0.0, 0.0],
    [0.0, 0.0, 1.0, 0.0],
    [0.0, 0.0, 0.0, 1.0]
],
  "dcmmeta_shape": [80, 80, 32, 200],
  "dcmmeta_slice_dim": 2,
  "dcmmeta_version": 0.6,
  "global": {
    "const": {
      "AccessionNumber": "qa",
      "AcquisitionMatrix": [80, 0, 0, 80],
      "AngioFlag": "N",
      "BitsAllocated": 16,
      "BitsStored": 12,
      "BodyPartExamined": "BRAIN",
      "Columns": 480,
      "EchoNumbers": 1,
      "EchoTime": 35.0,
      "EchoTrainLength": 39,
      "FlipAngle": 90.0,
      "HighBit": 11,
      "ImageOrientationPatient": [0.98928785359204, 0.14542424953191, 0.01270158979563, -0.1420298642054, 0.93878268318664, 0.31387034173793],
      "ImagePositionPatient": [-615.86957102292, -762.17911095738, -302.30590874615],
      "ImageType": [
        "ORIGINAL",
        "PRIMARY",
        "M",
        "ND",
        "NORM",
        "MOSAIC"
],
      "ImagedNucleus": "1H",
      "ImagingFrequency": 123.25235,
      "InPlanePhaseEncodingDirection": "COL",
      "MRAcquisitionType": "2D",
      "MagneticFieldStrength": 3.0,
      "Manufacturer": "SIEMENS",
      "ManufacturerModelName": "Prisma",
      "Modality": "MR",
      "NumberOfAverages": 1.0,
      "NumberOfPhaseEncodingSteps": 79,
      "PercentPhaseFieldOfView": 100.0,
      "PercentSampling": 100.0,
      "PerformedProcedureStepStartTime": "103632.269000",
      "PhotometricInterpretation": "MONOCHROME2",
      "PixelBandwidth": 2315.0,
      "PixelRepresentation": 0,
      "PixelSpacing": [3.0, 3.0],
      "ProtocolName": "func-bold_task-rest_acq-p2-s4-3.5mm",
      "RepetitionTime": 2000.0,
      "Rows": 480,
      "SAR": 0.02086721143676,
      "SamplesPerPixel": 1,
      "ScanOptions": "FS",
      "ScanningSequence": "EP",
      "SequenceName": "*epfid2d1_80",
      "SequenceVariant": "SK",
      "SeriesDescription": "func-bold_task-rest_acq-p2-s4-3.5mm",
      "SeriesNumber": 7,
      "SeriesTime": "105748.125000",
      "SliceLocation": -69.733000938381,
      "SliceThickness": 3.5,
      "SmallestImagePixelValue": 0,
      "SoftwareVersions": "syngo MR E11",
      "SpacingBetweenSlices": 3.990000045141,
      "SpecificCharacterSet": "ISO_IR 100",
      "StudyID": "39",
      "StudyTime": "103632.229000",
      "TransmitCoilName": "Body",
      "VariableFlipAngleFlag": "N",
      "WindowCenterWidthExplanation": "Algo1",
      "dBdt": 0.0},
    "slices": {}
  },
  "time": {
    "samples": {
      "AcquisitionNumber": [1, 2, 3, 4, 5, 6, 7, 8, 9, 10, 11, 12, 13, 14, 15, 16, 17, 18, 19, 20, 21, 22, 23, 24, 25, 26, 27, 28, 29, 30, 31, 32, 33, 34, 35, 36, 37, 38, 39, 40, 41, 42, 43, 44, 45, 46, 47, 48, 49, 50, 51, 52, 53, 54, 55, 56, 57, 58, 59, 60, 61, 62, 63, 64, 65, 66, 67, 68, 69, 70, 71, 72, 73, 74, 75, 76, 77, 78, 79, 80, 81, 82, 83, 84, 85, 86, 87, 88, 89, 90, 91, 92, 93, 94, 95, 96, 97, 98, 99, 100, 101, 102, 103, 104, 105, 106, 107, 108, 109, 110, 111, 112, 113, 114, 115, 116, 117, 118, 119, 120, 121, 122, 123, 124, 125, 126, 127, 128, 129, 130, 131, 132, 133, 134, 135, 136, 137, 138, 139, 140, 141, 142, 143, 144, 145, 146, 147, 148, 149, 150, 151, 152, 153, 154, 155, 156, 157, 158, 159, 160, 161, 162, 163, 164, 165, 166, 167, 168, 169, 170, 171, 172, 173, 174, 175, 176, 177, 178, 179, 180, 181, 182, 183, 184, 185, 186, 187, 188, 189, 190, 191, 192, 193, 194, 195, 196, 197, 198, 199, 200],
      "AcquisitionTime": ["105649.367500", "105651.367500", "105653.367500", "105655.367500", "105657.367500", "105659.367500", "105701.367500", "105703.367500", "105705.367500", "105707.367500", "105709.367500", "105711.367500", "105713.367500", "105715.367500", "105717.367500", "105719.367500", "105721.367500", "105723.367500", "105725.367500", "105727.367500", "105729.367500", "105731.367500", "105733.367500", "105735.367500", "105737.367500", "105739.367500", "105741.367500", "105743.367500", "105745.367500", "105747.367500", "105749.367500", "105751.367500", "105753.367500", "105755.367500", "105757.367500", "105759.367500", "105801.367500", "105803.367500", "105805.367500", "105807.367500", "105809.367500", "105811.367500", "105813.367500", "105815.367500", "105817.367500", "105819.367500", "105821.367500", "105823.367500", "105825.367500", "105827.367500", "105829.367500", "105831.367500", "105833.367500", "105835.367500", "105837.367500", "105839.367500", "105841.367500", "105843.367500", "105845.367500", "105847.367500", "105849.367500", "105851.367500", "105853.367500", "105855.367500", "105857.367500", "105859.367500", "105901.367500", "105903.367500", "105905.367500", "105907.367500", "105909.367500", "105911.367500", "105913.367500", "105915.367500", "105917.367500", "105919.367500", "105921.367500", "105923.367500", "105925.367500", "105927.367500", "105929.367500", "105931.367500", "105933.367500", "105935.367500", "105937.367500", "105939.367500", "105941.367500", "105943.367500", "105945.367500", "105947.367500", "105949.367500", "105951.367500", "105953.367500", "105955.367500", "105957.367500", "105959.367500", "110001.367500", "110003.367500", "110005.367500", "110007.367500", "110009.367500", "110011.367500", "110013.367500", "110015.367500", "110017.367500", "110019.367500", "110021.367500", "110023.367500", "110025.367500", "110027.367500", "110029.367500", "110031.367500", "110033.367500", "110035.367500", "110037.367500", "110039.367500", "110041.367500", "110043.367500", "110045.367500", "110047.367500", "110049.367500", "110051.367500", "110053.367500", "110055.367500", "110057.367500", "110059.367500", "110101.367500", "110103.367500", "110105.367500", "110107.367500", "110109.367500", "110111.367500", "110113.367500", "110115.367500", "110117.367500", "110119.367500", "110121.367500", "110123.367500", "110125.367500", "110127.367500", "110129.367500", "110131.367500", "110133.367500", "110135.367500", "110137.367500", "110139.367500", "110141.367500", "110143.367500", "110145.367500", "110147.367500", "110149.367500", "110151.367500", "110153.367500", "110155.367500", "110157.367500", "110159.367500", "110201.367500", "110203.367500", "110205.367500", "110207.367500", "110209.367500", "110211.367500", "110213.367500", "110215.367500", "110217.367500", "110219.367500", "110221.367500", "110223.367500", "110225.367500", "110227.367500", "110229.367500", "110231.367500", "110233.367500", "110235.367500", "110237.367500", "110239.367500", "110241.367500", "110243.367500", "110245.367500", "110247.367500", "110249.367500", "110251.367500", "110253.367500", "110255.367500", "110257.367500", "110259.367500", "110301.367500", "110303.367500", "110305.367500", "110307.367500", "110309.367500", "110311.367500", "110313.367500", "110315.367500", "110317.367500", "110319.367500", "110321.367500", "110323.367500", "110325.367500", "110327.367500"],
      "ContentTime": ["105748.129000", "105748.132000", "105748.135000", "105748.146000", "105748.149000", "105748.151000", "105748.154000", "105748.156000", "105748.159000", "105748.162000", "105748.174000", "105748.177000", "105748.179000", "105748.182000", "105748.184000", "105748.187000", "105748.189000", "105748.192000", "105748.194000", "105748.197000", "105748.199000", "105748.208000", "105748.211000", "105748.213000", "105748.216000", "105748.219000", "105748.221000", "105748.224000", "105748.226000", "105828.115000", "105828.118000", "105828.121000", "105828.123000", "105828.126000", "105828.145000", "105828.148000", "105828.151000", "105828.153000", "105828.156000", "105828.158000", "105828.161000", "105828.164000", "105828.166000", "105828.169000", "105828.171000", "105828.174000", "105828.177000", "105828.179000", "105828.182000", "105908.115000", "105908.118000", "105908.121000", "105908.123000", "105908.145000", "105908.147000", "105908.150000", "105908.152000", "105908.155000", "105908.158000", "105908.160000", "105908.163000", "105908.165000", "105908.168000", "105908.171000", "105908.173000", "105908.176000", "105908.178000", "105908.181000", "105908.183000", "105948.115000", "105948.117000", "105948.120000", "105948.123000", "105948.125000", "105948.128000", "105948.130000", "105948.133000", "105948.135000", "105948.138000", "105948.140000", "105948.143000", "105948.146000", "105948.148000", "105948.151000", "105948.153000", "105948.156000", "105948.159000", "105948.161000", "105948.164000", "110028.114000", "110028.117000", "110028.120000", "110028.123000", "110028.125000", "110028.128000", "110028.130000", "110028.133000", "110028.135000", "110028.138000", "110028.141000", "110028.143000", "110028.146000", "110028.148000", "110028.151000", "110028.153000", "110028.156000", "110028.201000", "110028.203000", "110028.206000", "110108.115000", "110108.118000", "110108.121000", "110108.123000", "110108.126000", "110108.129000", "110108.131000", "110108.134000", "110108.136000", "110108.139000", "110108.141000", "110108.144000", "110108.146000", "110108.149000", "110108.151000", "110108.154000", "110108.157000", "110108.159000", "110108.162000", "110108.165000", "110148.116000", "110148.118000", "110148.121000", "110148.124000", "110148.126000", "110148.129000", "110148.131000", "110148.134000", "110148.136000", "110148.139000", "110148.141000", "110148.144000", "110148.147000", "110148.149000", "110148.152000", "110148.154000", "110148.157000", "110148.171000", "110148.173000", "110148.176000", "110228.114000", "110228.117000", "110228.120000", "110228.123000", "110228.125000", "110228.128000", "110228.130000", "110228.145000", "110228.147000", "110228.150000", "110228.152000", "110228.155000", "110228.158000", "110228.160000", "110228.163000", "110228.165000", "110228.168000", "110228.170000", "110228.173000", "110228.176000", "110308.115000", "110308.118000", "110308.121000", "110308.123000", "110308.126000", "110308.129000", "110308.131000", "110308.134000", "110308.136000", "110308.139000", "110308.141000", "110308.144000", "110308.147000", "110308.149000", "110308.152000", "110308.154000", "110308.157000", "110308.160000", "110308.162000", "110308.165000", "110328.860000", "110328.863000", "110328.865000", "110328.868000", "110328.871000", "110328.873000", "110328.876000", "110328.879000", "110328.881000", "110328.884000", "110328.887000"],
      "InstanceCreationTime": ["105748.129000", "105748.132000", "105748.135000", "105748.146000", "105748.149000", "105748.151000", "105748.154000", "105748.156000", "105748.159000", "105748.162000", "105748.174000", "105748.177000", "105748.179000", "105748.182000", "105748.184000", "105748.187000", "105748.189000", "105748.192000", "105748.194000", "105748.197000", "105748.199000", "105748.208000", "105748.211000", "105748.213000", "105748.216000", "105748.219000", "105748.221000", "105748.224000", "105748.226000", "105828.115000", "105828.118000", "105828.121000", "105828.123000", "105828.126000", "105828.145000", "105828.148000", "105828.151000", "105828.153000", "105828.156000", "105828.158000", "105828.161000", "105828.164000", "105828.166000", "105828.169000", "105828.171000", "105828.174000", "105828.177000", "105828.179000", "105828.182000", "105908.115000", "105908.118000", "105908.121000", "105908.123000", "105908.145000", "105908.147000", "105908.150000", "105908.152000", "105908.155000", "105908.158000", "105908.160000", "105908.163000", "105908.165000", "105908.168000", "105908.171000", "105908.173000", "105908.176000", "105908.178000", "105908.181000", "105908.183000", "105948.115000", "105948.117000", "105948.120000", "105948.123000", "105948.125000", "105948.128000", "105948.130000", "105948.133000", "105948.135000", "105948.138000", "105948.140000", "105948.143000", "105948.146000", "105948.148000", "105948.151000", "105948.153000", "105948.156000", "105948.159000", "105948.161000", "105948.164000", "110028.114000", "110028.117000", "110028.120000", "110028.123000", "110028.125000", "110028.128000", "110028.130000", "110028.133000", "110028.135000", "110028.138000", "110028.141000", "110028.143000", "110028.146000", "110028.148000", "110028.151000", "110028.153000", "110028.156000", "110028.201000", "110028.203000", "110028.206000", "110108.115000", "110108.118000", "110108.121000", "110108.123000", "110108.126000", "110108.129000", "110108.131000", "110108.134000", "110108.136000", "110108.139000", "110108.141000", "110108.144000", "110108.146000", "110108.149000", "110108.151000", "110108.154000", "110108.157000", "110108.159000", "110108.162000", "110108.165000", "110148.116000", "110148.118000", "110148.121000", "110148.124000", "110148.126000", "110148.129000", "110148.131000", "110148.134000", "110148.136000", "110148.139000", "110148.141000", "110148.144000", "110148.147000", "110148.149000", "110148.152000", "110148.154000", "110148.157000", "110148.171000", "110148.173000", "110148.176000", "110228.114000", "110228.117000", "110228.120000", "110228.123000", "110228.125000", "110228.128000", "110228.130000", "110228.145000", "110228.147000", "110228.150000", "110228.152000", "110228.155000", "110228.158000", "110228.160000", "110228.163000", "110228.165000", "110228.168000", "110228.170000", "110228.173000", "110228.176000", "110308.115000", "110308.118000", "110308.121000", "110308.123000", "110308.126000", "110308.129000", "110308.131000", "110308.134000", "110308.136000", "110308.139000", "110308.141000", "110308.144000", "110308.147000", "110308.149000", "110308.152000", "110308.154000", "110308.157000", "110308.160000", "110308.162000", "110308.165000", "110328.860000", "110328.863000", "110328.865000", "110328.868000", "110328.871000", "110328.873000", "110328.876000", "110328.879000", "110328.881000", "110328.884000", "110328.887000"],
      "InstanceNumber": [1, 2, 3, 4, 5, 6, 7, 8, 9, 10, 11, 12, 13, 14, 15, 16, 17, 18, 19, 20, 21, 22, 23, 24, 25, 26, 27, 28, 29, 30, 31, 32, 33, 34, 35, 36, 37, 38, 39, 40, 41, 42, 43, 44, 45, 46, 47, 48, 49, 50, 51, 52, 53, 54, 55, 56, 57, 58, 59, 60, 61, 62, 63, 64, 65, 66, 67, 68, 69, 70, 71, 72, 73, 74, 75, 76, 77, 78, 79, 80, 81, 82, 83, 84, 85, 86, 87, 88, 89, 90, 91, 92, 93, 94, 95, 96, 97, 98, 99, 100, 101, 102, 103, 104, 105, 106, 107, 108, 109, 110, 111, 112, 113, 114, 115, 116, 117, 118, 119, 120, 121, 122, 123, 124, 125, 126, 127, 128, 129, 130, 131, 132, 133, 134, 135, 136, 137, 138, 139, 140, 141, 142, 143, 144, 145, 146, 147, 148, 149, 150, 151, 152, 153, 154, 155, 156, 157, 158, 159, 160, 161, 162, 163, 164, 165, 166, 167, 168, 169, 170, 171, 172, 173, 174, 175, 176, 177, 178, 179, 180, 181, 182, 183, 184, 185, 186, 187, 188, 189, 190, 191, 192, 193, 194, 195, 196, 197, 198, 199, 200],
      "LargestImagePixelValue": [2121, 2128, 2122, 2119, 2122, 2120, 2121, 2123, 2124, 2122, 2123, 2121, 2125, 2124, 2123, 2121, 2117, 2117, 2117, 2120, 2123, 2121, 2124, 2121, 2120, 2118, 2125, 2123, 2120, 2120, 2122, 2121, 2121, 2123, 2124, 2120, 2129, 2122, 2125, 2119, 2121, 2117, 2123, 2126, 2125, 2120, 2122, 2122, 2127, 2128, 2130, 2128, 2121, 2125, 2121, 2126, 2125, 2126, 2125, 2124, 2122, 2123, 2125, 2122, 2126, 2129, 2124, 2124, 2128, 2125, 2128, 2127, 2127, 2129, 2130, 2125, 2125, 2130, 2129, 2126, 2130, 2124, 2124, 2123, 2133, 2123, 2124, 2131, 2125, 2125, 2127, 2128, 2127, 2131, 2125, 2125, 2125, 2126, 2128, 2126, 2129, 2125, 2125, 2126, 2125, 2125, 2120, 2127, 2125, 2129, 2124, 2124, 2134, 2125, 2129, 2125, 2123, 2123, 2125, 2130, 2130, 2129, 2130, 2136, 2126, 2130, 2127, 2124, 2132, 2128, 2128, 2128, 2128, 2129, 2126, 2128, 2134, 2130, 2131, 2122, 2126, 2129, 2128, 2125, 2127, 2129, 2124, 2122, 2127, 2128, 2128, 2128, 2124, 2130, 2130, 2126, 2127, 2131, 2129, 2127, 2131, 2129, 2127, 2128, 2125, 2130, 2135, 2128, 2129, 2128, 2131, 2125, 2129, 2127, 2135, 2129, 2127, 2128, 2125, 2122, 2129, 2128, 2128, 2129, 2128, 2134, 2125, 2129, 2128, 2127, 2131, 2128, 2127, 2131, 2131, 2134, 2125, 2127, 2133, 2131],
      "WindowCenter": [930.0, 930.0, 930.0, 930.0, 930.0, 930.0, 930.0, 930.0, 930.0, 930.0, 930.0, 930.0, 930.0, 930.0, 930.0, 930.0, 930.0, 929.0, 930.0, 930.0, 930.0, 930.0, 930.0, 930.0, 930.0, 930.0, 930.0, 930.0, 930.0, 929.0, 930.0, 930.0, 930.0, 930.0, 929.0, 930.0, 930.0, 929.0, 930.0, 929.0, 930.0, 930.0, 930.0, 929.0, 930.0, 929.0, 930.0, 930.0, 929.0, 930.0, 929.0, 930.0, 929.0, 930.0, 930.0, 930.0, 930.0, 930.0, 929.0, 930.0, 930.0, 930.0, 929.0, 930.0, 929.0, 930.0, 930.0, 929.0, 930.0, 930.0, 929.0, 930.0, 930.0, 930.0, 930.0, 930.0, 929.0, 930.0, 929.0, 930.0, 929.0, 929.0, 930.0, 930.0, 930.0, 929.0, 930.0, 930.0, 930.0, 929.0, 930.0, 930.0, 929.0, 930.0, 929.0, 930.0, 929.0, 930.0, 930.0, 930.0, 930.0, 930.0, 930.0, 929.0, 930.0, 929.0, 930.0, 929.0, 930.0, 930.0, 930.0, 930.0, 930.0, 930.0, 930.0, 930.0, 930.0, 930.0, 930.0, 929.0, 930.0, 930.0, 930.0, 930.0, 930.0, 929.0, 930.0, 930.0, 929.0, 930.0, 930.0, 930.0, 930.0, 930.0, 930.0, 930.0, 929.0, 929.0, 930.0, 930.0, 930.0, 929.0, 930.0, 930.0, 930.0, 930.0, 930.0, 930.0, 929.0, 930.0, 930.0, 930.0, 930.0, 929.0, 930.0, 930.0, 930.0, 930.0, 930.0, 930.0, 929.0, 929.0, 930.0, 929.0, 930.0, 929.0, 930.0, 930.0, 930.0, 929.0, 930.0, 929.0, 930.0, 930.0, 930.0, 930.0, 930.0, 930.0, 930.0, 929.0, 930.0, 930.0, 930.0, 930.0, 930.0, 930.0, 930.0, 929.0, 930.0, 929.0, 930.0, 930.0, 930.0, 930.0, 930.0, 930.0, 929.0, 929.0, 929.0, 929.0],
      "WindowWidth": [2142.0, 2142.0, 2142.0, 2142.0, 2142.0, 2142.0, 2142.0, 2142.0, 2142.0, 2142.0, 2142.0, 2142.0, 2142.0, 2142.0, 2142.0, 2142.0, 2142.0, 2142.0, 2142.0, 2142.0, 2142.0, 2142.0, 2142.0, 2142.0, 2141.0, 2142.0, 2142.0, 2142.0, 2141.0, 2142.0, 2142.0, 2142.0, 2142.0, 2142.0, 2142.0, 2141.0, 2142.0, 2142.0, 2142.0, 2142.0, 2141.0, 2141.0, 2142.0, 2142.0, 2141.0, 2142.0, 2142.0, 2141.0, 2142.0, 2141.0, 2142.0, 2142.0, 2142.0, 2142.0, 2141.0, 2141.0, 2142.0, 2142.0, 2142.0, 2142.0, 2142.0, 2142.0, 2142.0, 2142.0, 2142.0, 2142.0, 2142.0, 2142.0, 2142.0, 2142.0, 2142.0, 2142.0, 2141.0, 2141.0, 2142.0, 2141.0, 2142.0, 2142.0, 2142.0, 2142.0, 2142.0, 2142.0, 2142.0, 2142.0, 2141.0, 2142.0, 2142.0, 2142.0, 2142.0, 2142.0, 2142.0, 2142.0, 2142.0, 2142.0, 2142.0, 2142.0, 2142.0, 2141.0, 2142.0, 2142.0, 2142.0, 2142.0, 2142.0, 2142.0, 2142.0, 2142.0, 2142.0, 2142.0, 2142.0, 2142.0, 2142.0, 2142.0, 2142.0, 2142.0, 2142.0, 2142.0, 2142.0, 2142.0, 2142.0, 2142.0, 2142.0, 2141.0, 2141.0, 2142.0, 2142.0, 2142.0, 2142.0, 2142.0, 2142.0, 2142.0, 2142.0, 2142.0, 2142.0, 2142.0, 2142.0, 2142.0, 2141.0, 2142.0, 2142.0, 2142.0, 2142.0, 2142.0, 2142.0, 2141.0, 2141.0, 2142.0, 2141.0, 2141.0, 2142.0, 2142.0, 2142.0, 2142.0, 2142.0, 2142.0, 2141.0, 2141.0, 2141.0, 2141.0, 2141.0, 2141.0, 2142.0, 2142.0, 2141.0, 2142.0, 2142.0, 2142.0, 2141.0, 2142.0, 2141.0, 2142.0, 2142.0, 2142.0, 2142.0, 2142.0, 2141.0, 2142.0, 2142.0, 2141.0, 2142.0, 2142.0, 2142.0, 2141.0, 2141.0, 2141.0, 2141.0, 2141.0, 2141.0, 2141.0, 2141.0, 2142.0, 2141.0, 2141.0, 2141.0, 2141.0, 2141.0, 2141.0, 2141.0, 2141.0, 2142.0, 2141.0]
    },
    "slices": {}
  }
}