{
  "AcquisitionMatrixPE": 80,
  "AcquisitionNumber": 1,
  "AcquisitionTime": "11:03:39.497500",
  "BandwidthPerPixelPhaseEncode": 25,
  "BaseResolution": 80,
  "BodyPartExamined": "BRAIN",
  "CoilCombinationMethod": "Sum of Squares",
  "ConsistencyInfo": "N4_VE11C_LATEST_20160120",
  "ConversionSoftware": "dcm2niix",
  "ConversionSoftwareVersion": "v1.0.20220720",
  "DerivedVendorReportedEchoSpacing": 0.0005,
  "DeviceSerialNumber": "66112",
  "DwellTime": 2.7e-06,
  "EchoTime": 0.03,
  "EchoTrainLength": 80,
  "EffectiveEchoSpacing": 0.0005,
  "FlipAngle": 77,
  "HeudiconvVersion": "0.13.1",
  "ImageOrientationPatientDICOM": [0.989288, 0.145424, 0.0127016, -0.14203, 0.938783, 0.31387],
  "ImageOrientationText": "Tra>Cor(18.2)>Sag(-1.9)",
  "ImageType": [
    "ORIGINAL",
    "PRIMARY",
    "M",
    "ND",
    "NORM",
    "MOSAIC"
],
  "ImagingFrequency": 123.252,
  "InPlanePhaseEncodingDirectionDICOM": "COL",
  "InstitutionAddress": "Maynard 3,Hanover,NH,US,03755",
  "InstitutionName": "Dartmouth College - PBS",
  "InstitutionalDepartmentName": "Department",
  "MRAcquisitionType": "2D",
  "MagneticFieldStrength": 3,
  "Manufacturer": "Siemens",
  "ManufacturersModelName": "Prisma",
  "MatrixCoilMode": "SENSE",
  "Modality": "MR",
  "NonlinearGradientCorrection": false,
  "PartialFourier": 1,
  "PatientPosition": "HFS",
  "PercentPhaseFOV": 100,
  "PercentSampling": 100,
  "PhaseEncodingDirection": "j-",
  "PhaseEncodingSteps": 80,
  "PhaseResolution": 1,
  "PixelBandwidth": 2315,
  "ProcedureStepDescription": "dbic^QA",
  "ProtocolName": "func-bold_fa-77",
  "PulseSequenceDetails": "%SiemensSeq%\\ep2d_bold",
  "ReceiveCoilActiveElements": "HEA;HEP",
  "ReceiveCoilName": "Head_32",
  "ReconMatrixPE": 80,
  "RepetitionTime": 2,
  "SAR": 0.0436096,
  "ScanOptions": "FS",
  "ScanningSequence": "EP",
  "SequenceName": "*epfid2d1_80",
  "SequenceVariant": "SK",
  "SeriesDescription": "func-bold_fa-77",
  "SeriesNumber": 8,
  "ShimSetting": [4143, -7694, -7517, 291, -82, -53, -62, 37],
  "SliceThickness": 3.5,
  "SliceTiming": [0.99, 0, 1.0575, 0.0675, 1.1225, 0.1325, 1.1875, 0.2, 1.255, 0.265, 1.32, 0.33, 1.3875, 0.3975, 1.4525, 0.4625, 1.5175, 0.53, 1.585, 0.595, 1.65, 0.66, 1.7175, 0.7275, 1.7825, 0.7925, 1.8475, 0.86, 1.915, 0.925],
  "SoftwareVersions": "syngo MR E11",
  "SpacingBetweenSlices": 3.99,
  "StationName": "AWP66112",
  "TotalReadoutTime": 0.0395,
  "TxRefAmp": 217.636,
  "dcmmeta_affine": [
    [-2.9678635597229004, -0.4260895848274231, -0.13454410433769226, 140.7991943359375],
    [-0.4362727403640747, 2.816348075866699, 1.246125340461731, -107.59009552001953],
    [0.038104768842458725, -0.9416110515594482, 3.788029670715332, -24.13873291015625],
    [0.0, 0.0, 0.0, 1.0]
],
  "dcmmeta_reorient_transform": [
    [0.0, -1.0, 0.0, 79.0],
    [1.0, 0.0, 0.0, 0.0],
    [0.0, 0.0, 1.0, 0.0],
    [0.0, 0.0, 0.0, 1.0]
],
  "dcmmeta_shape": [80, 80, 30, 200],
  "dcmmeta_slice_dim": 2,
  "dcmmeta_version": 0.6,
  "global": {
    "const": {
      "AccessionNumber": "qa",
      "AcquisitionMatrix": [80, 0, 0, 80],
      "AngioFlag": "N",
      "BitsAllocated": 16,
      "BitsStored": 12,
      "BodyPartExamined": "BRAIN",
      "Columns": 480,
      "EchoNumbers": 1,
      "EchoTime": 30.0,
      "EchoTrainLength": 80,
      "FlipAngle": 77.0,
      "HighBit": 11,
      "ImageOrientationPatient": [0.98928785359204, 0.14542424953191, 0.01270158979563, -0.1420298642054, 0.93878268318664, 0.31387034173793],
      "ImagePositionPatient": [-615.49291306013, -765.42555756688, -294.46916253033],
      "ImageType": [
        "ORIGINAL",
        "PRIMARY",
        "M",
        "ND",
        "NORM",
        "MOSAIC"
],
      "ImagedNucleus": "1H",
      "ImagingFrequency": 123.25235,
      "InPlanePhaseEncodingDirection": "COL",
      "MRAcquisitionType": "2D",
      "MagneticFieldStrength": 3.0,
      "Manufacturer": "SIEMENS",
      "ManufacturerModelName": "Prisma",
      "Modality": "MR",
      "NumberOfAverages": 1.0,
      "NumberOfPhaseEncodingSteps": 80,
      "PercentPhaseFieldOfView": 100.0,
      "PercentSampling": 100.0,
      "PerformedProcedureStepStartTime": "103632.269000",
      "PhotometricInterpretation": "MONOCHROME2",
      "PixelBandwidth": 2315.0,
      "PixelRepresentation": 0,
      "PixelSpacing": [3.0, 3.0],
      "ProtocolName": "func-bold_fa-77",
      "RepetitionTime": 2000.0,
      "Rows": 480,
      "SAR": 0.04360964013134,
      "SamplesPerPixel": 1,
      "ScanOptions": "FS",
      "ScanningSequence": "EP",
      "SequenceName": "*epfid2d1_80",
      "SequenceVariant": "SK",
      "SeriesDescription": "func-bold_fa-77",
      "SeriesNumber": 8,
      "SeriesTime": "110427.975000",
      "SliceLocation": -61.266338167005,
      "SliceThickness": 3.5,
      "SmallestImagePixelValue": 0,
      "SoftwareVersions": "syngo MR E11",
      "SpacingBetweenSlices": 3.9900000151923,
      "SpecificCharacterSet": "ISO_IR 100",
      "StudyID": "39",
      "StudyTime": "103632.229000",
      "TransmitCoilName": "Body",
      "VariableFlipAngleFlag": "N",
      "WindowCenterWidthExplanation": "Algo1",
      "dBdt": 0.0},
    "slices": {}
  },
  "time": {
    "samples": {
      "AcquisitionNumber": [1, 2, 3, 4, 5, 6, 7, 8, 9, 10, 11, 12, 13, 14, 15, 16, 17, 18, 19, 20, 21, 22, 23, 24, 25, 26, 27, 28, 29, 30, 31, 32, 33, 34, 35, 36, 37, 38, 39, 40, 41, 42, 43, 44, 45, 46, 47, 48, 49, 50, 51, 52, 53, 54, 55, 56, 57, 58, 59, 60, 61, 62, 63, 64, 65, 66, 67, 68, 69, 70, 71, 72, 73, 74, 75, 76, 77, 78, 79, 80, 81, 82, 83, 84, 85, 86, 87, 88, 89, 90, 91, 92, 93, 94, 95, 96, 97, 98, 99, 100, 101, 102, 103, 104, 105, 106, 107, 108, 109, 110, 111, 112, 113, 114, 115, 116, 117, 118, 119, 120, 121, 122, 123, 124, 125, 126, 127, 128, 129, 130, 131, 132, 133, 134, 135, 136, 137, 138, 139, 140, 141, 142, 143, 144, 145, 146, 147, 148, 149, 150, 151, 152, 153, 154, 155, 156, 157, 158, 159, 160, 161, 162, 163, 164, 165, 166, 167, 168, 169, 170, 171, 172, 173, 174, 175, 176, 177, 178, 179, 180, 181, 182, 183, 184, 185, 186, 187, 188, 189, 190, 191, 192, 193, 194, 195, 196, 197, 198, 199, 200],
      "AcquisitionTime": ["110339.497500", "110341.497500", "110343.497500", "110345.497500", "110347.497500", "110349.497500", "110351.497500", "110353.497500", "110355.497500", "110357.497500", "110359.497500", "110401.497500", "110403.497500", "110405.497500", "110407.497500", "110409.497500", "110411.497500", "110413.497500", "110415.497500", "110417.497500", "110419.497500", "110421.497500", "110423.497500", "110425.497500", "110427.497500", "110429.497500", "110431.497500", "110433.497500", "110435.497500", "110437.497500", "110439.497500", "110441.497500", "110443.497500", "110445.497500", "110447.497500", "110449.497500", "110451.497500", "110453.497500", "110455.497500", "110457.497500", "110459.497500", "110501.497500", "110503.497500", "110505.497500", "110507.497500", "110509.497500", "110511.497500", "110513.497500", "110515.497500", "110517.497500", "110519.497500", "110521.497500", "110523.497500", "110525.497500", "110527.497500", "110529.497500", "110531.497500", "110533.497500", "110535.497500", "110537.497500", "110539.497500", "110541.497500", "110543.497500", "110545.497500", "110547.497500", "110549.497500", "110551.497500", "110553.497500", "110555.497500", "110557.497500", "110559.497500", "110601.497500", "110603.497500", "110605.497500", "110607.497500", "110609.497500", "110611.497500", "110613.497500", "110615.497500", "110617.497500", "110619.497500", "110621.497500", "110623.497500", "110625.497500", "110627.497500", "110629.497500", "110631.497500", "110633.497500", "110635.497500", "110637.497500", "110639.497500", "110641.497500", "110643.497500", "110645.497500", "110647.497500", "110649.497500", "110651.497500", "110653.497500", "110655.497500", "110657.497500", "110659.497500", "110701.497500", "110703.497500", "110705.497500", "110707.497500", "110709.497500", "110711.497500", "110713.497500", "110715.497500", "110717.497500", "110719.497500", "110721.497500", "110723.497500", "110725.497500", "110727.497500", "110729.497500", "110731.497500", "110733.497500", "110735.497500", "110737.497500", "110739.497500", "110741.497500", "110743.497500", "110745.497500", "110747.497500", "110749.497500", "110751.497500", "110753.497500", "110755.497500", "110757.497500", "110759.497500", "110801.497500", "110803.497500", "110805.497500", "110807.497500", "110809.497500", "110811.497500", "110813.497500", "110815.497500", "110817.497500", "110819.497500", "110821.497500", "110823.497500", "110825.497500", "110827.497500", "110829.497500", "110831.497500", "110833.497500", "110835.497500", "110837.497500", "110839.497500", "110841.497500", "110843.497500", "110845.497500", "110847.497500", "110849.497500", "110851.497500", "110853.497500", "110855.497500", "110857.497500", "110859.497500", "110901.497500", "110903.497500", "110905.497500", "110907.497500", "110909.497500", "110911.497500", "110913.497500", "110915.497500", "110917.497500", "110919.497500", "110921.497500", "110923.497500", "110925.497500", "110927.497500", "110929.497500", "110931.497500", "110933.497500", "110935.497500", "110937.497500", "110939.497500", "110941.497500", "110943.497500", "110945.497500", "110947.497500", "110949.497500", "110951.497500", "110953.497500", "110955.497500", "110957.497500", "110959.497500", "111001.497500", "111003.497500", "111005.497500", "111007.497500", "111009.497500", "111011.497500", "111013.497500", "111015.497500", "111017.497500"],
      "ContentTime": ["110427.978000", "110427.982000", "110427.984000", "110427.987000", "110427.989000", "110427.992000", "110427.994000", "110427.997000", "110428.000000", "110428.003000", "110428.006000", "110428.008000", "110428.011000", "110428.013000", "110428.016000", "110428.018000", "110428.021000", "110428.023000", "110428.026000", "110428.028000", "110428.031000", "110428.045000", "110428.047000", "110428.050000", "110507.974000", "110507.976000", "110507.979000", "110507.981000", "110507.984000", "110507.987000", "110507.989000", "110507.992000", "110507.994000", "110507.997000", "110508.000000", "110508.003000", "110508.005000", "110508.008000", "110508.010000", "110508.013000", "110508.016000", "110508.018000", "110508.021000", "110508.023000", "110547.975000", "110547.977000", "110547.980000", "110547.982000", "110547.985000", "110547.988000", "110547.990000", "110547.993000", "110547.995000", "110547.998000", "110548.001000", "110548.004000", "110548.006000", "110548.009000", "110548.017000", "110548.019000", "110548.022000", "110548.024000", "110548.027000", "110548.030000", "110627.975000", "110627.977000", "110627.980000", "110627.983000", "110627.985000", "110627.988000", "110627.990000", "110627.993000", "110627.995000", "110627.998000", "110628.001000", "110628.004000", "110628.007000", "110628.009000", "110628.012000", "110628.014000", "110628.017000", "110628.019000", "110628.022000", "110628.024000", "110707.974000", "110707.977000", "110707.979000", "110707.982000", "110707.984000", "110707.987000", "110707.989000", "110707.992000", "110707.994000", "110707.997000", "110708.001000", "110708.003000", "110708.006000", "110708.008000", "110708.011000", "110708.013000", "110708.016000", "110708.019000", "110708.021000", "110708.024000", "110747.975000", "110747.977000", "110747.980000", "110747.983000", "110747.985000", "110747.988000", "110747.990000", "110747.993000", "110747.995000", "110747.998000", "110748.001000", "110748.004000", "110748.006000", "110748.009000", "110748.012000", "110748.014000", "110748.017000", "110748.019000", "110748.022000", "110748.024000", "110827.975000", "110827.977000", "110827.980000", "110827.983000", "110827.985000", "110827.988000", "110827.990000", "110827.993000", "110827.995000", "110827.998000", "110828.001000", "110828.004000", "110828.006000", "110828.009000", "110828.011000", "110828.014000", "110828.017000", "110828.019000", "110828.022000", "110828.024000", "110907.974000", "110907.976000", "110907.979000", "110907.982000", "110907.984000", "110907.987000", "110907.989000", "110907.992000", "110907.994000", "110907.997000", "110908.000000", "110908.003000", "110908.005000", "110908.008000", "110908.011000", "110908.013000", "110908.016000", "110908.018000", "110908.021000", "110908.023000", "110947.974000", "110947.976000", "110947.979000", "110947.982000", "110947.984000", "110947.987000", "110947.989000", "110947.992000", "110947.994000", "110947.997000", "110948.001000", "110948.003000", "110948.016000", "110948.028000", "110948.031000", "110948.033000", "110948.036000", "110948.038000", "110948.041000", "110948.043000", "111019.170000", "111019.173000", "111019.176000", "111019.178000", "111019.181000", "111019.183000", "111019.186000", "111019.189000", "111019.191000", "111019.194000", "111019.196000", "111019.199000", "111019.203000", "111019.207000", "111019.210000", "111019.214000"],
      "InstanceCreationTime": ["110427.978000", "110427.982000", "110427.984000", "110427.987000", "110427.989000", "110427.992000", "110427.994000", "110427.997000", "110428.000000", "110428.003000", "110428.006000", "110428.008000", "110428.011000", "110428.013000", "110428.016000", "110428.018000", "110428.021000", "110428.023000", "110428.026000", "110428.028000", "110428.031000", "110428.045000", "110428.047000", "110428.050000", "110507.974000", "110507.976000", "110507.979000", "110507.981000", "110507.984000", "110507.987000", "110507.989000", "110507.992000", "110507.994000", "110507.997000", "110508.000000", "110508.003000", "110508.005000", "110508.008000", "110508.010000", "110508.013000", "110508.016000", "110508.018000", "110508.021000", "110508.023000", "110547.975000", "110547.977000", "110547.980000", "110547.982000", "110547.985000", "110547.988000", "110547.990000", "110547.993000", "110547.995000", "110547.998000", "110548.001000", "110548.004000", "110548.006000", "110548.009000", "110548.017000", "110548.019000", "110548.022000", "110548.024000", "110548.027000", "110548.030000", "110627.975000", "110627.977000", "110627.980000", "110627.983000", "110627.985000", "110627.988000", "110627.990000", "110627.993000", "110627.995000", "110627.998000", "110628.001000", "110628.004000", "110628.007000", "110628.009000", "110628.012000", "110628.014000", "110628.017000", "110628.019000", "110628.022000", "110628.024000", "110707.974000", "110707.977000", "110707.979000", "110707.982000", "110707.984000", "110707.987000", "110707.989000", "110707.992000", "110707.994000", "110707.997000", "110708.001000", "110708.003000", "110708.006000", "110708.008000", "110708.011000", "110708.013000", "110708.016000", "110708.019000", "110708.021000", "110708.024000", "110747.975000", "110747.977000", "110747.980000", "110747.983000", "110747.985000", "110747.988000", "110747.990000", "110747.993000", "110747.995000", "110747.998000", "110748.001000", "110748.004000", "110748.006000", "110748.009000", "110748.012000", "110748.014000", "110748.017000", "110748.019000", "110748.022000", "110748.024000", "110827.975000", "110827.977000", "110827.980000", "110827.983000", "110827.985000", "110827.988000", "110827.990000", "110827.993000", "110827.995000", "110827.998000", "110828.001000", "110828.004000", "110828.006000", "110828.009000", "110828.011000", "110828.014000", "110828.017000", "110828.019000", "110828.022000", "110828.024000", "110907.974000", "110907.976000", "110907.979000", "110907.982000", "110907.984000", "110907.987000", "110907.989000", "110907.992000", "110907.994000", "110907.997000", "110908.000000", "110908.003000", "110908.005000", "110908.008000", "110908.011000", "110908.013000", "110908.016000", "110908.018000", "110908.021000", "110908.023000", "110947.974000", "110947.976000", "110947.979000", "110947.982000", "110947.984000", "110947.987000", "110947.989000", "110947.992000", "110947.994000", "110947.997000", "110948.001000", "110948.003000", "110948.016000", "110948.028000", "110948.031000", "110948.033000", "110948.036000", "110948.038000", "110948.041000", "110948.043000", "111019.170000", "111019.173000", "111019.176000", "111019.178000", "111019.181000", "111019.183000", "111019.186000", "111019.189000", "111019.191000", "111019.194000", "111019.196000", "111019.199000", "111019.203000", "111019.207000", "111019.210000", "111019.214000"],
      "InstanceNumber": [1, 2, 3, 4, 5, 6, 7, 8, 9, 10, 11, 12, 13, 14, 15, 16, 17, 18, 19, 20, 21, 22, 23, 24, 25, 26, 27, 28, 29, 30, 31, 32, 33, 34, 35, 36, 37, 38, 39, 40, 41, 42, 43, 44, 45, 46, 47, 48, 49, 50, 51, 52, 53, 54, 55, 56, 57, 58, 59, 60, 61, 62, 63, 64, 65, 66, 67, 68, 69, 70, 71, 72, 73, 74, 75, 76, 77, 78, 79, 80, 81, 82, 83, 84, 85, 86, 87, 88, 89, 90, 91, 92, 93, 94, 95, 96, 97, 98, 99, 100, 101, 102, 103, 104, 105, 106, 107, 108, 109, 110, 111, 112, 113, 114, 115, 116, 117, 118, 119, 120, 121, 122, 123, 124, 125, 126, 127, 128, 129, 130, 131, 132, 133, 134, 135, 136, 137, 138, 139, 140, 141, 142, 143, 144, 145, 146, 147, 148, 149, 150, 151, 152, 153, 154, 155, 156, 157, 158, 159, 160, 161, 162, 163, 164, 165, 166, 167, 168, 169, 170, 171, 172, 173, 174, 175, 176, 177, 178, 179, 180, 181, 182, 183, 184, 185, 186, 187, 188, 189, 190, 191, 192, 193, 194, 195, 196, 197, 198, 199, 200],
      "LargestImagePixelValue": [2155, 2156, 2157, 2157, 2159, 2157, 2156, 2156, 2157, 2157, 2156, 2157, 2157, 2155, 2157, 2158, 2155, 2157, 2155, 2156, 2158, 2156, 2154, 2155, 2155, 2157, 2155, 2154, 2156, 2154, 2153, 2154, 2155, 2155, 2156, 2154, 2155, 2156, 2158, 2155, 2155, 2155, 2155, 2154, 2156, 2154, 2155, 2155, 2155, 2154, 2156, 2156, 2156, 2157, 2156, 2153, 2155, 2156, 2156, 2155, 2155, 2155, 2156, 2155, 2153, 2154, 2154, 2154, 2153, 2154, 2155, 2154, 2154, 2155, 2155, 2155, 2155, 2153, 2156, 2154, 2155, 2156, 2155, 2156, 2154, 2153, 2155, 2154, 2156, 2156, 2154, 2156, 2156, 2155, 2155, 2155, 2154, 2154, 2152, 2152, 2155, 2153, 2152, 2154, 2154, 2154, 2153, 2153, 2153, 2154, 2154, 2154, 2154, 2152, 2153, 2153, 2153, 2154, 2152, 2154, 2156, 2153, 2154, 2153, 2154, 2155, 2154, 2154, 2156, 2152, 2153, 2153, 2153, 2154, 2153, 2155, 2153, 2153, 2152, 2151, 2154, 2153, 2155, 2155, 2155, 2155, 2154, 2153, 2155, 2155, 2154, 2153, 2154, 2155, 2155, 2154, 2152, 2153, 2153, 2152, 2153, 2153, 2152, 2153, 2153, 2152, 2150, 2152, 2151, 2151, 2152, 2152, 2150, 2152, 2154, 2153, 2152, 2152, 2151, 2152, 2152, 2153, 2152, 2152, 2152, 2153, 2154, 2154, 2153, 2154, 2156, 2154, 2153, 2152, 2152, 2152, 2150, 2153, 2152, 2153],
      "WindowCenter": [988.0, 987.0, 988.0, 987.0, 988.0, 988.0, 987.0, 988.0, 988.0, 988.0, 988.0, 988.0, 987.0, 988.0, 988.0, 988.0, 988.0, 987.0, 987.0, 988.0, 987.0, 988.0, 986.0, 986.0, 987.0, 989.0, 989.0, 987.0, 987.0, 987.0, 987.0, 987.0, 987.0, 987.0, 987.0, 987.0, 987.0, 986.0, 986.0, 986.0, 986.0, 986.0, 988.0, 987.0, 987.0, 987.0, 987.0, 986.0, 986.0, 986.0, 987.0, 986.0, 986.0, 986.0, 986.0, 986.0, 987.0, 986.0, 986.0, 987.0, 987.0, 986.0, 988.0, 986.0, 986.0, 987.0, 987.0, 987.0, 987.0, 987.0, 986.0, 987.0, 987.0, 987.0, 986.0, 986.0, 988.0, 987.0, 986.0, 986.0, 987.0, 988.0, 986.0, 986.0, 987.0, 986.0, 987.0, 988.0, 986.0, 987.0, 986.0, 987.0, 987.0, 987.0, 986.0, 986.0, 987.0, 987.0, 987.0, 987.0, 986.0, 987.0, 986.0, 986.0, 986.0, 986.0, 986.0, 986.0, 986.0, 986.0, 987.0, 986.0, 986.0, 986.0, 986.0, 986.0, 986.0, 986.0, 986.0, 987.0, 986.0, 987.0, 986.0, 986.0, 986.0, 986.0, 986.0, 986.0, 985.0, 985.0, 986.0, 986.0, 985.0, 986.0, 987.0, 987.0, 986.0, 985.0, 987.0, 987.0, 986.0, 986.0, 987.0, 987.0, 986.0, 987.0, 986.0, 985.0, 987.0, 986.0, 985.0, 985.0, 986.0, 985.0, 985.0, 986.0, 986.0, 985.0, 987.0, 985.0, 986.0, 986.0, 986.0, 985.0, 986.0, 985.0, 985.0, 985.0, 986.0, 986.0, 985.0, 986.0, 986.0, 985.0, 986.0, 985.0, 987.0, 985.0, 986.0, 986.0, 986.0, 986.0, 985.0, 986.0, 986.0, 985.0, 986.0, 986.0, 986.0, 987.0, 986.0, 985.0, 986.0, 986.0, 986.0, 986.0, 986.0, 985.0, 986.0, 987.0],
      "WindowWidth": [2183.0, 2181.0, 2182.0, 2181.0, 2183.0, 2182.0, 2182.0, 2182.0, 2182.0, 2182.0, 2182.0, 2183.0, 2181.0, 2182.0, 2182.0, 2182.0, 2182.0, 2182.0, 2182.0, 2182.0, 2182.0, 2182.0, 2180.0, 2180.0, 2181.0, 2183.0, 2183.0, 2181.0, 2181.0, 2181.0, 2181.0, 2181.0, 2181.0, 2181.0, 2181.0, 2181.0, 2181.0, 2180.0, 2180.0, 2180.0, 2180.0, 2180.0, 2181.0, 2181.0, 2181.0, 2181.0, 2181.0, 2180.0, 2180.0, 2180.0, 2181.0, 2181.0, 2180.0, 2180.0, 2180.0, 2179.0, 2179.0, 2179.0, 2179.0, 2179.0, 2180.0, 2180.0, 2181.0, 2180.0, 2180.0, 2180.0, 2181.0, 2181.0, 2180.0, 2181.0, 2180.0, 2180.0, 2180.0, 2181.0, 2180.0, 2180.0, 2181.0, 2181.0, 2180.0, 2180.0, 2181.0, 2181.0, 2180.0, 2180.0, 2180.0, 2180.0, 2180.0, 2181.0, 2180.0, 2180.0, 2180.0, 2180.0, 2180.0, 2180.0, 2180.0, 2180.0, 2180.0, 2181.0, 2180.0, 2180.0, 2179.0, 2179.0, 2179.0, 2180.0, 2179.0, 2179.0, 2179.0, 2179.0, 2180.0, 2180.0, 2180.0, 2179.0, 2179.0, 2179.0, 2179.0, 2179.0, 2179.0, 2179.0, 2179.0, 2180.0, 2180.0, 2179.0, 2179.0, 2179.0, 2179.0, 2180.0, 2179.0, 2179.0, 2178.0, 2178.0, 2179.0, 2179.0, 2178.0, 2179.0, 2179.0, 2181.0, 2179.0, 2178.0, 2180.0, 2180.0, 2179.0, 2179.0, 2181.0, 2180.0, 2180.0, 2180.0, 2179.0, 2178.0, 2180.0, 2179.0, 2178.0, 2178.0, 2179.0, 2178.0, 2178.0, 2179.0, 2179.0, 2178.0, 2179.0, 2178.0, 2179.0, 2179.0, 2179.0, 2178.0, 2179.0, 2178.0, 2178.0, 2178.0, 2178.0, 2178.0, 2178.0, 2179.0, 2179.0, 2178.0, 2179.0, 2178.0, 2179.0, 2178.0, 2178.0, 2179.0, 2178.0, 2178.0, 2177.0, 2178.0, 2179.0, 2178.0, 2179.0, 2179.0, 2179.0, 2180.0, 2179.0, 2178.0, 2178.0, 2178.0, 2178.0, 2178.0, 2178.0, 2177.0, 2178.0, 2179.0]
    },
    "slices": {}
  }
}