{
  "AcquisitionMatrixPE": 80,
  "AcquisitionNumber": 1,
  "AcquisitionTime": "08:46:44.425000",
  "BandwidthPerPixelPhaseEncode": 25,
  "BaseResolution": 80,
  "BodyPartExamined": "BRAIN",
  "CoilCombinationMethod": "Sum of Squares",
  "ConsistencyInfo": "N4_VE11E_LATEST_20181129",
  "ConversionSoftware": "dcm2niix",
  "ConversionSoftwareVersion": "v1.0.20220720",
  "DerivedVendorReportedEchoSpacing": 0.0005,
  "DeviceSerialNumber": "66112",
  "DwellTime": 2.7e-06,
  "EchoTime": 0.03,
  "EchoTrainLength": 80,
  "EffectiveEchoSpacing": 0.0005,
  "FlipAngle": 77,
  "HeudiconvVersion": "0.13.1",
  "ImageOrientationPatientDICOM": [0.993532, -0.113539, 0.00176308, 0.107757, 0.947606, 0.300718],
  "ImageOrientationText": "Tra>Cor(17.4)>Sag(2.1)",
  "ImageType": [
    "ORIGINAL",
    "PRIMARY",
    "M",
    "ND",
    "NORM",
    "MOSAIC"
],
  "ImagingFrequency": 123.261,
  "InPlanePhaseEncodingDirectionDICOM": "COL",
  "InstitutionAddress": "Maynard 3,Hanover,NH,US,03755",
  "InstitutionName": "Dartmouth College - PBS",
  "InstitutionalDepartmentName": "Department",
  "MRAcquisitionType": "2D",
  "MagneticFieldStrength": 3,
  "Manufacturer": "Siemens",
  "ManufacturersModelName": "Prisma",
  "MatrixCoilMode": "SENSE",
  "Modality": "MR",
  "NonlinearGradientCorrection": false,
  "PartialFourier": 1,
  "PatientPosition": "HFS",
  "PercentPhaseFOV": 100,
  "PercentSampling": 100,
  "PhaseEncodingDirection": "j-",
  "PhaseEncodingSteps": 80,
  "PhaseResolution": 1,
  "PixelBandwidth": 2315,
  "ProcedureStepDescription": "dbic^QA",
  "ProtocolName": "func-bold_fa-77",
  "PulseSequenceDetails": "%SiemensSeq%\\ep2d_bold",
  "ReceiveCoilActiveElements": "HC1-7;NC1,2",
  "ReceiveCoilName": "HeadNeck_64",
  "ReconMatrixPE": 80,
  "RepetitionTime": 2,
  "SAR": 0.0281461,
  "ScanOptions": "FS",
  "ScanningSequence": "EP",
  "SequenceName": "*epfid2d1_80",
  "SequenceVariant": "SK",
  "SeriesDescription": "func-bold_fa-77",
  "SeriesNumber": 6,
  "ShimSetting": [4241, -7720, -7482, -146, -192, -272, -69, 142],
  "SliceThickness": 3.5,
  "SliceTiming": [0.99, 0, 1.0575, 0.0675, 1.1225, 0.1325, 1.1875, 0.1975, 1.255, 0.265, 1.32, 0.33, 1.3875, 0.3975, 1.4525, 0.4625, 1.5175, 0.5275, 1.585, 0.595, 1.65, 0.66, 1.7175, 0.7275, 1.7825, 0.7925, 1.8475, 0.8575, 1.915, 0.925],
  "SoftwareVersions": "syngo MR E11",
  "SpacingBetweenSlices": 3.99,
  "StationName": "AWP66112",
  "TotalReadoutTime": 0.0395,
  "TxRefAmp": 211.411,
  "dcmmeta_affine": [
    [-2.9805960655212402, 0.32327017188072205, 0.14289720356464386, 104.25543212890625],
    [0.34061604738235474, 2.842818021774292, 1.191346287727356, -137.6354522705078],
    [0.005289232823997736, -0.9021541476249695, 3.8053088188171387, -38.356529235839844],
    [0.0, 0.0, 0.0, 1.0]
],
  "dcmmeta_reorient_transform": [
    [0.0, -1.0, 0.0, 79.0],
    [1.0, 0.0, 0.0, 0.0],
    [0.0, 0.0, 1.0, 0.0],
    [0.0, 0.0, 0.0, 1.0]
],
  "dcmmeta_shape": [80, 80, 30, 200],
  "dcmmeta_slice_dim": 2,
  "dcmmeta_version": 0.6,
  "global": {
    "const": {
      "AccessionNumber": "qa64",
      "AcquisitionMatrix": [80, 0, 0, 80],
      "AngioFlag": "N",
      "BitsAllocated": 16,
      "BitsStored": 12,
      "BodyPartExamined": "BRAIN",
      "Columns": 480,
      "EchoNumbers": 1,
      "EchoTime": 30.0,
      "EchoTrainLength": 80,
      "FlipAngle": 77.0,
      "HighBit": 11,
      "ImageOrientationPatient": [0.9935320116955, -0.1135386863303, 0.00176307762053, 0.10775672096801, 0.94760600552795, 0.30071805295591],
      "ImagePositionPatient": [-790.5670133417, -587.38755967371, -291.11538587783],
      "ImageType": [
        "ORIGINAL",
        "PRIMARY",
        "M",
        "ND",
        "NORM",
        "MOSAIC"
],
      "ImagedNucleus": "1H",
      "ImagingFrequency": 123.261272,
      "InPlanePhaseEncodingDirection": "COL",
      "MRAcquisitionType": "2D",
      "MagneticFieldStrength": 3.0,
      "Manufacturer": "SIEMENS",
      "ManufacturerModelName": "Prisma",
      "Modality": "MR",
      "NumberOfAverages": 1.0,
      "NumberOfPhaseEncodingSteps": 80,
      "PercentPhaseFieldOfView": 100.0,
      "PercentSampling": 100.0,
      "PerformedProcedureStepStartTime": "083641.846000",
      "PhotometricInterpretation": "MONOCHROME2",
      "PixelBandwidth": 2315.0,
      "PixelRepresentation": 0,
      "PixelSpacing": [3.0, 3.0],
      "ProtocolName": "func-bold_fa-77",
      "RepetitionTime": 2000.0,
      "Rows": 480,
      "SAR": 0.02814611542404,
      "SamplesPerPixel": 1,
      "ScanOptions": "FS",
      "ScanningSequence": "EP",
      "SequenceName": "*epfid2d1_80",
      "SequenceVariant": "SK",
      "SeriesDescription": "func-bold_fa-77",
      "SeriesNumber": 6,
      "SeriesTime": "084737.809000",
      "SliceLocation": -73.942885343879,
      "SliceThickness": 3.5,
      "SmallestImagePixelValue": 0,
      "SoftwareVersions": "syngo MR E11",
      "SpacingBetweenSlices": 3.9900000542836,
      "SpecificCharacterSet": "ISO_IR 100",
      "StudyID": "19",
      "StudyTime": "083641.742000",
      "TransmitCoilName": "Body",
      "VariableFlipAngleFlag": "N",
      "WindowCenterWidthExplanation": "Algo1"
    },
    "slices": {}
  },
  "time": {
    "samples": {
      "AcquisitionNumber": [1, 2, 3, 4, 5, 6, 7, 8, 9, 10, 11, 12, 13, 14, 15, 16, 17, 18, 19, 20, 21, 22, 23, 24, 25, 26, 27, 28, 29, 30, 31, 32, 33, 34, 35, 36, 37, 38, 39, 40, 41, 42, 43, 44, 45, 46, 47, 48, 49, 50, 51, 52, 53, 54, 55, 56, 57, 58, 59, 60, 61, 62, 63, 64, 65, 66, 67, 68, 69, 70, 71, 72, 73, 74, 75, 76, 77, 78, 79, 80, 81, 82, 83, 84, 85, 86, 87, 88, 89, 90, 91, 92, 93, 94, 95, 96, 97, 98, 99, 100, 101, 102, 103, 104, 105, 106, 107, 108, 109, 110, 111, 112, 113, 114, 115, 116, 117, 118, 119, 120, 121, 122, 123, 124, 125, 126, 127, 128, 129, 130, 131, 132, 133, 134, 135, 136, 137, 138, 139, 140, 141, 142, 143, 144, 145, 146, 147, 148, 149, 150, 151, 152, 153, 154, 155, 156, 157, 158, 159, 160, 161, 162, 163, 164, 165, 166, 167, 168, 169, 170, 171, 172, 173, 174, 175, 176, 177, 178, 179, 180, 181, 182, 183, 184, 185, 186, 187, 188, 189, 190, 191, 192, 193, 194, 195, 196, 197, 198, 199, 200],
      "AcquisitionTime": ["084644.425000", "084646.425000", "084648.425000", "084650.425000", "084652.425000", "084654.425000", "084656.425000", "084658.425000", "084700.425000", "084702.425000", "084704.425000", "084706.425000", "084708.425000", "084710.425000", "084712.425000", "084714.425000", "084716.425000", "084718.425000", "084720.425000", "084722.425000", "084724.425000", "084726.425000", "084728.425000", "084730.425000", "084732.425000", "084734.425000", "084736.425000", "084738.425000", "084740.425000", "084742.425000", "084744.425000", "084746.425000", "084748.425000", "084750.425000", "084752.425000", "084754.425000", "084756.425000", "084758.425000", "084800.425000", "084802.425000", "084804.425000", "084806.425000", "084808.425000", "084810.425000", "084812.425000", "084814.425000", "084816.425000", "084818.425000", "084820.425000", "084822.425000", "084824.425000", "084826.425000", "084828.425000", "084830.425000", "084832.425000", "084834.425000", "084836.425000", "084838.425000", "084840.425000", "084842.425000", "084844.425000", "084846.425000", "084848.425000", "084850.425000", "084852.425000", "084854.425000", "084856.425000", "084858.425000", "084900.425000", "084902.425000", "084904.425000", "084906.425000", "084908.425000", "084910.425000", "084912.425000", "084914.425000", "084916.425000", "084918.425000", "084920.425000", "084922.425000", "084924.425000", "084926.425000", "084928.425000", "084930.425000", "084932.425000", "084934.425000", "084936.425000", "084938.425000", "084940.425000", "084942.425000", "084944.425000", "084946.425000", "084948.425000", "084950.425000", "084952.425000", "084954.425000", "084956.425000", "084958.425000", "085000.425000", "085002.425000", "085004.425000", "085006.425000", "085008.425000", "085010.425000", "085012.425000", "085014.425000", "085016.425000", "085018.425000", "085020.425000", "085022.425000", "085024.425000", "085026.425000", "085028.425000", "085030.425000", "085032.425000", "085034.425000", "085036.425000", "085038.425000", "085040.425000", "085042.425000", "085044.425000", "085046.425000", "085048.425000", "085050.425000", "085052.425000", "085054.425000", "085056.425000", "085058.425000", "085100.425000", "085102.425000", "085104.425000", "085106.425000", "085108.425000", "085110.425000", "085112.425000", "085114.425000", "085116.425000", "085118.425000", "085120.425000", "085122.425000", "085124.425000", "085126.425000", "085128.425000", "085130.425000", "085132.425000", "085134.425000", "085136.425000", "085138.425000", "085140.425000", "085142.425000", "085144.425000", "085146.425000", "085148.425000", "085150.425000", "085152.425000", "085154.425000", "085156.425000", "085158.425000", "085200.425000", "085202.425000", "085204.425000", "085206.425000", "085208.425000", "085210.425000", "085212.425000", "085214.425000", "085216.425000", "085218.425000", "085220.425000", "085222.425000", "085224.425000", "085226.425000", "085228.425000", "085230.425000", "085232.425000", "085234.425000", "085236.425000", "085238.425000", "085240.425000", "085242.425000", "085244.425000", "085246.425000", "085248.425000", "085250.425000", "085252.425000", "085254.425000", "085256.425000", "085258.425000", "085300.425000", "085302.425000", "085304.425000", "085306.425000", "085308.425000", "085310.425000", "085312.425000", "085314.425000", "085316.425000", "085318.425000", "085320.425000", "085322.425000"],
      "ContentTime": ["084737.812000", "084737.816000", "084737.818000", "084737.821000", "084737.823000", "084737.825000", "084737.828000", "084737.830000", "084737.832000", "084737.835000", "084737.837000", "084737.839000", "084737.842000", "084737.844000", "084737.846000", "084737.849000", "084737.851000", "084737.853000", "084737.856000", "084737.858000", "084737.861000", "084737.863000", "084737.865000", "084737.868000", "084737.870000", "084737.872000", "084817.795000", "084817.798000", "084817.800000", "084817.802000", "084817.805000", "084817.807000", "084817.810000", "084817.812000", "084817.814000", "084817.817000", "084817.819000", "084817.821000", "084817.824000", "084817.826000", "084817.828000", "084817.831000", "084817.833000", "084817.836000", "084817.838000", "084817.840000", "084857.796000", "084857.799000", "084857.801000", "084857.803000", "084857.806000", "084857.808000", "084857.811000", "084857.813000", "084857.816000", "084857.818000", "084857.820000", "084857.823000", "084857.825000", "084857.827000", "084857.830000", "084857.832000", "084857.834000", "084857.837000", "084857.839000", "084857.841000", "084937.796000", "084937.799000", "084937.801000", "084937.803000", "084937.806000", "084937.808000", "084937.811000", "084937.813000", "084937.815000", "084937.818000", "084937.820000", "084937.822000", "084937.825000", "084937.827000", "084937.829000", "084937.832000", "084937.834000", "084937.837000", "084937.839000", "084937.841000", "085017.795000", "085017.798000", "085017.800000", "085017.802000", "085017.805000", "085017.807000", "085017.810000", "085017.812000", "085017.814000", "085017.817000", "085017.819000", "085017.821000", "085017.824000", "085017.826000", "085017.828000", "085017.831000", "085017.833000", "085017.835000", "085017.838000", "085017.840000", "085057.795000", "085057.798000", "085057.800000", "085057.802000", "085057.805000", "085057.807000", "085057.810000", "085057.812000", "085057.815000", "085057.817000", "085057.819000", "085057.821000", "085057.824000", "085057.826000", "085057.829000", "085057.831000", "085057.833000", "085057.836000", "085057.838000", "085057.840000", "085137.796000", "085137.799000", "085137.801000", "085137.804000", "085137.806000", "085137.808000", "085137.811000", "085137.813000", "085137.816000", "085137.818000", "085137.820000", "085137.823000", "085137.825000", "085137.828000", "085137.830000", "085137.832000", "085137.835000", "085137.837000", "085137.839000", "085137.842000", "085217.795000", "085217.798000", "085217.800000", "085217.802000", "085217.805000", "085217.807000", "085217.809000", "085217.812000", "085217.815000", "085217.817000", "085217.819000", "085217.821000", "085217.824000", "085217.826000", "085217.828000", "085217.831000", "085217.833000", "085217.836000", "085217.838000", "085217.840000", "085257.795000", "085257.798000", "085257.800000", "085257.802000", "085257.805000", "085257.807000", "085257.810000", "085257.812000", "085257.814000", "085257.817000", "085257.819000", "085257.821000", "085257.824000", "085257.826000", "085257.828000", "085257.831000", "085257.833000", "085257.835000", "085257.838000", "085257.840000", "085324.266000", "085324.268000", "085324.270000", "085324.273000", "085324.276000", "085324.278000", "085324.280000", "085324.283000", "085324.285000", "085324.287000", "085324.290000", "085324.292000", "085324.297000", "085324.302000"],
      "InstanceCreationTime": ["084737.812000", "084737.816000", "084737.818000", "084737.821000", "084737.823000", "084737.825000", "084737.828000", "084737.830000", "084737.832000", "084737.835000", "084737.837000", "084737.839000", "084737.842000", "084737.844000", "084737.846000", "084737.849000", "084737.851000", "084737.853000", "084737.856000", "084737.858000", "084737.861000", "084737.863000", "084737.865000", "084737.868000", "084737.870000", "084737.872000", "084817.795000", "084817.798000", "084817.800000", "084817.802000", "084817.805000", "084817.807000", "084817.810000", "084817.812000", "084817.814000", "084817.817000", "084817.819000", "084817.821000", "084817.824000", "084817.826000", "084817.828000", "084817.831000", "084817.833000", "084817.836000", "084817.838000", "084817.840000", "084857.796000", "084857.799000", "084857.801000", "084857.803000", "084857.806000", "084857.808000", "084857.811000", "084857.813000", "084857.816000", "084857.818000", "084857.820000", "084857.823000", "084857.825000", "084857.827000", "084857.830000", "084857.832000", "084857.834000", "084857.837000", "084857.839000", "084857.841000", "084937.796000", "084937.799000", "084937.801000", "084937.803000", "084937.806000", "084937.808000", "084937.811000", "084937.813000", "084937.815000", "084937.818000", "084937.820000", "084937.822000", "084937.825000", "084937.827000", "084937.829000", "084937.832000", "084937.834000", "084937.837000", "084937.839000", "084937.841000", "085017.795000", "085017.798000", "085017.800000", "085017.802000", "085017.805000", "085017.807000", "085017.810000", "085017.812000", "085017.814000", "085017.817000", "085017.819000", "085017.821000", "085017.824000", "085017.826000", "085017.828000", "085017.831000", "085017.833000", "085017.835000", "085017.838000", "085017.840000", "085057.795000", "085057.798000", "085057.800000", "085057.802000", "085057.805000", "085057.807000", "085057.810000", "085057.812000", "085057.815000", "085057.817000", "085057.819000", "085057.821000", "085057.824000", "085057.826000", "085057.829000", "085057.831000", "085057.833000", "085057.836000", "085057.838000", "085057.840000", "085137.796000", "085137.799000", "085137.801000", "085137.804000", "085137.806000", "085137.808000", "085137.811000", "085137.813000", "085137.816000", "085137.818000", "085137.820000", "085137.823000", "085137.825000", "085137.828000", "085137.830000", "085137.832000", "085137.835000", "085137.837000", "085137.839000", "085137.842000", "085217.795000", "085217.798000", "085217.800000", "085217.802000", "085217.805000", "085217.807000", "085217.809000", "085217.812000", "085217.815000", "085217.817000", "085217.819000", "085217.821000", "085217.824000", "085217.826000", "085217.828000", "085217.831000", "085217.833000", "085217.836000", "085217.838000", "085217.840000", "085257.795000", "085257.798000", "085257.800000", "085257.802000", "085257.805000", "085257.807000", "085257.810000", "085257.812000", "085257.814000", "085257.817000", "085257.819000", "085257.821000", "085257.824000", "085257.826000", "085257.828000", "085257.831000", "085257.833000", "085257.835000", "085257.838000", "085257.840000", "085324.266000", "085324.268000", "085324.270000", "085324.273000", "085324.276000", "085324.278000", "085324.280000", "085324.283000", "085324.285000", "085324.287000", "085324.290000", "085324.292000", "085324.297000", "085324.302000"],
      "InstanceNumber": [1, 2, 3, 4, 5, 6, 7, 8, 9, 10, 11, 12, 13, 14, 15, 16, 17, 18, 19, 20, 21, 22, 23, 24, 25, 26, 27, 28, 29, 30, 31, 32, 33, 34, 35, 36, 37, 38, 39, 40, 41, 42, 43, 44, 45, 46, 47, 48, 49, 50, 51, 52, 53, 54, 55, 56, 57, 58, 59, 60, 61, 62, 63, 64, 65, 66, 67, 68, 69, 70, 71, 72, 73, 74, 75, 76, 77, 78, 79, 80, 81, 82, 83, 84, 85, 86, 87, 88, 89, 90, 91, 92, 93, 94, 95, 96, 97, 98, 99, 100, 101, 102, 103, 104, 105, 106, 107, 108, 109, 110, 111, 112, 113, 114, 115, 116, 117, 118, 119, 120, 121, 122, 123, 124, 125, 126, 127, 128, 129, 130, 131, 132, 133, 134, 135, 136, 137, 138, 139, 140, 141, 142, 143, 144, 145, 146, 147, 148, 149, 150, 151, 152, 153, 154, 155, 156, 157, 158, 159, 160, 161, 162, 163, 164, 165, 166, 167, 168, 169, 170, 171, 172, 173, 174, 175, 176, 177, 178, 179, 180, 181, 182, 183, 184, 185, 186, 187, 188, 189, 190, 191, 192, 193, 194, 195, 196, 197, 198, 199, 200],
      "LargestImagePixelValue": [4042, 4047, 4044, 4045, 4040, 4040, 4044, 4039, 4037, 4042, 4041, 4042, 4036, 4041, 4041, 4038, 4040, 4038, 4036, 4040, 4039, 4035, 4032, 4037, 4037, 4033, 4037, 4034, 4035, 4035, 4034, 4027, 4031, 4031, 4032, 4031, 4031, 4029, 4032, 4029, 4031, 4025, 4032, 4032, 4025, 4031, 4030, 4033, 4029, 4029, 4028, 4026, 4027, 4023, 4029, 4028, 4029, 4025, 4026, 4027, 4028, 4028, 4022, 4022, 4026, 4026, 4025, 4020, 4028, 4028, 4023, 4022, 4021, 4020, 4024, 4018, 4015, 4021, 4020, 4016, 4019, 4019, 4023, 4020, 4021, 4018, 4017, 4019, 4015, 4017, 4020, 4020, 4020, 4020, 4020, 4017, 4018, 4016, 4015, 4018, 4015, 4012, 4015, 4014, 4013, 4013, 4016, 4013, 4012, 4015, 4013, 4014, 4013, 4015, 4015, 4014, 4012, 4014, 4014, 4015, 4009, 4008, 4011, 4006, 4009, 4011, 4016, 4007, 4011, 4016, 4011, 4009, 4010, 4012, 4009, 4010, 4005, 4011, 4005, 4011, 4004, 4001, 4006, 4004, 4008, 4009, 4007, 4009, 4003, 4010, 4005, 4001, 4003, 4008, 4005, 4004, 4004, 4008, 4002, 4010, 4005, 4003, 4001, 4008, 4010, 3999, 4006, 4003, 4001, 4005, 4002, 4001, 4007, 3999, 4006, 4007, 4000, 4007, 3996, 4002, 4002, 4000, 4003, 3996, 3999, 3999, 3999, 3996, 3998, 3999, 3995, 3997, 3996, 3996, 3995, 4002, 3997, 4000, 3998, 4000],
      "WindowCenter": [1423.0, 1423.0, 1423.0, 1423.0, 1422.0, 1422.0, 1423.0, 1422.0, 1422.0, 1422.0, 1422.0, 1422.0, 1422.0, 1422.0, 1422.0, 1422.0, 1422.0, 1422.0, 1422.0, 1422.0, 1422.0, 1422.0, 1422.0, 1422.0, 1422.0, 1421.0, 1421.0, 1421.0, 1422.0, 1422.0, 1421.0, 1422.0, 1422.0, 1422.0, 1422.0, 1422.0, 1422.0, 1422.0, 1422.0, 1421.0, 1421.0, 1421.0, 1421.0, 1421.0, 1421.0, 1421.0, 1421.0, 1421.0, 1421.0, 1421.0, 1421.0, 1421.0, 1421.0, 1421.0, 1421.0, 1421.0, 1422.0, 1421.0, 1421.0, 1420.0, 1421.0, 1421.0, 1420.0, 1421.0, 1420.0, 1420.0, 1420.0, 1420.0, 1421.0, 1421.0, 1421.0, 1421.0, 1421.0, 1420.0, 1420.0, 1421.0, 1420.0, 1420.0, 1421.0, 1420.0, 1421.0, 1421.0, 1420.0, 1420.0, 1421.0, 1420.0, 1419.0, 1420.0, 1420.0, 1420.0, 1420.0, 1420.0, 1420.0, 1420.0, 1420.0, 1420.0, 1420.0, 1420.0, 1419.0, 1420.0, 1419.0, 1420.0, 1420.0, 1419.0, 1420.0, 1420.0, 1420.0, 1419.0, 1419.0, 1419.0, 1420.0, 1419.0, 1419.0, 1419.0, 1419.0, 1419.0, 1419.0, 1419.0, 1419.0, 1419.0, 1420.0, 1419.0, 1420.0, 1419.0, 1418.0, 1419.0, 1419.0, 1418.0, 1419.0, 1419.0, 1418.0, 1419.0, 1419.0, 1418.0, 1419.0, 1419.0, 1419.0, 1419.0, 1418.0, 1418.0, 1419.0, 1419.0, 1418.0, 1419.0, 1419.0, 1419.0, 1419.0, 1419.0, 1419.0, 1419.0, 1418.0, 1418.0, 1418.0, 1418.0, 1418.0, 1419.0, 1418.0, 1418.0, 1418.0, 1418.0, 1418.0, 1418.0, 1418.0, 1418.0, 1418.0, 1418.0, 1418.0, 1418.0, 1418.0, 1418.0, 1418.0, 1418.0, 1418.0, 1418.0, 1418.0, 1418.0, 1418.0, 1418.0, 1418.0, 1418.0, 1418.0, 1417.0, 1418.0, 1418.0, 1418.0, 1417.0, 1418.0, 1418.0, 1417.0, 1417.0, 1418.0, 1418.0, 1417.0, 1417.0, 1418.0, 1417.0, 1417.0, 1417.0, 1417.0, 1417.0],
      "WindowWidth": [3363.0, 3363.0, 3363.0, 3363.0, 3363.0, 3363.0, 3362.0, 3363.0, 3363.0, 3363.0, 3363.0, 3363.0, 3363.0, 3363.0, 3363.0, 3362.0, 3362.0, 3363.0, 3362.0, 3362.0, 3362.0, 3362.0, 3362.0, 3362.0, 3362.0, 3362.0, 3362.0, 3362.0, 3362.0, 3362.0, 3362.0, 3362.0, 3362.0, 3362.0, 3362.0, 3362.0, 3362.0, 3362.0, 3362.0, 3362.0, 3362.0, 3362.0, 3362.0, 3362.0, 3362.0, 3362.0, 3362.0, 3362.0, 3362.0, 3362.0, 3362.0, 3362.0, 3362.0, 3362.0, 3362.0, 3361.0, 3361.0, 3362.0, 3362.0, 3362.0, 3362.0, 3362.0, 3362.0, 3362.0, 3362.0, 3362.0, 3362.0, 3362.0, 3361.0, 3361.0, 3361.0, 3361.0, 3361.0, 3361.0, 3362.0, 3361.0, 3361.0, 3362.0, 3361.0, 3361.0, 3361.0, 3361.0, 3361.0, 3361.0, 3361.0, 3361.0, 3361.0, 3361.0, 3361.0, 3361.0, 3361.0, 3361.0, 3361.0, 3361.0, 3361.0, 3361.0, 3361.0, 3361.0, 3361.0, 3361.0, 3361.0, 3361.0, 3361.0, 3361.0, 3361.0, 3361.0, 3361.0, 3361.0, 3361.0, 3361.0, 3360.0, 3361.0, 3361.0, 3361.0, 3360.0, 3361.0, 3360.0, 3360.0, 3361.0, 3361.0, 3360.0, 3361.0, 3360.0, 3361.0, 3360.0, 3361.0, 3360.0, 3360.0, 3361.0, 3361.0, 3360.0, 3361.0, 3361.0, 3360.0, 3360.0, 3360.0, 3360.0, 3360.0, 3360.0, 3360.0, 3360.0, 3360.0, 3360.0, 3360.0, 3360.0, 3360.0, 3360.0, 3360.0, 3360.0, 3360.0, 3360.0, 3360.0, 3360.0, 3360.0, 3360.0, 3359.0, 3360.0, 3360.0, 3360.0, 3360.0, 3360.0, 3360.0, 3360.0, 3360.0, 3359.0, 3360.0, 3360.0, 3360.0, 3359.0, 3359.0, 3359.0, 3359.0, 3359.0, 3359.0, 3359.0, 3359.0, 3359.0, 3359.0, 3359.0, 3359.0, 3359.0, 3359.0, 3359.0, 3359.0, 3359.0, 3359.0, 3359.0, 3359.0, 3359.0, 3359.0, 3359.0, 3359.0, 3359.0, 3359.0, 3359.0, 3359.0, 3359.0, 3359.0, 3359.0, 3359.0]
    },
    "slices": {}
  }
}