{
  "AcquisitionMatrixPE": 80,
  "AcquisitionNumber": 1,
  "AcquisitionTime": "08:53:31.500000",
  "BandwidthPerPixelPhaseEncode": 25,
  "BaseResolution": 80,
  "BodyPartExamined": "BRAIN",
  "CoilCombinationMethod": "Sum of Squares",
  "ConsistencyInfo": "N4_VE11E_LATEST_20181129",
  "ConversionSoftware": "dcm2niix",
  "ConversionSoftwareVersion": "v1.0.20220720",
  "DerivedVendorReportedEchoSpacing": 0.0005,
  "DeviceSerialNumber": "66112",
  "DwellTime": 2.7e-06,
  "EchoTime": 0.03,
  "EchoTrainLength": 80,
  "EffectiveEchoSpacing": 0.0005,
  "FlipAngle": 10,
  "HeudiconvVersion": "0.13.1",
  "ImageOrientationPatientDICOM": [0.993532, -0.113539, 0.00176308, 0.107757, 0.947606, 0.300718],
  "ImageOrientationText": "Tra>Cor(17.4)>Sag(2.1)",
  "ImageType": [
    "ORIGINAL",
    "PRIMARY",
    "M",
    "ND",
    "NORM",
    "MOSAIC"
],
  "ImagingFrequency": 123.261,
  "InPlanePhaseEncodingDirectionDICOM": "COL",
  "InstitutionAddress": "Maynard 3,Hanover,NH,US,03755",
  "InstitutionName": "Dartmouth College - PBS",
  "InstitutionalDepartmentName": "Department",
  "MRAcquisitionType": "2D",
  "MagneticFieldStrength": 3,
  "Manufacturer": "Siemens",
  "ManufacturersModelName": "Prisma",
  "MatrixCoilMode": "SENSE",
  "Modality": "MR",
  "NonlinearGradientCorrection": false,
  "PartialFourier": 1,
  "PatientPosition": "HFS",
  "PercentPhaseFOV": 100,
  "PercentSampling": 100,
  "PhaseEncodingDirection": "j-",
  "PhaseEncodingSteps": 80,
  "PhaseResolution": 1,
  "PixelBandwidth": 2315,
  "ProcedureStepDescription": "dbic^QA",
  "ProtocolName": "func-bold_fa-10",
  "PulseSequenceDetails": "%SiemensSeq%\\ep2d_bold",
  "ReceiveCoilActiveElements": "HC1-7;NC1,2",
  "ReceiveCoilName": "HeadNeck_64",
  "ReconMatrixPE": 80,
  "RepetitionTime": 2,
  "SAR": 0.00755017,
  "ScanOptions": "FS",
  "ScanningSequence": "EP",
  "SequenceName": "*epfid2d1_80",
  "SequenceVariant": "SK",
  "SeriesDescription": "func-bold_fa-10",
  "SeriesNumber": 7,
  "ShimSetting": [4241, -7720, -7482, -146, -192, -272, -69, 142],
  "SliceThickness": 3.5,
  "SliceTiming": [0.99, 0, 1.0575, 0.0675, 1.1225, 0.1325, 1.1875, 0.2, 1.255, 0.265, 1.32, 0.33, 1.3875, 0.3975, 1.4525, 0.4625, 1.5175, 0.5275, 1.585, 0.595, 1.65, 0.66, 1.7175, 0.7275, 1.7825, 0.7925, 1.8475, 0.8575, 1.915, 0.925],
  "SoftwareVersions": "syngo MR E11",
  "SpacingBetweenSlices": 3.99,
  "StationName": "AWP66112",
  "TotalReadoutTime": 0.0395,
  "TxRefAmp": 211.411,
  "dcmmeta_affine": [
    [-2.9805960655212402, 0.32327017188072205, 0.14289720356464386, 104.25543212890625],
    [0.34061604738235474, 2.842818021774292, 1.191346287727356, -137.6354522705078],
    [0.005289232823997736, -0.9021541476249695, 3.8053088188171387, -38.356529235839844],
    [0.0, 0.0, 0.0, 1.0]
],
  "dcmmeta_reorient_transform": [
    [0.0, -1.0, 0.0, 79.0],
    [1.0, 0.0, 0.0, 0.0],
    [0.0, 0.0, 1.0, 0.0],
    [0.0, 0.0, 0.0, 1.0]
],
  "dcmmeta_shape": [80, 80, 30, 200],
  "dcmmeta_slice_dim": 2,
  "dcmmeta_version": 0.6,
  "global": {
    "const": {
      "AccessionNumber": "qa64",
      "AcquisitionMatrix": [80, 0, 0, 80],
      "AngioFlag": "N",
      "BitsAllocated": 16,
      "BitsStored": 12,
      "BodyPartExamined": "BRAIN",
      "Columns": 480,
      "EchoNumbers": 1,
      "EchoTime": 30.0,
      "EchoTrainLength": 80,
      "FlipAngle": 10.0,
      "HighBit": 11,
      "ImageOrientationPatient": [0.9935320116955, -0.1135386863303, 0.00176307762053, 0.10775672096801, 0.94760600552795, 0.30071805295591],
      "ImagePositionPatient": [-790.5670133417, -587.38755967371, -291.11538587783],
      "ImageType": [
        "ORIGINAL",
        "PRIMARY",
        "M",
        "ND",
        "NORM",
        "MOSAIC"
],
      "ImagedNucleus": "1H",
      "ImagingFrequency": 123.261272,
      "InPlanePhaseEncodingDirection": "COL",
      "MRAcquisitionType": "2D",
      "MagneticFieldStrength": 3.0,
      "Manufacturer": "SIEMENS",
      "ManufacturerModelName": "Prisma",
      "Modality": "MR",
      "NumberOfAverages": 1.0,
      "NumberOfPhaseEncodingSteps": 80,
      "PercentPhaseFieldOfView": 100.0,
      "PercentSampling": 100.0,
      "PerformedProcedureStepStartTime": "083641.846000",
      "PhotometricInterpretation": "MONOCHROME2",
      "PixelBandwidth": 2315.0,
      "PixelRepresentation": 0,
      "PixelSpacing": [3.0, 3.0],
      "ProtocolName": "func-bold_fa-10",
      "RepetitionTime": 2000.0,
      "Rows": 480,
      "SAR": 0.00755016997666,
      "SamplesPerPixel": 1,
      "ScanOptions": "FS",
      "ScanningSequence": "EP",
      "SequenceName": "*epfid2d1_80",
      "SequenceVariant": "SK",
      "SeriesDescription": "func-bold_fa-10",
      "SeriesNumber": 7,
      "SeriesTime": "085417.664000",
      "SliceLocation": -73.942885343879,
      "SliceThickness": 3.5,
      "SmallestImagePixelValue": 0,
      "SoftwareVersions": "syngo MR E11",
      "SpacingBetweenSlices": 3.9900000542836,
      "SpecificCharacterSet": "ISO_IR 100",
      "StudyID": "19",
      "StudyTime": "083641.742000",
      "TransmitCoilName": "Body",
      "VariableFlipAngleFlag": "N",
      "WindowCenterWidthExplanation": "Algo1"
    },
    "slices": {}
  },
  "time": {
    "samples": {
      "AcquisitionNumber": [1, 2, 3, 4, 5, 6, 7, 8, 9, 10, 11, 12, 13, 14, 15, 16, 17, 18, 19, 20, 21, 22, 23, 24, 25, 26, 27, 28, 29, 30, 31, 32, 33, 34, 35, 36, 37, 38, 39, 40, 41, 42, 43, 44, 45, 46, 47, 48, 49, 50, 51, 52, 53, 54, 55, 56, 57, 58, 59, 60, 61, 62, 63, 64, 65, 66, 67, 68, 69, 70, 71, 72, 73, 74, 75, 76, 77, 78, 79, 80, 81, 82, 83, 84, 85, 86, 87, 88, 89, 90, 91, 92, 93, 94, 95, 96, 97, 98, 99, 100, 101, 102, 103, 104, 105, 106, 107, 108, 109, 110, 111, 112, 113, 114, 115, 116, 117, 118, 119, 120, 121, 122, 123, 124, 125, 126, 127, 128, 129, 130, 131, 132, 133, 134, 135, 136, 137, 138, 139, 140, 141, 142, 143, 144, 145, 146, 147, 148, 149, 150, 151, 152, 153, 154, 155, 156, 157, 158, 159, 160, 161, 162, 163, 164, 165, 166, 167, 168, 169, 170, 171, 172, 173, 174, 175, 176, 177, 178, 179, 180, 181, 182, 183, 184, 185, 186, 187, 188, 189, 190, 191, 192, 193, 194, 195, 196, 197, 198, 199, 200],
      "AcquisitionTime": ["085331.500000", "085333.500000", "085335.500000", "085337.500000", "085339.500000", "085341.500000", "085343.500000", "085345.500000", "085347.500000", "085349.500000", "085351.500000", "085353.500000", "085355.500000", "085357.500000", "085359.500000", "085401.500000", "085403.500000", "085405.500000", "085407.500000", "085409.500000", "085411.500000", "085413.500000", "085415.500000", "085417.500000", "085419.500000", "085421.500000", "085423.500000", "085425.500000", "085427.500000", "085429.500000", "085431.500000", "085433.500000", "085435.500000", "085437.500000", "085439.500000", "085441.500000", "085443.500000", "085445.500000", "085447.500000", "085449.500000", "085451.500000", "085453.500000", "085455.500000", "085457.500000", "085459.500000", "085501.500000", "085503.500000", "085505.500000", "085507.500000", "085509.500000", "085511.500000", "085513.500000", "085515.500000", "085517.500000", "085519.500000", "085521.500000", "085523.500000", "085525.500000", "085527.500000", "085529.500000", "085531.500000", "085533.500000", "085535.500000", "085537.500000", "085539.500000", "085541.500000", "085543.500000", "085545.500000", "085547.500000", "085549.500000", "085551.500000", "085553.500000", "085555.500000", "085557.500000", "085559.500000", "085601.500000", "085603.500000", "085605.500000", "085607.500000", "085609.500000", "085611.500000", "085613.500000", "085615.500000", "085617.500000", "085619.500000", "085621.500000", "085623.500000", "085625.500000", "085627.500000", "085629.500000", "085631.500000", "085633.500000", "085635.500000", "085637.500000", "085639.500000", "085641.500000", "085643.500000", "085645.500000", "085647.500000", "085649.500000", "085651.500000", "085653.500000", "085655.500000", "085657.500000", "085659.500000", "085701.500000", "085703.500000", "085705.500000", "085707.500000", "085709.500000", "085711.500000", "085713.500000", "085715.500000", "085717.500000", "085719.500000", "085721.500000", "085723.500000", "085725.500000", "085727.500000", "085729.500000", "085731.500000", "085733.500000", "085735.500000", "085737.500000", "085739.500000", "085741.500000", "085743.500000", "085745.500000", "085747.500000", "085749.500000", "085751.500000", "085753.500000", "085755.500000", "085757.500000", "085759.500000", "085801.500000", "085803.500000", "085805.500000", "085807.500000", "085809.500000", "085811.500000", "085813.500000", "085815.500000", "085817.500000", "085819.500000", "085821.500000", "085823.500000", "085825.500000", "085827.500000", "085829.500000", "085831.500000", "085833.500000", "085835.500000", "085837.500000", "085839.500000", "085841.500000", "085843.500000", "085845.500000", "085847.500000", "085849.500000", "085851.500000", "085853.500000", "085855.500000", "085857.500000", "085859.500000", "085901.500000", "085903.500000", "085905.500000", "085907.500000", "085909.500000", "085911.500000", "085913.500000", "085915.500000", "085917.500000", "085919.500000", "085921.500000", "085923.500000", "085925.500000", "085927.500000", "085929.500000", "085931.500000", "085933.500000", "085935.500000", "085937.500000", "085939.500000", "085941.500000", "085943.500000", "085945.500000", "085947.500000", "085949.500000", "085951.500000", "085953.500000", "085955.500000", "085957.500000", "085959.500000", "090001.500000", "090003.500000", "090005.500000", "090007.500000", "090009.500000"],
      "ContentTime": ["085417.667000", "085417.670000", "085417.673000", "085417.675000", "085417.677000", "085417.680000", "085417.682000", "085417.684000", "085417.687000", "085417.689000", "085417.691000", "085417.694000", "085417.696000", "085417.698000", "085417.701000", "085417.703000", "085417.705000", "085417.708000", "085417.710000", "085417.712000", "085417.715000", "085417.717000", "085417.719000", "085457.623000", "085457.626000", "085457.628000", "085457.630000", "085457.633000", "085457.635000", "085457.637000", "085457.640000", "085457.642000", "085457.645000", "085457.647000", "085457.649000", "085457.652000", "085457.654000", "085457.656000", "085457.659000", "085457.661000", "085457.663000", "085457.666000", "085457.668000", "085537.623000", "085537.626000", "085537.628000", "085537.630000", "085537.633000", "085537.635000", "085537.638000", "085537.640000", "085537.642000", "085537.645000", "085537.647000", "085537.650000", "085537.652000", "085537.654000", "085537.657000", "085537.659000", "085537.661000", "085537.664000", "085537.666000", "085537.668000", "085617.624000", "085617.627000", "085617.629000", "085617.631000", "085617.634000", "085617.637000", "085617.639000", "085617.641000", "085617.644000", "085617.646000", "085617.648000", "085617.651000", "085617.653000", "085617.655000", "085617.658000", "085617.660000", "085617.662000", "085617.665000", "085617.667000", "085617.669000", "085657.623000", "085657.626000", "085657.628000", "085657.630000", "085657.633000", "085657.635000", "085657.638000", "085657.640000", "085657.643000", "085657.645000", "085657.648000", "085657.650000", "085657.652000", "085657.655000", "085657.657000", "085657.660000", "085657.662000", "085657.664000", "085657.667000", "085657.669000", "085737.623000", "085737.626000", "085737.628000", "085737.630000", "085737.633000", "085737.635000", "085737.637000", "085737.640000", "085737.642000", "085737.645000", "085737.647000", "085737.649000", "085737.652000", "085737.654000", "085737.656000", "085737.658000", "085737.661000", "085737.663000", "085737.666000", "085737.668000", "085817.624000", "085817.627000", "085817.629000", "085817.631000", "085817.634000", "085817.636000", "085817.638000", "085817.641000", "085817.643000", "085817.645000", "085817.648000", "085817.650000", "085817.653000", "085817.655000", "085817.657000", "085817.660000", "085817.662000", "085817.664000", "085817.667000", "085817.669000", "085857.623000", "085857.626000", "085857.628000", "085857.630000", "085857.633000", "085857.635000", "085857.637000", "085857.640000", "085857.642000", "085857.644000", "085857.647000", "085857.649000", "085857.651000", "085857.654000", "085857.656000", "085857.658000", "085857.661000", "085857.663000", "085857.665000", "085857.668000", "085937.623000", "085937.626000", "085937.628000", "085937.630000", "085937.633000", "085937.635000", "085937.637000", "085937.640000", "085937.642000", "085937.645000", "085937.647000", "085937.649000", "085937.652000", "085937.654000", "085937.656000", "085937.658000", "085937.661000", "085937.663000", "085937.665000", "085937.668000", "090010.847000", "090010.849000", "090010.852000", "090010.854000", "090010.857000", "090010.859000", "090010.861000", "090010.863000", "090010.866000", "090010.868000", "090010.870000", "090010.873000", "090010.875000", "090010.880000", "090010.885000", "090010.888000", "090010.894000"],
      "InstanceCreationTime": ["085417.667000", "085417.670000", "085417.673000", "085417.675000", "085417.677000", "085417.680000", "085417.682000", "085417.684000", "085417.687000", "085417.689000", "085417.691000", "085417.694000", "085417.696000", "085417.698000", "085417.701000", "085417.703000", "085417.705000", "085417.708000", "085417.710000", "085417.712000", "085417.715000", "085417.717000", "085417.719000", "085457.623000", "085457.626000", "085457.628000", "085457.630000", "085457.633000", "085457.635000", "085457.637000", "085457.640000", "085457.642000", "085457.645000", "085457.647000", "085457.649000", "085457.652000", "085457.654000", "085457.656000", "085457.659000", "085457.661000", "085457.663000", "085457.666000", "085457.668000", "085537.623000", "085537.626000", "085537.628000", "085537.630000", "085537.633000", "085537.635000", "085537.638000", "085537.640000", "085537.642000", "085537.645000", "085537.647000", "085537.650000", "085537.652000", "085537.654000", "085537.657000", "085537.659000", "085537.661000", "085537.664000", "085537.666000", "085537.668000", "085617.624000", "085617.627000", "085617.629000", "085617.631000", "085617.634000", "085617.637000", "085617.639000", "085617.641000", "085617.644000", "085617.646000", "085617.648000", "085617.651000", "085617.653000", "085617.655000", "085617.658000", "085617.660000", "085617.662000", "085617.665000", "085617.667000", "085617.669000", "085657.623000", "085657.626000", "085657.628000", "085657.630000", "085657.633000", "085657.635000", "085657.638000", "085657.640000", "085657.643000", "085657.645000", "085657.648000", "085657.650000", "085657.652000", "085657.655000", "085657.657000", "085657.660000", "085657.662000", "085657.664000", "085657.667000", "085657.669000", "085737.623000", "085737.626000", "085737.628000", "085737.630000", "085737.633000", "085737.635000", "085737.637000", "085737.640000", "085737.642000", "085737.645000", "085737.647000", "085737.649000", "085737.652000", "085737.654000", "085737.656000", "085737.658000", "085737.661000", "085737.663000", "085737.666000", "085737.668000", "085817.624000", "085817.627000", "085817.629000", "085817.631000", "085817.634000", "085817.636000", "085817.638000", "085817.641000", "085817.643000", "085817.645000", "085817.648000", "085817.650000", "085817.653000", "085817.655000", "085817.657000", "085817.660000", "085817.662000", "085817.664000", "085817.667000", "085817.669000", "085857.623000", "085857.626000", "085857.628000", "085857.630000", "085857.633000", "085857.635000", "085857.637000", "085857.640000", "085857.642000", "085857.644000", "085857.647000", "085857.649000", "085857.651000", "085857.654000", "085857.656000", "085857.658000", "085857.661000", "085857.663000", "085857.665000", "085857.668000", "085937.623000", "085937.626000", "085937.628000", "085937.630000", "085937.633000", "085937.635000", "085937.637000", "085937.640000", "085937.642000", "085937.645000", "085937.647000", "085937.649000", "085937.652000", "085937.654000", "085937.656000", "085937.658000", "085937.661000", "085937.663000", "085937.665000", "085937.668000", "090010.847000", "090010.849000", "090010.852000", "090010.854000", "090010.857000", "090010.859000", "090010.861000", "090010.863000", "090010.866000", "090010.868000", "090010.870000", "090010.873000", "090010.875000", "090010.880000", "090010.885000", "090010.888000", "090010.894000"],
      "InstanceNumber": [1, 2, 3, 4, 5, 6, 7, 8, 9, 10, 11, 12, 13, 14, 15, 16, 17, 18, 19, 20, 21, 22, 23, 24, 25, 26, 27, 28, 29, 30, 31, 32, 33, 34, 35, 36, 37, 38, 39, 40, 41, 42, 43, 44, 45, 46, 47, 48, 49, 50, 51, 52, 53, 54, 55, 56, 57, 58, 59, 60, 61, 62, 63, 64, 65, 66, 67, 68, 69, 70, 71, 72, 73, 74, 75, 76, 77, 78, 79, 80, 81, 82, 83, 84, 85, 86, 87, 88, 89, 90, 91, 92, 93, 94, 95, 96, 97, 98, 99, 100, 101, 102, 103, 104, 105, 106, 107, 108, 109, 110, 111, 112, 113, 114, 115, 116, 117, 118, 119, 120, 121, 122, 123, 124, 125, 126, 127, 128, 129, 130, 131, 132, 133, 134, 135, 136, 137, 138, 139, 140, 141, 142, 143, 144, 145, 146, 147, 148, 149, 150, 151, 152, 153, 154, 155, 156, 157, 158, 159, 160, 161, 162, 163, 164, 165, 166, 167, 168, 169, 170, 171, 172, 173, 174, 175, 176, 177, 178, 179, 180, 181, 182, 183, 184, 185, 186, 187, 188, 189, 190, 191, 192, 193, 194, 195, 196, 197, 198, 199, 200],
      "LargestImagePixelValue": [660, 657, 654, 659, 664, 659, 657, 660, 660, 657, 656, 660, 657, 656, 660, 657, 659, 655, 655, 657, 659, 661, 655, 656, 659, 657, 659, 655, 656, 657, 659, 660, 659, 660, 659, 658, 660, 655, 656, 655, 658, 658, 659, 653, 656, 660, 658, 659, 664, 660, 657, 661, 657, 655, 662, 659, 657, 655, 664, 659, 655, 658, 663, 655, 655, 660, 659, 656, 657, 660, 657, 655, 655, 657, 655, 658, 655, 654, 656, 658, 657, 653, 661, 658, 656, 655, 659, 656, 661, 656, 657, 657, 655, 660, 655, 658, 658, 651, 656, 657, 660, 658, 661, 658, 664, 654, 660, 656, 660, 659, 659, 655, 658, 657, 654, 656, 660, 656, 657, 655, 657, 657, 656, 659, 655, 657, 658, 654, 655, 655, 659, 660, 660, 660, 659, 655, 657, 661, 659, 655, 662, 656, 657, 654, 658, 654, 655, 664, 655, 656, 658, 656, 656, 656, 661, 658, 657, 656, 663, 657, 658, 659, 653, 656, 658, 655, 656, 656, 656, 654, 656, 662, 655, 658, 659, 656, 654, 661, 655, 656, 658, 660, 657, 658, 659, 655, 656, 657, 653, 659, 658, 659, 657, 659, 657, 658, 656, 654, 657, 658],
      "WindowCenter": [465.0, 465.0, 465.0, 465.0, 465.0, 465.0, 465.0, 465.0, 465.0, 465.0, 465.0, 465.0, 465.0, 465.0, 465.0, 465.0, 465.0, 465.0, 465.0, 465.0, 465.0, 465.0, 465.0, 465.0, 465.0, 465.0, 465.0, 465.0, 465.0, 465.0, 465.0, 465.0, 465.0, 465.0, 465.0, 465.0, 465.0, 465.0, 465.0, 465.0, 465.0, 465.0, 464.0, 465.0, 465.0, 465.0, 465.0, 465.0, 465.0, 465.0, 465.0, 465.0, 465.0, 464.0, 465.0, 465.0, 464.0, 465.0, 465.0, 465.0, 465.0, 465.0, 465.0, 465.0, 465.0, 465.0, 464.0, 465.0, 464.0, 464.0, 464.0, 465.0, 465.0, 464.0, 465.0, 465.0, 464.0, 464.0, 465.0, 464.0, 464.0, 465.0, 464.0, 464.0, 464.0, 465.0, 464.0, 464.0, 464.0, 464.0, 464.0, 464.0, 464.0, 464.0, 464.0, 464.0, 464.0, 464.0, 464.0, 464.0, 464.0, 464.0, 464.0, 464.0, 464.0, 464.0, 464.0, 464.0, 464.0, 464.0, 464.0, 464.0, 464.0, 464.0, 464.0, 464.0, 464.0, 464.0, 464.0, 464.0, 464.0, 464.0, 464.0, 464.0, 464.0, 464.0, 464.0, 464.0, 464.0, 464.0, 464.0, 464.0, 464.0, 464.0, 464.0, 464.0, 464.0, 464.0, 464.0, 464.0, 464.0, 464.0, 464.0, 464.0, 464.0, 464.0, 464.0, 464.0, 463.0, 464.0, 464.0, 464.0, 464.0, 464.0, 464.0, 464.0, 464.0, 464.0, 464.0, 464.0, 464.0, 464.0, 464.0, 464.0, 464.0, 464.0, 464.0, 464.0, 464.0, 464.0, 464.0, 464.0, 464.0, 464.0, 464.0, 464.0, 464.0, 464.0, 464.0, 463.0, 463.0, 464.0, 464.0, 464.0, 464.0, 464.0, 464.0, 463.0, 464.0, 464.0, 463.0, 464.0, 463.0, 463.0, 464.0, 463.0, 464.0, 463.0, 463.0, 463.0],
      "WindowWidth": [965.0, 965.0, 965.0, 965.0, 965.0, 965.0, 966.0, 965.0, 965.0, 965.0, 965.0, 965.0, 965.0, 965.0, 965.0, 965.0, 965.0, 965.0, 965.0, 965.0, 965.0, 965.0, 965.0, 965.0, 965.0, 965.0, 965.0, 965.0, 965.0, 965.0, 965.0, 965.0, 965.0, 965.0, 965.0, 965.0, 965.0, 965.0, 965.0, 965.0, 965.0, 965.0, 964.0, 965.0, 965.0, 965.0, 965.0, 965.0, 965.0, 965.0, 965.0, 965.0, 965.0, 964.0, 965.0, 965.0, 964.0, 965.0, 965.0, 965.0, 965.0, 965.0, 965.0, 965.0, 965.0, 965.0, 965.0, 965.0, 964.0, 964.0, 965.0, 965.0, 965.0, 965.0, 965.0, 965.0, 964.0, 964.0, 965.0, 964.0, 964.0, 965.0, 964.0, 964.0, 965.0, 965.0, 964.0, 964.0, 964.0, 965.0, 964.0, 965.0, 964.0, 965.0, 964.0, 965.0, 964.0, 964.0, 964.0, 964.0, 964.0, 965.0, 964.0, 964.0, 964.0, 964.0, 964.0, 964.0, 964.0, 965.0, 964.0, 965.0, 964.0, 964.0, 964.0, 964.0, 964.0, 964.0, 964.0, 964.0, 964.0, 964.0, 964.0, 964.0, 964.0, 964.0, 964.0, 964.0, 964.0, 964.0, 964.0, 964.0, 964.0, 964.0, 964.0, 964.0, 964.0, 964.0, 964.0, 964.0, 964.0, 964.0, 964.0, 964.0, 963.0, 964.0, 964.0, 964.0, 963.0, 964.0, 964.0, 963.0, 964.0, 964.0, 963.0, 963.0, 964.0, 963.0, 963.0, 964.0, 964.0, 963.0, 963.0, 963.0, 963.0, 963.0, 963.0, 963.0, 963.0, 963.0, 963.0, 963.0, 963.0, 963.0, 963.0, 963.0, 963.0, 963.0, 963.0, 963.0, 963.0, 963.0, 963.0, 963.0, 963.0, 963.0, 963.0, 963.0, 963.0, 963.0, 963.0, 963.0, 962.0, 963.0, 963.0, 962.0, 963.0, 963.0, 962.0, 962.0]
    },
    "slices": {}
  }
}