{
  "AcquisitionMatrixPE": 122,
  "AcquisitionNumber": 1,
  "AcquisitionTime": "09:59:16.205000",
  "BandwidthPerPixelPhaseEncode": 28.76,
  "BaseResolution": 122,
  "BodyPartExamined": "BRAIN",
  "CoilCombinationMethod": "Adaptive Combine",
  "ConsistencyInfo": "N4_VE11C_LATEST_20160120",
  "ConversionSoftware": "dcm2niix",
  "ConversionSoftwareVersion": "v1.0.20220720",
  "DerivedVendorReportedEchoSpacing": 0.000570008,
  "DeviceSerialNumber": "66112",
  "DiffusionScheme": "Monopolar",
  "DwellTime": 2e-06,
  "EchoTime": 0.075,
  "EchoTrainLength": 61,
  "EffectiveEchoSpacing": 0.000285004,
  "FlipAngle": 90,
  "HeudiconvVersion": "0.13.1",
  "ImageOrientationPatientDICOM": [0.989328, -0.14566, 0.00369023, 0.137457, 0.941411, 0.307977],
  "ImageOrientationText": "Tra>Cor(17.7)>Sag(2.8)",
  "ImageType": [
    "ORIGINAL",
    "PRIMARY",
    "DIFFUSION",
    "NONE",
    "ND",
    "NORM"
],
  "ImagingFrequency": 123.252,
  "InPlanePhaseEncodingDirectionDICOM": "COL",
  "InstitutionAddress": "Maynard 3,Hanover,NH,US,03755",
  "InstitutionName": "Dartmouth College - PBS",
  "InstitutionalDepartmentName": "Department",
  "MRAcquisitionType": "2D",
  "MagneticFieldStrength": 3,
  "Manufacturer": "Siemens",
  "ManufacturersModelName": "Prisma",
  "MatrixCoilMode": "GRAPPA",
  "Modality": "MR",
  "NonlinearGradientCorrection": false,
  "ParallelReductionFactorInPlane": 2,
  "PartialFourier": 1,
  "PatientPosition": "HFS",
  "PercentPhaseFOV": 100,
  "PercentSampling": 100,
  "PhaseEncodingDirection": "j-",
  "PhaseEncodingSteps": 122,
  "PhaseResolution": 1,
  "PixelBandwidth": 2050,
  "ProcedureStepDescription": "dbic^QA",
  "ProtocolName": "dwi_acq-DTI-30-p2",
  "PulseSequenceDetails": "%SiemensSeq%\\ep2d_diff",
  "ReceiveCoilActiveElements": "HEA;HEP",
  "ReceiveCoilName": "Head_32",
  "ReconMatrixPE": 122,
  "RefLinesPE": 38,
  "RepetitionTime": 7.7,
  "SAR": 0.120421,
  "ScanOptions": "FS",
  "ScanningSequence": "EP",
  "SequenceName": "*ep_b0",
  "SequenceVariant": "SK\\SP",
  "SeriesDescription": "dwi_acq-DTI-30-p2",
  "SeriesNumber": 8,
  "ShimSetting": [4146, -7689, -7495, 339, -75, -148, -73, 75],
  "SliceThickness": 2,
  "SliceTiming": [3.83594, 0, 3.94531, 0.10938, 4.05469, 0.21875, 4.16406, 0.32812, 4.28125, 0.4375, 4.39062, 0.54688, 4.5, 0.65625, 4.60156, 0.76562, 4.71875, 0.875, 4.82812, 0.98438, 4.9375, 1.09375, 5.04688, 1.20312, 5.15625, 1.3125, 5.26562, 1.42188, 5.375, 1.53906, 5.48438, 1.64844, 5.59375, 1.75781, 5.70312, 1.85938, 5.8125, 1.97656, 5.92188, 2.08594, 6.03125, 2.19531, 6.14062, 2.30469, 6.25, 2.41406, 6.35938, 2.52344, 6.47656, 2.63281, 6.57812, 2.74219, 6.6875, 2.85156, 6.79688, 2.96094, 6.91406, 3.07031, 7.02344, 3.17969, 7.13281, 3.28906, 7.24219, 3.39844, 7.35156, 3.50781, 7.46094, 3.61719, 7.57031, 3.72656],
  "SoftwareVersions": "syngo MR E11",
  "SpacingBetweenSlices": 2,
  "SpoilingState": true,
  "StationName": "AWP66112",
  "TotalReadoutTime": 0.0344855,
  "TxRefAmp": 226.42,
  "dcmmeta_affine": [
    [-1.9462186098098755, 0.27040645480155945, 0.09666812419891357, 97.22471618652344],
    [0.2865446209907532, 1.8519569635391235, 0.608367919921875, -142.60740661621094],
    [0.00725947879254818, -0.6058573722839355, 1.90277099609375, -34.20750045776367],
    [0.0, 0.0, 0.0, 1.0]
],
  "dcmmeta_reorient_transform": [
    [0.0, -1.0, 0.0, 121.0],
    [1.0, 0.0, 0.0, 0.0],
    [0.0, 0.0, -1.0, 69.0],
    [0.0, 0.0, 0.0, 1.0]
],
  "dcmmeta_shape": [122, 122, 70, 31],
  "dcmmeta_slice_dim": 2,
  "dcmmeta_version": 0.6,
  "global": {
    "const": {
      "AccessionNumber": "qa",
      "AcquisitionMatrix": [122, 0, 0, 122],
      "AngioFlag": "N",
      "BitsAllocated": 16,
      "BitsStored": 12,
      "BodyPartExamined": "BRAIN",
      "Columns": 122,
      "EchoNumbers": 1,
      "EchoTime": 75.0,
      "EchoTrainLength": 61,
      "FlipAngle": 90.0,
      "HighBit": 11,
      "ImageOrientationPatient": [0.98932779907029, -0.1456601803954, 0.00369023494033, 0.13745661865864, 0.94141146158913, 0.30797749589142],
      "ImageType": [
        "ORIGINAL",
        "PRIMARY",
        "DIFFUSION",
        "NONE",
        "ND",
        "NORM"
],
      "ImagedNucleus": "1H",
      "ImagingFrequency": 123.252449,
      "InPlanePhaseEncodingDirection": "COL",
      "MRAcquisitionType": "2D",
      "MagneticFieldStrength": 3.0,
      "Manufacturer": "SIEMENS",
      "ManufacturerModelName": "Prisma",
      "Modality": "MR",
      "NumberOfAverages": 1.0,
      "NumberOfPhaseEncodingSteps": 122,
      "PercentPhaseFieldOfView": 100.0,
      "PercentSampling": 100.0,
      "PerformedProcedureStepStartTime": "093114.429000",
      "PhotometricInterpretation": "MONOCHROME2",
      "PixelBandwidth": 2050.0,
      "PixelRepresentation": 0,
      "PixelSpacing": [1.9672131538391, 1.9672131538391],
      "ProtocolName": "dwi_acq-DTI-30-p2",
      "RepetitionTime": 7700.0,
      "Rows": 122,
      "SAR": 0.12042141119076,
      "SamplesPerPixel": 1,
      "ScanOptions": "FS",
      "ScanningSequence": "EP",
      "SequenceVariant": [
        "SK",
        "SP"
],
      "SeriesDescription": "dwi_acq-DTI-30-p2",
      "SeriesNumber": 8,
      "SeriesTime": "095921.837000",
      "SliceThickness": 2.0,
      "SmallestImagePixelValue": 0,
      "SoftwareVersions": "syngo MR E11",
      "SpacingBetweenSlices": 2.0,
      "SpecificCharacterSet": "ISO_IR 100",
      "StudyID": "24",
      "StudyTime": "093114.352000",
      "TransmitCoilName": "Body",
      "VariableFlipAngleFlag": "N",
      "WindowCenterWidthExplanation": "Algo1",
      "dBdt": 0.0},
    "slices": {
      "AcquisitionTime": ["095916.205000", "095912.365000", "095916.315000", "095912.475000", "095916.425000", "095912.585000", "095916.535000", "095912.695000", "095916.645000", "095912.805000", "095916.755000", "095912.915000", "095916.865000", "095913.025000", "095916.972500", "095913.135000", "095917.082500", "095913.242500", "095917.192500", "095913.352500", "095917.302500", "095913.462500", "095917.412500", "095913.572500", "095917.522500", "095913.682500", "095917.632500", "095913.792500", "095917.742500", "095913.902500", "095917.852500", "095914.012500", "095917.960000", "095914.122500", "095918.070000", "095914.230000", "095918.180000", "095914.340000", "095918.290000", "095914.450000", "095918.400000", "095914.560000", "095918.510000", "095914.670000", "095918.620000", "095914.780000", "095918.730000", "095914.890000", "095918.840000", "095915.000000", "095918.947500", "095915.107500", "095919.057500", "095915.217500", "095919.167500", "095915.327500", "095919.277500", "095915.437500", "095919.387500", "095915.547500", "095919.497500", "095915.657500", "095919.607500", "095915.767500", "095919.717500", "095915.877500", "095919.825000", "095915.987500", "095919.935000", "095916.095000", "095923.905000", "095920.065000", "095924.015000", "095920.175000", "095924.125000", "095920.285000", "095924.235000", "095920.395000", "095924.345000", "095920.505000", "095924.455000", "095920.615000", "095924.565000", "095920.725000", "095924.672500", "095920.835000", "095924.782500", "095920.942500", "095924.892500", "095921.052500", "095925.002500", "095921.162500", "095925.112500", "095921.272500", "095925.222500", "095921.382500", "095925.332500", "095921.492500", "095925.442500", "095921.602500", "095925.552500", "095921.712500", "095925.660000", "095921.822500", "095925.770000", "095921.930000", "095925.880000", "095922.040000", "095925.990000", "095922.150000", "095926.100000", "095922.260000", "095926.210000", "095922.370000", "095926.320000", "095922.480000", "095926.430000", "095922.590000", "095926.540000", "095922.700000", "095926.647500", "095922.807500", "095926.757500", "095922.917500", "095926.867500", "095923.027500", "095926.977500", "095923.137500", "095927.087500", "095923.247500", "095927.197500", "095923.357500", "095927.307500", "095923.467500", "095927.417500", "095923.577500", "095927.525000", "095923.687500", "095927.635000", "095923.795000", "095931.605000", "095927.765000", "095931.715000", "095927.875000", "095931.825000", "095927.985000", "095931.935000", "095928.095000", "095932.045000", "095928.205000", "095932.155000", "095928.315000", "095932.265000", "095928.425000", "095932.372500", "095928.535000", "095932.482500", "095928.642500", "095932.592500", "095928.752500", "095932.702500", "095928.862500", "095932.812500", "095928.972500", "095932.922500", "095929.082500", "095933.032500", "095929.192500", "095933.142500", "095929.302500", "095933.252500", "095929.412500", "095933.360000", "095929.522500", "095933.470000", "095929.630000", "095933.580000", "095929.740000", "095933.690000", "095929.850000", "095933.800000", "095929.960000", "095933.910000", "095930.070000", "095934.020000", "095930.180000", "095934.130000", "095930.290000", "095934.240000", "095930.400000", "095934.347500", "095930.507500", "095934.457500", "095930.617500", "095934.567500", "095930.727500", "095934.677500", "095930.837500", "095934.787500", "095930.947500", "095934.897500", "095931.057500", "095935.007500", "095931.167500", "095935.117500", "095931.277500", "095935.225000", "095931.387500", "095935.335000", "095931.495000", "095939.305000", "095935.465000", "095939.415000", "095935.575000", "095939.525000", "095935.685000", "095939.635000", "095935.795000", "095939.745000", "095935.905000", "095939.855000", "095936.015000", "095939.965000", "095936.125000", "095940.072500", "095936.235000", "095940.182500", "095936.342500", "095940.292500", "095936.452500", "095940.402500", "095936.562500", "095940.512500", "095936.672500", "095940.622500", "095936.782500", "095940.732500", "095936.892500", "095940.842500", "095937.002500", "095940.952500", "095937.112500", "095941.060000", "095937.222500", "095941.170000", "095937.330000", "095941.280000", "095937.440000", "095941.390000", "095937.550000", "095941.500000", "095937.660000", "095941.610000", "095937.770000", "095941.720000", "095937.880000", "095941.830000", "095937.990000", "095941.940000", "095938.100000", "095942.047500", "095938.207500", "095942.157500", "095938.317500", "095942.267500", "095938.427500", "095942.377500", "095938.537500", "095942.487500", "095938.647500", "095942.597500", "095938.757500", "095942.707500", "095938.867500", "095942.817500", "095938.977500", "095942.925000", "095939.087500", "095943.035000", "095939.195000", "095947.005000", "095943.165000", "095947.115000", "095943.275000", "095947.225000", "095943.385000", "095947.335000", "095943.495000", "095947.445000", "095943.605000", "095947.555000", "095943.715000", "095947.665000", "095943.825000", "095947.772500", "095943.935000", "095947.882500", "095944.042500", "095947.992500", "095944.152500", "095948.102500", "095944.262500", "095948.212500", "095944.372500", "095948.322500", "095944.482500", "095948.432500", "095944.592500", "095948.542500", "095944.702500", "095948.652500", "095944.812500", "095948.760000", "095944.922500", "095948.870000", "095945.030000", "095948.980000", "095945.140000", "095949.090000", "095945.250000", "095949.200000", "095945.360000", "095949.310000", "095945.470000", "095949.420000", "095945.580000", "095949.530000", "095945.690000", "095949.640000", "095945.800000", "095949.747500", "095945.907500", "095949.857500", "095946.017500", "095949.967500", "095946.127500", "095950.077500", "095946.237500", "095950.187500", "095946.347500", "095950.297500", "095946.457500", "095950.407500", "095946.567500", "095950.517500", "095946.677500", "095950.625000", "095946.787500", "095950.735000", "095946.895000", "095954.705000", "095950.865000", "095954.815000", "095950.975000", "095954.925000", "095951.085000", "095955.035000", "095951.195000", "095955.145000", "095951.305000", "095955.255000", "095951.415000", "095955.365000", "095951.525000", "095955.472500", "095951.635000", "095955.582500", "095951.742500", "095955.692500", "095951.852500", "095955.802500", "095951.962500", "095955.912500", "095952.072500", "095956.022500", "095952.182500", "095956.132500", "095952.292500", "095956.242500", "095952.402500", "095956.352500", "095952.512500", "095956.460000", "095952.622500", "095956.570000", "095952.730000", "095956.680000", "095952.840000", "095956.790000", "095952.950000", "095956.900000", "095953.060000", "095957.010000", "095953.170000", "095957.120000", "095953.280000", "095957.230000", "095953.390000", "095957.340000", "095953.500000", "095957.447500", "095953.607500", "095957.557500", "095953.717500", "095957.667500", "095953.827500", "095957.777500", "095953.937500", "095957.887500", "095954.047500", "095957.997500", "095954.157500", "095958.107500", "095954.267500", "095958.217500", "095954.377500", "095958.325000", "095954.487500", "095958.435000", "095954.595000", "100002.405000", "095958.565000", "100002.515000", "095958.675000", "100002.625000", "095958.785000", "100002.735000", "095958.895000", "100002.845000", "095959.005000", "100002.955000", "095959.115000", "100003.065000", "095959.225000", "100003.172500", "095959.335000", "100003.282500", "095959.442500", "100003.392500", "095959.552500", "100003.502500", "095959.662500", "100003.612500", "095959.772500", "100003.722500", "095959.882500", "100003.832500", "095959.992500", "100003.942500", "100000.102500", "100004.052500", "100000.212500", "100004.160000", "100000.322500", "100004.270000", "100000.430000", "100004.380000", "100000.540000", "100004.490000", "100000.650000", "100004.600000", "100000.760000", "100004.710000", "100000.870000", "100004.820000", "100000.980000", "100004.930000", "100001.090000", "100005.040000", "100001.200000", "100005.147500", "100001.307500", "100005.257500", "100001.417500", "100005.367500", "100001.527500", "100005.477500", "100001.637500", "100005.587500", "100001.747500", "100005.697500", "100001.857500", "100005.807500", "100001.967500", "100005.917500", "100002.077500", "100006.025000", "100002.187500", "100006.135000", "100002.295000", "100010.105000", "100006.265000", "100010.215000", "100006.375000", "100010.325000", "100006.485000", "100010.435000", "100006.595000", "100010.545000", "100006.705000", "100010.655000", "100006.815000", "100010.765000", "100006.925000", "100010.872500", "100007.035000", "100010.982500", "100007.142500", "100011.092500", "100007.252500", "100011.202500", "100007.362500", "100011.312500", "100007.472500", "100011.422500", "100007.582500", "100011.532500", "100007.692500", "100011.642500", "100007.802500", "100011.752500", "100007.912500", "100011.860000", "100008.022500", "100011.970000", "100008.130000", "100012.080000", "100008.240000", "100012.190000", "100008.350000", "100012.300000", "100008.460000", "100012.410000", "100008.570000", "100012.520000", "100008.680000", "100012.630000", "100008.790000", "100012.740000", "100008.900000", "100012.847500", "100009.007500", "100012.957500", "100009.117500", "100013.067500", "100009.227500", "100013.177500", "100009.337500", "100013.287500", "100009.447500", "100013.397500", "100009.557500", "100013.507500", "100009.667500", "100013.617500", "100009.777500", "100013.725000", "100009.887500", "100013.835000", "100009.995000", "100017.805000", "100013.965000", "100017.915000", "100014.075000", "100018.025000", "100014.185000", "100018.135000", "100014.295000", "100018.245000", "100014.405000", "100018.355000", "100014.515000", "100018.465000", "100014.625000", "100018.572500", "100014.735000", "100018.682500", "100014.842500", "100018.792500", "100014.952500", "100018.902500", "100015.062500", "100019.012500", "100015.172500", "100019.122500", "100015.282500", "100019.232500", "100015.392500", "100019.342500", "100015.502500", "100019.452500", "100015.612500", "100019.560000", "100015.722500", "100019.670000", "100015.830000", "100019.780000", "100015.940000", "100019.890000", "100016.050000", "100020.000000", "100016.160000", "100020.110000", "100016.270000", "100020.220000", "100016.380000", "100020.330000", "100016.490000", "100020.440000", "100016.600000", "100020.547500", "100016.707500", "100020.657500", "100016.817500", "100020.767500", "100016.927500", "100020.877500", "100017.037500", "100020.987500", "100017.147500", "100021.097500", "100017.257500", "100021.207500", "100017.367500", "100021.317500", "100017.477500", "100021.425000", "100017.587500", "100021.535000", "100017.695000", "100025.505000", "100021.665000", "100025.615000", "100021.775000", "100025.725000", "100021.885000", "100025.835000", "100021.995000", "100025.945000", "100022.105000", "100026.055000", "100022.215000", "100026.165000", "100022.325000", "100026.272500", "100022.435000", "100026.382500", "100022.542500", "100026.492500", "100022.652500", "100026.602500", "100022.762500", "100026.712500", "100022.872500", "100026.822500", "100022.982500", "100026.932500", "100023.092500", "100027.042500", "100023.202500", "100027.152500", "100023.312500", "100027.260000", "100023.422500", "100027.370000", "100023.530000", "100027.480000", "100023.640000", "100027.590000", "100023.750000", "100027.700000", "100023.860000", "100027.810000", "100023.970000", "100027.920000", "100024.080000", "100028.030000", "100024.190000", "100028.140000", "100024.300000", "100028.247500", "100024.407500", "100028.357500", "100024.517500", "100028.467500", "100024.627500", "100028.577500", "100024.737500", "100028.687500", "100024.847500", "100028.797500", "100024.957500", "100028.907500", "100025.067500", "100029.017500", "100025.177500", "100029.125000", "100025.287500", "100029.235000", "100025.395000", "100033.205000", "100029.365000", "100033.315000", "100029.475000", "100033.425000", "100029.585000", "100033.535000", "100029.695000", "100033.645000", "100029.805000", "100033.755000", "100029.915000", "100033.865000", "100030.025000", "100033.972500", "100030.135000", "100034.082500", "100030.242500", "100034.192500", "100030.352500", "100034.302500", "100030.462500", "100034.412500", "100030.572500", "100034.522500", "100030.682500", "100034.632500", "100030.792500", "100034.742500", "100030.902500", "100034.852500", "100031.012500", "100034.960000", "100031.122500", "100035.070000", "100031.230000", "100035.180000", "100031.340000", "100035.290000", "100031.450000", "100035.400000", "100031.560000", "100035.510000", "100031.670000", "100035.620000", "100031.780000", "100035.730000", "100031.890000", "100035.840000", "100032.000000", "100035.947500", "100032.107500", "100036.057500", "100032.217500", "100036.167500", "100032.327500", "100036.277500", "100032.437500", "100036.387500", "100032.547500", "100036.497500", "100032.657500", "100036.607500", "100032.767500", "100036.717500", "100032.877500", "100036.825000", "100032.987500", "100036.935000", "100033.095000", "100040.905000", "100037.065000", "100041.015000", "100037.175000", "100041.125000", "100037.285000", "100041.235000", "100037.395000", "100041.345000", "100037.505000", "100041.455000", "100037.615000", "100041.565000", "100037.725000", "100041.672500", "100037.835000", "100041.782500", "100037.942500", "100041.892500", "100038.052500", "100042.002500", "100038.162500", "100042.112500", "100038.272500", "100042.222500", "100038.382500", "100042.332500", "100038.492500", "100042.442500", "100038.602500", "100042.552500", "100038.712500", "100042.660000", "100038.822500", "100042.770000", "100038.930000", "100042.880000", "100039.040000", "100042.990000", "100039.150000", "100043.100000", "100039.260000", "100043.210000", "100039.370000", "100043.320000", "100039.480000", "100043.430000", "100039.590000", "100043.540000", "100039.700000", "100043.647500", "100039.807500", "100043.757500", "100039.917500", "100043.867500", "100040.027500", "100043.977500", "100040.137500", "100044.087500", "100040.247500", "100044.197500", "100040.357500", "100044.307500", "100040.467500", "100044.417500", "100040.577500", "100044.525000", "100040.687500", "100044.635000", "100040.795000", "100048.605000", "100044.765000", "100048.715000", "100044.875000", "100048.825000", "100044.985000", "100048.935000", "100045.095000", "100049.045000", "100045.205000", "100049.155000", "100045.315000", "100049.265000", "100045.425000", "100049.372500", "100045.535000", "100049.482500", "100045.642500", "100049.592500", "100045.752500", "100049.702500", "100045.862500", "100049.812500", "100045.972500", "100049.922500", "100046.082500", "100050.032500", "100046.192500", "100050.142500", "100046.302500", "100050.252500", "100046.412500", "100050.360000", "100046.522500", "100050.470000", "100046.630000", "100050.580000", "100046.740000", "100050.690000", "100046.850000", "100050.800000", "100046.960000", "100050.910000", "100047.070000", "100051.020000", "100047.180000", "100051.130000", "100047.290000", "100051.240000", "100047.400000", "100051.347500", "100047.507500", "100051.457500", "100047.617500", "100051.567500", "100047.727500", "100051.677500", "100047.837500", "100051.787500", "100047.947500", "100051.897500", "100048.057500", "100052.007500", "100048.167500", "100052.117500", "100048.277500", "100052.225000", "100048.387500", "100052.335000", "100048.495000", "100056.305000", "100052.465000", "100056.415000", "100052.575000", "100056.525000", "100052.685000", "100056.635000", "100052.795000", "100056.745000", "100052.905000", "100056.855000", "100053.015000", "100056.965000", "100053.125000", "100057.072500", "100053.235000", "100057.182500", "100053.342500", "100057.292500", "100053.452500", "100057.402500", "100053.562500", "100057.512500", "100053.672500", "100057.622500", "100053.782500", "100057.732500", "100053.892500", "100057.842500", "100054.002500", "100057.952500", "100054.112500", "100058.060000", "100054.222500", "100058.170000", "100054.330000", "100058.280000", "100054.440000", "100058.390000", "100054.550000", "100058.500000", "100054.660000", "100058.610000", "100054.770000", "100058.720000", "100054.880000", "100058.830000", "100054.990000", "100058.940000", "100055.100000", "100059.047500", "100055.207500", "100059.157500", "100055.317500", "100059.267500", "100055.427500", "100059.377500", "100055.537500", "100059.487500", "100055.647500", "100059.597500", "100055.757500", "100059.707500", "100055.867500", "100059.817500", "100055.977500", "100059.925000", "100056.087500", "100100.035000", "100056.195000", "100104.005000", "100100.165000", "100104.115000", "100100.275000", "100104.225000", "100100.385000", "100104.335000", "100100.495000", "100104.445000", "100100.605000", "100104.555000", "100100.715000", "100104.665000", "100100.825000", "100104.772500", "100100.935000", "100104.882500", "100101.042500", "100104.992500", "100101.152500", "100105.102500", "100101.262500", "100105.212500", "100101.372500", "100105.322500", "100101.482500", "100105.432500", "100101.592500", "100105.542500", "100101.702500", "100105.652500", "100101.812500", "100105.760000", "100101.922500", "100105.870000", "100102.030000", "100105.980000", "100102.140000", "100106.090000", "100102.250000", "100106.200000", "100102.360000", "100106.310000", "100102.470000", "100106.420000", "100102.580000", "100106.530000", "100102.690000", "100106.640000", "100102.800000", "100106.747500", "100102.907500", "100106.857500", "100103.017500", "100106.967500", "100103.127500", "100107.077500", "100103.237500", "100107.187500", "100103.347500", "100107.297500", "100103.457500", "100107.407500", "100103.567500", "100107.517500", "100103.677500", "100107.625000", "100103.787500", "100107.735000", "100103.895000", "100111.705000", "100107.865000", "100111.815000", "100107.975000", "100111.925000", "100108.085000", "100112.035000", "100108.195000", "100112.145000", "100108.305000", "100112.255000", "100108.415000", "100112.365000", "100108.525000", "100112.472500", "100108.635000", "100112.582500", "100108.742500", "100112.692500", "100108.852500", "100112.802500", "100108.962500", "100112.912500", "100109.072500", "100113.022500", "100109.182500", "100113.132500", "100109.292500", "100113.242500", "100109.402500", "100113.352500", "100109.512500", "100113.460000", "100109.622500", "100113.570000", "100109.730000", "100113.680000", "100109.840000", "100113.790000", "100109.950000", "100113.900000", "100110.060000", "100114.010000", "100110.170000", "100114.120000", "100110.280000", "100114.230000", "100110.390000", "100114.340000", "100110.500000", "100114.447500", "100110.607500", "100114.557500", "100110.717500", "100114.667500", "100110.827500", "100114.777500", "100110.937500", "100114.887500", "100111.047500", "100114.997500", "100111.157500", "100115.107500", "100111.267500", "100115.217500", "100111.377500", "100115.325000", "100111.487500", "100115.435000", "100111.595000", "100119.405000", "100115.565000", "100119.515000", "100115.675000", "100119.625000", "100115.785000", "100119.735000", "100115.895000", "100119.845000", "100116.005000", "100119.955000", "100116.115000", "100120.065000", "100116.225000", "100120.172500", "100116.335000", "100120.282500", "100116.442500", "100120.392500", "100116.552500", "100120.502500", "100116.662500", "100120.612500", "100116.772500", "100120.722500", "100116.882500", "100120.832500", "100116.992500", "100120.942500", "100117.102500", "100121.052500", "100117.212500", "100121.160000", "100117.322500", "100121.270000", "100117.430000", "100121.380000", "100117.540000", "100121.490000", "100117.650000", "100121.600000", "100117.760000", "100121.710000", "100117.870000", "100121.820000", "100117.980000", "100121.930000", "100118.090000", "100122.040000", "100118.200000", "100122.147500", "100118.307500", "100122.257500", "100118.417500", "100122.367500", "100118.527500", "100122.477500", "100118.637500", "100122.587500", "100118.747500", "100122.697500", "100118.857500", "100122.807500", "100118.967500", "100122.917500", "100119.077500", "100123.025000", "100119.187500", "100123.135000", "100119.295000", "100127.105000", "100123.265000", "100127.215000", "100123.375000", "100127.325000", "100123.485000", "100127.435000", "100123.595000", "100127.545000", "100123.705000", "100127.655000", "100123.815000", "100127.765000", "100123.925000", "100127.872500", "100124.035000", "100127.982500", "100124.142500", "100128.092500", "100124.252500", "100128.202500", "100124.362500", "100128.312500", "100124.472500", "100128.422500", "100124.582500", "100128.532500", "100124.692500", "100128.642500", "100124.802500", "100128.752500", "100124.912500", "100128.860000", "100125.022500", "100128.970000", "100125.130000", "100129.080000", "100125.240000", "100129.190000", "100125.350000", "100129.300000", "100125.460000", "100129.410000", "100125.570000", "100129.520000", "100125.680000", "100129.630000", "100125.790000", "100129.740000", "100125.900000", "100129.847500", "100126.007500", "100129.957500", "100126.117500", "100130.067500", "100126.227500", "100130.177500", "100126.337500", "100130.287500", "100126.447500", "100130.397500", "100126.557500", "100130.507500", "100126.667500", "100130.617500", "100126.777500", "100130.725000", "100126.887500", "100130.835000", "100126.995000", "100134.805000", "100130.965000", "100134.915000", "100131.075000", "100135.025000", "100131.185000", "100135.135000", "100131.295000", "100135.245000", "100131.405000", "100135.355000", "100131.515000", "100135.465000", "100131.625000", "100135.572500", "100131.735000", "100135.682500", "100131.842500", "100135.792500", "100131.952500", "100135.902500", "100132.062500", "100136.012500", "100132.172500", "100136.122500", "100132.282500", "100136.232500", "100132.392500", "100136.342500", "100132.502500", "100136.452500", "100132.612500", "100136.560000", "100132.722500", "100136.670000", "100132.830000", "100136.780000", "100132.940000", "100136.890000", "100133.050000", "100137.000000", "100133.160000", "100137.110000", "100133.270000", "100137.220000", "100133.380000", "100137.330000", "100133.490000", "100137.440000", "100133.600000", "100137.547500", "100133.707500", "100137.657500", "100133.817500", "100137.767500", "100133.927500", "100137.877500", "100134.037500", "100137.987500", "100134.147500", "100138.097500", "100134.257500", "100138.207500", "100134.367500", "100138.317500", "100134.477500", "100138.425000", "100134.587500", "100138.535000", "100134.695000", "100142.505000", "100138.665000", "100142.615000", "100138.775000", "100142.725000", "100138.885000", "100142.835000", "100138.995000", "100142.945000", "100139.105000", "100143.055000", "100139.215000", "100143.165000", "100139.325000", "100143.272500", "100139.435000", "100143.382500", "100139.542500", "100143.492500", "100139.652500", "100143.602500", "100139.762500", "100143.712500", "100139.872500", "100143.822500", "100139.982500", "100143.932500", "100140.092500", "100144.042500", "100140.202500", "100144.152500", "100140.312500", "100144.260000", "100140.422500", "100144.370000", "100140.530000", "100144.480000", "100140.640000", "100144.590000", "100140.750000", "100144.700000", "100140.860000", "100144.810000", "100140.970000", "100144.920000", "100141.080000", "100145.030000", "100141.190000", "100145.140000", "100141.300000", "100145.247500", "100141.407500", "100145.357500", "100141.517500", "100145.467500", "100141.627500", "100145.577500", "100141.737500", "100145.687500", "100141.847500", "100145.797500", "100141.957500", "100145.907500", "100142.067500", "100146.017500", "100142.177500", "100146.125000", "100142.287500", "100146.235000", "100142.395000", "100150.205000", "100146.365000", "100150.315000", "100146.475000", "100150.425000", "100146.585000", "100150.535000", "100146.695000", "100150.645000", "100146.805000", "100150.755000", "100146.915000", "100150.865000", "100147.025000", "100150.972500", "100147.135000", "100151.082500", "100147.242500", "100151.192500", "100147.352500", "100151.302500", "100147.462500", "100151.412500", "100147.572500", "100151.522500", "100147.682500", "100151.632500", "100147.792500", "100151.742500", "100147.902500", "100151.852500", "100148.012500", "100151.960000", "100148.122500", "100152.070000", "100148