{
  "AcquisitionMatrixPE": 122,
  "AcquisitionNumber": 1,
  "AcquisitionTime": "10:12:14.085000",
  "BandwidthPerPixelPhaseEncode": 28.76,
  "BaseResolution": 122,
  "BodyPartExamined": "BRAIN",
  "CoilCombinationMethod": "Adaptive Combine",
  "ConsistencyInfo": "N4_VE11C_LATEST_20160120",
  "ConversionSoftware": "dcm2niix",
  "ConversionSoftwareVersion": "v1.0.20220720",
  "DerivedVendorReportedEchoSpacing": 0.000570008,
  "DeviceSerialNumber": "66112",
  "DiffusionScheme": "Monopolar",
  "DwellTime": 2e-06,
  "EchoTime": 0.075,
  "EchoTrainLength": 61,
  "EffectiveEchoSpacing": 0.000285004,
  "FlipAngle": 90,
  "HeudiconvVersion": "0.13.1",
  "ImageOrientationPatientDICOM": [0.983702, 0.179186, 0.014909, -0.175047, 0.935426, 0.307143],
  "ImageOrientationText": "Tra>Cor(17.8)>Sag(-2.4)",
  "ImageType": [
    "ORIGINAL",
    "PRIMARY",
    "DIFFUSION",
    "NONE",
    "ND",
    "NORM"
],
  "ImagingFrequency": 123.252,
  "InPlanePhaseEncodingDirectionDICOM": "COL",
  "InstitutionAddress": "Maynard 3,Hanover,NH,US,03755",
  "InstitutionName": "Dartmouth College - PBS",
  "InstitutionalDepartmentName": "Department",
  "MRAcquisitionType": "2D",
  "MagneticFieldStrength": 3,
  "Manufacturer": "Siemens",
  "ManufacturersModelName": "Prisma",
  "MatrixCoilMode": "GRAPPA",
  "Modality": "MR",
  "NonlinearGradientCorrection": false,
  "ParallelReductionFactorInPlane": 2,
  "PartialFourier": 1,
  "PatientPosition": "HFS",
  "PercentPhaseFOV": 100,
  "PercentSampling": 100,
  "PhaseEncodingDirection": "j-",
  "PhaseEncodingSteps": 122,
  "PhaseResolution": 1,
  "PixelBandwidth": 2050,
  "ProcedureStepDescription": "dbic^QA",
  "ProtocolName": "dwi_acq-DTI-30-p2",
  "PulseSequenceDetails": "%SiemensSeq%\\ep2d_diff",
  "ReceiveCoilActiveElements": "HEA;HEP",
  "ReceiveCoilName": "Head_32",
  "ReconMatrixPE": 122,
  "RefLinesPE": 38,
  "RepetitionTime": 7.7,
  "SAR": 0.101788,
  "ScanOptions": "FS",
  "ScanningSequence": "EP",
  "SequenceName": "*ep_b0",
  "SequenceVariant": "SK\\SP",
  "SeriesDescription": "dwi_acq-DTI-30-p2",
  "SeriesNumber": 8,
  "ShimSetting": [4143, -7698, -7516, 256, -15, -173, -43, 41],
  "SliceThickness": 2,
  "SliceTiming": [3.84375, 0, 3.95312, 0.10938, 4.0625, 0.22656, 4.17188, 0.33594, 4.28125, 0.44531, 4.39062, 0.55469, 4.5, 0.66406, 4.60938, 0.77344, 4.71875, 0.88281, 4.82812, 0.99219, 4.9375, 1.10156, 5.04688, 1.21094, 5.16406, 1.32031, 5.27344, 1.42969, 5.38281, 1.53906, 5.48438, 1.64844, 5.60156, 1.75781, 5.71094, 1.86719, 5.82031, 1.97656, 5.92969, 2.08594, 6.03906, 2.19531, 6.14844, 2.30469, 6.25781, 2.41406, 6.36719, 2.53125, 6.47656, 2.63281, 6.58594, 2.74219, 6.69531, 2.85156, 6.80469, 2.96875, 6.91406, 3.07812, 7.02344, 3.1875, 7.13281, 3.29688, 7.24219, 3.40625, 7.35156, 3.51562, 7.46094, 3.625, 7.57031, 3.73438],
  "SoftwareVersions": "syngo MR E11",
  "SpacingBetweenSlices": 2,
  "SpoilingState": true,
  "StationName": "AWP66112",
  "TotalReadoutTime": 0.0344855,
  "TxRefAmp": 235.352,
  "dcmmeta_affine": [
    [-1.9351521730422974, -0.34435462951660156, -0.08217883110046387, 146.72418212890625],
    [-0.35249632596969604, 1.8401823043823242, 0.6094951629638672, -101.9967269897461],
    [0.029329106211662292, -0.6042158603668213, 1.9030914306640625, -21.62177276611328],
    [0.0, 0.0, 0.0, 1.0]
],
  "dcmmeta_reorient_transform": [
    [0.0, -1.0, 0.0, 121.0],
    [1.0, 0.0, 0.0, 0.0],
    [0.0, 0.0, -1.0, 69.0],
    [0.0, 0.0, 0.0, 1.0]
],
  "dcmmeta_shape": [122, 122, 70, 31],
  "dcmmeta_slice_dim": 2,
  "dcmmeta_version": 0.6,
  "global": {
    "const": {
      "AccessionNumber": "qa",
      "AcquisitionMatrix": [122, 0, 0, 122],
      "AngioFlag": "N",
      "BitsAllocated": 16,
      "BitsStored": 12,
      "BodyPartExamined": "BRAIN",
      "Columns": 122,
      "EchoNumbers": 1,
      "EchoTime": 75.0,
      "EchoTrainLength": 61,
      "FlipAngle": 90.0,
      "HighBit": 11,
      "ImageOrientationPatient": [0.98370230998302, 0.17918562491482, 0.01490896233661, -0.175046929499, 0.93542595785469, 0.30714304459749],
      "ImageType": [
        "ORIGINAL",
        "PRIMARY",
        "DIFFUSION",
        "NONE",
        "ND",
        "NORM"
],
      "ImagedNucleus": "1H",
      "ImagingFrequency": 123.252443,
      "InPlanePhaseEncodingDirection": "COL",
      "MRAcquisitionType": "2D",
      "MagneticFieldStrength": 3.0,
      "Manufacturer": "SIEMENS",
      "ManufacturerModelName": "Prisma",
      "Modality": "MR",
      "NumberOfAverages": 1.0,
      "NumberOfPhaseEncodingSteps": 122,
      "PercentPhaseFieldOfView": 100.0,
      "PercentSampling": 100.0,
      "PerformedProcedureStepStartTime": "093747.500000",
      "PhotometricInterpretation": "MONOCHROME2",
      "PixelBandwidth": 2050.0,
      "PixelRepresentation": 0,
      "PixelSpacing": [1.9672131538391, 1.9672131538391],
      "ProtocolName": "dwi_acq-DTI-30-p2",
      "RepetitionTime": 7700.0,
      "Rows": 122,
      "SAR": 0.10178837384117,
      "SamplesPerPixel": 1,
      "ScanOptions": "FS",
      "ScanningSequence": "EP",
      "SequenceVariant": [
        "SK",
        "SP"
],
      "SeriesDescription": "dwi_acq-DTI-30-p2",
      "SeriesNumber": 8,
      "SeriesTime": "101221.992000",
      "SliceThickness": 2.0,
      "SmallestImagePixelValue": 0,
      "SoftwareVersions": "syngo MR E11",
      "SpacingBetweenSlices": 2.0,
      "SpecificCharacterSet": "ISO_IR 100",
      "StudyID": "75",
      "StudyTime": "093747.441000",
      "TransmitCoilName": "Body",
      "VariableFlipAngleFlag": "N",
      "WindowCenterWidthExplanation": "Algo1",
      "dBdt": 0.0},
    "slices": {
      "AcquisitionTime": ["101214.085000", "101210.245000", "101214.195000", "101210.355000", "101214.305000", "101210.465000", "101214.415000", "101210.575000", "101214.525000", "101210.685000", "101214.635000", "101210.795000", "101214.745000", "101210.905000", "101214.852500", "101211.012500", "101214.962500", "101211.122500", "101215.072500", "101211.232500", "101215.182500", "101211.342500", "101215.292500", "101211.452500", "101215.402500", "101211.562500", "101215.512500", "101211.672500", "101215.622500", "101211.782500", "101215.730000", "101211.892500", "101215.840000", "101212.000000", "101215.950000", "101212.110000", "101216.060000", "101212.220000", "101216.170000", "101212.330000", "101216.280000", "101212.440000", "101216.390000", "101212.550000", "101216.500000", "101212.660000", "101216.610000", "101212.770000", "101216.717500", "101212.877500", "101216.827500", "101212.987500", "101216.937500", "101213.097500", "101217.047500", "101213.207500", "101217.157500", "101213.317500", "101217.267500", "101213.427500", "101217.377500", "101213.537500", "101217.487500", "101213.647500", "101217.595000", "101213.757500", "101217.705000", "101213.865000", "101217.815000", "101213.975000", "101221.785000", "101217.945000", "101221.895000", "101218.055000", "101222.005000", "101218.165000", "101222.115000", "101218.275000", "101222.225000", "101218.385000", "101222.335000", "101218.495000", "101222.445000", "101218.605000", "101222.552500", "101218.712500", "101222.662500", "101218.822500", "101222.772500", "101218.932500", "101222.882500", "101219.042500", "101222.992500", "101219.152500", "101223.102500", "101219.262500", "101223.212500", "101219.372500", "101223.322500", "101219.482500", "101223.430000", "101219.592500", "101223.540000", "101219.700000", "101223.650000", "101219.810000", "101223.760000", "101219.920000", "101223.870000", "101220.030000", "101223.980000", "101220.140000", "101224.090000", "101220.250000", "101224.200000", "101220.360000", "101224.310000", "101220.470000", "101224.417500", "101220.577500", "101224.527500", "101220.687500", "101224.637500", "101220.797500", "101224.747500", "101220.907500", "101224.857500", "101221.017500", "101224.967500", "101221.127500", "101225.077500", "101221.237500", "101225.187500", "101221.347500", "101225.295000", "101221.457500", "101225.405000", "101221.565000", "101225.515000", "101221.675000", "101229.485000", "101225.645000", "101229.595000", "101225.755000", "101229.705000", "101225.865000", "101229.815000", "101225.975000", "101229.925000", "101226.085000", "101230.035000", "101226.195000", "101230.145000", "101226.305000", "101230.252500", "101226.412500", "101230.362500", "101226.522500", "101230.472500", "101226.632500", "101230.582500", "101226.742500", "101230.692500", "101226.852500", "101230.802500", "101226.962500", "101230.912500", "101227.072500", "101231.022500", "101227.182500", "101231.130000", "101227.292500", "101231.240000", "101227.400000", "101231.350000", "101227.510000", "101231.460000", "101227.620000", "101231.570000", "101227.730000", "101231.680000", "101227.840000", "101231.790000", "101227.950000", "101231.900000", "101228.060000", "101232.010000", "101228.170000", "101232.117500", "101228.277500", "101232.227500", "101228.387500", "101232.337500", "101228.497500", "101232.447500", "101228.607500", "101232.557500", "101228.717500", "101232.667500", "101228.827500", "101232.777500", "101228.937500", "101232.887500", "101229.047500", "101232.995000", "101229.157500", "101233.105000", "101229.265000", "101233.215000", "101229.375000", "101237.185000", "101233.345000", "101237.295000", "101233.455000", "101237.405000", "101233.565000", "101237.515000", "101233.675000", "101237.625000", "101233.785000", "101237.735000", "101233.895000", "101237.845000", "101234.005000", "101237.952500", "101234.112500", "101238.062500", "101234.222500", "101238.172500", "101234.332500", "101238.282500", "101234.442500", "101238.392500", "101234.552500", "101238.502500", "101234.662500", "101238.612500", "101234.772500", "101238.722500", "101234.882500", "101238.830000", "101234.992500", "101238.940000", "101235.100000", "101239.050000", "101235.210000", "101239.160000", "101235.320000", "101239.270000", "101235.430000", "101239.380000", "101235.540000", "101239.490000", "101235.650000", "101239.600000", "101235.760000", "101239.710000", "101235.870000", "101239.817500", "101235.977500", "101239.927500", "101236.087500", "101240.037500", "101236.197500", "101240.147500", "101236.307500", "101240.257500", "101236.417500", "101240.367500", "101236.527500", "101240.477500", "101236.637500", "101240.587500", "101236.747500", "101240.695000", "101236.857500", "101240.805000", "101236.965000", "101240.915000", "101237.075000", "101244.885000", "101241.045000", "101244.995000", "101241.155000", "101245.105000", "101241.265000", "101245.215000", "101241.375000", "101245.325000", "101241.485000", "101245.435000", "101241.595000", "101245.545000", "101241.705000", "101245.652500", "101241.812500", "101245.762500", "101241.922500", "101245.872500", "101242.032500", "101245.982500", "101242.142500", "101246.092500", "101242.252500", "101246.202500", "101242.362500", "101246.312500", "101242.472500", "101246.422500", "101242.582500", "101246.530000", "101242.692500", "101246.640000", "101242.800000", "101246.750000", "101242.910000", "101246.860000", "101243.020000", "101246.970000", "101243.130000", "101247.080000", "101243.240000", "101247.190000", "101243.350000", "101247.300000", "101243.460000", "101247.410000", "101243.570000", "101247.517500", "101243.677500", "101247.627500", "101243.787500", "101247.737500", "101243.897500", "101247.847500", "101244.007500", "101247.957500", "101244.117500", "101248.067500", "101244.227500", "101248.177500", "101244.337500", "101248.287500", "101244.447500", "101248.395000", "101244.557500", "101248.505000", "101244.665000", "101248.615000", "101244.775000", "101252.585000", "101248.745000", "101252.695000", "101248.855000", "101252.805000", "101248.965000", "101252.915000", "101249.075000", "101253.025000", "101249.185000", "101253.135000", "101249.295000", "101253.245000", "101249.405000", "101253.352500", "101249.512500", "101253.462500", "101249.622500", "101253.572500", "101249.732500", "101253.682500", "101249.842500", "101253.792500", "101249.952500", "101253.902500", "101250.062500", "101254.012500", "101250.172500", "101254.122500", "101250.282500", "101254.230000", "101250.392500", "101254.340000", "101250.500000", "101254.450000", "101250.610000", "101254.560000", "101250.720000", "101254.670000", "101250.830000", "101254.780000", "101250.940000", "101254.890000", "101251.050000", "101255.000000", "101251.160000", "101255.110000", "101251.270000", "101255.217500", "101251.377500", "101255.327500", "101251.487500", "101255.437500", "101251.597500", "101255.547500", "101251.707500", "101255.657500", "101251.817500", "101255.767500", "101251.927500", "101255.877500", "101252.037500", "101255.987500", "101252.147500", "101256.095000", "101252.257500", "101256.205000", "101252.365000", "101256.315000", "101252.475000", "101300.285000", "101256.445000", "101300.395000", "101256.555000", "101300.505000", "101256.665000", "101300.615000", "101256.775000", "101300.725000", "101256.885000", "101300.835000", "101256.995000", "101300.945000", "101257.105000", "101301.052500", "101257.212500", "101301.162500", "101257.322500", "101301.272500", "101257.432500", "101301.382500", "101257.542500", "101301.492500", "101257.652500", "101301.602500", "101257.762500", "101301.712500", "101257.872500", "101301.822500", "101257.982500", "101301.930000", "101258.092500", "101302.040000", "101258.200000", "101302.150000", "101258.310000", "101302.260000", "101258.420000", "101302.370000", "101258.530000", "101302.480000", "101258.640000", "101302.590000", "101258.750000", "101302.700000", "101258.860000", "101302.810000", "101258.970000", "101302.917500", "101259.077500", "101303.027500", "101259.187500", "101303.137500", "101259.297500", "101303.247500", "101259.407500", "101303.357500", "101259.517500", "101303.467500", "101259.627500", "101303.577500", "101259.737500", "101303.687500", "101259.847500", "101303.795000", "101259.957500", "101303.905000", "101300.065000", "101304.015000", "101300.175000", "101307.985000", "101304.145000", "101308.095000", "101304.255000", "101308.205000", "101304.365000", "101308.315000", "101304.475000", "101308.425000", "101304.585000", "101308.535000", "101304.695000", "101308.645000", "101304.805000", "101308.752500", "101304.912500", "101308.862500", "101305.022500", "101308.972500", "101305.132500", "101309.082500", "101305.242500", "101309.192500", "101305.352500", "101309.302500", "101305.462500", "101309.412500", "101305.572500", "101309.522500", "101305.682500", "101309.630000", "101305.792500", "101309.740000", "101305.900000", "101309.850000", "101306.010000", "101309.960000", "101306.120000", "101310.070000", "101306.230000", "101310.180000", "101306.340000", "101310.290000", "101306.450000", "101310.400000", "101306.560000", "101310.510000", "101306.670000", "101310.617500", "101306.777500", "101310.727500", "101306.887500", "101310.837500", "101306.997500", "101310.947500", "101307.107500", "101311.057500", "101307.217500", "101311.167500", "101307.327500", "101311.277500", "101307.437500", "101311.387500", "101307.547500", "101311.495000", "101307.657500", "101311.605000", "101307.765000", "101311.715000", "101307.875000", "101315.685000", "101311.845000", "101315.795000", "101311.955000", "101315.905000", "101312.065000", "101316.015000", "101312.175000", "101316.125000", "101312.285000", "101316.235000", "101312.395000", "101316.345000", "101312.505000", "101316.452500", "101312.612500", "101316.562500", "101312.722500", "101316.672500", "101312.832500", "101316.782500", "101312.942500", "101316.892500", "101313.052500", "101317.002500", "101313.162500", "101317.112500", "101313.272500", "101317.222500", "101313.382500", "101317.330000", "101313.492500", "101317.440000", "101313.600000", "101317.550000", "101313.710000", "101317.660000", "101313.820000", "101317.770000", "101313.930000", "101317.880000", "101314.040000", "101317.990000", "101314.150000", "101318.100000", "101314.260000", "101318.210000", "101314.370000", "101318.317500", "101314.477500", "101318.427500", "101314.587500", "101318.537500", "101314.697500", "101318.647500", "101314.807500", "101318.757500", "101314.917500", "101318.867500", "101315.027500", "101318.977500", "101315.137500", "101319.087500", "101315.247500", "101319.195000", "101315.357500", "101319.305000", "101315.465000", "101319.415000", "101315.575000", "101323.385000", "101319.545000", "101323.495000", "101319.655000", "101323.605000", "101319.765000", "101323.715000", "101319.875000", "101323.825000", "101319.985000", "101323.935000", "101320.095000", "101324.045000", "101320.205000", "101324.152500", "101320.312500", "101324.262500", "101320.422500", "101324.372500", "101320.532500", "101324.482500", "101320.642500", "101324.592500", "101320.752500", "101324.702500", "101320.862500", "101324.812500", "101320.972500", "101324.922500", "101321.082500", "101325.030000", "101321.192500", "101325.140000", "101321.300000", "101325.250000", "101321.410000", "101325.360000", "101321.520000", "101325.470000", "101321.630000", "101325.580000", "101321.740000", "101325.690000", "101321.850000", "101325.800000", "101321.960000", "101325.910000", "101322.070000", "101326.017500", "101322.177500", "101326.127500", "101322.287500", "101326.237500", "101322.397500", "101326.347500", "101322.507500", "101326.457500", "101322.617500", "101326.567500", "101322.727500", "101326.677500", "101322.837500", "101326.787500", "101322.947500", "101326.895000", "101323.057500", "101327.005000", "101323.165000", "101327.115000", "101323.275000", "101331.085000", "101327.245000", "101331.195000", "101327.355000", "101331.305000", "101327.465000", "101331.415000", "101327.575000", "101331.525000", "101327.685000", "101331.635000", "101327.795000", "101331.745000", "101327.905000", "101331.852500", "101328.012500", "101331.962500", "101328.122500", "101332.072500", "101328.232500", "101332.182500", "101328.342500", "101332.292500", "101328.452500", "101332.402500", "101328.562500", "101332.512500", "101328.672500", "101332.622500", "101328.782500", "101332.730000", "101328.892500", "101332.840000", "101329.000000", "101332.950000", "101329.110000", "101333.060000", "101329.220000", "101333.170000", "101329.330000", "101333.280000", "101329.440000", "101333.390000", "101329.550000", "101333.500000", "101329.660000", "101333.610000", "101329.770000", "101333.717500", "101329.877500", "101333.827500", "101329.987500", "101333.937500", "101330.097500", "101334.047500", "101330.207500", "101334.157500", "101330.317500", "101334.267500", "101330.427500", "101334.377500", "101330.537500", "101334.487500", "101330.647500", "101334.595000", "101330.757500", "101334.705000", "101330.865000", "101334.815000", "101330.975000", "101338.785000", "101334.945000", "101338.895000", "101335.055000", "101339.005000", "101335.165000", "101339.115000", "101335.275000", "101339.225000", "101335.385000", "101339.335000", "101335.495000", "101339.445000", "101335.605000", "101339.552500", "101335.712500", "101339.662500", "101335.822500", "101339.772500", "101335.932500", "101339.882500", "101336.042500", "101339.992500", "101336.152500", "101340.102500", "101336.262500", "101340.212500", "101336.372500", "101340.322500", "101336.482500", "101340.430000", "101336.592500", "101340.540000", "101336.700000", "101340.650000", "101336.810000", "101340.760000", "101336.920000", "101340.870000", "101337.030000", "101340.980000", "101337.140000", "101341.090000", "101337.250000", "101341.200000", "101337.360000", "101341.310000", "101337.470000", "101341.417500", "101337.577500", "101341.527500", "101337.687500", "101341.637500", "101337.797500", "101341.747500", "101337.907500", "101341.857500", "101338.017500", "101341.967500", "101338.127500", "101342.077500", "101338.237500", "101342.187500", "101338.347500", "101342.295000", "101338.457500", "101342.405000", "101338.565000", "101342.515000", "101338.675000", "101346.485000", "101342.645000", "101346.595000", "101342.755000", "101346.705000", "101342.865000", "101346.815000", "101342.975000", "101346.925000", "101343.085000", "101347.035000", "101343.195000", "101347.145000", "101343.305000", "101347.252500", "101343.412500", "101347.362500", "101343.522500", "101347.472500", "101343.632500", "101347.582500", "101343.742500", "101347.692500", "101343.852500", "101347.802500", "101343.962500", "101347.912500", "101344.072500", "101348.022500", "101344.182500", "101348.130000", "101344.292500", "101348.240000", "101344.400000", "101348.350000", "101344.510000", "101348.460000", "101344.620000", "101348.570000", "101344.730000", "101348.680000", "101344.840000", "101348.790000", "101344.950000", "101348.900000", "101345.060000", "101349.010000", "101345.170000", "101349.117500", "101345.277500", "101349.227500", "101345.387500", "101349.337500", "101345.497500", "101349.447500", "101345.607500", "101349.557500", "101345.717500", "101349.667500", "101345.827500", "101349.777500", "101345.937500", "101349.887500", "101346.047500", "101349.995000", "101346.157500", "101350.105000", "101346.265000", "101350.215000", "101346.375000", "101354.185000", "101350.345000", "101354.295000", "101350.455000", "101354.405000", "101350.565000", "101354.515000", "101350.675000", "101354.625000", "101350.785000", "101354.735000", "101350.895000", "101354.845000", "101351.005000", "101354.952500", "101351.112500", "101355.062500", "101351.222500", "101355.172500", "101351.332500", "101355.282500", "101351.442500", "101355.392500", "101351.552500", "101355.502500", "101351.662500", "101355.612500", "101351.772500", "101355.722500", "101351.882500", "101355.830000", "101351.992500", "101355.940000", "101352.100000", "101356.050000", "101352.210000", "101356.160000", "101352.320000", "101356.270000", "101352.430000", "101356.380000", "101352.540000", "101356.490000", "101352.650000", "101356.600000", "101352.760000", "101356.710000", "101352.870000", "101356.817500", "101352.977500", "101356.927500", "101353.087500", "101357.037500", "101353.197500", "101357.147500", "101353.307500", "101357.257500", "101353.417500", "101357.367500", "101353.527500", "101357.477500", "101353.637500", "101357.587500", "101353.747500", "101357.695000", "101353.857500", "101357.805000", "101353.965000", "101357.915000", "101354.075000", "101401.885000", "101358.045000", "101401.995000", "101358.155000", "101402.105000", "101358.265000", "101402.215000", "101358.375000", "101402.325000", "101358.485000", "101402.435000", "101358.595000", "101402.545000", "101358.705000", "101402.652500", "101358.812500", "101402.762500", "101358.922500", "101402.872500", "101359.032500", "101402.982500", "101359.142500", "101403.092500", "101359.252500", "101403.202500", "101359.362500", "101403.312500", "101359.472500", "101403.422500", "101359.582500", "101403.530000", "101359.692500", "101403.640000", "101359.800000", "101403.750000", "101359.910000", "101403.860000", "101400.020000", "101403.970000", "101400.130000", "101404.080000", "101400.240000", "101404.190000", "101400.350000", "101404.300000", "101400.460000", "101404.410000", "101400.570000", "101404.517500", "101400.677500", "101404.627500", "101400.787500", "101404.737500", "101400.897500", "101404.847500", "101401.007500", "101404.957500", "101401.117500", "101405.067500", "101401.227500", "101405.177500", "101401.337500", "101405.287500", "101401.447500", "101405.395000", "101401.557500", "101405.505000", "101401.665000", "101405.615000", "101401.775000", "101409.585000", "101405.745000", "101409.695000", "101405.855000", "101409.805000", "101405.965000", "101409.915000", "101406.075000", "101410.025000", "101406.185000", "101410.135000", "101406.295000", "101410.245000", "101406.405000", "101410.352500", "101406.512500", "101410.462500", "101406.622500", "101410.572500", "101406.732500", "101410.682500", "101406.842500", "101410.792500", "101406.952500", "101410.902500", "101407.062500", "101411.012500", "101407.172500", "101411.122500", "101407.282500", "101411.230000", "101407.392500", "101411.340000", "101407.500000", "101411.450000", "101407.610000", "101411.560000", "101407.720000", "101411.670000", "101407.830000", "101411.780000", "101407.940000", "101411.890000", "101408.050000", "101412.000000", "101408.160000", "101412.110000", "101408.270000", "101412.217500", "101408.377500", "101412.327500", "101408.487500", "101412.437500", "101408.597500", "101412.547500", "101408.707500", "101412.657500", "101408.817500", "101412.767500", "101408.927500", "101412.877500", "101409.037500", "101412.987500", "101409.147500", "101413.095000", "101409.257500", "101413.205000", "101409.365000", "101413.315000", "101409.475000", "101417.285000", "101413.445000", "101417.395000", "101413.555000", "101417.505000", "101413.665000", "101417.615000", "101413.775000", "101417.725000", "101413.885000", "101417.835000", "101413.995000", "101417.945000", "101414.105000", "101418.052500", "101414.212500", "101418.162500", "101414.322500", "101418.272500", "101414.432500", "101418.382500", "101414.542500", "101418.492500", "101414.652500", "101418.602500", "101414.762500", "101418.712500", "101414.872500", "101418.822500", "101414.982500", "101418.930000", "101415.092500", "101419.040000", "101415.200000", "101419.150000", "101415.310000", "101419.260000", "101415.420000", "101419.370000", "101415.530000", "101419.480000", "101415.640000", "101419.590000", "101415.750000", "101419.700000", "101415.860000", "101419.810000", "101415.970000", "101419.917500", "101416.077500", "101420.027500", "101416.187500", "101420.137500", "101416.297500", "101420.247500", "101416.407500", "101420.357500", "101416.517500", "101420.467500", "101416.627500", "101420.577500", "101416.737500", "101420.687500", "101416.847500", "101420.795000", "101416.957500", "101420.905000", "101417.065000", "101421.015000", "101417.175000", "101424.985000", "101421.145000", "101425.095000", "101421.255000", "101425.205000", "101421.365000", "101425.315000", "101421.475000", "101425.425000", "101421.585000", "101425.535000", "101421.695000", "101425.645000", "101421.805000", "101425.752500", "101421.912500", "101425.862500", "101422.022500", "101425.972500", "101422.132500", "101426.082500", "101422.242500", "101426.192500", "101422.352500", "101426.302500", "101422.462500", "101426.412500", "101422.572500", "101426.522500", "101422.682500", "101426.630000", "101422.792500", "101426.740000", "101422.900000", "101426.850000", "101423.010000", "101426.960000", "101423.120000", "101427.070000", "101423.230000", "101427.180000", "101423.340000", "101427.290000", "101423.450000", "101427.400000", "101423.560000", "101427.510000", "101423.670000", "101427.617500", "101423.777500", "101427.727500", "101423.887500", "101427.837500", "101423.997500", "101427.947500", "101424.107500", "101428.057500", "101424.217500", "101428.167500", "101424.327500", "101428.277500", "101424.437500", "101428.387500", "101424.547500", "101428.495000", "101424.657500", "101428.605000", "101424.765000", "101428.715000", "101424.875000", "101432.685000", "101428.845000", "101432.795000", "101428.955000", "101432.905000", "101429.065000", "101433.015000", "101429.175000", "101433.125000", "101429.285000", "101433.235000", "101429.395000", "101433.345000", "101429.505000", "101433.452500", "101429.612500", "101433.562500", "101429.722500", "101433.672500", "101429.832500", "101433.782500", "101429.942500", "101433.892500", "101430.052500", "101434.002500", "101430.162500", "101434.112500", "101430.272500", "101434.222500", "101430.382500", "101434.330000", "101430.492500", "101434.440000", "101430.600000", "101434.550000", "101430.710000", "101434.660000", "101430.820000", "101434.770000", "101430.930000", "101434.880000", "101431.040000", "101434.990000", "101431.150000", "101435.100000", "101431.260000", "101435.210000", "101431.370000", "101435.317500", "101431.477500", "101435.427500", "101431.587500", "101435.537500", "101431.697500", "101435.647500", "101431.807500", "101435.757500", "101431.917500", "101435.867500", "101432.027500", "101435.977500", "101432.137500", "101436.087500", "101432.247500", "101436.195000", "101432.357500", "101436.305000", "101432.465000", "101436.415000", "101432.575000", "101440.385000", "101436.545000", "101440.495000", "101436.655000", "101440.605000", "101436.765000", "101440.715000", "101436.875000", "101440.825000", "101436.985000", "101440.935000", "101437.095000", "101441.045000", "101437.205000", "101441.152500", "101437.312500", "101441.262500", "101437.422500", "101441.372500", "101437.532500", "101441.482500", "101437.642500", "101441.592500", "101437.752500", "101441.702500", "101437.862500", "101441.812500", "101437.972500", "101441.922500", "101438.082500", "101442.030000", "101438.192500", "101442.140000", "101438.300000", "101442.250000", "101438.410000", "101442.360000", "101438.520000", "101442.470000", "101438.630000", "101442.580000", "101438.740000", "101442.690000", "101438.850000", "101442.800000", "101438.960000", "101442.910000", "101439.070000", "101443.017500", "101439.177500", "101443.127500", "101439.287500", "101443.237500", "101439.397500", "101443.347500", "101439.507500", "101443.457500", "101439.617500", "101443.567500", "101439.727500", "101443.677500", "101439.837500", "101443.787500", "101439.947500", "101443.895000", "101440.057500", "101444.005000", "101440.165000", "101444.115000", "101440.275000", "101448.085000", "101444.245000", "101448.195000", "101444.355000", "101448.305000", "101444.465000", "101448.415000", "101444.575000", "101448.525000", "101444.685000", "101448.635000", "101444.795000", "101448.745000", "101444.905000", "101448.852500", "101445.012500", "101448.962500", "101445.122500", "101449.072500", "101445.232500", "101449.182500", "101445.342500", "101449.292500", "101445.452500", "101449.402500", "101445.562500", "101449.512500", "101445.672500", "101449.622500", "101445.782500", "101449.730000", "101445.892500", "101449.840000", "101446.000000", "101449.9