{
  "AcquisitionMatrixPE": 122,
  "AcquisitionNumber": 1,
  "AcquisitionTime": "10:16:36.470000",
  "BandwidthPerPixelPhaseEncode": 27.785,
  "BaseResolution": 122,
  "BodyPartExamined": "BRAIN",
  "CoilCombinationMethod": "Adaptive Combine",
  "ConsistencyInfo": "N4_VE11C_LATEST_20160120",
  "ConversionSoftware": "dcm2niix",
  "ConversionSoftwareVersion": "v1.0.20220720",
  "DerivedVendorReportedEchoSpacing": 0.000590011,
  "DeviceSerialNumber": "66112",
  "DiffusionScheme": "Monopolar",
  "DwellTime": 2e-06,
  "EchoTime": 0.068,
  "EchoTrainLength": 61,
  "EffectiveEchoSpacing": 0.000295005,
  "FlipAngle": 90,
  "HeudiconvVersion": "0.13.1",
  "ImageOrientationPatientDICOM": [0.983702, 0.179186, 0.014909, -0.175047, 0.935426, 0.307143],
  "ImageOrientationText": "Tra>Cor(17.8)>Sag(-2.4)",
  "ImageType": [
    "ORIGINAL",
    "PRIMARY",
    "DIFFUSION",
    "NONE",
    "ND",
    "NORM"
],
  "ImagingFrequency": 123.252,
  "InPlanePhaseEncodingDirectionDICOM": "COL",
  "InstitutionAddress": "Maynard 3,Hanover,NH,US,03755",
  "InstitutionName": "Dartmouth College - PBS",
  "InstitutionalDepartmentName": "Department",
  "MRAcquisitionType": "2D",
  "MagneticFieldStrength": 3,
  "Manufacturer": "Siemens",
  "ManufacturersModelName": "Prisma",
  "Modality": "MR",
  "MultibandAccelerationFactor": 4,
  "NonlinearGradientCorrection": false,
  "ParallelReductionFactorInPlane": 2,
  "PartialFourier": 1,
  "PatientPosition": "HFS",
  "PercentPhaseFOV": 100,
  "PercentSampling": 100,
  "PhaseEncodingDirection": "j-",
  "PhaseEncodingSteps": 122,
  "PhaseResolution": 1,
  "PixelBandwidth": 2050,
  "ProcedureStepDescription": "dbic^QA",
  "ProtocolName": "dwi_acq-DTI-30-p2-s4",
  "PulseSequenceDetails": "%SiemensSeq%\\ep2d_diff",
  "ReceiveCoilActiveElements": "HEA;HEP",
  "ReceiveCoilName": "Head_32",
  "ReconMatrixPE": 122,
  "RefLinesPE": 38,
  "RepetitionTime": 3.6,
  "SAR": 0.160048,
  "ScanOptions": "FS",
  "ScanningSequence": "EP",
  "SequenceName": "*ep_b0",
  "SequenceVariant": "SK\\SP",
  "SeriesDescription": "dwi_acq-DTI-30-p2-s4",
  "SeriesNumber": 9,
  "ShimSetting": [4143, -7699, -7516, 255, -16, -175, -42, 41],
  "SliceThickness": 2,
  "SliceTiming": [2.58594, 0, 1.78906, 0.20312, 1.99219, 0.39844, 2.1875, 0.59375, 2.39062, 0.99219, 2.78125, 1.19531, 2.98438, 1.39844, 3.1875, 1.59375, 3.38281, 0.79688, 2.58594, 0, 1.78906, 0.20312, 1.99219, 0.39844, 2.1875, 0.59375, 2.39062, 0.99219, 2.78125, 1.19531, 2.98438, 1.39844, 3.1875, 1.59375, 3.38281, 0.79688, 2.58594, 0, 1.78906, 0.20312, 1.99219, 0.39844, 2.1875, 0.59375, 2.39062, 0.99219, 2.78125, 1.19531, 2.98438, 1.39844, 3.1875, 1.59375, 3.38281, 0.79688, 2.58594, 0, 1.78906, 0.20312, 1.99219, 0.39844, 2.1875, 0.59375, 2.39062, 0.99219, 2.78125, 1.19531, 2.98438, 1.39844, 3.1875, 1.59375, 3.38281, 0.79688],
  "SoftwareVersions": "syngo MR E11",
  "SpacingBetweenSlices": 2,
  "SpoilingState": true,
  "StationName": "AWP66112",
  "TotalReadoutTime": 0.0356956,
  "TxRefAmp": 235.352,
  "dcmmeta_affine": [
    [-1.9351521730422974, -0.34435462951660156, -0.08217883110046387, 146.80636596679688],
    [-0.35249632596969604, 1.8401823043823242, 0.6094932556152344, -102.60608673095703],
    [0.029329106211662292, -0.6042158603668213, 1.9030990600585938, -23.52539825439453],
    [0.0, 0.0, 0.0, 1.0]
],
  "dcmmeta_reorient_transform": [
    [0.0, -1.0, 0.0, 121.0],
    [1.0, 0.0, 0.0, 0.0],
    [0.0, 0.0, -1.0, 71.0],
    [0.0, 0.0, 0.0, 1.0]
],
  "dcmmeta_shape": [122, 122, 72, 31],
  "dcmmeta_slice_dim": 2,
  "dcmmeta_version": 0.6,
  "global": {
    "const": {
      "AccessionNumber": "qa",
      "AcquisitionMatrix": [122, 0, 0, 122],
      "AngioFlag": "N",
      "BitsAllocated": 16,
      "BitsStored": 12,
      "BodyPartExamined": "BRAIN",
      "Columns": 122,
      "EchoNumbers": 1,
      "EchoTime": 68.0,
      "EchoTrainLength": 61,
      "FlipAngle": 90.0,
      "HighBit": 11,
      "ImageOrientationPatient": [0.98370230998302, 0.17918562491482, 0.01490896233661, -0.175046929499, 0.93542595785469, 0.30714304459749],
      "ImageType": [
        "ORIGINAL",
        "PRIMARY",
        "DIFFUSION",
        "NONE",
        "ND",
        "NORM"
],
      "ImagedNucleus": "1H",
      "ImagingFrequency": 123.252446,
      "InPlanePhaseEncodingDirection": "COL",
      "MRAcquisitionType": "2D",
      "MagneticFieldStrength": 3.0,
      "Manufacturer": "SIEMENS",
      "ManufacturerModelName": "Prisma",
      "Modality": "MR",
      "NumberOfAverages": 1.0,
      "NumberOfPhaseEncodingSteps": 122,
      "PercentPhaseFieldOfView": 100.0,
      "PercentSampling": 100.0,
      "PerformedProcedureStepStartTime": "093747.500000",
      "PhotometricInterpretation": "MONOCHROME2",
      "PixelBandwidth": 2050.0,
      "PixelRepresentation": 0,
      "PixelSpacing": [1.9672131538391, 1.9672131538391],
      "ProtocolName": "dwi_acq-DTI-30-p2-s4",
      "RepetitionTime": 3600.0,
      "Rows": 122,
      "SAR": 0.16004798818632,
      "SamplesPerPixel": 1,
      "ScanOptions": "FS",
      "ScanningSequence": "EP",
      "SequenceVariant": [
        "SK",
        "SP"
],
      "SeriesDescription": "dwi_acq-DTI-30-p2-s4",
      "SeriesNumber": 9,
      "SeriesTime": "101641.849000",
      "SliceThickness": 2.0,
      "SmallestImagePixelValue": 0,
      "SoftwareVersions": "syngo MR E11",
      "SpacingBetweenSlices": 2.0,
      "SpecificCharacterSet": "ISO_IR 100",
      "StudyID": "75",
      "StudyTime": "093747.441000",
      "TransmitCoilName": "Body",
      "VariableFlipAngleFlag": "N",
      "WindowCenterWidthExplanation": "Algo1",
      "dBdt": 0.0},
    "slices": {
      "AcquisitionTime": ["101636.470000", "101633.885000", "101635.675000", "101634.082500", "101635.872500", "101634.282500", "101636.072500", "101634.480000", "101636.270000", "101634.877500", "101636.667500", "101635.077500", "101636.867500", "101635.277500", "101637.067500", "101635.475000", "101637.265000", "101634.680000", "101636.470000", "101633.885000", "101635.675000", "101634.082500", "101635.872500", "101634.282500", "101636.072500", "101634.480000", "101636.270000", "101634.877500", "101636.667500", "101635.077500", "101636.867500", "101635.277500", "101637.067500", "101635.475000", "101637.265000", "101634.680000", "101636.470000", "101633.885000", "101635.675000", "101634.082500", "101635.872500", "101634.282500", "101636.072500", "101634.480000", "101636.270000", "101634.877500", "101636.667500", "101635.077500", "101636.867500", "101635.277500", "101637.067500", "101635.475000", "101637.265000", "101634.680000", "101636.470000", "101633.885000", "101635.675000", "101634.082500", "101635.872500", "101634.282500", "101636.072500", "101634.480000", "101636.270000", "101634.877500", "101636.667500", "101635.077500", "101636.867500", "101635.277500", "101637.067500", "101635.475000", "101637.265000", "101634.680000", "101640.070000", "101637.485000", "101639.275000", "101637.682500", "101639.472500", "101637.882500", "101639.672500", "101638.080000", "101639.870000", "101638.477500", "101640.267500", "101638.677500", "101640.467500", "101638.877500", "101640.667500", "101639.075000", "101640.865000", "101638.280000", "101640.070000", "101637.485000", "101639.275000", "101637.682500", "101639.472500", "101637.882500", "101639.672500", "101638.080000", "101639.870000", "101638.477500", "101640.267500", "101638.677500", "101640.467500", "101638.877500", "101640.667500", "101639.075000", "101640.865000", "101638.280000", "101640.070000", "101637.485000", "101639.275000", "101637.682500", "101639.472500", "101637.882500", "101639.672500", "101638.080000", "101639.870000", "101638.477500", "101640.267500", "101638.677500", "101640.467500", "101638.877500", "101640.667500", "101639.075000", "101640.865000", "101638.280000", "101640.070000", "101637.485000", "101639.275000", "101637.682500", "101639.472500", "101637.882500", "101639.672500", "101638.080000", "101639.870000", "101638.477500", "101640.267500", "101638.677500", "101640.467500", "101638.877500", "101640.667500", "101639.075000", "101640.865000", "101638.280000", "101643.670000", "101641.085000", "101642.875000", "101641.282500", "101643.072500", "101641.482500", "101643.272500", "101641.680000", "101643.470000", "101642.077500", "101643.867500", "101642.277500", "101644.067500", "101642.477500", "101644.267500", "101642.675000", "101644.465000", "101641.880000", "101643.670000", "101641.085000", "101642.875000", "101641.282500", "101643.072500", "101641.482500", "101643.272500", "101641.680000", "101643.470000", "101642.077500", "101643.867500", "101642.277500", "101644.067500", "101642.477500", "101644.267500", "101642.675000", "101644.465000", "101641.880000", "101643.670000", "101641.085000", "101642.875000", "101641.282500", "101643.072500", "101641.482500", "101643.272500", "101641.680000", "101643.470000", "101642.077500", "101643.867500", "101642.277500", "101644.067500", "101642.477500", "101644.267500", "101642.675000", "101644.465000", "101641.880000", "101643.670000", "101641.085000", "101642.875000", "101641.282500", "101643.072500", "101641.482500", "101643.272500", "101641.680000", "101643.470000", "101642.077500", "101643.867500", "101642.277500", "101644.067500", "101642.477500", "101644.267500", "101642.675000", "101644.465000", "101641.880000", "101647.270000", "101644.685000", "101646.475000", "101644.882500", "101646.672500", "101645.082500", "101646.872500", "101645.280000", "101647.070000", "101645.677500", "101647.467500", "101645.877500", "101647.667500", "101646.077500", "101647.867500", "101646.275000", "101648.065000", "101645.480000", "101647.270000", "101644.685000", "101646.475000", "101644.882500", "101646.672500", "101645.082500", "101646.872500", "101645.280000", "101647.070000", "101645.677500", "101647.467500", "101645.877500", "101647.667500", "101646.077500", "101647.867500", "101646.275000", "101648.065000", "101645.480000", "101647.270000", "101644.685000", "101646.475000", "101644.882500", "101646.672500", "101645.082500", "101646.872500", "101645.280000", "101647.070000", "101645.677500", "101647.467500", "101645.877500", "101647.667500", "101646.077500", "101647.867500", "101646.275000", "101648.065000", "101645.480000", "101647.270000", "101644.685000", "101646.475000", "101644.882500", "101646.672500", "101645.082500", "101646.872500", "101645.280000", "101647.070000", "101645.677500", "101647.467500", "101645.877500", "101647.667500", "101646.077500", "101647.867500", "101646.275000", "101648.065000", "101645.480000", "101650.870000", "101648.285000", "101650.075000", "101648.482500", "101650.272500", "101648.682500", "101650.472500", "101648.880000", "101650.670000", "101649.277500", "101651.067500", "101649.477500", "101651.267500", "101649.677500", "101651.467500", "101649.875000", "101651.665000", "101649.080000", "101650.870000", "101648.285000", "101650.075000", "101648.482500", "101650.272500", "101648.682500", "101650.472500", "101648.880000", "101650.670000", "101649.277500", "101651.067500", "101649.477500", "101651.267500", "101649.677500", "101651.467500", "101649.875000", "101651.665000", "101649.080000", "101650.870000", "101648.285000", "101650.075000", "101648.482500", "101650.272500", "101648.682500", "101650.472500", "101648.880000", "101650.670000", "101649.277500", "101651.067500", "101649.477500", "101651.267500", "101649.677500", "101651.467500", "101649.875000", "101651.665000", "101649.080000", "101650.870000", "101648.285000", "101650.075000", "101648.482500", "101650.272500", "101648.682500", "101650.472500", "101648.880000", "101650.670000", "101649.277500", "101651.067500", "101649.477500", "101651.267500", "101649.677500", "101651.467500", "101649.875000", "101651.665000", "101649.080000", "101654.470000", "101651.885000", "101653.675000", "101652.082500", "101653.872500", "101652.282500", "101654.072500", "101652.480000", "101654.270000", "101652.877500", "101654.667500", "101653.077500", "101654.867500", "101653.277500", "101655.067500", "101653.475000", "101655.265000", "101652.680000", "101654.470000", "101651.885000", "101653.675000", "101652.082500", "101653.872500", "101652.282500", "101654.072500", "101652.480000", "101654.270000", "101652.877500", "101654.667500", "101653.077500", "101654.867500", "101653.277500", "101655.067500", "101653.475000", "101655.265000", "101652.680000", "101654.470000", "101651.885000", "101653.675000", "101652.082500", "101653.872500", "101652.282500", "101654.072500", "101652.480000", "101654.270000", "101652.877500", "101654.667500", "101653.077500", "101654.867500", "101653.277500", "101655.067500", "101653.475000", "101655.265000", "101652.680000", "101654.470000", "101651.885000", "101653.675000", "101652.082500", "101653.872500", "101652.282500", "101654.072500", "101652.480000", "101654.270000", "101652.877500", "101654.667500", "101653.077500", "101654.867500", "101653.277500", "101655.067500", "101653.475000", "101655.265000", "101652.680000", "101658.070000", "101655.485000", "101657.275000", "101655.682500", "101657.472500", "101655.882500", "101657.672500", "101656.080000", "101657.870000", "101656.477500", "101658.267500", "101656.677500", "101658.467500", "101656.877500", "101658.667500", "101657.075000", "101658.865000", "101656.280000", "101658.070000", "101655.485000", "101657.275000", "101655.682500", "101657.472500", "101655.882500", "101657.672500", "101656.080000", "101657.870000", "101656.477500", "101658.267500", "101656.677500", "101658.467500", "101656.877500", "101658.667500", "101657.075000", "101658.865000", "101656.280000", "101658.070000", "101655.485000", "101657.275000", "101655.682500", "101657.472500", "101655.882500", "101657.672500", "101656.080000", "101657.870000", "101656.477500", "101658.267500", "101656.677500", "101658.467500", "101656.877500", "101658.667500", "101657.075000", "101658.865000", "101656.280000", "101658.070000", "101655.485000", "101657.275000", "101655.682500", "101657.472500", "101655.882500", "101657.672500", "101656.080000", "101657.870000", "101656.477500", "101658.267500", "101656.677500", "101658.467500", "101656.877500", "101658.667500", "101657.075000", "101658.865000", "101656.280000", "101701.670000", "101659.085000", "101700.875000", "101659.282500", "101701.072500", "101659.482500", "101701.272500", "101659.680000", "101701.470000", "101700.077500", "101701.867500", "101700.277500", "101702.067500", "101700.477500", "101702.267500", "101700.675000", "101702.465000", "101659.880000", "101701.670000", "101659.085000", "101700.875000", "101659.282500", "101701.072500", "101659.482500", "101701.272500", "101659.680000", "101701.470000", "101700.077500", "101701.867500", "101700.277500", "101702.067500", "101700.477500", "101702.267500", "101700.675000", "101702.465000", "101659.880000", "101701.670000", "101659.085000", "101700.875000", "101659.282500", "101701.072500", "101659.482500", "101701.272500", "101659.680000", "101701.470000", "101700.077500", "101701.867500", "101700.277500", "101702.067500", "101700.477500", "101702.267500", "101700.675000", "101702.465000", "101659.880000", "101701.670000", "101659.085000", "101700.875000", "101659.282500", "101701.072500", "101659.482500", "101701.272500", "101659.680000", "101701.470000", "101700.077500", "101701.867500", "101700.277500", "101702.067500", "101700.477500", "101702.267500", "101700.675000", "101702.465000", "101659.880000", "101705.270000", "101702.685000", "101704.475000", "101702.882500", "101704.672500", "101703.082500", "101704.872500", "101703.280000", "101705.070000", "101703.677500", "101705.467500", "101703.877500", "101705.667500", "101704.077500", "101705.867500", "101704.275000", "101706.065000", "101703.480000", "101705.270000", "101702.685000", "101704.475000", "101702.882500", "101704.672500", "101703.082500", "101704.872500", "101703.280000", "101705.070000", "101703.677500", "101705.467500", "101703.877500", "101705.667500", "101704.077500", "101705.867500", "101704.275000", "101706.065000", "101703.480000", "101705.270000", "101702.685000", "101704.475000", "101702.882500", "101704.672500", "101703.082500", "101704.872500", "101703.280000", "101705.070000", "101703.677500", "101705.467500", "101703.877500", "101705.667500", "101704.077500", "101705.867500", "101704.275000", "101706.065000", "101703.480000", "101705.270000", "101702.685000", "101704.475000", "101702.882500", "101704.672500", "101703.082500", "101704.872500", "101703.280000", "101705.070000", "101703.677500", "101705.467500", "101703.877500", "101705.667500", "101704.077500", "101705.867500", "101704.275000", "101706.065000", "101703.480000", "101708.870000", "101706.285000", "101708.075000", "101706.482500", "101708.272500", "101706.682500", "101708.472500", "101706.880000", "101708.670000", "101707.277500", "101709.067500", "101707.477500", "101709.267500", "101707.677500", "101709.467500", "101707.875000", "101709.665000", "101707.080000", "101708.870000", "101706.285000", "101708.075000", "101706.482500", "101708.272500", "101706.682500", "101708.472500", "101706.880000", "101708.670000", "101707.277500", "101709.067500", "101707.477500", "101709.267500", "101707.677500", "101709.467500", "101707.875000", "101709.665000", "101707.080000", "101708.870000", "101706.285000", "101708.075000", "101706.482500", "101708.272500", "101706.682500", "101708.472500", "101706.880000", "101708.670000", "101707.277500", "101709.067500", "101707.477500", "101709.267500", "101707.677500", "101709.467500", "101707.875000", "101709.665000", "101707.080000", "101708.870000", "101706.285000", "101708.075000", "101706.482500", "101708.272500", "101706.682500", "101708.472500", "101706.880000", "101708.670000", "101707.277500", "101709.067500", "101707.477500", "101709.267500", "101707.677500", "101709.467500", "101707.875000", "101709.665000", "101707.080000", "101712.470000", "101709.885000", "101711.675000", "101710.082500", "101711.872500", "101710.282500", "101712.072500", "101710.480000", "101712.270000", "101710.877500", "101712.667500", "101711.077500", "101712.867500", "101711.277500", "101713.067500", "101711.475000", "101713.265000", "101710.680000", "101712.470000", "101709.885000", "101711.675000", "101710.082500", "101711.872500", "101710.282500", "101712.072500", "101710.480000", "101712.270000", "101710.877500", "101712.667500", "101711.077500", "101712.867500", "101711.277500", "101713.067500", "101711.475000", "101713.265000", "101710.680000", "101712.470000", "101709.885000", "101711.675000", "101710.082500", "101711.872500", "101710.282500", "101712.072500", "101710.480000", "101712.270000", "101710.877500", "101712.667500", "101711.077500", "101712.867500", "101711.277500", "101713.067500", "101711.475000", "101713.265000", "101710.680000", "101712.470000", "101709.885000", "101711.675000", "101710.082500", "101711.872500", "101710.282500", "101712.072500", "101710.480000", "101712.270000", "101710.877500", "101712.667500", "101711.077500", "101712.867500", "101711.277500", "101713.067500", "101711.475000", "101713.265000", "101710.680000", "101716.070000", "101713.485000", "101715.275000", "101713.682500", "101715.472500", "101713.882500", "101715.672500", "101714.080000", "101715.870000", "101714.477500", "101716.267500", "101714.677500", "101716.467500", "101714.877500", "101716.667500", "101715.075000", "101716.865000", "101714.280000", "101716.070000", "101713.485000", "101715.275000", "101713.682500", "101715.472500", "101713.882500", "101715.672500", "101714.080000", "101715.870000", "101714.477500", "101716.267500", "101714.677500", "101716.467500", "101714.877500", "101716.667500", "101715.075000", "101716.865000", "101714.280000", "101716.070000", "101713.485000", "101715.275000", "101713.682500", "101715.472500", "101713.882500", "101715.672500", "101714.080000", "101715.870000", "101714.477500", "101716.267500", "101714.677500", "101716.467500", "101714.877500", "101716.667500", "101715.075000", "101716.865000", "101714.280000", "101716.070000", "101713.485000", "101715.275000", "101713.682500", "101715.472500", "101713.882500", "101715.672500", "101714.080000", "101715.870000", "101714.477500", "101716.267500", "101714.677500", "101716.467500", "101714.877500", "101716.667500", "101715.075000", "101716.865000", "101714.280000", "101719.670000", "101717.085000", "101718.875000", "101717.282500", "101719.072500", "101717.482500", "101719.272500", "101717.680000", "101719.470000", "101718.077500", "101719.867500", "101718.277500", "101720.067500", "101718.477500", "101720.267500", "101718.675000", "101720.465000", "101717.880000", "101719.670000", "101717.085000", "101718.875000", "101717.282500", "101719.072500", "101717.482500", "101719.272500", "101717.680000", "101719.470000", "101718.077500", "101719.867500", "101718.277500", "101720.067500", "101718.477500", "101720.267500", "101718.675000", "101720.465000", "101717.880000", "101719.670000", "101717.085000", "101718.875000", "101717.282500", "101719.072500", "101717.482500", "101719.272500", "101717.680000", "101719.470000", "101718.077500", "101719.867500", "101718.277500", "101720.067500", "101718.477500", "101720.267500", "101718.675000", "101720.465000", "101717.880000", "101719.670000", "101717.085000", "101718.875000", "101717.282500", "101719.072500", "101717.482500", "101719.272500", "101717.680000", "101719.470000", "101718.077500", "101719.867500", "101718.277500", "101720.067500", "101718.477500", "101720.267500", "101718.675000", "101720.465000", "101717.880000", "101723.270000", "101720.685000", "101722.475000", "101720.882500", "101722.672500", "101721.082500", "101722.872500", "101721.280000", "101723.070000", "101721.677500", "101723.467500", "101721.877500", "101723.667500", "101722.077500", "101723.867500", "101722.275000", "101724.065000", "101721.480000", "101723.270000", "101720.685000", "101722.475000", "101720.882500", "101722.672500", "101721.082500", "101722.872500", "101721.280000", "101723.070000", "101721.677500", "101723.467500", "101721.877500", "101723.667500", "101722.077500", "101723.867500", "101722.275000", "101724.065000", "101721.480000", "101723.270000", "101720.685000", "101722.475000", "101720.882500", "101722.672500", "101721.082500", "101722.872500", "101721.280000", "101723.070000", "101721.677500", "101723.467500", "101721.877500", "101723.667500", "101722.077500", "101723.867500", "101722.275000", "101724.065000", "101721.480000", "101723.270000", "101720.685000", "101722.475000", "101720.882500", "101722.672500", "101721.082500", "101722.872500", "101721.280000", "101723.070000", "101721.677500", "101723.467500", "101721.877500", "101723.667500", "101722.077500", "101723.867500", "101722.275000", "101724.065000", "101721.480000", "101726.870000", "101724.285000", "101726.075000", "101724.482500", "101726.272500", "101724.682500", "101726.472500", "101724.880000", "101726.670000", "101725.277500", "101727.067500", "101725.477500", "101727.267500", "101725.677500", "101727.467500", "101725.875000", "101727.665000", "101725.080000", "101726.870000", "101724.285000", "101726.075000", "101724.482500", "101726.272500", "101724.682500", "101726.472500", "101724.880000", "101726.670000", "101725.277500", "101727.067500", "101725.477500", "101727.267500", "101725.677500", "101727.467500", "101725.875000", "101727.665000", "101725.080000", "101726.870000", "101724.285000", "101726.075000", "101724.482500", "101726.272500", "101724.682500", "101726.472500", "101724.880000", "101726.670000", "101725.277500", "101727.067500", "101725.477500", "101727.267500", "101725.677500", "101727.467500", "101725.875000", "101727.665000", "101725.080000", "101726.870000", "101724.285000", "101726.075000", "101724.482500", "101726.272500", "101724.682500", "101726.472500", "101724.880000", "101726.670000", "101725.277500", "101727.067500", "101725.477500", "101727.267500", "101725.677500", "101727.467500", "101725.875000", "101727.665000", "101725.080000", "101730.470000", "101727.885000", "101729.675000", "101728.082500", "101729.872500", "101728.282500", "101730.072500", "101728.480000", "101730.270000", "101728.877500", "101730.667500", "101729.077500", "101730.867500", "101729.277500", "101731.067500", "101729.475000", "101731.265000", "101728.680000", "101730.470000", "101727.885000", "101729.675000", "101728.082500", "101729.872500", "101728.282500", "101730.072500", "101728.480000", "101730.270000", "101728.877500", "101730.667500", "101729.077500", "101730.867500", "101729.277500", "101731.067500", "101729.475000", "101731.265000", "101728.680000", "101730.470000", "101727.885000", "101729.675000", "101728.082500", "101729.872500", "101728.282500", "101730.072500", "101728.480000", "101730.270000", "101728.877500", "101730.667500", "101729.077500", "101730.867500", "101729.277500", "101731.067500", "101729.475000", "101731.265000", "101728.680000", "101730.470000", "101727.885000", "101729.675000", "101728.082500", "101729.872500", "101728.282500", "101730.072500", "101728.480000", "101730.270000", "101728.877500", "101730.667500", "101729.077500", "101730.867500", "101729.277500", "101731.067500", "101729.475000", "101731.265000", "101728.680000", "101734.070000", "101731.485000", "101733.275000", "101731.682500", "101733.472500", "101731.882500", "101733.672500", "101732.080000", "101733.870000", "101732.477500", "101734.267500", "101732.677500", "101734.467500", "101732.877500", "101734.667500", "101733.075000", "101734.865000", "101732.280000", "101734.070000", "101731.485000", "101733.275000", "101731.682500", "101733.472500", "101731.882500", "101733.672500", "101732.080000", "101733.870000", "101732.477500", "101734.267500", "101732.677500", "101734.467500", "101732.877500", "101734.667500", "101733.075000", "101734.865000", "101732.280000", "101734.070000", "101731.485000", "101733.275000", "101731.682500", "101733.472500", "101731.882500", "101733.672500", "101732.080000", "101733.870000", "101732.477500", "101734.267500", "101732.677500", "101734.467500", "101732.877500", "101734.667500", "101733.075000", "101734.865000", "101732.280000", "101734.070000", "101731.485000", "101733.275000", "101731.682500", "101733.472500", "101731.882500", "101733.672500", "101732.080000", "101733.870000", "101732.477500", "101734.267500", "101732.677500", "101734.467500", "101732.877500", "101734.667500", "101733.075000", "101734.865000", "101732.280000", "101737.670000", "101735.085000", "101736.875000", "101735.282500", "101737.072500", "101735.482500", "101737.272500", "101735.680000", "101737.470000", "101736.077500", "101737.867500", "101736.277500", "101738.067500", "101736.477500", "101738.267500", "101736.675000", "101738.465000", "101735.880000", "101737.670000", "101735.085000", "101736.875000", "101735.282500", "101737.072500", "101735.482500", "101737.272500", "101735.680000", "101737.470000", "101736.077500", "101737.867500", "101736.277500", "101738.067500", "101736.477500", "101738.267500", "101736.675000", "101738.465000", "101735.880000", "101737.670000", "101735.085000", "101736.875000", "101735.282500", "101737.072500", "101735.482500", "101737.272500", "101735.680000", "101737.470000", "101736.077500", "101737.867500", "101736.277500", "101738.067500", "101736.477500", "101738.267500", "101736.675000", "101738.465000", "101735.880000", "101737.670000", "101735.085000", "101736.875000", "101735.282500", "101737.072500", "101735.482500", "101737.272500", "101735.680000", "101737.470000", "101736.077500", "101737.867500", "101736.277500", "101738.067500", "101736.477500", "101738.267500", "101736.675000", "101738.465000", "101735.880000", "101741.270000", "101738.685000", "101740.475000", "101738.882500", "101740.672500", "101739.082500", "101740.872500", "101739.280000", "101741.070000", "101739.677500", "101741.467500", "101739.877500", "101741.667500", "101740.077500", "101741.867500", "101740.275000", "101742.065000", "101739.480000", "101741.270000", "101738.685000", "101740.475000", "101738.882500", "101740.672500", "101739.082500", "101740.872500", "101739.280000", "101741.070000", "101739.677500", "101741.467500", "101739.877500", "101741.667500", "101740.077500", "101741.867500", "101740.275000", "101742.065000", "101739.480000", "101741.270000", "101738.685000", "101740.475000", "101738.882500", "101740.672500", "101739.082500", "101740.872500", "101739.280000", "101741.070000", "101739.677500", "101741.467500", "101739.877500", "101741.667500", "101740.077500", "101741.867500", "101740.275000", "101742.065000", "101739.480000", "101741.270000", "101738.685000", "101740.475000", "101738.882500", "101740.672500", "101739.082500", "101740.872500", "101739.280000", "101741.070000", "101739.677500", "101741.467500", "101739.877500", "101741.667500", "101740.077500", "101741.867500", "101740.275000", "101742.065000", "101739.480000", "101744.870000", "101742.285000", "101744.075000", "101742.482500", "101744.272500", "101742.682500", "101744.472500", "101742.880000", "101744.670000", "101743.277500", "101745.067500", "101743.477500", "101745.267500", "101743.677500", "101745.467500", "101743.875000", "101745.665000", "101743.080000", "101744.870000", "101742.285000", "101744.075000", "101742.482500", "101744.272500", "101742.682500", "101744.472500", "101742.880000", "101744.670000", "101743.277500", "101745.067500", "101743.477500", "101745.267500", "101743.677500", "101745.467500", "101743.875000", "101745.665000", "101743.080000", "101744.870000", "101742.285000", "101744.075000", "101742.482500", "101744.272500", "101742.682500", "101744.472500", "101742.880000", "101744.670000", "101743.277500", "101745.067500", "101743.477500", "101745.267500", "101743.677500", "101745.467500", "101743.875000", "101745.665000", "101743.080000", "101744.870000", "101742.285000", "101744.075000", "101742.482500", "101744.272500", "101742.682500", "101744.472500", "101742.880000", "101744.670000", "101743.277500", "101745.067500", "1017