{
  "AcquisitionMatrixPE": 80,
  "AcquisitionNumber": 1,
  "AcquisitionTime": "13:06:25.507500",
  "BandwidthPerPixelPhaseEncode": 48.077,
  "BaseResolution": 80,
  "BodyPartExamined": "BRAIN",
  "CoilCombinationMethod": "Sum of Squares",
  "ConsistencyInfo": "N4_VE11C_LATEST_20160120",
  "ConversionSoftware": "dcm2niix",
  "ConversionSoftwareVersion": "v1.0.20220720",
  "DerivedVendorReportedEchoSpacing": 0.000519999,
  "DeviceSerialNumber": "66112",
  "DwellTime": 2.7e-06,
  "EchoTime": 0.035,
  "EchoTrainLength": 39,
  "EffectiveEchoSpacing": 0.00026,
  "FlipAngle": 90,
  "HeudiconvVersion": "0.13.1",
  "ImageOrientationPatientDICOM": [0.981264, 0.192138, 0.0143143, -0.187186, 0.933098, 0.307065],
  "ImageOrientationText": "Tra>Cor(17.7)>Sag(-2.6)",
  "ImageType": [
    "ORIGINAL",
    "PRIMARY",
    "M",
    "ND",
    "NORM",
    "MOSAIC"
],
  "ImagingFrequency": 123.252,
  "InPlanePhaseEncodingDirectionDICOM": "COL",
  "InstitutionAddress": "Maynard 3,Hanover,NH,US,03755",
  "InstitutionName": "Dartmouth College - PBS",
  "InstitutionalDepartmentName": "Department",
  "MRAcquisitionType": "2D",
  "MagneticFieldStrength": 3,
  "Manufacturer": "Siemens",
  "ManufacturersModelName": "Prisma",
  "MatrixCoilMode": "GRAPPA",
  "Modality": "MR",
  "NonlinearGradientCorrection": false,
  "ParallelReductionFactorInPlane": 2,
  "PartialFourier": 1,
  "PatientPosition": "HFS",
  "PercentPhaseFOV": 100,
  "PercentSampling": 100,
  "PhaseEncodingDirection": "j-",
  "PhaseEncodingSteps": 79,
  "PhaseResolution": 1,
  "PixelBandwidth": 2315,
  "ProcedureStepDescription": "dbic^QA",
  "ProtocolName": "func-bold_task-rest_acq-p2",
  "PulseSequenceDetails": "%SiemensSeq%\\ep2d_bold",
  "ReceiveCoilActiveElements": "HEA;HEP",
  "ReceiveCoilName": "Head_32",
  "ReconMatrixPE": 80,
  "RefLinesPE": 24,
  "RepetitionTime": 2,
  "SAR": 0.0555155,
  "ScanOptions": "FS",
  "ScanningSequence": "EP",
  "SequenceName": "*epfid2d1_80",
  "SequenceVariant": "SK",
  "SeriesDescription": "func-bold_task-rest_acq-p2",
  "SeriesNumber": 5,
  "ShimSetting": [4147, -7693, -7508, 248, -56, -122, -46, 60],
  "SliceThickness": 3.5,
  "SliceTiming": [0.99, 0, 1.0575, 0.0675, 1.1225, 0.1325, 1.1875, 0.1975, 1.255, 0.265, 1.32, 0.33, 1.3875, 0.3975, 1.4525, 0.4625, 1.5175, 0.5275, 1.585, 0.595, 1.65, 0.66, 1.7175, 0.7275, 1.7825, 0.7925, 1.8475, 0.8575, 1.915, 0.925],
  "SoftwareVersions": "syngo MR E11",
  "SpacingBetweenSlices": 3.99,
  "StationName": "AWP66112",
  "TaskName": "rest",
  "TotalReadoutTime": 0.02054,
  "TxRefAmp": 225.12,
  "dcmmeta_affine": [
    [-2.9437906742095947, -0.5615580081939697, -0.1821116954088211, 145.57469177246094],
    [-0.576413094997406, 2.799295425415039, 1.2129229307174683, -99.43990325927734],
    [0.04294290766119957, -0.9211937189102173, 3.7968082427978516, -16.084300994873047],
    [0.0, 0.0, 0.0, 1.0]
],
  "dcmmeta_reorient_transform": [
    [0.0, -1.0, 0.0, 79.0],
    [1.0, 0.0, 0.0, 0.0],
    [0.0, 0.0, 1.0, 0.0],
    [0.0, 0.0, 0.0, 1.0]
],
  "dcmmeta_shape": [80, 80, 30, 200],
  "dcmmeta_slice_dim": 2,
  "dcmmeta_version": 0.6,
  "global": {
    "const": {
      "AccessionNumber": "qa",
      "AcquisitionMatrix": [80, 0, 0, 80],
      "AngioFlag": "N",
      "BitsAllocated": 16,
      "BitsStored": 12,
      "BodyPartExamined": "BRAIN",
      "Columns": 480,
      "EchoNumbers": 1,
      "EchoTime": 35.0,
      "EchoTrainLength": 39,
      "FlipAngle": 90.0,
      "HighBit": 11,
      "ImageOrientationPatient": [0.98126357456327, 0.19213770573628, 0.01431430297685, -0.1871860102568, 0.93309846436722, 0.30706457522756],
      "ImagePositionPatient": [-577.65814520889, -796.84613748337, -281.68593271855],
      "ImageType": [
        "ORIGINAL",
        "PRIMARY",
        "M",
        "ND",
        "NORM",
        "MOSAIC"
],
      "ImagedNucleus": "1H",
      "ImagingFrequency": 123.252362,
      "InPlanePhaseEncodingDirection": "COL",
      "MRAcquisitionType": "2D",
      "MagneticFieldStrength": 3.0,
      "Manufacturer": "SIEMENS",
      "ManufacturerModelName": "Prisma",
      "Modality": "MR",
      "NumberOfAverages": 1.0,
      "NumberOfPhaseEncodingSteps": 79,
      "PercentPhaseFieldOfView": 100.0,
      "PercentSampling": 100.0,
      "PerformedProcedureStepStartTime": "130455.684000",
      "PhotometricInterpretation": "MONOCHROME2",
      "PixelBandwidth": 2315.0,
      "PixelRepresentation": 0,
      "PixelSpacing": [3.0, 3.0],
      "ProtocolName": "func-bold_task-rest_acq-p2",
      "RepetitionTime": 2000.0,
      "Rows": 480,
      "SAR": 0.05551545144352,
      "SamplesPerPixel": 1,
      "ScanOptions": "FS",
      "ScanningSequence": "EP",
      "SequenceName": "*epfid2d1_80",
      "SequenceVariant": "SK",
      "SeriesDescription": "func-bold_task-rest_acq-p2",
      "SeriesNumber": 5,
      "SeriesTime": "130713.802000",
      "SliceLocation": -52.178647318088,
      "SliceThickness": 3.5,
      "SmallestImagePixelValue": 0,
      "SoftwareVersions": "syngo MR E11",
      "SpacingBetweenSlices": 3.9900000115779,
      "SpecificCharacterSet": "ISO_IR 100",
      "StudyID": "8",
      "StudyTime": "130455.654000",
      "TransmitCoilName": "Body",
      "VariableFlipAngleFlag": "N",
      "WindowCenterWidthExplanation": "Algo1",
      "dBdt": 0.0},
    "slices": {}
  },
  "time": {
    "samples": {
      "AcquisitionNumber": [1, 2, 3, 4, 5, 6, 7, 8, 9, 10, 11, 12, 13, 14, 15, 16, 17, 18, 19, 20, 21, 22, 23, 24, 25, 26, 27, 28, 29, 30, 31, 32, 33, 34, 35, 36, 37, 38, 39, 40, 41, 42, 43, 44, 45, 46, 47, 48, 49, 50, 51, 52, 53, 54, 55, 56, 57, 58, 59, 60, 61, 62, 63, 64, 65, 66, 67, 68, 69, 70, 71, 72, 73, 74, 75, 76, 77, 78, 79, 80, 81, 82, 83, 84, 85, 86, 87, 88, 89, 90, 91, 92, 93, 94, 95, 96, 97, 98, 99, 100, 101, 102, 103, 104, 105, 106, 107, 108, 109, 110, 111, 112, 113, 114, 115, 116, 117, 118, 119, 120, 121, 122, 123, 124, 125, 126, 127, 128, 129, 130, 131, 132, 133, 134, 135, 136, 137, 138, 139, 140, 141, 142, 143, 144, 145, 146, 147, 148, 149, 150, 151, 152, 153, 154, 155, 156, 157, 158, 159, 160, 161, 162, 163, 164, 165, 166, 167, 168, 169, 170, 171, 172, 173, 174, 175, 176, 177, 178, 179, 180, 181, 182, 183, 184, 185, 186, 187, 188, 189, 190, 191, 192, 193, 194, 195, 196, 197, 198, 199, 200],
      "AcquisitionTime": ["130625.507500", "130627.507500", "130629.507500", "130631.507500", "130633.507500", "130635.507500", "130637.507500", "130639.507500", "130641.507500", "130643.507500", "130645.507500", "130647.507500", "130649.507500", "130651.507500", "130653.507500", "130655.507500", "130657.507500", "130659.507500", "130701.507500", "130703.507500", "130705.507500", "130707.507500", "130709.507500", "130711.507500", "130713.507500", "130715.507500", "130717.507500", "130719.507500", "130721.507500", "130723.507500", "130725.507500", "130727.507500", "130729.507500", "130731.507500", "130733.507500", "130735.507500", "130737.507500", "130739.507500", "130741.507500", "130743.507500", "130745.507500", "130747.507500", "130749.507500", "130751.507500", "130753.507500", "130755.507500", "130757.507500", "130759.507500", "130801.507500", "130803.507500", "130805.507500", "130807.507500", "130809.507500", "130811.507500", "130813.507500", "130815.507500", "130817.507500", "130819.507500", "130821.507500", "130823.507500", "130825.507500", "130827.507500", "130829.507500", "130831.507500", "130833.507500", "130835.507500", "130837.507500", "130839.507500", "130841.507500", "130843.507500", "130845.507500", "130847.507500", "130849.507500", "130851.507500", "130853.507500", "130855.507500", "130857.507500", "130859.507500", "130901.507500", "130903.507500", "130905.507500", "130907.507500", "130909.507500", "130911.507500", "130913.507500", "130915.507500", "130917.507500", "130919.507500", "130921.507500", "130923.507500", "130925.507500", "130927.507500", "130929.507500", "130931.507500", "130933.507500", "130935.507500", "130937.507500", "130939.507500", "130941.507500", "130943.507500", "130945.507500", "130947.507500", "130949.507500", "130951.507500", "130953.507500", "130955.507500", "130957.507500", "130959.507500", "131001.507500", "131003.507500", "131005.507500", "131007.507500", "131009.507500", "131011.507500", "131013.507500", "131015.507500", "131017.507500", "131019.507500", "131021.507500", "131023.507500", "131025.507500", "131027.507500", "131029.507500", "131031.507500", "131033.507500", "131035.507500", "131037.507500", "131039.507500", "131041.507500", "131043.507500", "131045.507500", "131047.507500", "131049.507500", "131051.507500", "131053.507500", "131055.507500", "131057.507500", "131059.507500", "131101.507500", "131103.507500", "131105.507500", "131107.507500", "131109.507500", "131111.507500", "131113.507500", "131115.507500", "131117.507500", "131119.507500", "131121.507500", "131123.507500", "131125.507500", "131127.507500", "131129.507500", "131131.507500", "131133.507500", "131135.507500", "131137.507500", "131139.507500", "131141.507500", "131143.507500", "131145.507500", "131147.507500", "131149.507500", "131151.507500", "131153.507500", "131155.507500", "131157.507500", "131159.507500", "131201.507500", "131203.507500", "131205.507500", "131207.507500", "131209.507500", "131211.507500", "131213.507500", "131215.507500", "131217.507500", "131219.507500", "131221.507500", "131223.507500", "131225.507500", "131227.507500", "131229.507500", "131231.507500", "131233.507500", "131235.507500", "131237.507500", "131239.507500", "131241.507500", "131243.507500", "131245.507500", "131247.507500", "131249.507500", "131251.507500", "131253.507500", "131255.507500", "131257.507500", "131259.507500", "131301.507500", "131303.507500"],
      "ContentTime": ["130713.805000", "130713.809000", "130713.811000", "130713.814000", "130713.816000", "130713.819000", "130713.821000", "130713.824000", "130713.827000", "130713.838000", "130713.841000", "130713.843000", "130713.846000", "130713.848000", "130713.851000", "130713.853000", "130713.856000", "130713.858000", "130713.861000", "130713.864000", "130713.866000", "130713.869000", "130713.871000", "130713.874000", "130753.799000", "130753.803000", "130753.805000", "130753.808000", "130753.810000", "130753.813000", "130753.815000", "130753.818000", "130753.820000", "130753.823000", "130753.825000", "130753.828000", "130753.830000", "130753.833000", "130753.836000", "130753.838000", "130753.841000", "130753.843000", "130753.846000", "130753.848000", "130833.801000", "130833.804000", "130833.806000", "130833.809000", "130833.811000", "130833.814000", "130833.816000", "130833.819000", "130833.821000", "130833.824000", "130833.827000", "130833.829000", "130833.832000", "130833.834000", "130833.837000", "130833.839000", "130833.842000", "130833.844000", "130833.847000", "130833.849000", "130913.800000", "130913.803000", "130913.806000", "130913.808000", "130913.811000", "130913.814000", "130913.816000", "130913.819000", "130913.821000", "130913.824000", "130913.826000", "130913.829000", "130913.831000", "130913.834000", "130913.836000", "130913.839000", "130913.841000", "130913.844000", "130913.847000", "130913.849000", "130953.800000", "130953.803000", "130953.806000", "130953.809000", "130953.811000", "130953.814000", "130953.816000", "130953.819000", "130953.821000", "130953.824000", "130953.827000", "130953.829000", "130953.831000", "130953.834000", "130953.837000", "130953.839000", "130953.842000", "130953.844000", "130953.847000", "130953.849000", "131033.801000", "131033.804000", "131033.806000", "131033.809000", "131033.811000", "131033.814000", "131033.816000", "131033.819000", "131033.821000", "131033.824000", "131033.827000", "131033.829000", "131033.832000", "131033.834000", "131033.837000", "131033.839000", "131033.842000", "131033.845000", "131033.847000", "131033.850000", "131113.800000", "131113.803000", "131113.806000", "131113.808000", "131113.811000", "131113.814000", "131113.827000", "131113.830000", "131113.832000", "131113.835000", "131113.837000", "131113.840000", "131113.842000", "131113.845000", "131113.847000", "131113.850000", "131113.852000", "131113.855000", "131113.858000", "131113.860000", "131153.800000", "131153.803000", "131153.806000", "131153.809000", "131153.811000", "131153.814000", "131153.816000", "131153.819000", "131153.821000", "131153.824000", "131153.826000", "131153.829000", "131153.831000", "131153.834000", "131153.837000", "131153.839000", "131153.842000", "131153.844000", "131153.847000", "131153.849000", "131233.799000", "131233.802000", "131233.805000", "131233.807000", "131233.810000", "131233.813000", "131233.815000", "131233.818000", "131233.820000", "131233.823000", "131233.825000", "131233.828000", "131233.831000", "131233.833000", "131233.836000", "131233.838000", "131233.841000", "131233.843000", "131233.846000", "131233.848000", "131305.110000", "131305.113000", "131305.116000", "131305.119000", "131305.121000", "131305.124000", "131305.127000", "131305.129000", "131305.132000", "131305.134000", "131305.137000", "131305.139000", "131305.142000", "131305.145000", "131305.147000", "131305.151000"],
      "InstanceCreationTime": ["130713.805000", "130713.809000", "130713.811000", "130713.814000", "130713.816000", "130713.819000", "130713.821000", "130713.824000", "130713.827000", "130713.838000", "130713.841000", "130713.843000", "130713.846000", "130713.848000", "130713.851000", "130713.853000", "130713.856000", "130713.858000", "130713.861000", "130713.864000", "130713.866000", "130713.869000", "130713.871000", "130713.874000", "130753.799000", "130753.803000", "130753.805000", "130753.808000", "130753.810000", "130753.813000", "130753.815000", "130753.818000", "130753.820000", "130753.823000", "130753.825000", "130753.828000", "130753.830000", "130753.833000", "130753.836000", "130753.838000", "130753.841000", "130753.843000", "130753.846000", "130753.848000", "130833.801000", "130833.804000", "130833.806000", "130833.809000", "130833.811000", "130833.814000", "130833.816000", "130833.819000", "130833.821000", "130833.824000", "130833.827000", "130833.829000", "130833.832000", "130833.834000", "130833.837000", "130833.839000", "130833.842000", "130833.844000", "130833.847000", "130833.849000", "130913.800000", "130913.803000", "130913.806000", "130913.808000", "130913.811000", "130913.814000", "130913.816000", "130913.819000", "130913.821000", "130913.824000", "130913.826000", "130913.829000", "130913.831000", "130913.834000", "130913.836000", "130913.839000", "130913.841000", "130913.844000", "130913.847000", "130913.849000", "130953.800000", "130953.803000", "130953.806000", "130953.809000", "130953.811000", "130953.814000", "130953.816000", "130953.819000", "130953.821000", "130953.824000", "130953.827000", "130953.829000", "130953.831000", "130953.834000", "130953.837000", "130953.839000", "130953.842000", "130953.844000", "130953.847000", "130953.849000", "131033.801000", "131033.804000", "131033.806000", "131033.809000", "131033.811000", "131033.814000", "131033.816000", "131033.819000", "131033.821000", "131033.824000", "131033.827000", "131033.829000", "131033.832000", "131033.834000", "131033.837000", "131033.839000", "131033.842000", "131033.845000", "131033.847000", "131033.850000", "131113.800000", "131113.803000", "131113.806000", "131113.808000", "131113.811000", "131113.814000", "131113.827000", "131113.830000", "131113.832000", "131113.835000", "131113.837000", "131113.840000", "131113.842000", "131113.845000", "131113.847000", "131113.850000", "131113.852000", "131113.855000", "131113.858000", "131113.860000", "131153.800000", "131153.803000", "131153.806000", "131153.809000", "131153.811000", "131153.814000", "131153.816000", "131153.819000", "131153.821000", "131153.824000", "131153.826000", "131153.829000", "131153.831000", "131153.834000", "131153.837000", "131153.839000", "131153.842000", "131153.844000", "131153.847000", "131153.849000", "131233.799000", "131233.802000", "131233.805000", "131233.807000", "131233.810000", "131233.813000", "131233.815000", "131233.818000", "131233.820000", "131233.823000", "131233.825000", "131233.828000", "131233.831000", "131233.833000", "131233.836000", "131233.838000", "131233.841000", "131233.843000", "131233.846000", "131233.848000", "131305.110000", "131305.113000", "131305.116000", "131305.119000", "131305.121000", "131305.124000", "131305.127000", "131305.129000", "131305.132000", "131305.134000", "131305.137000", "131305.139000", "131305.142000", "131305.145000", "131305.147000", "131305.151000"],
      "InstanceNumber": [1, 2, 3, 4, 5, 6, 7, 8, 9, 10, 11, 12, 13, 14, 15, 16, 17, 18, 19, 20, 21, 22, 23, 24, 25, 26, 27, 28, 29, 30, 31, 32, 33, 34, 35, 36, 37, 38, 39, 40, 41, 42, 43, 44, 45, 46, 47, 48, 49, 50, 51, 52, 53, 54, 55, 56, 57, 58, 59, 60, 61, 62, 63, 64, 65, 66, 67, 68, 69, 70, 71, 72, 73, 74, 75, 76, 77, 78, 79, 80, 81, 82, 83, 84, 85, 86, 87, 88, 89, 90, 91, 92, 93, 94, 95, 96, 97, 98, 99, 100, 101, 102, 103, 104, 105, 106, 107, 108, 109, 110, 111, 112, 113, 114, 115, 116, 117, 118, 119, 120, 121, 122, 123, 124, 125, 126, 127, 128, 129, 130, 131, 132, 133, 134, 135, 136, 137, 138, 139, 140, 141, 142, 143, 144, 145, 146, 147, 148, 149, 150, 151, 152, 153, 154, 155, 156, 157, 158, 159, 160, 161, 162, 163, 164, 165, 166, 167, 168, 169, 170, 171, 172, 173, 174, 175, 176, 177, 178, 179, 180, 181, 182, 183, 184, 185, 186, 187, 188, 189, 190, 191, 192, 193, 194, 195, 196, 197, 198, 199, 200],
      "LargestImagePixelValue": [1898, 1907, 1896, 1894, 1901, 1898, 1906, 1903, 1899, 1905, 1901, 1899, 1900, 1902, 1902, 1903, 1899, 1897, 1898, 1897, 1898, 1902, 1905, 1901, 1902, 1903, 1901, 1894, 1901, 1907, 1896, 1903, 1902, 1896, 1903, 1897, 1901, 1902, 1896, 1897, 1902, 1905, 1901, 1905, 1902, 1907, 1899, 1902, 1896, 1901, 1899, 1900, 1902, 1900, 1901, 1899, 1903, 1893, 1901, 1898, 1899, 1898, 1895, 1904, 1906, 1898, 1895, 1898, 1898, 1896, 1903, 1900, 1894, 1899, 1904, 1900, 1895, 1901, 1903, 1901, 1901, 1900, 1903, 1903, 1898, 1898, 1902, 1897, 1898, 1900, 1902, 1900, 1895, 1899, 1901, 1900, 1904, 1899, 1902, 1901, 1897, 1893, 1902, 1894, 1900, 1899, 1900, 1903, 1903, 1897, 1893, 1901, 1897, 1902, 1899, 1897, 1898, 1902, 1897, 1902, 1895, 1895, 1895, 1904, 1903, 1906, 1904, 1896, 1899, 1900, 1901, 1897, 1894, 1897, 1896, 1901, 1897, 1901, 1900, 1900, 1897, 1893, 1905, 1902, 1902, 1896, 1897, 1902, 1901, 1904, 1893, 1898, 1894, 1893, 1899, 1900, 1901, 1901, 1901, 1905, 1895, 1905, 1896, 1897, 1901, 1900, 1895, 1894, 1899, 1899, 1897, 1900, 1897, 1902, 1898, 1901, 1906, 1901, 1901, 1902, 1895, 1897, 1899, 1899, 1905, 1902, 1901, 1902, 1898, 1903, 1906, 1899, 1893, 1899, 1901, 1909, 1910, 1893, 1893, 1898],
      "WindowCenter": [966.0, 965.0, 965.0, 965.0, 965.0, 965.0, 965.0, 965.0, 966.0, 965.0, 965.0, 965.0, 965.0, 966.0, 965.0, 966.0, 965.0, 966.0, 965.0, 965.0, 965.0, 965.0, 965.0, 965.0, 965.0, 965.0, 965.0, 964.0, 965.0, 966.0, 966.0, 965.0, 965.0, 965.0, 965.0, 965.0, 965.0, 965.0, 965.0, 965.0, 965.0, 965.0, 965.0, 965.0, 965.0, 965.0, 965.0, 965.0, 965.0, 965.0, 965.0, 965.0, 966.0, 965.0, 965.0, 965.0, 966.0, 965.0, 966.0, 965.0, 965.0, 965.0, 965.0, 964.0, 965.0, 965.0, 967.0, 965.0, 966.0, 964.0, 965.0, 964.0, 964.0, 965.0, 965.0, 965.0, 964.0, 964.0, 964.0, 964.0, 965.0, 964.0, 964.0, 964.0, 965.0, 964.0, 964.0, 964.0, 964.0, 965.0, 964.0, 964.0, 965.0, 965.0, 965.0, 964.0, 965.0, 965.0, 964.0, 964.0, 964.0, 964.0, 964.0, 964.0, 964.0, 964.0, 965.0, 966.0, 964.0, 964.0, 964.0, 965.0, 964.0, 964.0, 964.0, 965.0, 964.0, 964.0, 965.0, 964.0, 965.0, 965.0, 964.0, 964.0, 965.0, 964.0, 965.0, 964.0, 965.0, 965.0, 964.0, 964.0, 964.0, 965.0, 965.0, 964.0, 966.0, 964.0, 965.0, 965.0, 964.0, 964.0, 964.0, 965.0, 965.0, 964.0, 965.0, 964.0, 964.0, 965.0, 965.0, 964.0, 965.0, 964.0, 964.0, 964.0, 964.0, 964.0, 964.0, 964.0, 964.0, 965.0, 964.0, 964.0, 965.0, 965.0, 964.0, 964.0, 964.0, 966.0, 964.0, 965.0, 964.0, 964.0, 965.0, 964.0, 964.0, 965.0, 966.0, 964.0, 965.0, 965.0, 965.0, 964.0, 964.0, 965.0, 964.0, 965.0, 965.0, 965.0, 964.0, 965.0, 964.0, 964.0, 964.0, 964.0, 964.0, 964.0, 964.0, 964.0],
      "WindowWidth": [2101.0, 2100.0, 2100.0, 2100.0, 2100.0, 2100.0, 2100.0, 2100.0, 2100.0, 2099.0, 2099.0, 2099.0, 2099.0, 2100.0, 2100.0, 2100.0, 2100.0, 2100.0, 2100.0, 2099.0, 2099.0, 2100.0, 2099.0, 2100.0, 2099.0, 2099.0, 2099.0, 2099.0, 2100.0, 2101.0, 2100.0, 2100.0, 2100.0, 2100.0, 2099.0, 2100.0, 2099.0, 2099.0, 2100.0, 2099.0, 2099.0, 2100.0, 2100.0, 2100.0, 2099.0, 2099.0, 2099.0, 2099.0, 2099.0, 2100.0, 2099.0, 2100.0, 2100.0, 2100.0, 2100.0, 2099.0, 2100.0, 2099.0, 2100.0, 2099.0, 2099.0, 2099.0, 2099.0, 2099.0, 2099.0, 2099.0, 2101.0, 2099.0, 2100.0, 2099.0, 2099.0, 2098.0, 2098.0, 2099.0, 2099.0, 2099.0, 2099.0, 2099.0, 2098.0, 2098.0, 2099.0, 2098.0, 2098.0, 2098.0, 2098.0, 2098.0, 2098.0, 2098.0, 2098.0, 2098.0, 2097.0, 2097.0, 2098.0, 2099.0, 2098.0, 2099.0, 2098.0, 2099.0, 2099.0, 2098.0, 2099.0, 2099.0, 2099.0, 2098.0, 2099.0, 2098.0, 2099.0, 2100.0, 2099.0, 2098.0, 2099.0, 2099.0, 2099.0, 2099.0, 2099.0, 2099.0, 2098.0, 2098.0, 2099.0, 2098.0, 2099.0, 2099.0, 2098.0, 2098.0, 2099.0, 2098.0, 2099.0, 2098.0, 2099.0, 2099.0, 2098.0, 2098.0, 2098.0, 2099.0, 2099.0, 2098.0, 2100.0, 2098.0, 2099.0, 2099.0, 2098.0, 2098.0, 2098.0, 2099.0, 2099.0, 2098.0, 2099.0, 2098.0, 2098.0, 2099.0, 2099.0, 2098.0, 2099.0, 2098.0, 2098.0, 2098.0, 2098.0, 2098.0, 2098.0, 2098.0, 2098.0, 2099.0, 2098.0, 2098.0, 2099.0, 2098.0, 2098.0, 2098.0, 2098.0, 2099.0, 2098.0, 2098.0, 2098.0, 2098.0, 2099.0, 2098.0, 2098.0, 2098.0, 2099.0, 2098.0, 2099.0, 2098.0, 2099.0, 2098.0, 2098.0, 2099.0, 2098.0, 2099.0, 2099.0, 2098.0, 2097.0, 2098.0, 2097.0, 2098.0, 2098.0, 2097.0, 2097.0, 2098.0, 2098.0, 2098.0]
    },
    "slices": {}
  }
}