{
  "AcquisitionMatrixPE": 80,
  "AcquisitionNumber": 1,
  "AcquisitionTime": "13:26:56.527500",
  "BandwidthPerPixelPhaseEncode": 25,
  "BaseResolution": 80,
  "BodyPartExamined": "BRAIN",
  "CoilCombinationMethod": "Sum of Squares",
  "ConsistencyInfo": "N4_VE11C_LATEST_20160120",
  "ConversionSoftware": "dcm2niix",
  "ConversionSoftwareVersion": "v1.0.20220720",
  "DerivedVendorReportedEchoSpacing": 0.0005,
  "DeviceSerialNumber": "66112",
  "DwellTime": 2.7e-06,
  "EchoTime": 0.03,
  "EchoTrainLength": 80,
  "EffectiveEchoSpacing": 0.0005,
  "FlipAngle": 10,
  "HeudiconvVersion": "0.13.1",
  "ImageOrientationPatientDICOM": [0.981264, 0.192138, 0.0143143, -0.187186, 0.933098, 0.307065],
  "ImageOrientationText": "Tra>Cor(17.7)>Sag(-2.6)",
  "ImageType": [
    "ORIGINAL",
    "PRIMARY",
    "M",
    "ND",
    "NORM",
    "MOSAIC"
],
  "ImagingFrequency": 123.252,
  "InPlanePhaseEncodingDirectionDICOM": "COL",
  "InstitutionAddress": "Maynard 3,Hanover,NH,US,03755",
  "InstitutionName": "Dartmouth College - PBS",
  "InstitutionalDepartmentName": "Department",
  "MRAcquisitionType": "2D",
  "MagneticFieldStrength": 3,
  "Manufacturer": "Siemens",
  "ManufacturersModelName": "Prisma",
  "MatrixCoilMode": "SENSE",
  "Modality": "MR",
  "NonlinearGradientCorrection": false,
  "PartialFourier": 1,
  "PatientPosition": "HFS",
  "PercentPhaseFOV": 100,
  "PercentSampling": 100,
  "PhaseEncodingDirection": "j-",
  "PhaseEncodingSteps": 80,
  "PhaseResolution": 1,
  "PixelBandwidth": 2315,
  "ProcedureStepDescription": "dbic^QA",
  "ProtocolName": "func-bold_fa-10",
  "PulseSequenceDetails": "%SiemensSeq%\\ep2d_bold",
  "ReceiveCoilActiveElements": "HEA;HEP",
  "ReceiveCoilName": "Head_32",
  "ReconMatrixPE": 80,
  "RepetitionTime": 2,
  "SAR": 0.0117029,
  "ScanOptions": "FS",
  "ScanningSequence": "EP",
  "SequenceName": "*epfid2d1_80",
  "SequenceVariant": "SK",
  "SeriesDescription": "func-bold_fa-10",
  "SeriesNumber": 10,
  "ShimSetting": [4147, -7693, -7508, 246, -56, -122, -46, 60],
  "SliceThickness": 3.5,
  "SliceTiming": [0.99, 0, 1.055, 0.065, 1.1225, 0.1325, 1.1875, 0.1975, 1.2525, 0.2625, 1.32, 0.33, 1.385, 0.395, 1.4525, 0.4625, 1.5175, 0.5275, 1.5825, 0.5925, 1.65, 0.66, 1.715, 0.725, 1.7825, 0.7925, 1.8475, 0.8575, 1.9125, 0.9225],
  "SoftwareVersions": "syngo MR E11",
  "SpacingBetweenSlices": 3.99,
  "StationName": "AWP66112",
  "TotalReadoutTime": 0.0395,
  "TxRefAmp": 225.12,
  "dcmmeta_affine": [
    [-2.9437906742095947, -0.5615580081939697, -0.1821116954088211, 144.4376678466797],
    [-0.576413094997406, 2.799295425415039, 1.2129229307174683, -93.67594909667969],
    [0.04294290766119957, -0.9211937189102173, 3.7968082427978516, -16.63751220703125],
    [0.0, 0.0, 0.0, 1.0]
],
  "dcmmeta_reorient_transform": [
    [0.0, -1.0, 0.0, 79.0],
    [1.0, 0.0, 0.0, 0.0],
    [0.0, 0.0, 1.0, 0.0],
    [0.0, 0.0, 0.0, 1.0]
],
  "dcmmeta_shape": [80, 80, 30, 200],
  "dcmmeta_slice_dim": 2,
  "dcmmeta_version": 0.6,
  "global": {
    "const": {
      "AccessionNumber": "qa",
      "AcquisitionMatrix": [80, 0, 0, 80],
      "AngioFlag": "N",
      "BitsAllocated": 16,
      "BitsStored": 12,
      "BodyPartExamined": "BRAIN",
      "Columns": 480,
      "EchoNumbers": 1,
      "EchoTime": 30.0,
      "EchoTrainLength": 80,
      "FlipAngle": 10.0,
      "HighBit": 11,
      "ImageOrientationPatient": [0.98126357456327, 0.19213770573628, 0.01431430297685, -0.1871860102568, 0.93309846436722, 0.30706457522756],
      "ImagePositionPatient": [-576.52112700516, -802.61009069229, -282.23914393071],
      "ImageType": [
        "ORIGINAL",
        "PRIMARY",
        "M",
        "ND",
        "NORM",
        "MOSAIC"
],
      "ImagedNucleus": "1H",
      "ImagingFrequency": 123.252364,
      "InPlanePhaseEncodingDirection": "COL",
      "MRAcquisitionType": "2D",
      "MagneticFieldStrength": 3.0,
      "Manufacturer": "SIEMENS",
      "ManufacturerModelName": "Prisma",
      "Modality": "MR",
      "NumberOfAverages": 1.0,
      "NumberOfPhaseEncodingSteps": 80,
      "PercentPhaseFieldOfView": 100.0,
      "PercentSampling": 100.0,
      "PerformedProcedureStepStartTime": "130455.684000",
      "PhotometricInterpretation": "MONOCHROME2",
      "PixelBandwidth": 2315.0,
      "PixelRepresentation": 0,
      "PixelSpacing": [3.0, 3.0],
      "ProtocolName": "func-bold_fa-10",
      "RepetitionTime": 2000.0,
      "Rows": 480,
      "SAR": 0.011702853564,
      "SamplesPerPixel": 1,
      "ScanOptions": "FS",
      "ScanningSequence": "EP",
      "SequenceName": "*epfid2d1_80",
      "SequenceVariant": "SK",
      "SeriesDescription": "func-bold_fa-10",
      "SeriesNumber": 10,
      "SeriesTime": "132753.802000",
      "SliceLocation": -50.900988506907,
      "SliceThickness": 3.5,
      "SmallestImagePixelValue": 0,
      "SoftwareVersions": "syngo MR E11",
      "SpacingBetweenSlices": 3.9900000219031,
      "SpecificCharacterSet": "ISO_IR 100",
      "StudyID": "8",
      "StudyTime": "130455.654000",
      "TransmitCoilName": "Body",
      "VariableFlipAngleFlag": "N",
      "WindowCenterWidthExplanation": "Algo1",
      "dBdt": 0.0},
    "slices": {}
  },
  "time": {
    "samples": {
      "AcquisitionNumber": [1, 2, 3, 4, 5, 6, 7, 8, 9, 10, 11, 12, 13, 14, 15, 16, 17, 18, 19, 20, 21, 22, 23, 24, 25, 26, 27, 28, 29, 30, 31, 32, 33, 34, 35, 36, 37, 38, 39, 40, 41, 42, 43, 44, 45, 46, 47, 48, 49, 50, 51, 52, 53, 54, 55, 56, 57, 58, 59, 60, 61, 62, 63, 64, 65, 66, 67, 68, 69, 70, 71, 72, 73, 74, 75, 76, 77, 78, 79, 80, 81, 82, 83, 84, 85, 86, 87, 88, 89, 90, 91, 92, 93, 94, 95, 96, 97, 98, 99, 100, 101, 102, 103, 104, 105, 106, 107, 108, 109, 110, 111, 112, 113, 114, 115, 116, 117, 118, 119, 120, 121, 122, 123, 124, 125, 126, 127, 128, 129, 130, 131, 132, 133, 134, 135, 136, 137, 138, 139, 140, 141, 142, 143, 144, 145, 146, 147, 148, 149, 150, 151, 152, 153, 154, 155, 156, 157, 158, 159, 160, 161, 162, 163, 164, 165, 166, 167, 168, 169, 170, 171, 172, 173, 174, 175, 176, 177, 178, 179, 180, 181, 182, 183, 184, 185, 186, 187, 188, 189, 190, 191, 192, 193, 194, 195, 196, 197, 198, 199, 200],
      "AcquisitionTime": ["132656.527500", "132658.527500", "132700.527500", "132702.527500", "132704.527500", "132706.527500", "132708.527500", "132710.527500", "132712.527500", "132714.527500", "132716.527500", "132718.527500", "132720.527500", "132722.527500", "132724.527500", "132726.527500", "132728.527500", "132730.527500", "132732.527500", "132734.527500", "132736.527500", "132738.527500", "132740.527500", "132742.527500", "132744.527500", "132746.527500", "132748.527500", "132750.527500", "132752.527500", "132754.527500", "132756.527500", "132758.527500", "132800.527500", "132802.527500", "132804.527500", "132806.527500", "132808.527500", "132810.527500", "132812.527500", "132814.527500", "132816.527500", "132818.527500", "132820.527500", "132822.527500", "132824.527500", "132826.527500", "132828.527500", "132830.527500", "132832.527500", "132834.527500", "132836.527500", "132838.527500", "132840.527500", "132842.527500", "132844.527500", "132846.527500", "132848.527500", "132850.527500", "132852.527500", "132854.527500", "132856.527500", "132858.527500", "132900.527500", "132902.527500", "132904.527500", "132906.527500", "132908.527500", "132910.527500", "132912.527500", "132914.527500", "132916.527500", "132918.527500", "132920.527500", "132922.527500", "132924.527500", "132926.527500", "132928.527500", "132930.527500", "132932.527500", "132934.527500", "132936.527500", "132938.527500", "132940.527500", "132942.527500", "132944.527500", "132946.527500", "132948.527500", "132950.527500", "132952.527500", "132954.527500", "132956.527500", "132958.527500", "133000.527500", "133002.527500", "133004.527500", "133006.527500", "133008.527500", "133010.527500", "133012.527500", "133014.527500", "133016.527500", "133018.527500", "133020.527500", "133022.527500", "133024.527500", "133026.527500", "133028.527500", "133030.527500", "133032.527500", "133034.527500", "133036.527500", "133038.527500", "133040.527500", "133042.527500", "133044.527500", "133046.527500", "133048.527500", "133050.527500", "133052.527500", "133054.527500", "133056.527500", "133058.527500", "133100.527500", "133102.527500", "133104.527500", "133106.527500", "133108.527500", "133110.527500", "133112.527500", "133114.527500", "133116.527500", "133118.527500", "133120.527500", "133122.527500", "133124.527500", "133126.527500", "133128.527500", "133130.527500", "133132.527500", "133134.527500", "133136.527500", "133138.527500", "133140.527500", "133142.527500", "133144.527500", "133146.527500", "133148.527500", "133150.527500", "133152.527500", "133154.527500", "133156.527500", "133158.527500", "133200.527500", "133202.527500", "133204.527500", "133206.527500", "133208.527500", "133210.527500", "133212.527500", "133214.527500", "133216.527500", "133218.527500", "133220.527500", "133222.527500", "133224.527500", "133226.527500", "133228.527500", "133230.527500", "133232.527500", "133234.527500", "133236.527500", "133238.527500", "133240.527500", "133242.527500", "133244.527500", "133246.527500", "133248.527500", "133250.527500", "133252.527500", "133254.527500", "133256.527500", "133258.527500", "133300.527500", "133302.527500", "133304.527500", "133306.527500", "133308.527500", "133310.527500", "133312.527500", "133314.527500", "133316.527500", "133318.527500", "133320.527500", "133322.527500", "133324.527500", "133326.527500", "133328.527500", "133330.527500", "133332.527500", "133334.527500"],
      "ContentTime": ["132753.805000", "132753.809000", "132753.811000", "132753.814000", "132753.816000", "132753.819000", "132753.821000", "132753.824000", "132753.826000", "132753.829000", "132753.831000", "132753.834000", "132753.838000", "132753.841000", "132753.843000", "132753.846000", "132753.848000", "132753.851000", "132753.853000", "132753.856000", "132753.858000", "132753.861000", "132753.863000", "132753.866000", "132753.868000", "132753.871000", "132753.873000", "132753.876000", "132753.878000", "132833.800000", "132833.802000", "132833.805000", "132833.807000", "132833.810000", "132833.812000", "132833.815000", "132833.818000", "132833.820000", "132833.822000", "132833.825000", "132833.828000", "132833.830000", "132833.832000", "132833.835000", "132833.838000", "132833.840000", "132833.842000", "132833.845000", "132833.848000", "132913.800000", "132913.803000", "132913.806000", "132913.814000", "132913.817000", "132913.819000", "132913.822000", "132913.825000", "132913.827000", "132913.829000", "132913.832000", "132913.835000", "132913.837000", "132913.840000", "132913.842000", "132913.845000", "132913.847000", "132913.850000", "132913.852000", "132913.855000", "132953.800000", "132953.803000", "132953.806000", "132953.808000", "132953.811000", "132953.813000", "132953.816000", "132953.818000", "132953.821000", "132953.823000", "132953.826000", "132953.829000", "132953.831000", "132953.834000", "132953.836000", "132953.839000", "132953.841000", "132953.844000", "132953.846000", "132953.849000", "133033.800000", "133033.803000", "133033.806000", "133033.808000", "133033.811000", "133033.813000", "133033.816000", "133033.818000", "133033.821000", "133033.823000", "133033.826000", "133033.828000", "133033.831000", "133033.833000", "133033.836000", "133033.838000", "133033.841000", "133033.843000", "133033.846000", "133033.849000", "133113.800000", "133113.803000", "133113.806000", "133113.808000", "133113.811000", "133113.813000", "133113.816000", "133113.818000", "133113.821000", "133113.823000", "133113.826000", "133113.828000", "133113.831000", "133113.834000", "133113.836000", "133113.839000", "133113.841000", "133113.843000", "133113.846000", "133113.849000", "133153.800000", "133153.803000", "133153.806000", "133153.809000", "133153.811000", "133153.814000", "133153.816000", "133153.819000", "133153.821000", "133153.824000", "133153.826000", "133153.829000", "133153.831000", "133153.834000", "133153.836000", "133153.839000", "133153.841000", "133153.844000", "133153.846000", "133153.849000", "133233.800000", "133233.803000", "133233.806000", "133233.809000", "133233.811000", "133233.814000", "133233.816000", "133233.819000", "133233.821000", "133233.824000", "133233.826000", "133233.829000", "133233.831000", "133233.834000", "133233.836000", "133233.839000", "133233.842000", "133233.844000", "133233.846000", "133233.849000", "133313.799000", "133313.802000", "133313.805000", "133313.808000", "133313.810000", "133313.812000", "133313.815000", "133313.818000", "133313.820000", "133313.823000", "133313.825000", "133313.828000", "133313.830000", "133313.833000", "133313.835000", "133313.838000", "133313.840000", "133313.843000", "133313.845000", "133313.848000", "133335.746000", "133335.749000", "133335.752000", "133335.762000", "133335.764000", "133335.767000", "133335.769000", "133335.772000", "133335.775000", "133335.778000", "133335.784000"],
      "InstanceCreationTime": ["132753.805000", "132753.809000", "132753.811000", "132753.814000", "132753.816000", "132753.819000", "132753.821000", "132753.824000", "132753.826000", "132753.829000", "132753.831000", "132753.834000", "132753.838000", "132753.841000", "132753.843000", "132753.846000", "132753.848000", "132753.851000", "132753.853000", "132753.856000", "132753.858000", "132753.861000", "132753.863000", "132753.866000", "132753.868000", "132753.871000", "132753.873000", "132753.876000", "132753.878000", "132833.800000", "132833.802000", "132833.805000", "132833.807000", "132833.810000", "132833.812000", "132833.815000", "132833.818000", "132833.820000", "132833.822000", "132833.825000", "132833.828000", "132833.830000", "132833.832000", "132833.835000", "132833.838000", "132833.840000", "132833.842000", "132833.845000", "132833.848000", "132913.800000", "132913.803000", "132913.806000", "132913.814000", "132913.817000", "132913.819000", "132913.822000", "132913.825000", "132913.827000", "132913.829000", "132913.832000", "132913.835000", "132913.837000", "132913.840000", "132913.842000", "132913.845000", "132913.847000", "132913.850000", "132913.852000", "132913.855000", "132953.800000", "132953.803000", "132953.806000", "132953.808000", "132953.811000", "132953.813000", "132953.816000", "132953.818000", "132953.821000", "132953.823000", "132953.826000", "132953.829000", "132953.831000", "132953.834000", "132953.836000", "132953.839000", "132953.841000", "132953.844000", "132953.846000", "132953.849000", "133033.800000", "133033.803000", "133033.806000", "133033.808000", "133033.811000", "133033.813000", "133033.816000", "133033.818000", "133033.821000", "133033.823000", "133033.826000", "133033.828000", "133033.831000", "133033.833000", "133033.836000", "133033.838000", "133033.841000", "133033.843000", "133033.846000", "133033.849000", "133113.800000", "133113.803000", "133113.806000", "133113.808000", "133113.811000", "133113.813000", "133113.816000", "133113.818000", "133113.821000", "133113.823000", "133113.826000", "133113.828000", "133113.831000", "133113.834000", "133113.836000", "133113.839000", "133113.841000", "133113.843000", "133113.846000", "133113.849000", "133153.800000", "133153.803000", "133153.806000", "133153.809000", "133153.811000", "133153.814000", "133153.816000", "133153.819000", "133153.821000", "133153.824000", "133153.826000", "133153.829000", "133153.831000", "133153.834000", "133153.836000", "133153.839000", "133153.841000", "133153.844000", "133153.846000", "133153.849000", "133233.800000", "133233.803000", "133233.806000", "133233.809000", "133233.811000", "133233.814000", "133233.816000", "133233.819000", "133233.821000", "133233.824000", "133233.826000", "133233.829000", "133233.831000", "133233.834000", "133233.836000", "133233.839000", "133233.842000", "133233.844000", "133233.846000", "133233.849000", "133313.799000", "133313.802000", "133313.805000", "133313.808000", "133313.810000", "133313.812000", "133313.815000", "133313.818000", "133313.820000", "133313.823000", "133313.825000", "133313.828000", "133313.830000", "133313.833000", "133313.835000", "133313.838000", "133313.840000", "133313.843000", "133313.845000", "133313.848000", "133335.746000", "133335.749000", "133335.752000", "133335.762000", "133335.764000", "133335.767000", "133335.769000", "133335.772000", "133335.775000", "133335.778000", "133335.784000"],
      "InstanceNumber": [1, 2, 3, 4, 5, 6, 7, 8, 9, 10, 11, 12, 13, 14, 15, 16, 17, 18, 19, 20, 21, 22, 23, 24, 25, 26, 27, 28, 29, 30, 31, 32, 33, 34, 35, 36, 37, 38, 39, 40, 41, 42, 43, 44, 45, 46, 47, 48, 49, 50, 51, 52, 53, 54, 55, 56, 57, 58, 59, 60, 61, 62, 63, 64, 65, 66, 67, 68, 69, 70, 71, 72, 73, 74, 75, 76, 77, 78, 79, 80, 81, 82, 83, 84, 85, 86, 87, 88, 89, 90, 91, 92, 93, 94, 95, 96, 97, 98, 99, 100, 101, 102, 103, 104, 105, 106, 107, 108, 109, 110, 111, 112, 113, 114, 115, 116, 117, 118, 119, 120, 121, 122, 123, 124, 125, 126, 127, 128, 129, 130, 131, 132, 133, 134, 135, 136, 137, 138, 139, 140, 141, 142, 143, 144, 145, 146, 147, 148, 149, 150, 151, 152, 153, 154, 155, 156, 157, 158, 159, 160, 161, 162, 163, 164, 165, 166, 167, 168, 169, 170, 171, 172, 173, 174, 175, 176, 177, 178, 179, 180, 181, 182, 183, 184, 185, 186, 187, 188, 189, 190, 191, 192, 193, 194, 195, 196, 197, 198, 199, 200],
      "LargestImagePixelValue": [318, 316, 315, 316, 319, 318, 315, 317, 317, 316, 315, 315, 315, 314, 315, 314, 317, 315, 318, 320, 318, 315, 317, 317, 314, 317, 319, 318, 319, 315, 320, 314, 317, 317, 320, 316, 316, 316, 319, 316, 317, 319, 317, 315, 313, 318, 317, 314, 314, 318, 316, 318, 315, 317, 317, 315, 314, 317, 317, 316, 315, 315, 316, 315, 317, 317, 317, 316, 316, 314, 313, 319, 317, 316, 318, 318, 315, 318, 314, 317, 314, 316, 317, 318, 318, 314, 316, 318, 317, 318, 317, 315, 319, 317, 315, 318, 315, 317, 315, 315, 317, 315, 316, 316, 318, 316, 318, 317, 317, 317, 319, 315, 315, 315, 315, 315, 317, 314, 318, 318, 315, 317, 314, 317, 316, 315, 316, 317, 316, 318, 317, 315, 318, 316, 317, 313, 319, 313, 314, 316, 313, 316, 317, 317, 316, 314, 316, 314, 315, 313, 314, 315, 317, 317, 314, 318, 316, 317, 314, 314, 315, 315, 315, 315, 314, 315, 316, 316, 313, 315, 314, 316, 314, 317, 315, 314, 315, 315, 317, 315, 314, 317, 314, 314, 315, 316, 316, 312, 315, 314, 317, 311, 318, 316, 315, 314, 316, 319, 316, 318],
      "WindowCenter": [264.0, 264.0, 264.0, 264.0, 264.0, 264.0, 264.0, 264.0, 264.0, 264.0, 264.0, 264.0, 264.0, 264.0, 264.0, 264.0, 264.0, 264.0, 264.0, 264.0, 264.0, 264.0, 264.0, 264.0, 264.0, 264.0, 264.0, 264.0, 264.0, 264.0, 265.0, 264.0, 265.0, 264.0, 264.0, 264.0, 264.0, 265.0, 264.0, 264.0, 265.0, 264.0, 264.0, 264.0, 264.0, 264.0, 264.0, 264.0, 264.0, 264.0, 264.0, 265.0, 264.0, 264.0, 264.0, 264.0, 264.0, 264.0, 264.0, 264.0, 264.0, 264.0, 264.0, 264.0, 264.0, 264.0, 263.0, 264.0, 263.0, 264.0, 264.0, 264.0, 264.0, 264.0, 264.0, 263.0, 264.0, 264.0, 265.0, 264.0, 264.0, 264.0, 264.0, 264.0, 264.0, 264.0, 264.0, 264.0, 264.0, 264.0, 264.0, 264.0, 264.0, 264.0, 264.0, 264.0, 264.0, 264.0, 264.0, 264.0, 264.0, 264.0, 264.0, 264.0, 264.0, 264.0, 264.0, 264.0, 264.0, 264.0, 264.0, 264.0, 264.0, 264.0, 264.0, 264.0, 264.0, 264.0, 264.0, 264.0, 264.0, 264.0, 264.0, 264.0, 264.0, 264.0, 264.0, 264.0, 264.0, 264.0, 264.0, 264.0, 264.0, 264.0, 264.0, 264.0, 264.0, 264.0, 264.0, 264.0, 264.0, 264.0, 264.0, 264.0, 264.0, 264.0, 264.0, 264.0, 264.0, 264.0, 264.0, 264.0, 264.0, 264.0, 264.0, 264.0, 264.0, 264.0, 264.0, 263.0, 264.0, 264.0, 264.0, 264.0, 264.0, 264.0, 264.0, 264.0, 264.0, 264.0, 264.0, 263.0, 264.0, 264.0, 264.0, 264.0, 264.0, 264.0, 264.0, 264.0, 264.0, 264.0, 264.0, 264.0, 264.0, 264.0, 264.0, 264.0, 264.0, 264.0, 264.0, 264.0, 264.0, 264.0, 264.0, 264.0, 264.0, 264.0, 264.0, 264.0],
      "WindowWidth": [583.0, 583.0, 583.0, 583.0, 583.0, 583.0, 583.0, 583.0, 583.0, 582.0, 583.0, 583.0, 582.0, 582.0, 583.0, 583.0, 583.0, 583.0, 583.0, 583.0, 583.0, 583.0, 583.0, 583.0, 583.0, 583.0, 583.0, 582.0, 583.0, 583.0, 584.0, 583.0, 584.0, 583.0, 583.0, 583.0, 583.0, 584.0, 583.0, 583.0, 584.0, 583.0, 583.0, 583.0, 583.0, 583.0, 583.0, 583.0, 583.0, 583.0, 583.0, 584.0, 583.0, 583.0, 583.0, 583.0, 583.0, 582.0, 582.0, 583.0, 582.0, 582.0, 583.0, 582.0, 583.0, 583.0, 582.0, 582.0, 581.0, 582.0, 582.0, 582.0, 583.0, 582.0, 582.0, 582.0, 583.0, 583.0, 584.0, 583.0, 583.0, 583.0, 583.0, 583.0, 583.0, 583.0, 583.0, 583.0, 583.0, 583.0, 583.0, 582.0, 583.0, 583.0, 583.0, 583.0, 583.0, 582.0, 583.0, 582.0, 583.0, 583.0, 583.0, 583.0, 583.0, 583.0, 583.0, 583.0, 583.0, 583.0, 583.0, 582.0, 583.0, 583.0, 583.0, 583.0, 583.0, 583.0, 582.0, 583.0, 583.0, 582.0, 582.0, 583.0, 583.0, 583.0, 583.0, 583.0, 582.0, 582.0, 582.0, 582.0, 582.0, 583.0, 582.0, 583.0, 582.0, 582.0, 582.0, 582.0, 582.0, 583.0, 583.0, 583.0, 583.0, 582.0, 582.0, 582.0, 583.0, 582.0, 583.0, 582.0, 583.0, 583.0, 583.0, 583.0, 583.0, 583.0, 582.0, 582.0, 582.0, 583.0, 583.0, 582.0, 582.0, 582.0, 583.0, 582.0, 582.0, 582.0, 582.0, 582.0, 582.0, 582.0, 582.0, 582.0, 582.0, 582.0, 582.0, 582.0, 582.0, 582.0, 582.0, 582.0, 582.0, 582.0, 582.0, 582.0, 582.0, 582.0, 582.0, 583.0, 582.0, 583.0, 583.0, 582.0, 582.0, 582.0, 582.0, 582.0]
    },
    "slices": {}
  }
}