{
  "AcquisitionMatrixPE": 80,
  "AcquisitionNumber": 1,
  "AcquisitionTime": "13:13:20.120000",
  "BandwidthPerPixelPhaseEncode": 44.643,
  "BaseResolution": 80,
  "BodyPartExamined": "BRAIN",
  "CoilCombinationMethod": "Sum of Squares",
  "ConsistencyInfo": "N4_VE11C_LATEST_20160120",
  "ConversionSoftware": "dcm2niix",
  "ConversionSoftwareVersion": "v1.0.20220720",
  "DerivedVendorReportedEchoSpacing": 0.000559998,
  "DeviceSerialNumber": "66112",
  "DwellTime": 2.7e-06,
  "EchoTime": 0.035,
  "EchoTrainLength": 39,
  "EffectiveEchoSpacing": 0.000279999,
  "FlipAngle": 90,
  "HeudiconvVersion": "0.13.1",
  "ImageOrientationPatientDICOM": [0.981264, 0.192138, 0.0143143, -0.187186, 0.933098, 0.307065],
  "ImageOrientationText": "Tra>Cor(17.7)>Sag(-2.6)",
  "ImageType": [
    "ORIGINAL",
    "PRIMARY",
    "M",
    "ND",
    "NORM",
    "MOSAIC"
],
  "ImagingFrequency": 123.252,
  "InPlanePhaseEncodingDirectionDICOM": "COL",
  "InstitutionAddress": "Maynard 3,Hanover,NH,US,03755",
  "InstitutionName": "Dartmouth College - PBS",
  "InstitutionalDepartmentName": "Department",
  "MRAcquisitionType": "2D",
  "MagneticFieldStrength": 3,
  "Manufacturer": "Siemens",
  "ManufacturersModelName": "Prisma",
  "Modality": "MR",
  "MultibandAccelerationFactor": 4,
  "NonlinearGradientCorrection": false,
  "ParallelReductionFactorInPlane": 2,
  "PartialFourier": 1,
  "PatientPosition": "HFS",
  "PercentPhaseFOV": 100,
  "PercentSampling": 100,
  "PhaseEncodingDirection": "j-",
  "PhaseEncodingSteps": 79,
  "PhaseResolution": 1,
  "PixelBandwidth": 2315,
  "ProcedureStepDescription": "dbic^QA",
  "ProtocolName": "func-bold_task-rest_acq-p2-s4-3.5mm",
  "PulseSequenceDetails": "%SiemensSeq%\\ep2d_bold",
  "ReceiveCoilActiveElements": "HEA;HEP",
  "ReceiveCoilName": "Head_32",
  "ReconMatrixPE": 80,
  "RefLinesPE": 24,
  "RepetitionTime": 2,
  "SAR": 0.0208754,
  "ScanOptions": "FS",
  "ScanningSequence": "EP",
  "SequenceName": "*epfid2d1_80",
  "SequenceVariant": "SK",
  "SeriesDescription": "func-bold_task-rest_acq-p2-s4-3.5mm",
  "SeriesNumber": 7,
  "ShimSetting": [4147, -7694, -7507, 247, -55, -129, -47, 60],
  "SliceThickness": 3.5,
  "SliceTiming": [1.485, 0, 0.99, 0.2475, 1.2375, 0.7425, 1.7325, 0.495, 1.485, 0, 0.99, 0.2475, 1.2375, 0.7425, 1.7325, 0.495, 1.485, 0, 0.99, 0.2475, 1.2375, 0.7425, 1.7325, 0.495, 1.485, 0, 0.99, 0.2475, 1.2375, 0.7425, 1.7325, 0.495],
  "SoftwareVersions": "syngo MR E11",
  "SpacingBetweenSlices": 3.99,
  "StationName": "AWP66112",
  "TaskName": "rest",
  "TotalReadoutTime": 0.0221199,
  "TxRefAmp": 225.12,
  "dcmmeta_affine": [
    [-2.9437906742095947, -0.5615580081939697, -0.1821116954088211, 145.75680541992188],
    [-0.576413094997406, 2.799295425415039, 1.2129229307174683, -100.65282440185547],
    [0.04294290766119957, -0.9211937189102173, 3.7968082427978516, -19.881107330322266],
    [0.0, 0.0, 0.0, 1.0]
],
  "dcmmeta_reorient_transform": [
    [0.0, -1.0, 0.0, 79.0],
    [1.0, 0.0, 0.0, 0.0],
    [0.0, 0.0, 1.0, 0.0],
    [0.0, 0.0, 0.0, 1.0]
],
  "dcmmeta_shape": [80, 80, 32, 200],
  "dcmmeta_slice_dim": 2,
  "dcmmeta_version": 0.6,
  "global": {
    "const": {
      "AccessionNumber": "qa",
      "AcquisitionMatrix": [80, 0, 0, 80],
      "AngioFlag": "N",
      "BitsAllocated": 16,
      "BitsStored": 12,
      "BodyPartExamined": "BRAIN",
      "Columns": 480,
      "EchoNumbers": 1,
      "EchoTime": 35.0,
      "EchoTrainLength": 39,
      "FlipAngle": 90.0,
      "HighBit": 11,
      "ImageOrientationPatient": [0.98126357456327, 0.19213770573628, 0.01431430297685, -0.1871860102568, 0.93309846436722, 0.30706457522756],
      "ImagePositionPatient": [-577.840256949, -795.63321443344, -285.482739054],
      "ImageType": [
        "ORIGINAL",
        "PRIMARY",
        "M",
        "ND",
        "NORM",
        "MOSAIC"
],
      "ImagedNucleus": "1H",
      "ImagingFrequency": 123.252362,
      "InPlanePhaseEncodingDirection": "COL",
      "MRAcquisitionType": "2D",
      "MagneticFieldStrength": 3.0,
      "Manufacturer": "SIEMENS",
      "ManufacturerModelName": "Prisma",
      "Modality": "MR",
      "NumberOfAverages": 1.0,
      "NumberOfPhaseEncodingSteps": 79,
      "PercentPhaseFieldOfView": 100.0,
      "PercentSampling": 100.0,
      "PerformedProcedureStepStartTime": "130455.684000",
      "PhotometricInterpretation": "MONOCHROME2",
      "PixelBandwidth": 2315.0,
      "PixelRepresentation": 0,
      "PixelSpacing": [3.0, 3.0],
      "ProtocolName": "func-bold_task-rest_acq-p2-s4-3.5mm",
      "RepetitionTime": 2000.0,
      "Rows": 480,
      "SAR": 0.02087542886787,
      "SamplesPerPixel": 1,
      "ScanOptions": "FS",
      "ScanningSequence": "EP",
      "SequenceName": "*epfid2d1_80",
      "SequenceVariant": "SK",
      "SeriesDescription": "func-bold_task-rest_acq-p2-s4-3.5mm",
      "SeriesNumber": 7,
      "SeriesTime": "131333.662000",
      "SliceLocation": -56.168645483481,
      "SliceThickness": 3.5,
      "SmallestImagePixelValue": 0,
      "SoftwareVersions": "syngo MR E11",
      "SpacingBetweenSlices": 3.990000009478,
      "SpecificCharacterSet": "ISO_IR 100",
      "StudyID": "8",
      "StudyTime": "130455.654000",
      "TransmitCoilName": "Body",
      "VariableFlipAngleFlag": "N",
      "WindowCenter": 903.0,
      "WindowCenterWidthExplanation": "Algo1",
      "dBdt": 0.0},
    "slices": {}
  },
  "time": {
    "samples": {
      "AcquisitionNumber": [1, 2, 3, 4, 5, 6, 7, 8, 9, 10, 11, 12, 13, 14, 15, 16, 17, 18, 19, 20, 21, 22, 23, 24, 25, 26, 27, 28, 29, 30, 31, 32, 33, 34, 35, 36, 37, 38, 39, 40, 41, 42, 43, 44, 45, 46, 47, 48, 49, 50, 51, 52, 53, 54, 55, 56, 57, 58, 59, 60, 61, 62, 63, 64, 65, 66, 67, 68, 69, 70, 71, 72, 73, 74, 75, 76, 77, 78, 79, 80, 81, 82, 83, 84, 85, 86, 87, 88, 89, 90, 91, 92, 93, 94, 95, 96, 97, 98, 99, 100, 101, 102, 103, 104, 105, 106, 107, 108, 109, 110, 111, 112, 113, 114, 115, 116, 117, 118, 119, 120, 121, 122, 123, 124, 125, 126, 127, 128, 129, 130, 131, 132, 133, 134, 135, 136, 137, 138, 139, 140, 141, 142, 143, 144, 145, 146, 147, 148, 149, 150, 151, 152, 153, 154, 155, 156, 157, 158, 159, 160, 161, 162, 163, 164, 165, 166, 167, 168, 169, 170, 171, 172, 173, 174, 175, 176, 177, 178, 179, 180, 181, 182, 183, 184, 185, 186, 187, 188, 189, 190, 191, 192, 193, 194, 195, 196, 197, 198, 199, 200],
      "AcquisitionTime": ["131320.120000", "131322.120000", "131324.120000", "131326.120000", "131328.120000", "131330.120000", "131332.120000", "131334.120000", "131336.120000", "131338.120000", "131340.120000", "131342.120000", "131344.120000", "131346.120000", "131348.120000", "131350.120000", "131352.120000", "131354.120000", "131356.120000", "131358.120000", "131400.120000", "131402.120000", "131404.120000", "131406.120000", "131408.120000", "131410.120000", "131412.120000", "131414.120000", "131416.120000", "131418.120000", "131420.120000", "131422.120000", "131424.120000", "131426.120000", "131428.120000", "131430.120000", "131432.120000", "131434.120000", "131436.120000", "131438.120000", "131440.120000", "131442.120000", "131444.120000", "131446.120000", "131448.120000", "131450.120000", "131452.120000", "131454.120000", "131456.120000", "131458.120000", "131500.120000", "131502.120000", "131504.120000", "131506.120000", "131508.120000", "131510.120000", "131512.120000", "131514.120000", "131516.120000", "131518.120000", "131520.120000", "131522.120000", "131524.120000", "131526.120000", "131528.120000", "131530.120000", "131532.120000", "131534.120000", "131536.120000", "131538.120000", "131540.120000", "131542.120000", "131544.120000", "131546.120000", "131548.120000", "131550.120000", "131552.120000", "131554.120000", "131556.120000", "131558.120000", "131600.120000", "131602.120000", "131604.120000", "131606.120000", "131608.120000", "131610.120000", "131612.120000", "131614.120000", "131616.120000", "131618.120000", "131620.120000", "131622.120000", "131624.120000", "131626.120000", "131628.120000", "131630.120000", "131632.120000", "131634.120000", "131636.120000", "131638.120000", "131640.120000", "131642.120000", "131644.120000", "131646.120000", "131648.120000", "131650.120000", "131652.120000", "131654.120000", "131656.120000", "131658.120000", "131700.120000", "131702.120000", "131704.120000", "131706.120000", "131708.120000", "131710.120000", "131712.120000", "131714.120000", "131716.120000", "131718.120000", "131720.120000", "131722.120000", "131724.120000", "131726.120000", "131728.120000", "131730.120000", "131732.120000", "131734.120000", "131736.120000", "131738.120000", "131740.120000", "131742.120000", "131744.120000", "131746.120000", "131748.120000", "131750.120000", "131752.120000", "131754.120000", "131756.120000", "131758.120000", "131800.120000", "131802.120000", "131804.120000", "131806.120000", "131808.120000", "131810.120000", "131812.120000", "131814.120000", "131816.120000", "131818.120000", "131820.120000", "131822.120000", "131824.120000", "131826.120000", "131828.120000", "131830.120000", "131832.120000", "131834.120000", "131836.120000", "131838.120000", "131840.120000", "131842.120000", "131844.120000", "131846.120000", "131848.120000", "131850.120000", "131852.120000", "131854.120000", "131856.120000", "131858.120000", "131900.120000", "131902.120000", "131904.120000", "131906.120000", "131908.120000", "131910.120000", "131912.120000", "131914.120000", "131916.120000", "131918.120000", "131920.120000", "131922.120000", "131924.120000", "131926.120000", "131928.120000", "131930.120000", "131932.120000", "131934.120000", "131936.120000", "131938.120000", "131940.120000", "131942.120000", "131944.120000", "131946.120000", "131948.120000", "131950.120000", "131952.120000", "131954.120000", "131956.120000", "131958.120000"],
      "ContentTime": ["131333.666000", "131333.669000", "131333.672000", "131333.675000", "131333.677000", "131333.680000", "131333.682000", "131413.660000", "131413.663000", "131413.666000", "131413.669000", "131413.671000", "131413.674000", "131413.676000", "131413.679000", "131413.681000", "131413.684000", "131413.687000", "131413.689000", "131413.692000", "131413.694000", "131413.697000", "131413.699000", "131413.708000", "131413.711000", "131413.713000", "131413.716000", "131453.659000", "131453.662000", "131453.671000", "131453.674000", "131453.676000", "131453.679000", "131453.681000", "131453.684000", "131453.686000", "131453.689000", "131453.692000", "131453.694000", "131453.697000", "131453.699000", "131453.720000", "131453.723000", "131453.725000", "131453.728000", "131453.731000", "131453.733000", "131533.660000", "131533.663000", "131533.666000", "131533.669000", "131533.671000", "131533.678000", "131533.681000", "131533.683000", "131533.686000", "131533.688000", "131533.691000", "131533.694000", "131533.696000", "131533.699000", "131533.709000", "131533.712000", "131533.714000", "131533.717000", "131533.719000", "131533.722000", "131613.660000", "131613.663000", "131613.666000", "131613.669000", "131613.671000", "131613.674000", "131613.676000", "131613.679000", "131613.681000", "131613.684000", "131613.687000", "131613.689000", "131613.692000", "131613.694000", "131613.697000", "131613.699000", "131613.702000", "131613.705000", "131613.707000", "131613.710000", "131653.661000", "131653.663000", "131653.666000", "131653.669000", "131653.671000", "131653.674000", "131653.676000", "131653.679000", "131653.681000", "131653.684000", "131653.687000", "131653.689000", "131653.692000", "131653.694000", "131653.697000", "131653.699000", "131653.702000", "131653.704000", "131653.707000", "131653.710000", "131733.660000", "131733.663000", "131733.666000", "131733.669000", "131733.671000", "131733.674000", "131733.676000", "131733.679000", "131733.681000", "131733.684000", "131733.686000", "131733.689000", "131733.691000", "131733.694000", "131733.697000", "131733.699000", "131733.702000", "131733.704000", "131733.707000", "131733.709000", "131813.660000", "131813.663000", "131813.666000", "131813.669000", "131813.671000", "131813.674000", "131813.676000", "131813.679000", "131813.681000", "131813.684000", "131813.687000", "131813.689000", "131813.692000", "131813.694000", "131813.697000", "131813.699000", "131813.702000", "131813.704000", "131813.707000", "131813.710000", "131853.661000", "131853.663000", "131853.666000", "131853.669000", "131853.671000", "131853.674000", "131853.677000", "131853.679000", "131853.682000", "131853.684000", "131853.687000", "131853.689000", "131853.692000", "131853.694000", "131853.697000", "131853.700000", "131853.702000", "131853.705000", "131853.707000", "131853.710000", "131933.659000", "131933.662000", "131933.665000", "131933.668000", "131933.670000", "131933.673000", "131933.675000", "131933.678000", "131933.680000", "131933.683000", "131933.686000", "131933.688000", "131933.694000", "131933.696000", "131933.699000", "131933.701000", "131933.704000", "131933.706000", "131933.709000", "131933.712000", "131959.053000", "131959.056000", "131959.059000", "131959.061000", "131959.064000", "131959.067000", "131959.069000", "131959.072000", "131959.074000", "131959.077000", "131959.079000", "131959.082000", "131959.088000"],
      "InstanceCreationTime": ["131333.666000", "131333.669000", "131333.672000", "131333.675000", "131333.677000", "131333.680000", "131333.682000", "131413.660000", "131413.663000", "131413.666000", "131413.669000", "131413.671000", "131413.674000", "131413.676000", "131413.679000", "131413.681000", "131413.684000", "131413.687000", "131413.689000", "131413.692000", "131413.694000", "131413.697000", "131413.699000", "131413.708000", "131413.711000", "131413.713000", "131413.716000", "131453.659000", "131453.662000", "131453.671000", "131453.674000", "131453.676000", "131453.679000", "131453.681000", "131453.684000", "131453.686000", "131453.689000", "131453.692000", "131453.694000", "131453.697000", "131453.699000", "131453.720000", "131453.723000", "131453.725000", "131453.728000", "131453.731000", "131453.733000", "131533.660000", "131533.663000", "131533.666000", "131533.669000", "131533.671000", "131533.678000", "131533.681000", "131533.683000", "131533.686000", "131533.688000", "131533.691000", "131533.694000", "131533.696000", "131533.699000", "131533.709000", "131533.712000", "131533.714000", "131533.717000", "131533.719000", "131533.722000", "131613.660000", "131613.663000", "131613.666000", "131613.669000", "131613.671000", "131613.674000", "131613.676000", "131613.679000", "131613.681000", "131613.684000", "131613.687000", "131613.689000", "131613.692000", "131613.694000", "131613.697000", "131613.699000", "131613.702000", "131613.705000", "131613.707000", "131613.710000", "131653.661000", "131653.663000", "131653.666000", "131653.669000", "131653.671000", "131653.674000", "131653.676000", "131653.679000", "131653.681000", "131653.684000", "131653.687000", "131653.689000", "131653.692000", "131653.694000", "131653.697000", "131653.699000", "131653.702000", "131653.704000", "131653.707000", "131653.710000", "131733.660000", "131733.663000", "131733.666000", "131733.669000", "131733.671000", "131733.674000", "131733.676000", "131733.679000", "131733.681000", "131733.684000", "131733.686000", "131733.689000", "131733.691000", "131733.694000", "131733.697000", "131733.699000", "131733.702000", "131733.704000", "131733.707000", "131733.709000", "131813.660000", "131813.663000", "131813.666000", "131813.669000", "131813.671000", "131813.674000", "131813.676000", "131813.679000", "131813.681000", "131813.684000", "131813.687000", "131813.689000", "131813.692000", "131813.694000", "131813.697000", "131813.699000", "131813.702000", "131813.704000", "131813.707000", "131813.710000", "131853.661000", "131853.663000", "131853.666000", "131853.669000", "131853.671000", "131853.674000", "131853.677000", "131853.679000", "131853.682000", "131853.684000", "131853.687000", "131853.689000", "131853.692000", "131853.694000", "131853.697000", "131853.700000", "131853.702000", "131853.705000", "131853.707000", "131853.710000", "131933.659000", "131933.662000", "131933.665000", "131933.668000", "131933.670000", "131933.673000", "131933.675000", "131933.678000", "131933.680000", "131933.683000", "131933.686000", "131933.688000", "131933.694000", "131933.696000", "131933.699000", "131933.701000", "131933.704000", "131933.706000", "131933.709000", "131933.712000", "131959.053000", "131959.056000", "131959.059000", "131959.061000", "131959.064000", "131959.067000", "131959.069000", "131959.072000", "131959.074000", "131959.077000", "131959.079000", "131959.082000", "131959.088000"],
      "InstanceNumber": [1, 2, 3, 4, 5, 6, 7, 8, 9, 10, 11, 12, 13, 14, 15, 16, 17, 18, 19, 20, 21, 22, 23, 24, 25, 26, 27, 28, 29, 30, 31, 32, 33, 34, 35, 36, 37, 38, 39, 40, 41, 42, 43, 44, 45, 46, 47, 48, 49, 50, 51, 52, 53, 54, 55, 56, 57, 58, 59, 60, 61, 62, 63, 64, 65, 66, 67, 68, 69, 70, 71, 72, 73, 74, 75, 76, 77, 78, 79, 80, 81, 82, 83, 84, 85, 86, 87, 88, 89, 90, 91, 92, 93, 94, 95, 96, 97, 98, 99, 100, 101, 102, 103, 104, 105, 106, 107, 108, 109, 110, 111, 112, 113, 114, 115, 116, 117, 118, 119, 120, 121, 122, 123, 124, 125, 126, 127, 128, 129, 130, 131, 132, 133, 134, 135, 136, 137, 138, 139, 140, 141, 142, 143, 144, 145, 146, 147, 148, 149, 150, 151, 152, 153, 154, 155, 156, 157, 158, 159, 160, 161, 162, 163, 164, 165, 166, 167, 168, 169, 170, 171, 172, 173, 174, 175, 176, 177, 178, 179, 180, 181, 182, 183, 184, 185, 186, 187, 188, 189, 190, 191, 192, 193, 194, 195, 196, 197, 198, 199, 200],
      "LargestImagePixelValue": [1909, 1911, 1912, 1903, 1904, 1905, 1909, 1907, 1904, 1905, 1905, 1899, 1903, 1907, 1905, 1903, 1907, 1910, 1907, 1904, 1901, 1908, 1903, 1901, 1909, 1902, 1905, 1907, 1907, 1908, 1907, 1908, 1906, 1904, 1910, 1907, 1906, 1907, 1912, 1901, 1906, 1905, 1906, 1908, 1904, 1907, 1908, 1899, 1906, 1907, 1904, 1907, 1909, 1910, 1908, 1902, 1901, 1908, 1907, 1902, 1906, 1905, 1902, 1907, 1908, 1904, 1904, 1912, 1905, 1907, 1903, 1905, 1912, 1904, 1908, 1906, 1910, 1905, 1911, 1908, 1908, 1908, 1906, 1905, 1906, 1906, 1907, 1911, 1905, 1907, 1906, 1907, 1906, 1907, 1909, 1904, 1900, 1902, 1905, 1908, 1904, 1910, 1908, 1904, 1908, 1906, 1906, 1909, 1907, 1903, 1904, 1908, 1908, 1907, 1908, 1906, 1909, 1905, 1909, 1906, 1914, 1908, 1910, 1903, 1908, 1907, 1911, 1909, 1908, 1905, 1904, 1906, 1908, 1906, 1903, 1912, 1908, 1907, 1910, 1906, 1909, 1904, 1909, 1905, 1909, 1907, 1906, 1906, 1905, 1907, 1908, 1907, 1906, 1912, 1911, 1908, 1906, 1907, 1906, 1904, 1913, 1913, 1905, 1909, 1908, 1910, 1911, 1909, 1908, 1905, 1906, 1910, 1908, 1908, 1908, 1909, 1908, 1907, 1908, 1909, 1914, 1909, 1909, 1913, 1907, 1906, 1910, 1911, 1908, 1907, 1907, 1905, 1910, 1906, 1902, 1914, 1907, 1907, 1906, 1910],
      "WindowWidth": [2037.0, 2037.0, 2037.0, 2037.0, 2037.0, 2037.0, 2037.0, 2038.0, 2038.0, 2038.0, 2038.0, 2037.0, 2037.0, 2037.0, 2037.0, 2037.0, 2037.0, 2038.0, 2037.0, 2037.0, 2038.0, 2038.0, 2037.0, 2038.0, 2038.0, 2038.0, 2038.0, 2037.0, 2037.0, 2037.0, 2038.0, 2037.0, 2037.0, 2037.0, 2037.0, 2038.0, 2037.0, 2037.0, 2038.0, 2037.0, 2038.0, 2038.0, 2038.0, 2037.0, 2037.0, 2037.0, 2038.0, 2038.0, 2038.0, 2037.0, 2038.0, 2037.0, 2037.0, 2037.0, 2037.0, 2036.0, 2036.0, 2036.0, 2036.0, 2036.0, 2036.0, 2036.0, 2036.0, 2036.0, 2036.0, 2036.0, 2036.0, 2036.0, 2036.0, 2036.0, 2036.0, 2036.0, 2036.0, 2036.0, 2036.0, 2036.0, 2036.0, 2036.0, 2037.0, 2036.0, 2036.0, 2036.0, 2036.0, 2036.0, 2036.0, 2036.0, 2036.0, 2036.0, 2036.0, 2036.0, 2036.0, 2036.0, 2036.0, 2036.0, 2035.0, 2036.0, 2036.0, 2036.0, 2036.0, 2036.0, 2036.0, 2036.0, 2036.0, 2036.0, 2036.0, 2036.0, 2036.0, 2036.0, 2036.0, 2036.0, 2036.0, 2037.0, 2038.0, 2038.0, 2038.0, 2038.0, 2038.0, 2038.0, 2038.0, 2038.0, 2038.0, 2038.0, 2038.0, 2038.0, 2038.0, 2038.0, 2038.0, 2038.0, 2038.0, 2038.0, 2038.0, 2038.0, 2038.0, 2038.0, 2038.0, 2038.0, 2038.0, 2038.0, 2038.0, 2038.0, 2038.0, 2039.0, 2038.0, 2038.0, 2038.0, 2038.0, 2038.0, 2038.0, 2038.0, 2038.0, 2038.0, 2038.0, 2038.0, 2038.0, 2038.0, 2038.0, 2038.0, 2038.0, 2038.0, 2038.0, 2038.0, 2038.0, 2038.0, 2038.0, 2038.0, 2038.0, 2038.0, 2038.0, 2038.0, 2037.0, 2038.0, 2038.0, 2038.0, 2038.0, 2038.0, 2038.0, 2038.0, 2038.0, 2038.0, 2038.0, 2038.0, 2038.0, 2038.0, 2038.0, 2038.0, 2037.0, 2038.0, 2038.0, 2038.0, 2038.0, 2038.0, 2038.0, 2038.0, 2038.0, 2038.0, 2038.0, 2038.0, 2038.0, 2038.0, 2038.0]
    },
    "slices": {}
  }
}