{
  "AcquisitionMatrixPE": 80,
  "AcquisitionNumber": 1,
  "AcquisitionTime": "09:22:7.997500",
  "BandwidthPerPixelPhaseEncode": 48.077,
  "BaseResolution": 80,
  "BodyPartExamined": "BRAIN",
  "CoilCombinationMethod": "Sum of Squares",
  "ConsistencyInfo": "N4_VE11E_LATEST_20181129",
  "ConversionSoftware": "dcm2niix",
  "ConversionSoftwareVersion": "v1.0.20220720",
  "DerivedVendorReportedEchoSpacing": 0.000519999,
  "DeviceSerialNumber": "66112",
  "DwellTime": 2.7e-06,
  "EchoTime": 0.035,
  "EchoTrainLength": 39,
  "EffectiveEchoSpacing": 0.00026,
  "FlipAngle": 90,
  "HeudiconvVersion": "0.13.1",
  "ImageOrientationPatientDICOM": [0.990703, 0.135865, 0.0069956, -0.131484, 0.943021, 0.305651],
  "ImageOrientationText": "Tra>Cor(17.7)>Sag(-2.0)",
  "ImageType": [
    "ORIGINAL",
    "PRIMARY",
    "M",
    "ND",
    "NORM",
    "MOSAIC"
],
  "ImagingFrequency": 123.259,
  "InPlanePhaseEncodingDirectionDICOM": "COL",
  "InstitutionAddress": "Maynard 3,Hanover,NH,US,03755",
  "InstitutionName": "Dartmouth College - PBS",
  "InstitutionalDepartmentName": "Department",
  "MRAcquisitionType": "2D",
  "MagneticFieldStrength": 3,
  "Manufacturer": "Siemens",
  "ManufacturersModelName": "Prisma",
  "MatrixCoilMode": "GRAPPA",
  "Modality": "MR",
  "NonlinearGradientCorrection": false,
  "ParallelReductionFactorInPlane": 2,
  "PartialFourier": 1,
  "PatientPosition": "HFS",
  "PercentPhaseFOV": 100,
  "PercentSampling": 100,
  "PhaseEncodingDirection": "j-",
  "PhaseEncodingSteps": 79,
  "PhaseResolution": 1,
  "PixelBandwidth": 2315,
  "ProcedureStepDescription": "dbic^QA",
  "ProtocolName": "func-bold_task-rest_acq-p2",
  "PulseSequenceDetails": "%SiemensSeq%\\ep2d_bold",
  "ReceiveCoilActiveElements": "HEA;HEP",
  "ReceiveCoilName": "Head_32",
  "ReconMatrixPE": 80,
  "RefLinesPE": 24,
  "RepetitionTime": 2,
  "SAR": 0.0811418,
  "ScanOptions": "FS",
  "ScanningSequence": "EP",
  "SequenceName": "*epfid2d1_80",
  "SequenceVariant": "SK",
  "SeriesDescription": "func-bold_task-rest_acq-p2",
  "SeriesNumber": 5,
  "ShimSetting": [4224, -7731, -7477, -20, -130, -45, -34, 60],
  "SliceThickness": 3.5,
  "SliceTiming": [0.99, 0, 1.0575, 0.0675, 1.1225, 0.1325, 1.19, 0.2, 1.255, 0.265, 1.32, 0.33, 1.3875, 0.3975, 1.4525, 0.4625, 1.52, 0.53, 1.585, 0.595, 1.65, 0.66, 1.7175, 0.7275, 1.7825, 0.7925, 1.85, 0.86, 1.915, 0.925],
  "SoftwareVersions": "syngo MR E11",
  "SpacingBetweenSlices": 3.99,
  "StationName": "AWP66112",
  "TaskName": "rest",
  "TotalReadoutTime": 0.02054,
  "TxRefAmp": 224.972,
  "dcmmeta_affine": [
    [-2.9721081256866455, -0.3944522440433502, -0.13937143981456757, 137.36546325683594],
    [-0.40759438276290894, 2.82906436920166, 1.2118784189224243, -117.16332244873047],
    [0.020986806601285934, -0.9169525504112244, 3.798950672149658, -17.96881866455078],
    [0.0, 0.0, 0.0, 1.0]
],
  "dcmmeta_reorient_transform": [
    [0.0, -1.0, 0.0, 79.0],
    [1.0, 0.0, 0.0, 0.0],
    [0.0, 0.0, 1.0, 0.0],
    [0.0, 0.0, 0.0, 1.0]
],
  "dcmmeta_shape": [80, 80, 30, 200],
  "dcmmeta_slice_dim": 2,
  "dcmmeta_version": 0.6,
  "global": {
    "const": {
      "AccessionNumber": "qa",
      "AcquisitionMatrix": [80, 0, 0, 80],
      "AngioFlag": "N",
      "BitsAllocated": 16,
      "BitsStored": 12,
      "BodyPartExamined": "BRAIN",
      "Columns": 480,
      "EchoNumbers": 1,
      "EchoTime": 35.0,
      "EchoTrainLength": 39,
      "FlipAngle": 90.0,
      "HighBit": 11,
      "ImageOrientationPatient": [0.99070268981595, 0.13586479288481, 0.00699560189016, -0.1314840767829, 0.94302147119, 0.30565085052586],
      "ImagePositionPatient": [-621.73490504588, -753.66452325032, -277.99594103983],
      "ImageType": [
        "ORIGINAL",
        "PRIMARY",
        "M",
        "ND",
        "NORM",
        "MOSAIC"
],
      "ImagedNucleus": "1H",
      "ImagingFrequency": 123.259434,
      "InPlanePhaseEncodingDirection": "COL",
      "MRAcquisitionType": "2D",
      "MagneticFieldStrength": 3.0,
      "Manufacturer": "SIEMENS",
      "ManufacturerModelName": "Prisma",
      "Modality": "MR",
      "NumberOfAverages": 1.0,
      "NumberOfPhaseEncodingSteps": 79,
      "PercentPhaseFieldOfView": 100.0,
      "PercentSampling": 100.0,
      "PerformedProcedureStepStartTime": "091944.924000",
      "PhotometricInterpretation": "MONOCHROME2",
      "PixelBandwidth": 2315.0,
      "PixelRepresentation": 0,
      "PixelSpacing": [3.0, 3.0],
      "ProtocolName": "func-bold_task-rest_acq-p2",
      "RepetitionTime": 2000.0,
      "Rows": 480,
      "SAR": 0.08114177946307,
      "SamplesPerPixel": 1,
      "ScanOptions": "FS",
      "ScanningSequence": "EP",
      "SequenceName": "*epfid2d1_80",
      "SequenceVariant": "SK",
      "SeriesDescription": "func-bold_task-rest_acq-p2",
      "SeriesNumber": 5,
      "SeriesTime": "092247.570000",
      "SliceLocation": -57.49252672188,
      "SliceThickness": 3.5,
      "SmallestImagePixelValue": 0,
      "SoftwareVersions": "syngo MR E11",
      "SpacingBetweenSlices": 3.9900000341591,
      "SpecificCharacterSet": "ISO_IR 100",
      "StudyID": "12",
      "StudyTime": "091944.865000",
      "TransmitCoilName": "Body",
      "VariableFlipAngleFlag": "N",
      "WindowCenterWidthExplanation": "Algo1"
    },
    "slices": {}
  },
  "time": {
    "samples": {
      "AcquisitionNumber": [1, 2, 3, 4, 5, 6, 7, 8, 9, 10, 11, 12, 13, 14, 15, 16, 17, 18, 19, 20, 21, 22, 23, 24, 25, 26, 27, 28, 29, 30, 31, 32, 33, 34, 35, 36, 37, 38, 39, 40, 41, 42, 43, 44, 45, 46, 47, 48, 49, 50, 51, 52, 53, 54, 55, 56, 57, 58, 59, 60, 61, 62, 63, 64, 65, 66, 67, 68, 69, 70, 71, 72, 73, 74, 75, 76, 77, 78, 79, 80, 81, 82, 83, 84, 85, 86, 87, 88, 89, 90, 91, 92, 93, 94, 95, 96, 97, 98, 99, 100, 101, 102, 103, 104, 105, 106, 107, 108, 109, 110, 111, 112, 113, 114, 115, 116, 117, 118, 119, 120, 121, 122, 123, 124, 125, 126, 127, 128, 129, 130, 131, 132, 133, 134, 135, 136, 137, 138, 139, 140, 141, 142, 143, 144, 145, 146, 147, 148, 149, 150, 151, 152, 153, 154, 155, 156, 157, 158, 159, 160, 161, 162, 163, 164, 165, 166, 167, 168, 169, 170, 171, 172, 173, 174, 175, 176, 177, 178, 179, 180, 181, 182, 183, 184, 185, 186, 187, 188, 189, 190, 191, 192, 193, 194, 195, 196, 197, 198, 199, 200],
      "AcquisitionTime": ["092207.997500", "092209.997500", "092211.997500", "092213.997500", "092215.997500", "092217.997500", "092219.997500", "092221.997500", "092223.997500", "092225.997500", "092227.997500", "092229.997500", "092231.997500", "092233.997500", "092235.997500", "092237.997500", "092239.997500", "092241.997500", "092243.997500", "092245.997500", "092247.997500", "092249.997500", "092251.997500", "092253.997500", "092255.997500", "092257.997500", "092259.997500", "092301.997500", "092303.997500", "092305.997500", "092307.997500", "092309.997500", "092311.997500", "092313.997500", "092315.997500", "092317.997500", "092319.997500", "092321.997500", "092323.997500", "092325.997500", "092327.997500", "092329.997500", "092331.997500", "092333.997500", "092335.997500", "092337.997500", "092339.997500", "092341.997500", "092343.997500", "092345.997500", "092347.997500", "092349.997500", "092351.997500", "092353.997500", "092355.997500", "092357.997500", "092359.997500", "092401.997500", "092403.997500", "092405.997500", "092407.997500", "092409.997500", "092411.997500", "092413.997500", "092415.997500", "092417.997500", "092419.997500", "092421.997500", "092423.997500", "092425.997500", "092427.997500", "092429.997500", "092431.997500", "092433.997500", "092435.997500", "092437.997500", "092439.997500", "092441.997500", "092443.997500", "092445.997500", "092447.997500", "092449.997500", "092451.997500", "092453.997500", "092455.997500", "092457.997500", "092459.997500", "092501.997500", "092503.997500", "092505.997500", "092507.997500", "092509.997500", "092511.997500", "092513.997500", "092515.997500", "092517.997500", "092519.997500", "092521.997500", "092523.997500", "092525.997500", "092527.997500", "092529.997500", "092531.997500", "092533.997500", "092535.997500", "092537.997500", "092539.997500", "092541.997500", "092543.997500", "092545.997500", "092547.997500", "092549.997500", "092551.997500", "092553.997500", "092555.997500", "092557.997500", "092559.997500", "092601.997500", "092603.997500", "092605.997500", "092607.997500", "092609.997500", "092611.997500", "092613.997500", "092615.997500", "092617.997500", "092619.997500", "092621.997500", "092623.997500", "092625.997500", "092627.997500", "092629.997500", "092631.997500", "092633.997500", "092635.997500", "092637.997500", "092639.997500", "092641.997500", "092643.997500", "092645.997500", "092647.997500", "092649.997500", "092651.997500", "092653.997500", "092655.997500", "092657.997500", "092659.997500", "092701.997500", "092703.997500", "092705.997500", "092707.997500", "092709.997500", "092711.997500", "092713.997500", "092715.997500", "092717.997500", "092719.997500", "092721.997500", "092723.997500", "092725.997500", "092727.997500", "092729.997500", "092731.997500", "092733.997500", "092735.997500", "092737.997500", "092739.997500", "092741.997500", "092743.997500", "092745.997500", "092747.997500", "092749.997500", "092751.997500", "092753.997500", "092755.997500", "092757.997500", "092759.997500", "092801.997500", "092803.997500", "092805.997500", "092807.997500", "092809.997500", "092811.997500", "092813.997500", "092815.997500", "092817.997500", "092819.997500", "092821.997500", "092823.997500", "092825.997500", "092827.997500", "092829.997500", "092831.997500", "092833.997500", "092835.997500", "092837.997500", "092839.997500", "092841.997500", "092843.997500", "092845.997500"],
      "ContentTime": ["092247.573000", "092247.577000", "092247.579000", "092247.588000", "092247.590000", "092247.594000", "092247.596000", "092247.599000", "092247.601000", "092247.603000", "092247.606000", "092247.608000", "092247.611000", "092247.613000", "092247.616000", "092247.618000", "092247.620000", "092247.623000", "092247.625000", "092247.628000", "092327.570000", "092327.572000", "092327.575000", "092327.577000", "092327.580000", "092327.582000", "092327.585000", "092327.587000", "092327.589000", "092327.592000", "092327.594000", "092327.596000", "092327.599000", "092327.601000", "092327.604000", "092327.606000", "092327.608000", "092327.611000", "092327.613000", "092327.615000", "092407.569000", "092407.572000", "092407.574000", "092407.576000", "092407.584000", "092407.586000", "092407.588000", "092407.591000", "092407.593000", "092407.595000", "092407.598000", "092407.600000", "092407.602000", "092407.605000", "092407.607000", "092407.610000", "092407.612000", "092407.614000", "092407.617000", "092407.619000", "092447.569000", "092447.572000", "092447.574000", "092447.576000", "092447.579000", "092447.581000", "092447.583000", "092447.585000", "092447.588000", "092447.590000", "092447.592000", "092447.594000", "092447.597000", "092447.599000", "092447.601000", "092447.604000", "092447.606000", "092447.608000", "092447.611000", "092447.613000", "092527.569000", "092527.580000", "092527.582000", "092527.584000", "092527.586000", "092527.589000", "092527.591000", "092527.594000", "092527.596000", "092527.598000", "092527.601000", "092527.603000", "092527.605000", "092527.607000", "092527.610000", "092527.612000", "092527.614000", "092527.617000", "092527.619000", "092527.621000", "092607.569000", "092607.572000", "092607.574000", "092607.576000", "092607.579000", "092607.581000", "092607.583000", "092607.585000", "092607.588000", "092607.590000", "092607.592000", "092607.594000", "092607.597000", "092607.599000", "092607.601000", "092607.604000", "092607.606000", "092607.608000", "092607.610000", "092607.613000", "092647.569000", "092647.572000", "092647.574000", "092647.576000", "092647.579000", "092647.581000", "092647.583000", "092647.596000", "092647.598000", "092647.601000", "092647.603000", "092647.605000", "092647.608000", "092647.610000", "092647.612000", "092647.614000", "092647.617000", "092647.619000", "092647.621000", "092647.623000", "092727.568000", "092727.571000", "092727.573000", "092727.576000", "092727.578000", "092727.580000", "092727.582000", "092727.585000", "092727.587000", "092727.589000", "092727.592000", "092727.594000", "092727.596000", "092727.599000", "092727.601000", "092727.603000", "092727.606000", "092727.608000", "092727.611000", "092727.613000", "092747.569000", "092747.572000", "092747.574000", "092747.576000", "092747.578000", "092747.581000", "092747.583000", "092747.585000", "092747.587000", "092747.590000", "092827.569000", "092827.572000", "092827.574000", "092827.577000", "092827.579000", "092827.581000", "092827.584000", "092827.586000", "092827.588000", "092827.591000", "092827.593000", "092827.595000", "092827.598000", "092827.600000", "092827.602000", "092827.605000", "092827.607000", "092827.609000", "092827.612000", "092827.614000", "092847.480000", "092847.483000", "092847.486000", "092847.488000", "092847.491000", "092847.498000", "092847.501000", "092847.503000", "092847.505000", "092847.508000"],
      "InstanceCreationTime": ["092247.573000", "092247.577000", "092247.579000", "092247.588000", "092247.590000", "092247.594000", "092247.596000", "092247.599000", "092247.601000", "092247.603000", "092247.606000", "092247.608000", "092247.611000", "092247.613000", "092247.616000", "092247.618000", "092247.620000", "092247.623000", "092247.625000", "092247.628000", "092327.570000", "092327.572000", "092327.575000", "092327.577000", "092327.580000", "092327.582000", "092327.585000", "092327.587000", "092327.589000", "092327.592000", "092327.594000", "092327.596000", "092327.599000", "092327.601000", "092327.604000", "092327.606000", "092327.608000", "092327.611000", "092327.613000", "092327.615000", "092407.569000", "092407.572000", "092407.574000", "092407.576000", "092407.584000", "092407.586000", "092407.588000", "092407.591000", "092407.593000", "092407.595000", "092407.598000", "092407.600000", "092407.602000", "092407.605000", "092407.607000", "092407.610000", "092407.612000", "092407.614000", "092407.617000", "092407.619000", "092447.569000", "092447.572000", "092447.574000", "092447.576000", "092447.579000", "092447.581000", "092447.583000", "092447.585000", "092447.588000", "092447.590000", "092447.592000", "092447.594000", "092447.597000", "092447.599000", "092447.601000", "092447.604000", "092447.606000", "092447.608000", "092447.611000", "092447.613000", "092527.569000", "092527.580000", "092527.582000", "092527.584000", "092527.586000", "092527.589000", "092527.591000", "092527.594000", "092527.596000", "092527.598000", "092527.601000", "092527.603000", "092527.605000", "092527.607000", "092527.610000", "092527.612000", "092527.614000", "092527.617000", "092527.619000", "092527.621000", "092607.569000", "092607.572000", "092607.574000", "092607.576000", "092607.579000", "092607.581000", "092607.583000", "092607.585000", "092607.588000", "092607.590000", "092607.592000", "092607.594000", "092607.597000", "092607.599000", "092607.601000", "092607.604000", "092607.606000", "092607.608000", "092607.610000", "092607.613000", "092647.569000", "092647.572000", "092647.574000", "092647.576000", "092647.579000", "092647.581000", "092647.583000", "092647.596000", "092647.598000", "092647.601000", "092647.603000", "092647.605000", "092647.608000", "092647.610000", "092647.612000", "092647.614000", "092647.617000", "092647.619000", "092647.621000", "092647.623000", "092727.568000", "092727.571000", "092727.573000", "092727.576000", "092727.578000", "092727.580000", "092727.582000", "092727.585000", "092727.587000", "092727.589000", "092727.592000", "092727.594000", "092727.596000", "092727.599000", "092727.601000", "092727.603000", "092727.606000", "092727.608000", "092727.611000", "092727.613000", "092747.569000", "092747.572000", "092747.574000", "092747.576000", "092747.578000", "092747.581000", "092747.583000", "092747.585000", "092747.587000", "092747.590000", "092827.569000", "092827.572000", "092827.574000", "092827.577000", "092827.579000", "092827.581000", "092827.584000", "092827.586000", "092827.588000", "092827.591000", "092827.593000", "092827.595000", "092827.598000", "092827.600000", "092827.602000", "092827.605000", "092827.607000", "092827.609000", "092827.612000", "092827.614000", "092847.480000", "092847.483000", "092847.486000", "092847.488000", "092847.491000", "092847.498000", "092847.501000", "092847.503000", "092847.505000", "092847.508000"],
      "InstanceNumber": [1, 2, 3, 4, 5, 6, 7, 8, 9, 10, 11, 12, 13, 14, 15, 16, 17, 18, 19, 20, 21, 22, 23, 24, 25, 26, 27, 28, 29, 30, 31, 32, 33, 34, 35, 36, 37, 38, 39, 40, 41, 42, 43, 44, 45, 46, 47, 48, 49, 50, 51, 52, 53, 54, 55, 56, 57, 58, 59, 60, 61, 62, 63, 64, 65, 66, 67, 68, 69, 70, 71, 72, 73, 74, 75, 76, 77, 78, 79, 80, 81, 82, 83, 84, 85, 86, 87, 88, 89, 90, 91, 92, 93, 94, 95, 96, 97, 98, 99, 100, 101, 102, 103, 104, 105, 106, 107, 108, 109, 110, 111, 112, 113, 114, 115, 116, 117, 118, 119, 120, 121, 122, 123, 124, 125, 126, 127, 128, 129, 130, 131, 132, 133, 134, 135, 136, 137, 138, 139, 140, 141, 142, 143, 144, 145, 146, 147, 148, 149, 150, 151, 152, 153, 154, 155, 156, 157, 158, 159, 160, 161, 162, 163, 164, 165, 166, 167, 168, 169, 170, 171, 172, 173, 174, 175, 176, 177, 178, 179, 180, 181, 182, 183, 184, 185, 186, 187, 188, 189, 190, 191, 192, 193, 194, 195, 196, 197, 198, 199, 200],
      "LargestImagePixelValue": [2130, 2131, 2126, 2124, 2133, 2137, 2136, 2133, 2132, 2129, 2125, 2126, 2136, 2124, 2129, 2128, 2130, 2127, 2132, 2136, 2127, 2125, 2123, 2133, 2132, 2121, 2134, 2128, 2134, 2130, 2126, 2125, 2118, 2134, 2137, 2121, 2134, 2130, 2130, 2125, 2124, 2126, 2119, 2124, 2119, 2126, 2128, 2119, 2127, 2128, 2116, 2117, 2131, 2116, 2129, 2116, 2127, 2120, 2128, 2130, 2128, 2121, 2121, 2127, 2121, 2125, 2121, 2123, 2120, 2119, 2125, 2131, 2124, 2131, 2123, 2119, 2120, 2132, 2122, 2131, 2129, 2130, 2126, 2121, 2131, 2120, 2127, 2127, 2127, 2127, 2121, 2119, 2120, 2121, 2122, 2120, 2125, 2117, 2119, 2123, 2122, 2121, 2119, 2127, 2120, 2130, 2128, 2126, 2117, 2126, 2121, 2123, 2122, 2118, 2119, 2119, 2122, 2115, 2126, 2123, 2124, 2120, 2118, 2116, 2117, 2126, 2118, 2119, 2119, 2115, 2117, 2127, 2124, 2120, 2123, 2127, 2130, 2123, 2122, 2123, 2126, 2115, 2118, 2118, 2115, 2119, 2120, 2125, 2117, 2121, 2118, 2118, 2120, 2111, 2122, 2124, 2123, 2123, 2119, 2116, 2117, 2111, 2122, 2120, 2121, 2116, 2122, 2122, 2118, 2127, 2126, 2119, 2118, 2114, 2122, 2120, 2116, 2116, 2113, 2119, 2115, 2125, 2122, 2123, 2123, 2118, 2110, 2110, 2115, 2123, 2118, 2119, 2116, 2122, 2114, 2121, 2116, 2122, 2128, 2113],
      "WindowCenter": [1014.0, 1014.0, 1014.0, 1014.0, 1015.0, 1014.0, 1014.0, 1014.0, 1015.0, 1014.0, 1014.0, 1014.0, 1014.0, 1014.0, 1014.0, 1015.0, 1014.0, 1014.0, 1015.0, 1015.0, 1015.0, 1014.0, 1014.0, 1015.0, 1015.0, 1015.0, 1014.0, 1015.0, 1015.0, 1014.0, 1014.0, 1014.0, 1015.0, 1014.0, 1014.0, 1014.0, 1015.0, 1015.0, 1014.0, 1014.0, 1015.0, 1015.0, 1015.0, 1015.0, 1015.0, 1015.0, 1014.0, 1015.0, 1014.0, 1014.0, 1014.0, 1014.0, 1014.0, 1014.0, 1013.0, 1014.0, 1014.0, 1014.0, 1013.0, 1014.0, 1014.0, 1013.0, 1013.0, 1013.0, 1014.0, 1013.0, 1014.0, 1014.0, 1014.0, 1014.0, 1014.0, 1014.0, 1013.0, 1013.0, 1014.0, 1013.0, 1014.0, 1013.0, 1013.0, 1014.0, 1013.0, 1013.0, 1013.0, 1013.0, 1014.0, 1013.0, 1013.0, 1013.0, 1014.0, 1013.0, 1014.0, 1014.0, 1013.0, 1014.0, 1014.0, 1014.0, 1013.0, 1013.0, 1013.0, 1014.0, 1014.0, 1014.0, 1013.0, 1013.0, 1013.0, 1013.0, 1013.0, 1013.0, 1014.0, 1013.0, 1013.0, 1013.0, 1014.0, 1013.0, 1013.0, 1014.0, 1013.0, 1013.0, 1014.0, 1013.0, 1013.0, 1013.0, 1013.0, 1013.0, 1014.0, 1013.0, 1014.0, 1014.0, 1013.0, 1013.0, 1013.0, 1013.0, 1013.0, 1014.0, 1013.0, 1013.0, 1013.0, 1014.0, 1013.0, 1013.0, 1013.0, 1013.0, 1013.0, 1014.0, 1013.0, 1013.0, 1013.0, 1014.0, 1013.0, 1013.0, 1013.0, 1013.0, 1014.0, 1013.0, 1013.0, 1013.0, 1013.0, 1013.0, 1014.0, 1013.0, 1013.0, 1014.0, 1013.0, 1013.0, 1013.0, 1013.0, 1014.0, 1014.0, 1013.0, 1013.0, 1014.0, 1013.0, 1014.0, 1013.0, 1013.0, 1013.0, 1013.0, 1013.0, 1013.0, 1014.0, 1013.0, 1013.0, 1013.0, 1014.0, 1013.0, 1014.0, 1013.0, 1014.0, 1014.0, 1013.0, 1013.0, 1013.0, 1013.0, 1012.0, 1013.0, 1013.0, 1012.0, 1012.0, 1013.0, 1012.0],
      "WindowWidth": [2250.0, 2249.0, 2249.0, 2249.0, 2250.0, 2249.0, 2249.0, 2249.0, 2250.0, 2249.0, 2249.0, 2249.0, 2249.0, 2249.0, 2248.0, 2249.0, 2249.0, 2249.0, 2249.0, 2249.0, 2249.0, 2248.0, 2249.0, 2249.0, 2249.0, 2249.0, 2249.0, 2249.0, 2249.0, 2248.0, 2248.0, 2248.0, 2249.0, 2248.0, 2248.0, 2248.0, 2249.0, 2249.0, 2248.0, 2248.0, 2248.0, 2248.0, 2248.0, 2249.0, 2248.0, 2248.0, 2248.0, 2248.0, 2248.0, 2248.0, 2248.0, 2248.0, 2248.0, 2248.0, 2247.0, 2248.0, 2248.0, 2247.0, 2248.0, 2248.0, 2248.0, 2247.0, 2247.0, 2247.0, 2247.0, 2247.0, 2247.0, 2248.0, 2248.0, 2248.0, 2247.0, 2248.0, 2247.0, 2247.0, 2247.0, 2247.0, 2247.0, 2247.0, 2247.0, 2247.0, 2247.0, 2247.0, 2247.0, 2247.0, 2247.0, 2247.0, 2247.0, 2247.0, 2247.0, 2246.0, 2247.0, 2247.0, 2246.0, 2247.0, 2247.0, 2247.0, 2247.0, 2246.0, 2246.0, 2247.0, 2247.0, 2247.0, 2246.0, 2246.0, 2246.0, 2246.0, 2246.0, 2246.0, 2247.0, 2246.0, 2246.0, 2246.0, 2246.0, 2246.0, 2246.0, 2247.0, 2246.0, 2246.0, 2247.0, 2246.0, 2246.0, 2246.0, 2246.0, 2246.0, 2246.0, 2246.0, 2246.0, 2246.0, 2246.0, 2246.0, 2246.0, 2246.0, 2246.0, 2246.0, 2246.0, 2246.0, 2246.0, 2246.0, 2246.0, 2246.0, 2246.0, 2245.0, 2246.0, 2246.0, 2245.0, 2246.0, 2245.0, 2246.0, 2246.0, 2245.0, 2245.0, 2245.0, 2246.0, 2245.0, 2245.0, 2245.0, 2245.0, 2245.0, 2246.0, 2245.0, 2245.0, 2246.0, 2245.0, 2245.0, 2245.0, 2245.0, 2246.0, 2246.0, 2245.0, 2245.0, 2246.0, 2245.0, 2245.0, 2245.0, 2245.0, 2245.0, 2245.0, 2245.0, 2246.0, 2245.0, 2245.0, 2245.0, 2245.0, 2245.0, 2245.0, 2245.0, 2245.0, 2245.0, 2245.0, 2245.0, 2245.0, 2245.0, 2246.0, 2245.0, 2245.0, 2245.0, 2244.0, 2244.0, 2245.0, 2244.0]
    },
    "slices": {}
  }
}