{
  "AcquisitionMatrixPE": 80,
  "AcquisitionNumber": 1,
  "AcquisitionTime": "09:42:38.462500",
  "BandwidthPerPixelPhaseEncode": 25,
  "BaseResolution": 80,
  "BodyPartExamined": "BRAIN",
  "CoilCombinationMethod": "Sum of Squares",
  "ConsistencyInfo": "N4_VE11E_LATEST_20181129",
  "ConversionSoftware": "dcm2niix",
  "ConversionSoftwareVersion": "v1.0.20220720",
  "DerivedVendorReportedEchoSpacing": 0.0005,
  "DeviceSerialNumber": "66112",
  "DwellTime": 2.7e-06,
  "EchoTime": 0.03,
  "EchoTrainLength": 80,
  "EffectiveEchoSpacing": 0.0005,
  "FlipAngle": 10,
  "HeudiconvVersion": "0.13.1",
  "ImageOrientationPatientDICOM": [0.990703, 0.135865, 0.0069956, -0.131484, 0.943021, 0.305651],
  "ImageOrientationText": "Tra>Cor(17.7)>Sag(-2.0)",
  "ImageType": [
    "ORIGINAL",
    "PRIMARY",
    "M",
    "ND",
    "NORM",
    "MOSAIC"
],
  "ImagingFrequency": 123.259,
  "InPlanePhaseEncodingDirectionDICOM": "COL",
  "InstitutionAddress": "Maynard 3,Hanover,NH,US,03755",
  "InstitutionName": "Dartmouth College - PBS",
  "InstitutionalDepartmentName": "Department",
  "MRAcquisitionType": "2D",
  "MagneticFieldStrength": 3,
  "Manufacturer": "Siemens",
  "ManufacturersModelName": "Prisma",
  "MatrixCoilMode": "SENSE",
  "Modality": "MR",
  "NonlinearGradientCorrection": false,
  "PartialFourier": 1,
  "PatientPosition": "HFS",
  "PercentPhaseFOV": 100,
  "PercentSampling": 100,
  "PhaseEncodingDirection": "j-",
  "PhaseEncodingSteps": 80,
  "PhaseResolution": 1,
  "PixelBandwidth": 2315,
  "ProcedureStepDescription": "dbic^QA",
  "ProtocolName": "func-bold_fa-10",
  "PulseSequenceDetails": "%SiemensSeq%\\ep2d_bold",
  "ReceiveCoilActiveElements": "HEA;HEP",
  "ReceiveCoilName": "Head_32",
  "ReconMatrixPE": 80,
  "RepetitionTime": 2,
  "SAR": 0.017105,
  "ScanOptions": "FS",
  "ScanningSequence": "EP",
  "SequenceName": "*epfid2d1_80",
  "SequenceVariant": "SK",
  "SeriesDescription": "func-bold_fa-10",
  "SeriesNumber": 8,
  "ShimSetting": [4224, -7732, -7476, -17, -127, -36, -31, 60],
  "SliceThickness": 3.5,
  "SliceTiming": [0.99, 0, 1.0575, 0.0675, 1.1225, 0.1325, 1.1875, 0.2, 1.255, 0.265, 1.32, 0.33, 1.3875, 0.3975, 1.4525, 0.4625, 1.5175, 0.5275, 1.585, 0.595, 1.65, 0.66, 1.7175, 0.7275, 1.7825, 0.7925, 1.8475, 0.8575, 1.915, 0.925],
  "SoftwareVersions": "syngo MR E11",
  "SpacingBetweenSlices": 3.99,
  "StationName": "AWP66112",
  "TotalReadoutTime": 0.0395,
  "TxRefAmp": 224.972,
  "dcmmeta_affine": [
    [-2.9721081256866455, -0.3944522440433502, -0.13937143981456757, 136.26051330566406],
    [-0.40759438276290894, 2.82906436920166, 1.2118784189224243, -108.9696044921875],
    [0.020986806601285934, -0.9169525504112244, 3.798950672149658, -15.244109153747559],
    [0.0, 0.0, 0.0, 1.0]
],
  "dcmmeta_reorient_transform": [
    [0.0, -1.0, 0.0, 79.0],
    [1.0, 0.0, 0.0, 0.0],
    [0.0, 0.0, 1.0, 0.0],
    [0.0, 0.0, 0.0, 1.0]
],
  "dcmmeta_shape": [80, 80, 30, 200],
  "dcmmeta_slice_dim": 2,
  "dcmmeta_version": 0.6,
  "global": {
    "const": {
      "AccessionNumber": "qa",
      "AcquisitionMatrix": [80, 0, 0, 80],
      "AngioFlag": "N",
      "BitsAllocated": 16,
      "BitsStored": 12,
      "BodyPartExamined": "BRAIN",
      "Columns": 480,
      "EchoNumbers": 1,
      "EchoTime": 30.0,
      "EchoTrainLength": 80,
      "FlipAngle": 10.0,
      "HighBit": 11,
      "ImageOrientationPatient": [0.99070268981595, 0.13586479288481, 0.00699560189016, -0.1314840767829, 0.94302147119, 0.30565085052586],
      "ImagePositionPatient": [-620.62995461787, -761.85824502156, -275.2712324827],
      "ImageType": [
        "ORIGINAL",
        "PRIMARY",
        "M",
        "ND",
        "NORM",
        "MOSAIC"
],
      "ImagedNucleus": "1H",
      "ImagingFrequency": 123.259439,
      "InPlanePhaseEncodingDirection": "COL",
      "MRAcquisitionType": "2D",
      "MagneticFieldStrength": 3.0,
      "Manufacturer": "SIEMENS",
      "ManufacturerModelName": "Prisma",
      "Modality": "MR",
      "NumberOfAverages": 1.0,
      "NumberOfPhaseEncodingSteps": 80,
      "PercentPhaseFieldOfView": 100.0,
      "PercentSampling": 100.0,
      "PerformedProcedureStepStartTime": "091944.924000",
      "PhotometricInterpretation": "MONOCHROME2",
      "PixelBandwidth": 2315.0,
      "PixelRepresentation": 0,
      "PixelSpacing": [3.0, 3.0],
      "ProtocolName": "func-bold_fa-10",
      "RepetitionTime": 2000.0,
      "Rows": 480,
      "SAR": 0.01710497429354,
      "SamplesPerPixel": 1,
      "ScanOptions": "FS",
      "ScanningSequence": "EP",
      "SequenceName": "*epfid2d1_80",
      "SequenceVariant": "SK",
      "SeriesDescription": "func-bold_fa-10",
      "SeriesNumber": 8,
      "SeriesTime": "094327.571000",
      "SliceLocation": -52.371016284267,
      "SliceThickness": 3.5,
      "SmallestImagePixelValue": 0,
      "SoftwareVersions": "syngo MR E11",
      "SpacingBetweenSlices": 3.9899999090599,
      "SpecificCharacterSet": "ISO_IR 100",
      "StudyID": "12",
      "StudyTime": "091944.865000",
      "TransmitCoilName": "Body",
      "VariableFlipAngleFlag": "N",
      "WindowCenterWidthExplanation": "Algo1"
    },
    "slices": {}
  },
  "time": {
    "samples": {
      "AcquisitionNumber": [1, 2, 3, 4, 5, 6, 7, 8, 9, 10, 11, 12, 13, 14, 15, 16, 17, 18, 19, 20, 21, 22, 23, 24, 25, 26, 27, 28, 29, 30, 31, 32, 33, 34, 35, 36, 37, 38, 39, 40, 41, 42, 43, 44, 45, 46, 47, 48, 49, 50, 51, 52, 53, 54, 55, 56, 57, 58, 59, 60, 61, 62, 63, 64, 65, 66, 67, 68, 69, 70, 71, 72, 73, 74, 75, 76, 77, 78, 79, 80, 81, 82, 83, 84, 85, 86, 87, 88, 89, 90, 91, 92, 93, 94, 95, 96, 97, 98, 99, 100, 101, 102, 103, 104, 105, 106, 107, 108, 109, 110, 111, 112, 113, 114, 115, 116, 117, 118, 119, 120, 121, 122, 123, 124, 125, 126, 127, 128, 129, 130, 131, 132, 133, 134, 135, 136, 137, 138, 139, 140, 141, 142, 143, 144, 145, 146, 147, 148, 149, 150, 151, 152, 153, 154, 155, 156, 157, 158, 159, 160, 161, 162, 163, 164, 165, 166, 167, 168, 169, 170, 171, 172, 173, 174, 175, 176, 177, 178, 179, 180, 181, 182, 183, 184, 185, 186, 187, 188, 189, 190, 191, 192, 193, 194, 195, 196, 197, 198, 199, 200],
      "AcquisitionTime": ["094238.462500", "094240.462500", "094242.462500", "094244.462500", "094246.462500", "094248.462500", "094250.462500", "094252.462500", "094254.462500", "094256.462500", "094258.462500", "094300.462500", "094302.462500", "094304.462500", "094306.462500", "094308.462500", "094310.462500", "094312.462500", "094314.462500", "094316.462500", "094318.462500", "094320.462500", "094322.462500", "094324.462500", "094326.462500", "094328.462500", "094330.462500", "094332.462500", "094334.462500", "094336.462500", "094338.462500", "094340.462500", "094342.462500", "094344.462500", "094346.462500", "094348.462500", "094350.462500", "094352.462500", "094354.462500", "094356.462500", "094358.462500", "094400.462500", "094402.462500", "094404.462500", "094406.462500", "094408.462500", "094410.462500", "094412.462500", "094414.462500", "094416.462500", "094418.462500", "094420.462500", "094422.462500", "094424.462500", "094426.462500", "094428.462500", "094430.462500", "094432.462500", "094434.462500", "094436.462500", "094438.462500", "094440.462500", "094442.462500", "094444.462500", "094446.462500", "094448.462500", "094450.462500", "094452.462500", "094454.462500", "094456.462500", "094458.462500", "094500.462500", "094502.462500", "094504.462500", "094506.462500", "094508.462500", "094510.462500", "094512.462500", "094514.462500", "094516.462500", "094518.462500", "094520.462500", "094522.462500", "094524.462500", "094526.462500", "094528.462500", "094530.462500", "094532.462500", "094534.462500", "094536.462500", "094538.462500", "094540.462500", "094542.462500", "094544.462500", "094546.462500", "094548.462500", "094550.462500", "094552.462500", "094554.462500", "094556.462500", "094558.462500", "094600.462500", "094602.462500", "094604.462500", "094606.462500", "094608.462500", "094610.462500", "094612.462500", "094614.462500", "094616.462500", "094618.462500", "094620.462500", "094622.462500", "094624.462500", "094626.462500", "094628.462500", "094630.462500", "094632.462500", "094634.462500", "094636.462500", "094638.462500", "094640.462500", "094642.462500", "094644.462500", "094646.462500", "094648.462500", "094650.462500", "094652.462500", "094654.462500", "094656.462500", "094658.462500", "094700.462500", "094702.462500", "094704.462500", "094706.462500", "094708.462500", "094710.462500", "094712.462500", "094714.462500", "094716.462500", "094718.462500", "094720.462500", "094722.462500", "094724.462500", "094726.462500", "094728.462500", "094730.462500", "094732.462500", "094734.462500", "094736.462500", "094738.462500", "094740.462500", "094742.462500", "094744.462500", "094746.462500", "094748.462500", "094750.462500", "094752.462500", "094754.462500", "094756.462500", "094758.462500", "094800.462500", "094802.462500", "094804.462500", "094806.462500", "094808.462500", "094810.462500", "094812.462500", "094814.462500", "094816.462500", "094818.462500", "094820.462500", "094822.462500", "094824.462500", "094826.462500", "094828.462500", "094830.462500", "094832.462500", "094834.462500", "094836.462500", "094838.462500", "094840.462500", "094842.462500", "094844.462500", "094846.462500", "094848.462500", "094850.462500", "094852.462500", "094854.462500", "094856.462500", "094858.462500", "094900.462500", "094902.462500", "094904.462500", "094906.462500", "094908.462500", "094910.462500", "094912.462500", "094914.462500", "094916.462500"],
      "ContentTime": ["094327.574000", "094327.577000", "094327.579000", "094327.582000", "094327.584000", "094327.586000", "094327.588000", "094327.591000", "094327.593000", "094327.595000", "094327.597000", "094327.600000", "094327.602000", "094327.606000", "094327.608000", "094327.610000", "094327.613000", "094327.615000", "094327.617000", "094327.619000", "094327.622000", "094327.624000", "094327.626000", "094327.629000", "094407.569000", "094407.572000", "094407.574000", "094407.576000", "094407.578000", "094407.581000", "094407.583000", "094407.585000", "094407.587000", "094407.590000", "094407.592000", "094407.594000", "094407.597000", "094407.599000", "094407.601000", "094407.604000", "094407.607000", "094407.609000", "094407.612000", "094407.614000", "094447.569000", "094447.572000", "094447.574000", "094447.576000", "094447.578000", "094447.581000", "094447.583000", "094447.585000", "094447.588000", "094447.590000", "094447.592000", "094447.594000", "094447.597000", "094447.599000", "094447.601000", "094447.605000", "094447.608000", "094447.610000", "094447.613000", "094447.615000", "094527.569000", "094527.572000", "094527.574000", "094527.576000", "094527.579000", "094527.581000", "094527.583000", "094527.585000", "094527.588000", "094527.590000", "094527.592000", "094527.594000", "094527.597000", "094527.599000", "094527.601000", "094527.606000", "094527.608000", "094527.610000", "094527.613000", "094527.615000", "094607.568000", "094607.571000", "094607.573000", "094607.575000", "094607.577000", "094607.580000", "094607.582000", "094607.584000", "094607.587000", "094607.589000", "094607.591000", "094607.594000", "094607.596000", "094607.598000", "094607.601000", "094607.604000", "094607.606000", "094607.608000", "094607.611000", "094607.613000", "094647.569000", "094647.572000", "094647.574000", "094647.576000", "094647.579000", "094647.581000", "094647.583000", "094647.585000", "094647.588000", "094647.590000", "094647.592000", "094647.594000", "094647.597000", "094647.599000", "094647.601000", "094647.605000", "094647.608000", "094647.610000", "094647.612000", "094647.615000", "094727.569000", "094727.571000", "094727.574000", "094727.576000", "094727.578000", "094727.581000", "094727.583000", "094727.585000", "094727.587000", "094727.590000", "094727.592000", "094727.594000", "094727.596000", "094727.599000", "094727.601000", "094727.604000", "094727.607000", "094727.609000", "094727.611000", "094727.613000", "094747.569000", "094747.572000", "094747.574000", "094747.576000", "094747.579000", "094747.581000", "094747.583000", "094747.586000", "094747.588000", "094747.590000", "094827.569000", "094827.572000", "094827.574000", "094827.576000", "094827.578000", "094827.581000", "094827.583000", "094827.585000", "094827.588000", "094827.590000", "094827.592000", "094827.594000", "094827.597000", "094827.599000", "094827.601000", "094827.606000", "094827.625000", "094827.628000", "094827.630000", "094827.632000", "094907.569000", "094907.572000", "094907.574000", "094907.576000", "094907.579000", "094907.581000", "094907.583000", "094907.585000", "094907.588000", "094907.590000", "094907.592000", "094907.594000", "094907.597000", "094907.599000", "094907.602000", "094907.605000", "094907.607000", "094907.610000", "094907.612000", "094907.614000", "094917.647000", "094917.649000", "094917.651000", "094917.654000", "094917.656000", "094917.658000"],
      "InstanceCreationTime": ["094327.574000", "094327.577000", "094327.579000", "094327.582000", "094327.584000", "094327.586000", "094327.588000", "094327.591000", "094327.593000", "094327.595000", "094327.597000", "094327.600000", "094327.602000", "094327.606000", "094327.608000", "094327.610000", "094327.613000", "094327.615000", "094327.617000", "094327.619000", "094327.622000", "094327.624000", "094327.626000", "094327.629000", "094407.569000", "094407.572000", "094407.574000", "094407.576000", "094407.578000", "094407.581000", "094407.583000", "094407.585000", "094407.587000", "094407.590000", "094407.592000", "094407.594000", "094407.597000", "094407.599000", "094407.601000", "094407.604000", "094407.607000", "094407.609000", "094407.612000", "094407.614000", "094447.569000", "094447.572000", "094447.574000", "094447.576000", "094447.578000", "094447.581000", "094447.583000", "094447.585000", "094447.588000", "094447.590000", "094447.592000", "094447.594000", "094447.597000", "094447.599000", "094447.601000", "094447.605000", "094447.608000", "094447.610000", "094447.613000", "094447.615000", "094527.569000", "094527.572000", "094527.574000", "094527.576000", "094527.579000", "094527.581000", "094527.583000", "094527.585000", "094527.588000", "094527.590000", "094527.592000", "094527.594000", "094527.597000", "094527.599000", "094527.601000", "094527.606000", "094527.608000", "094527.610000", "094527.613000", "094527.615000", "094607.568000", "094607.571000", "094607.573000", "094607.575000", "094607.577000", "094607.580000", "094607.582000", "094607.584000", "094607.587000", "094607.589000", "094607.591000", "094607.594000", "094607.596000", "094607.598000", "094607.601000", "094607.604000", "094607.606000", "094607.608000", "094607.611000", "094607.613000", "094647.569000", "094647.572000", "094647.574000", "094647.576000", "094647.579000", "094647.581000", "094647.583000", "094647.585000", "094647.588000", "094647.590000", "094647.592000", "094647.594000", "094647.597000", "094647.599000", "094647.601000", "094647.605000", "094647.608000", "094647.610000", "094647.612000", "094647.615000", "094727.569000", "094727.571000", "094727.574000", "094727.576000", "094727.578000", "094727.581000", "094727.583000", "094727.585000", "094727.587000", "094727.590000", "094727.592000", "094727.594000", "094727.596000", "094727.599000", "094727.601000", "094727.604000", "094727.607000", "094727.609000", "094727.611000", "094727.613000", "094747.569000", "094747.572000", "094747.574000", "094747.576000", "094747.579000", "094747.581000", "094747.583000", "094747.586000", "094747.588000", "094747.590000", "094827.569000", "094827.572000", "094827.574000", "094827.576000", "094827.578000", "094827.581000", "094827.583000", "094827.585000", "094827.588000", "094827.590000", "094827.592000", "094827.594000", "094827.597000", "094827.599000", "094827.601000", "094827.606000", "094827.625000", "094827.628000", "094827.630000", "094827.632000", "094907.569000", "094907.572000", "094907.574000", "094907.576000", "094907.579000", "094907.581000", "094907.583000", "094907.585000", "094907.588000", "094907.590000", "094907.592000", "094907.594000", "094907.597000", "094907.599000", "094907.602000", "094907.605000", "094907.607000", "094907.610000", "094907.612000", "094907.614000", "094917.647000", "094917.649000", "094917.651000", "094917.654000", "094917.656000", "094917.658000"],
      "InstanceNumber": [1, 2, 3, 4, 5, 6, 7, 8, 9, 10, 11, 12, 13, 14, 15, 16, 17, 18, 19, 20, 21, 22, 23, 24, 25, 26, 27, 28, 29, 30, 31, 32, 33, 34, 35, 36, 37, 38, 39, 40, 41, 42, 43, 44, 45, 46, 47, 48, 49, 50, 51, 52, 53, 54, 55, 56, 57, 58, 59, 60, 61, 62, 63, 64, 65, 66, 67, 68, 69, 70, 71, 72, 73, 74, 75, 76, 77, 78, 79, 80, 81, 82, 83, 84, 85, 86, 87, 88, 89, 90, 91, 92, 93, 94, 95, 96, 97, 98, 99, 100, 101, 102, 103, 104, 105, 106, 107, 108, 109, 110, 111, 112, 113, 114, 115, 116, 117, 118, 119, 120, 121, 122, 123, 124, 125, 126, 127, 128, 129, 130, 131, 132, 133, 134, 135, 136, 137, 138, 139, 140, 141, 142, 143, 144, 145, 146, 147, 148, 149, 150, 151, 152, 153, 154, 155, 156, 157, 158, 159, 160, 161, 162, 163, 164, 165, 166, 167, 168, 169, 170, 171, 172, 173, 174, 175, 176, 177, 178, 179, 180, 181, 182, 183, 184, 185, 186, 187, 188, 189, 190, 191, 192, 193, 194, 195, 196, 197, 198, 199, 200],
      "LargestImagePixelValue": [356, 356, 356, 358, 356, 356, 357, 354, 356, 355, 356, 355, 356, 356, 357, 357, 355, 355, 356, 355, 356, 355, 355, 357, 355, 358, 355, 356, 356, 355, 355, 355, 358, 357, 354, 356, 358, 356, 355, 355, 356, 354, 355, 355, 356, 357, 355, 355, 356, 355, 354, 356, 357, 355, 357, 356, 355, 356, 354, 354, 357, 355, 357, 356, 356, 356, 354, 357, 356, 357, 356, 355, 358, 355, 355, 355, 355, 356, 357, 356, 355, 356, 356, 357, 355, 354, 355, 354, 354, 355, 359, 355, 359, 356, 357, 358, 356, 355, 355, 355, 354, 357, 357, 356, 356, 354, 356, 354, 356, 356, 354, 355, 355, 355, 355, 357, 355, 354, 355, 355, 358, 357, 357, 355, 355, 355, 355, 355, 358, 356, 356, 357, 354, 357, 355, 356, 355, 354, 355, 356, 355, 356, 355, 356, 356, 355, 356, 355, 356, 354, 357, 355, 356, 356, 354, 356, 358, 356, 355, 356, 354, 355, 356, 354, 355, 355, 355, 356, 355, 356, 355, 355, 357, 357, 356, 357, 355, 356, 355, 358, 355, 356, 357, 355, 356, 357, 357, 356, 354, 354, 355, 356, 358, 356, 356, 355, 356, 355, 355, 356],
      "WindowCenter": [292.0, 292.0, 292.0, 292.0, 292.0, 292.0, 292.0, 292.0, 292.0, 292.0, 292.0, 292.0, 292.0, 292.0, 292.0, 292.0, 292.0, 292.0, 292.0, 292.0, 292.0, 292.0, 292.0, 292.0, 292.0, 292.0, 292.0, 292.0, 292.0, 292.0, 292.0, 292.0, 292.0, 292.0, 292.0, 292.0, 292.0, 292.0, 292.0, 292.0, 292.0, 292.0, 292.0, 292.0, 292.0, 292.0, 292.0, 292.0, 292.0, 292.0, 292.0, 292.0, 292.0, 292.0, 292.0, 292.0, 292.0, 292.0, 292.0, 292.0, 292.0, 292.0, 292.0, 292.0, 292.0, 292.0, 291.0, 292.0, 292.0, 291.0, 292.0, 292.0, 292.0, 292.0, 292.0, 292.0, 292.0, 292.0, 291.0, 292.0, 292.0, 292.0, 292.0, 292.0, 292.0, 292.0, 292.0, 292.0, 292.0, 292.0, 292.0, 292.0, 292.0, 292.0, 292.0, 292.0, 292.0, 292.0, 292.0, 292.0, 292.0, 292.0, 292.0, 292.0, 292.0, 292.0, 292.0, 292.0, 292.0, 291.0, 291.0, 292.0, 291.0, 292.0, 292.0, 292.0, 292.0, 292.0, 292.0, 292.0, 291.0, 292.0, 291.0, 292.0, 292.0, 292.0, 292.0, 291.0, 292.0, 292.0, 292.0, 291.0, 291.0, 292.0, 291.0, 291.0, 292.0, 291.0, 292.0, 291.0, 291.0, 292.0, 291.0, 291.0, 292.0, 291.0, 291.0, 291.0, 292.0, 291.0, 291.0, 291.0, 291.0, 292.0, 291.0, 291.0, 291.0, 291.0, 291.0, 291.0, 291.0, 291.0, 291.0, 292.0, 291.0, 291.0, 291.0, 291.0, 291.0, 291.0, 291.0, 291.0, 292.0, 291.0, 291.0, 291.0, 291.0, 291.0, 291.0, 291.0, 291.0, 291.0, 292.0, 291.0, 291.0, 291.0, 291.0, 291.0, 291.0, 291.0, 291.0, 291.0, 291.0, 291.0, 291.0, 291.0, 291.0, 291.0, 291.0, 291.0],
      "WindowWidth": [636.0, 636.0, 635.0, 636.0, 636.0, 635.0, 636.0, 635.0, 635.0, 636.0, 636.0, 636.0, 635.0, 635.0, 635.0, 635.0, 636.0, 635.0, 635.0, 636.0, 635.0, 636.0, 635.0, 635.0, 635.0, 636.0, 636.0, 635.0, 635.0, 635.0, 635.0, 635.0, 635.0, 635.0, 635.0, 635.0, 635.0, 636.0, 636.0, 635.0, 635.0, 636.0, 635.0, 636.0, 635.0, 635.0, 635.0, 635.0, 635.0, 635.0, 635.0, 635.0, 636.0, 635.0, 635.0, 636.0, 635.0, 635.0, 635.0, 635.0, 636.0, 635.0, 635.0, 635.0, 635.0, 635.0, 635.0, 636.0, 635.0, 635.0, 635.0, 635.0, 635.0, 635.0, 635.0, 635.0, 635.0, 635.0, 634.0, 635.0, 635.0, 635.0, 635.0, 635.0, 635.0, 635.0, 635.0, 635.0, 635.0, 635.0, 635.0, 635.0, 635.0, 635.0, 635.0, 635.0, 635.0, 635.0, 635.0, 635.0, 635.0, 635.0, 635.0, 635.0, 635.0, 635.0, 635.0, 635.0, 635.0, 634.0, 634.0, 635.0, 635.0, 635.0, 635.0, 635.0, 635.0, 635.0, 635.0, 635.0, 634.0, 635.0, 635.0, 635.0, 635.0, 635.0, 635.0, 634.0, 635.0, 635.0, 635.0, 634.0, 634.0, 635.0, 634.0, 634.0, 635.0, 634.0, 635.0, 634.0, 634.0, 635.0, 634.0, 635.0, 635.0, 635.0, 634.0, 634.0, 635.0, 634.0, 634.0, 634.0, 634.0, 635.0, 634.0, 634.0, 634.0, 634.0, 634.0, 634.0, 634.0, 634.0, 634.0, 635.0, 634.0, 634.0, 634.0, 635.0, 634.0, 634.0, 634.0, 634.0, 635.0, 634.0, 634.0, 634.0, 634.0, 634.0, 634.0, 634.0, 634.0, 634.0, 635.0, 634.0, 634.0, 634.0, 634.0, 634.0, 634.0, 634.0, 634.0, 634.0, 634.0, 634.0, 634.0, 633.0, 634.0, 634.0, 634.0, 634.0]
    },
    "slices": {}
  }
}