{
  "AcquisitionMatrixPE": 80,
  "AcquisitionNumber": 1,
  "AcquisitionTime": "09:35:51.410000",
  "BandwidthPerPixelPhaseEncode": 25,
  "BaseResolution": 80,
  "BodyPartExamined": "BRAIN",
  "CoilCombinationMethod": "Sum of Squares",
  "ConsistencyInfo": "N4_VE11E_LATEST_20181129",
  "ConversionSoftware": "dcm2niix",
  "ConversionSoftwareVersion": "v1.0.20220720",
  "DerivedVendorReportedEchoSpacing": 0.0005,
  "DeviceSerialNumber": "66112",
  "DwellTime": 2.7e-06,
  "EchoTime": 0.03,
  "EchoTrainLength": 80,
  "EffectiveEchoSpacing": 0.0005,
  "FlipAngle": 77,
  "HeudiconvVersion": "0.13.1",
  "ImageOrientationPatientDICOM": [0.990703, 0.135865, 0.0069956, -0.131484, 0.943021, 0.305651],
  "ImageOrientationText": "Tra>Cor(17.7)>Sag(-2.0)",
  "ImageType": [
    "ORIGINAL",
    "PRIMARY",
    "M",
    "ND",
    "NORM",
    "MOSAIC"
],
  "ImagingFrequency": 123.259,
  "InPlanePhaseEncodingDirectionDICOM": "COL",
  "InstitutionAddress": "Maynard 3,Hanover,NH,US,03755",
  "InstitutionName": "Dartmouth College - PBS",
  "InstitutionalDepartmentName": "Department",
  "MRAcquisitionType": "2D",
  "MagneticFieldStrength": 3,
  "Manufacturer": "Siemens",
  "ManufacturersModelName": "Prisma",
  "MatrixCoilMode": "SENSE",
  "Modality": "MR",
  "NonlinearGradientCorrection": false,
  "PartialFourier": 1,
  "PatientPosition": "HFS",
  "PercentPhaseFOV": 100,
  "PercentSampling": 100,
  "PhaseEncodingDirection": "j-",
  "PhaseEncodingSteps": 80,
  "PhaseResolution": 1,
  "PixelBandwidth": 2315,
  "ProcedureStepDescription": "dbic^QA",
  "ProtocolName": "func-bold_fa-77",
  "PulseSequenceDetails": "%SiemensSeq%\\ep2d_bold",
  "ReceiveCoilActiveElements": "HEA;HEP",
  "ReceiveCoilName": "Head_32",
  "ReconMatrixPE": 80,
  "RepetitionTime": 2,
  "SAR": 0.0637653,
  "ScanOptions": "FS",
  "ScanningSequence": "EP",
  "SequenceName": "*epfid2d1_80",
  "SequenceVariant": "SK",
  "SeriesDescription": "func-bold_fa-77",
  "SeriesNumber": 7,
  "ShimSetting": [4224, -7732, -7476, -17, -127, -36, -31, 60],
  "SliceThickness": 3.5,
  "SliceTiming": [0.99, 0, 1.0575, 0.0675, 1.1225, 0.1325, 1.19, 0.2, 1.255, 0.265, 1.32, 0.33, 1.3875, 0.3975, 1.4525, 0.4625, 1.52, 0.53, 1.585, 0.595, 1.65, 0.66, 1.7175, 0.7275, 1.7825, 0.7925, 1.85, 0.86, 1.915, 0.925],
  "SoftwareVersions": "syngo MR E11",
  "SpacingBetweenSlices": 3.99,
  "StationName": "AWP66112",
  "TotalReadoutTime": 0.0395,
  "TxRefAmp": 224.972,
  "dcmmeta_affine": [
    [-2.9721081256866455, -0.3944522440433502, -0.13937143981456757, 136.26051330566406],
    [-0.40759438276290894, 2.82906436920166, 1.2118784189224243, -108.9696044921875],
    [0.020986806601285934, -0.9169525504112244, 3.798950672149658, -15.244109153747559],
    [0.0, 0.0, 0.0, 1.0]
],
  "dcmmeta_reorient_transform": [
    [0.0, -1.0, 0.0, 79.0],
    [1.0, 0.0, 0.0, 0.0],
    [0.0, 0.0, 1.0, 0.0],
    [0.0, 0.0, 0.0, 1.0]
],
  "dcmmeta_shape": [80, 80, 30, 200],
  "dcmmeta_slice_dim": 2,
  "dcmmeta_version": 0.6,
  "global": {
    "const": {
      "AccessionNumber": "qa",
      "AcquisitionMatrix": [80, 0, 0, 80],
      "AngioFlag": "N",
      "BitsAllocated": 16,
      "BitsStored": 12,
      "BodyPartExamined": "BRAIN",
      "Columns": 480,
      "EchoNumbers": 1,
      "EchoTime": 30.0,
      "EchoTrainLength": 80,
      "FlipAngle": 77.0,
      "HighBit": 11,
      "ImageOrientationPatient": [0.99070268981595, 0.13586479288481, 0.00699560189016, -0.1314840767829, 0.94302147119, 0.30565085052586],
      "ImagePositionPatient": [-620.62995461787, -761.85824502156, -275.2712324827],
      "ImageType": [
        "ORIGINAL",
        "PRIMARY",
        "M",
        "ND",
        "NORM",
        "MOSAIC"
],
      "ImagedNucleus": "1H",
      "ImagingFrequency": 123.259435,
      "InPlanePhaseEncodingDirection": "COL",
      "MRAcquisitionType": "2D",
      "MagneticFieldStrength": 3.0,
      "Manufacturer": "SIEMENS",
      "ManufacturerModelName": "Prisma",
      "Modality": "MR",
      "NumberOfAverages": 1.0,
      "NumberOfPhaseEncodingSteps": 80,
      "PercentPhaseFieldOfView": 100.0,
      "PercentSampling": 100.0,
      "PerformedProcedureStepStartTime": "091944.924000",
      "PhotometricInterpretation": "MONOCHROME2",
      "PixelBandwidth": 2315.0,
      "PixelRepresentation": 0,
      "PixelSpacing": [3.0, 3.0],
      "ProtocolName": "func-bold_fa-77",
      "RepetitionTime": 2000.0,
      "Rows": 480,
      "SAR": 0.06376525679009,
      "SamplesPerPixel": 1,
      "ScanOptions": "FS",
      "ScanningSequence": "EP",
      "SequenceName": "*epfid2d1_80",
      "SequenceVariant": "SK",
      "SeriesDescription": "func-bold_fa-77",
      "SeriesNumber": 7,
      "SeriesTime": "093647.486000",
      "SliceLocation": -52.371016284267,
      "SliceThickness": 3.5,
      "SmallestImagePixelValue": 0,
      "SoftwareVersions": "syngo MR E11",
      "SpacingBetweenSlices": 3.9899999090599,
      "SpecificCharacterSet": "ISO_IR 100",
      "StudyID": "12",
      "StudyTime": "091944.865000",
      "TransmitCoilName": "Body",
      "VariableFlipAngleFlag": "N",
      "WindowCenterWidthExplanation": "Algo1"
    },
    "slices": {}
  },
  "time": {
    "samples": {
      "AcquisitionNumber": [1, 2, 3, 4, 5, 6, 7, 8, 9, 10, 11, 12, 13, 14, 15, 16, 17, 18, 19, 20, 21, 22, 23, 24, 25, 26, 27, 28, 29, 30, 31, 32, 33, 34, 35, 36, 37, 38, 39, 40, 41, 42, 43, 44, 45, 46, 47, 48, 49, 50, 51, 52, 53, 54, 55, 56, 57, 58, 59, 60, 61, 62, 63, 64, 65, 66, 67, 68, 69, 70, 71, 72, 73, 74, 75, 76, 77, 78, 79, 80, 81, 82, 83, 84, 85, 86, 87, 88, 89, 90, 91, 92, 93, 94, 95, 96, 97, 98, 99, 100, 101, 102, 103, 104, 105, 106, 107, 108, 109, 110, 111, 112, 113, 114, 115, 116, 117, 118, 119, 120, 121, 122, 123, 124, 125, 126, 127, 128, 129, 130, 131, 132, 133, 134, 135, 136, 137, 138, 139, 140, 141, 142, 143, 144, 145, 146, 147, 148, 149, 150, 151, 152, 153, 154, 155, 156, 157, 158, 159, 160, 161, 162, 163, 164, 165, 166, 167, 168, 169, 170, 171, 172, 173, 174, 175, 176, 177, 178, 179, 180, 181, 182, 183, 184, 185, 186, 187, 188, 189, 190, 191, 192, 193, 194, 195, 196, 197, 198, 199, 200],
      "AcquisitionTime": ["093551.410000", "093553.410000", "093555.410000", "093557.410000", "093559.410000", "093601.410000", "093603.410000", "093605.410000", "093607.410000", "093609.410000", "093611.410000", "093613.410000", "093615.410000", "093617.410000", "093619.410000", "093621.410000", "093623.410000", "093625.410000", "093627.410000", "093629.410000", "093631.410000", "093633.410000", "093635.410000", "093637.410000", "093639.410000", "093641.410000", "093643.410000", "093645.410000", "093647.410000", "093649.410000", "093651.410000", "093653.410000", "093655.410000", "093657.410000", "093659.410000", "093701.410000", "093703.410000", "093705.410000", "093707.410000", "093709.410000", "093711.410000", "093713.410000", "093715.410000", "093717.410000", "093719.410000", "093721.410000", "093723.410000", "093725.410000", "093727.410000", "093729.410000", "093731.410000", "093733.410000", "093735.410000", "093737.410000", "093739.410000", "093741.410000", "093743.410000", "093745.410000", "093747.410000", "093749.410000", "093751.410000", "093753.410000", "093755.410000", "093757.410000", "093759.410000", "093801.410000", "093803.410000", "093805.410000", "093807.410000", "093809.410000", "093811.410000", "093813.410000", "093815.410000", "093817.410000", "093819.410000", "093821.410000", "093823.410000", "093825.410000", "093827.410000", "093829.410000", "093831.410000", "093833.410000", "093835.410000", "093837.410000", "093839.410000", "093841.410000", "093843.410000", "093845.410000", "093847.410000", "093849.410000", "093851.410000", "093853.410000", "093855.410000", "093857.410000", "093859.410000", "093901.410000", "093903.410000", "093905.410000", "093907.410000", "093909.410000", "093911.410000", "093913.410000", "093915.410000", "093917.410000", "093919.410000", "093921.410000", "093923.410000", "093925.410000", "093927.410000", "093929.410000", "093931.410000", "093933.410000", "093935.410000", "093937.410000", "093939.410000", "093941.410000", "093943.410000", "093945.410000", "093947.410000", "093949.410000", "093951.410000", "093953.410000", "093955.410000", "093957.410000", "093959.410000", "094001.410000", "094003.410000", "094005.410000", "094007.410000", "094009.410000", "094011.410000", "094013.410000", "094015.410000", "094017.410000", "094019.410000", "094021.410000", "094023.410000", "094025.410000", "094027.410000", "094029.410000", "094031.410000", "094033.410000", "094035.410000", "094037.410000", "094039.410000", "094041.410000", "094043.410000", "094045.410000", "094047.410000", "094049.410000", "094051.410000", "094053.410000", "094055.410000", "094057.410000", "094059.410000", "094101.410000", "094103.410000", "094105.410000", "094107.410000", "094109.410000", "094111.410000", "094113.410000", "094115.410000", "094117.410000", "094119.410000", "094121.410000", "094123.410000", "094125.410000", "094127.410000", "094129.410000", "094131.410000", "094133.410000", "094135.410000", "094137.410000", "094139.410000", "094141.410000", "094143.410000", "094145.410000", "094147.410000", "094149.410000", "094151.410000", "094153.410000", "094155.410000", "094157.410000", "094159.410000", "094201.410000", "094203.410000", "094205.410000", "094207.410000", "094209.410000", "094211.410000", "094213.410000", "094215.410000", "094217.410000", "094219.410000", "094221.410000", "094223.410000", "094225.410000", "094227.410000", "094229.410000"],
      "ContentTime": ["093647.489000", "093647.492000", "093647.495000", "093647.497000", "093647.499000", "093647.502000", "093647.504000", "093647.506000", "093647.508000", "093647.511000", "093647.513000", "093647.515000", "093647.518000", "093647.521000", "093647.523000", "093647.526000", "093647.528000", "093647.530000", "093647.532000", "093647.535000", "093647.537000", "093647.539000", "093647.542000", "093647.544000", "093647.546000", "093647.548000", "093647.551000", "093647.553000", "093727.485000", "093727.488000", "093727.490000", "093727.492000", "093727.495000", "093727.497000", "093727.499000", "093727.501000", "093727.504000", "093727.506000", "093727.508000", "093727.510000", "093727.513000", "093727.515000", "093727.517000", "093727.520000", "093727.522000", "093727.524000", "093727.526000", "093727.533000", "093747.485000", "093747.488000", "093747.490000", "093747.492000", "093747.494000", "093747.497000", "093747.499000", "093747.501000", "093747.510000", "093747.512000", "093827.485000", "093827.488000", "093827.490000", "093827.497000", "093827.499000", "093827.502000", "093827.504000", "093827.506000", "093827.508000", "093827.511000", "093827.513000", "093827.515000", "093827.517000", "093827.520000", "093827.522000", "093827.524000", "093827.526000", "093827.529000", "093827.531000", "093827.533000", "093907.484000", "093907.487000", "093907.489000", "093907.491000", "093907.494000", "093907.496000", "093907.498000", "093907.501000", "093907.503000", "093907.505000", "093907.508000", "093907.510000", "093907.512000", "093907.515000", "093907.517000", "093907.519000", "093907.521000", "093907.524000", "093907.526000", "093907.528000", "093947.485000", "093947.488000", "093947.490000", "093947.492000", "093947.495000", "093947.497000", "093947.503000", "093947.505000", "093947.508000", "093947.510000", "093947.512000", "093947.514000", "093947.517000", "093947.519000", "093947.521000", "093947.524000", "093947.526000", "093947.528000", "093947.530000", "093947.533000", "094027.485000", "094027.488000", "094027.490000", "094027.492000", "094027.495000", "094027.497000", "094027.499000", "094027.501000", "094027.512000", "094027.514000", "094027.517000", "094027.519000", "094027.521000", "094027.523000", "094027.526000", "094027.528000", "094027.530000", "094027.532000", "094027.535000", "094027.537000", "094107.485000", "094107.488000", "094107.490000", "094107.492000", "094107.495000", "094107.497000", "094107.499000", "094107.501000", "094107.504000", "094107.506000", "094107.518000", "094107.520000", "094107.522000", "094107.524000", "094107.527000", "094107.529000", "094107.531000", "094107.533000", "094107.536000", "094107.538000", "094147.485000", "094147.488000", "094147.490000", "094147.492000", "094147.495000", "094147.497000", "094147.499000", "094147.501000", "094147.504000", "094147.506000", "094147.508000", "094147.510000", "094147.513000", "094147.515000", "094147.517000", "094147.519000", "094147.523000", "094147.525000", "094147.527000", "094147.529000", "094227.485000", "094227.488000", "094227.490000", "094227.492000", "094227.495000", "094227.497000", "094227.499000", "094227.501000", "094227.504000", "094227.506000", "094227.508000", "094227.510000", "094227.513000", "094227.515000", "094227.517000", "094227.520000", "094227.522000", "094227.524000", "094227.527000", "094227.529000", "094231.367000", "094231.369000"],
      "InstanceCreationTime": ["093647.489000", "093647.492000", "093647.495000", "093647.497000", "093647.499000", "093647.502000", "093647.504000", "093647.506000", "093647.508000", "093647.511000", "093647.513000", "093647.515000", "093647.518000", "093647.521000", "093647.523000", "093647.526000", "093647.528000", "093647.530000", "093647.532000", "093647.535000", "093647.537000", "093647.539000", "093647.542000", "093647.544000", "093647.546000", "093647.548000", "093647.551000", "093647.553000", "093727.485000", "093727.488000", "093727.490000", "093727.492000", "093727.495000", "093727.497000", "093727.499000", "093727.501000", "093727.504000", "093727.506000", "093727.508000", "093727.510000", "093727.513000", "093727.515000", "093727.517000", "093727.520000", "093727.522000", "093727.524000", "093727.526000", "093727.533000", "093747.485000", "093747.488000", "093747.490000", "093747.492000", "093747.494000", "093747.497000", "093747.499000", "093747.501000", "093747.510000", "093747.512000", "093827.485000", "093827.488000", "093827.490000", "093827.497000", "093827.499000", "093827.502000", "093827.504000", "093827.506000", "093827.508000", "093827.511000", "093827.513000", "093827.515000", "093827.517000", "093827.520000", "093827.522000", "093827.524000", "093827.526000", "093827.529000", "093827.531000", "093827.533000", "093907.484000", "093907.487000", "093907.489000", "093907.491000", "093907.494000", "093907.496000", "093907.498000", "093907.501000", "093907.503000", "093907.505000", "093907.508000", "093907.510000", "093907.512000", "093907.515000", "093907.517000", "093907.519000", "093907.521000", "093907.524000", "093907.526000", "093907.528000", "093947.485000", "093947.488000", "093947.490000", "093947.492000", "093947.495000", "093947.497000", "093947.503000", "093947.505000", "093947.508000", "093947.510000", "093947.512000", "093947.514000", "093947.517000", "093947.519000", "093947.521000", "093947.524000", "093947.526000", "093947.528000", "093947.530000", "093947.533000", "094027.485000", "094027.488000", "094027.490000", "094027.492000", "094027.495000", "094027.497000", "094027.499000", "094027.501000", "094027.512000", "094027.514000", "094027.517000", "094027.519000", "094027.521000", "094027.523000", "094027.526000", "094027.528000", "094027.530000", "094027.532000", "094027.535000", "094027.537000", "094107.485000", "094107.488000", "094107.490000", "094107.492000", "094107.495000", "094107.497000", "094107.499000", "094107.501000", "094107.504000", "094107.506000", "094107.518000", "094107.520000", "094107.522000", "094107.524000", "094107.527000", "094107.529000", "094107.531000", "094107.533000", "094107.536000", "094107.538000", "094147.485000", "094147.488000", "094147.490000", "094147.492000", "094147.495000", "094147.497000", "094147.499000", "094147.501000", "094147.504000", "094147.506000", "094147.508000", "094147.510000", "094147.513000", "094147.515000", "094147.517000", "094147.519000", "094147.523000", "094147.525000", "094147.527000", "094147.529000", "094227.485000", "094227.488000", "094227.490000", "094227.492000", "094227.495000", "094227.497000", "094227.499000", "094227.501000", "094227.504000", "094227.506000", "094227.508000", "094227.510000", "094227.513000", "094227.515000", "094227.517000", "094227.520000", "094227.522000", "094227.524000", "094227.527000", "094227.529000", "094231.367000", "094231.369000"],
      "InstanceNumber": [1, 2, 3, 4, 5, 6, 7, 8, 9, 10, 11, 12, 13, 14, 15, 16, 17, 18, 19, 20, 21, 22, 23, 24, 25, 26, 27, 28, 29, 30, 31, 32, 33, 34, 35, 36, 37, 38, 39, 40, 41, 42, 43, 44, 45, 46, 47, 48, 49, 50, 51, 52, 53, 54, 55, 56, 57, 58, 59, 60, 61, 62, 63, 64, 65, 66, 67, 68, 69, 70, 71, 72, 73, 74, 75, 76, 77, 78, 79, 80, 81, 82, 83, 84, 85, 86, 87, 88, 89, 90, 91, 92, 93, 94, 95, 96, 97, 98, 99, 100, 101, 102, 103, 104, 105, 106, 107, 108, 109, 110, 111, 112, 113, 114, 115, 116, 117, 118, 119, 120, 121, 122, 123, 124, 125, 126, 127, 128, 129, 130, 131, 132, 133, 134, 135, 136, 137, 138, 139, 140, 141, 142, 143, 144, 145, 146, 147, 148, 149, 150, 151, 152, 153, 154, 155, 156, 157, 158, 159, 160, 161, 162, 163, 164, 165, 166, 167, 168, 169, 170, 171, 172, 173, 174, 175, 176, 177, 178, 179, 180, 181, 182, 183, 184, 185, 186, 187, 188, 189, 190, 191, 192, 193, 194, 195, 196, 197, 198, 199, 200],
      "LargestImagePixelValue": [2091, 2090, 2093, 2094, 2094, 2092, 2094, 2091, 2093, 2093, 2093, 2091, 2091, 2092, 2092, 2091, 2090, 2090, 2090, 2090, 2090, 2091, 2088, 2093, 2089, 2089, 2090, 2090, 2090, 2091, 2091, 2091, 2093, 2090, 2089, 2089, 2090, 2090, 2091, 2089, 2091, 2091, 2088, 2091, 2090, 2090, 2092, 2092, 2092, 2092, 2087, 2088, 2088, 2087, 2091, 2087, 2090, 2091, 2095, 2091, 2090, 2090, 2089, 2091, 2090, 2090, 2092, 2089, 2092, 2090, 2091, 2090, 2092, 2092, 2091, 2089, 2090, 2088, 2090, 2089, 2089, 2090, 2089, 2090, 2087, 2087, 2089, 2090, 2088, 2088, 2089, 2088, 2090, 2090, 2088, 2088, 2087, 2089, 2088, 2088, 2090, 2088, 2090, 2089, 2092, 2089, 2091, 2090, 2090, 2090, 2089, 2090, 2091, 2089, 2090, 2088, 2092, 2089, 2090, 2090, 2089, 2090, 2091, 2090, 2093, 2089, 2089, 2089, 2090, 2092, 2088, 2090, 2087, 2090, 2090, 2088, 2091, 2087, 2089, 2087, 2086, 2088, 2088, 2087, 2089, 2089, 2091, 2088, 2089, 2089, 2089, 2087, 2088, 2088, 2089, 2088, 2087, 2087, 2090, 2090, 2090, 2090, 2091, 2090, 2090, 2087, 2089, 2089, 2090, 2090, 2089, 2087, 2087, 2085, 2087, 2087, 2087, 2086, 2086, 2086, 2088, 2087, 2086, 2087, 2088, 2085, 2087, 2087, 2089, 2087, 2085, 2089, 2090, 2088, 2085, 2089, 2086, 2087, 2085, 2086],
      "WindowCenter": [1003.0, 1003.0, 1003.0, 1002.0, 1003.0, 1003.0, 1003.0, 1003.0, 1003.0, 1002.0, 1003.0, 1002.0, 1002.0, 1003.0, 1003.0, 1002.0, 1003.0, 1003.0, 1002.0, 1002.0, 1003.0, 1002.0, 1002.0, 1002.0, 1002.0, 1002.0, 1002.0, 1002.0, 1002.0, 1001.0, 1002.0, 1001.0, 1004.0, 1002.0, 1003.0, 1002.0, 1001.0, 1003.0, 1001.0, 1003.0, 1002.0, 1002.0, 1002.0, 1003.0, 1002.0, 1001.0, 1002.0, 1002.0, 1001.0, 1002.0, 1002.0, 1001.0, 1001.0, 1001.0, 1002.0, 1001.0, 1002.0, 1002.0, 1002.0, 1002.0, 1002.0, 1001.0, 1001.0, 1001.0, 1002.0, 1002.0, 1002.0, 1002.0, 1002.0, 1002.0, 1002.0, 1002.0, 1002.0, 1002.0, 1002.0, 1002.0, 1003.0, 1002.0, 1002.0, 1002.0, 1001.0, 1002.0, 1002.0, 1002.0, 1002.0, 1002.0, 1001.0, 1001.0, 1001.0, 1001.0, 1001.0, 1001.0, 1002.0, 1000.0, 1000.0, 1001.0, 1001.0, 1001.0, 1001.0, 1001.0, 1001.0, 1001.0, 1001.0, 1001.0, 1001.0, 1001.0, 1001.0, 1000.0, 1001.0, 1002.0, 1001.0, 1001.0, 1001.0, 1001.0, 1002.0, 1001.0, 1001.0, 1001.0, 1001.0, 1001.0, 1001.0, 1001.0, 1001.0, 1001.0, 1001.0, 1001.0, 1001.0, 1001.0, 1001.0, 1001.0, 1001.0, 1001.0, 1001.0, 1001.0, 1001.0, 1002.0, 1001.0, 1001.0, 1001.0, 1001.0, 1001.0, 1002.0, 1001.0, 1001.0, 1001.0, 1000.0, 1001.0, 1001.0, 1001.0, 1000.0, 1001.0, 1001.0, 1001.0, 1001.0, 1001.0, 1001.0, 1001.0, 1001.0, 1001.0, 1001.0, 1001.0, 1000.0, 1001.0, 1001.0, 1001.0, 1001.0, 1001.0, 1002.0, 1001.0, 1000.0, 1001.0, 1001.0, 1000.0, 1001.0, 1001.0, 1001.0, 1001.0, 1000.0, 1000.0, 1002.0, 1001.0, 1001.0, 1001.0, 1001.0, 1001.0, 1000.0, 1002.0, 1001.0, 1001.0, 1001.0, 1001.0, 1001.0, 1001.0, 1001.0, 1001.0, 1002.0, 1001.0, 1001.0, 1001.0, 1000.0],
      "WindowWidth": [2226.0, 2226.0, 2226.0, 2225.0, 2226.0, 2226.0, 2226.0, 2226.0, 2226.0, 2225.0, 2226.0, 2225.0, 2225.0, 2226.0, 2226.0, 2225.0, 2226.0, 2226.0, 2225.0, 2225.0, 2226.0, 2225.0, 2225.0, 2225.0, 2225.0, 2225.0, 2225.0, 2225.0, 2225.0, 2224.0, 2225.0, 2224.0, 2227.0, 2225.0, 2226.0, 2225.0, 2224.0, 2226.0, 2224.0, 2226.0, 2224.0, 2224.0, 2224.0, 2226.0, 2224.0, 2224.0, 2224.0, 2224.0, 2224.0, 2224.0, 2224.0, 2224.0, 2224.0, 2224.0, 2224.0, 2224.0, 2224.0, 2224.0, 2224.0, 2224.0, 2224.0, 2223.0, 2223.0, 2223.0, 2224.0, 2224.0, 2224.0, 2224.0, 2224.0, 2224.0, 2224.0, 2224.0, 2224.0, 2224.0, 2224.0, 2224.0, 2225.0, 2224.0, 2224.0, 2224.0, 2223.0, 2224.0, 2224.0, 2224.0, 2225.0, 2224.0, 2224.0, 2224.0, 2224.0, 2223.0, 2223.0, 2224.0, 2224.0, 2223.0, 2223.0, 2224.0, 2224.0, 2224.0, 2224.0, 2224.0, 2224.0, 2223.0, 2224.0, 2223.0, 2224.0, 2224.0, 2224.0, 2223.0, 2224.0, 2224.0, 2223.0, 2223.0, 2223.0, 2223.0, 2224.0, 2223.0, 2223.0, 2223.0, 2223.0, 2223.0, 2223.0, 2223.0, 2223.0, 2223.0, 2223.0, 2223.0, 2223.0, 2223.0, 2223.0, 2223.0, 2223.0, 2223.0, 2223.0, 2223.0, 2223.0, 2223.0, 2223.0, 2223.0, 2223.0, 2223.0, 2223.0, 2223.0, 2223.0, 2222.0, 2223.0, 2222.0, 2222.0, 2223.0, 2222.0, 2222.0, 2222.0, 2222.0, 2222.0, 2222.0, 2222.0, 2222.0, 2222.0, 2222.0, 2222.0, 2222.0, 2222.0, 2222.0, 2222.0, 2222.0, 2222.0, 2222.0, 2222.0, 2223.0, 2222.0, 2222.0, 2222.0, 2222.0, 2222.0, 2222.0, 2222.0, 2222.0, 2223.0, 2221.0, 2221.0, 2222.0, 2222.0, 2222.0, 2222.0, 2222.0, 2222.0, 2221.0, 2222.0, 2222.0, 2222.0, 2222.0, 2222.0, 2222.0, 2222.0, 2222.0, 2221.0, 2223.0, 2222.0, 2222.0, 2221.0, 2221.0]
    },
    "slices": {}
  }
}