{
  "AcquisitionMatrixPE": 80,
  "AcquisitionNumber": 1,
  "AcquisitionTime": "09:29:2.070000",
  "BandwidthPerPixelPhaseEncode": 46.296,
  "BaseResolution": 80,
  "BodyPartExamined": "BRAIN",
  "CoilCombinationMethod": "Sum of Squares",
  "ConsistencyInfo": "N4_VE11E_LATEST_20181129",
  "ConversionSoftware": "dcm2niix",
  "ConversionSoftwareVersion": "v1.0.20220720",
  "DerivedVendorReportedEchoSpacing": 0.000540003,
  "DeviceSerialNumber": "66112",
  "DwellTime": 2.7e-06,
  "EchoTime": 0.035,
  "EchoTrainLength": 39,
  "EffectiveEchoSpacing": 0.000270002,
  "FlipAngle": 90,
  "HeudiconvVersion": "0.13.1",
  "ImageOrientationPatientDICOM": [0.990703, 0.135865, 0.0069956, -0.131484, 0.943021, 0.305651],
  "ImageOrientationText": "Tra>Cor(17.7)>Sag(-2.0)",
  "ImageType": [
    "ORIGINAL",
    "PRIMARY",
    "M",
    "ND",
    "NORM",
    "MOSAIC"
],
  "ImagingFrequency": 123.259,
  "InPlanePhaseEncodingDirectionDICOM": "COL",
  "InstitutionAddress": "Maynard 3,Hanover,NH,US,03755",
  "InstitutionName": "Dartmouth College - PBS",
  "InstitutionalDepartmentName": "Department",
  "MRAcquisitionType": "2D",
  "MagneticFieldStrength": 3,
  "Manufacturer": "Siemens",
  "ManufacturersModelName": "Prisma",
  "Modality": "MR",
  "MultibandAccelerationFactor": 4,
  "NonlinearGradientCorrection": false,
  "ParallelReductionFactorInPlane": 2,
  "PartialFourier": 1,
  "PatientPosition": "HFS",
  "PercentPhaseFOV": 100,
  "PercentSampling": 100,
  "PhaseEncodingDirection": "j-",
  "PhaseEncodingSteps": 79,
  "PhaseResolution": 1,
  "PixelBandwidth": 2315,
  "ProcedureStepDescription": "dbic^QA",
  "ProtocolName": "func-bold_task-rest_acq-p2-s4-3.5mm",
  "PulseSequenceDetails": "%SiemensSeq%\\ep2d_bold",
  "ReceiveCoilActiveElements": "HEA;HEP",
  "ReceiveCoilName": "Head_32",
  "ReconMatrixPE": 80,
  "RefLinesPE": 24,
  "RepetitionTime": 2,
  "SAR": 0.0305136,
  "ScanOptions": "FS",
  "ScanningSequence": "EP",
  "SequenceName": "*epfid2d1_80",
  "SequenceVariant": "SK",
  "SeriesDescription": "func-bold_task-rest_acq-p2-s4-3.5mm",
  "SeriesNumber": 6,
  "ShimSetting": [4224, -7733, -7476, -18, -129, -42, -32, 60],
  "SliceThickness": 3.5,
  "SliceTiming": [1.485, 0, 0.99, 0.2475, 1.2375, 0.7425, 1.7325, 0.495, 1.485, 0, 0.99, 0.2475, 1.2375, 0.7425, 1.7325, 0.495, 1.485, 0, 0.99, 0.2475, 1.2375, 0.7425, 1.7325, 0.495, 1.485, 0, 0.99, 0.2475, 1.2375, 0.7425, 1.7325, 0.495],
  "SoftwareVersions": "syngo MR E11",
  "SpacingBetweenSlices": 3.99,
  "StationName": "AWP66112",
  "TaskName": "rest",
  "TotalReadoutTime": 0.0213301,
  "TxRefAmp": 224.972,
  "dcmmeta_affine": [
    [-2.9721081256866455, -0.3944522440433502, -0.13937143981456757, 137.5048370361328],
    [-0.40759438276290894, 2.82906436920166, 1.2118784189224243, -118.37519836425781],
    [0.020986806601285934, -0.9169525504112244, 3.798950672149658, -21.76776885986328],
    [0.0, 0.0, 0.0, 1.0]
],
  "dcmmeta_reorient_transform": [
    [0.0, -1.0, 0.0, 79.0],
    [1.0, 0.0, 0.0, 0.0],
    [0.0, 0.0, 1.0, 0.0],
    [0.0, 0.0, 0.0, 1.0]
],
  "dcmmeta_shape": [80, 80, 32, 200],
  "dcmmeta_slice_dim": 2,
  "dcmmeta_version": 0.6,
  "global": {
    "const": {
      "AccessionNumber": "qa",
      "AcquisitionMatrix": [80, 0, 0, 80],
      "AngioFlag": "N",
      "BitsAllocated": 16,
      "BitsStored": 12,
      "BodyPartExamined": "BRAIN",
      "Columns": 480,
      "EchoNumbers": 1,
      "EchoTime": 35.0,
      "EchoTrainLength": 39,
      "FlipAngle": 90.0,
      "HighBit": 11,
      "ImageOrientationPatient": [0.99070268981595, 0.13586479288481, 0.00699560189016, -0.1314840767829, 0.94302147119, 0.30565085052586],
      "ImagePositionPatient": [-621.87427644099, -752.45264542744, -281.79489123514],
      "ImageType": [
        "ORIGINAL",
        "PRIMARY",
        "M",
        "ND",
        "NORM",
        "MOSAIC"
],
      "ImagedNucleus": "1H",
      "ImagingFrequency": 123.259435,
      "InPlanePhaseEncodingDirection": "COL",
      "MRAcquisitionType": "2D",
      "MagneticFieldStrength": 3.0,
      "Manufacturer": "SIEMENS",
      "ManufacturerModelName": "Prisma",
      "Modality": "MR",
      "NumberOfAverages": 1.0,
      "NumberOfPhaseEncodingSteps": 79,
      "PercentPhaseFieldOfView": 100.0,
      "PercentSampling": 100.0,
      "PerformedProcedureStepStartTime": "091944.924000",
      "PhotometricInterpretation": "MONOCHROME2",
      "PixelBandwidth": 2315.0,
      "PixelRepresentation": 0,
      "PixelSpacing": [3.0, 3.0],
      "ProtocolName": "func-bold_task-rest_acq-p2-s4-3.5mm",
      "RepetitionTime": 2000.0,
      "Rows": 480,
      "SAR": 0.03051363542694,
      "SamplesPerPixel": 1,
      "ScanOptions": "FS",
      "ScanningSequence": "EP",
      "SequenceName": "*epfid2d1_80",
      "SequenceVariant": "SK",
      "SeriesDescription": "func-bold_task-rest_acq-p2-s4-3.5mm",
      "SeriesNumber": 6,
      "SeriesTime": "092947.656000",
      "SliceLocation": -61.482526073987,
      "SliceThickness": 3.5,
      "SmallestImagePixelValue": 0,
      "SoftwareVersions": "syngo MR E11",
      "SpacingBetweenSlices": 3.9899999994996,
      "SpecificCharacterSet": "ISO_IR 100",
      "StudyID": "12",
      "StudyTime": "091944.865000",
      "TransmitCoilName": "Body",
      "VariableFlipAngleFlag": "N",
      "WindowCenterWidthExplanation": "Algo1"
    },
    "slices": {}
  },
  "time": {
    "samples": {
      "AcquisitionNumber": [1, 2, 3, 4, 5, 6, 7, 8, 9, 10, 11, 12, 13, 14, 15, 16, 17, 18, 19, 20, 21, 22, 23, 24, 25, 26, 27, 28, 29, 30, 31, 32, 33, 34, 35, 36, 37, 38, 39, 40, 41, 42, 43, 44, 45, 46, 47, 48, 49, 50, 51, 52, 53, 54, 55, 56, 57, 58, 59, 60, 61, 62, 63, 64, 65, 66, 67, 68, 69, 70, 71, 72, 73, 74, 75, 76, 77, 78, 79, 80, 81, 82, 83, 84, 85, 86, 87, 88, 89, 90, 91, 92, 93, 94, 95, 96, 97, 98, 99, 100, 101, 102, 103, 104, 105, 106, 107, 108, 109, 110, 111, 112, 113, 114, 115, 116, 117, 118, 119, 120, 121, 122, 123, 124, 125, 126, 127, 128, 129, 130, 131, 132, 133, 134, 135, 136, 137, 138, 139, 140, 141, 142, 143, 144, 145, 146, 147, 148, 149, 150, 151, 152, 153, 154, 155, 156, 157, 158, 159, 160, 161, 162, 163, 164, 165, 166, 167, 168, 169, 170, 171, 172, 173, 174, 175, 176, 177, 178, 179, 180, 181, 182, 183, 184, 185, 186, 187, 188, 189, 190, 191, 192, 193, 194, 195, 196, 197, 198, 199, 200],
      "AcquisitionTime": ["092902.070000", "092904.070000", "092906.070000", "092908.070000", "092910.070000", "092912.070000", "092914.070000", "092916.070000", "092918.070000", "092920.070000", "092922.070000", "092924.070000", "092926.070000", "092928.070000", "092930.070000", "092932.070000", "092934.070000", "092936.070000", "092938.070000", "092940.070000", "092942.070000", "092944.070000", "092946.070000", "092948.070000", "092950.070000", "092952.070000", "092954.070000", "092956.070000", "092958.070000", "093000.070000", "093002.070000", "093004.070000", "093006.070000", "093008.070000", "093010.070000", "093012.070000", "093014.070000", "093016.070000", "093018.070000", "093020.070000", "093022.070000", "093024.070000", "093026.070000", "093028.070000", "093030.070000", "093032.070000", "093034.070000", "093036.070000", "093038.070000", "093040.070000", "093042.070000", "093044.070000", "093046.070000", "093048.070000", "093050.070000", "093052.070000", "093054.070000", "093056.070000", "093058.070000", "093100.070000", "093102.070000", "093104.070000", "093106.070000", "093108.070000", "093110.070000", "093112.070000", "093114.070000", "093116.070000", "093118.070000", "093120.070000", "093122.070000", "093124.070000", "093126.070000", "093128.070000", "093130.070000", "093132.070000", "093134.070000", "093136.070000", "093138.070000", "093140.070000", "093142.070000", "093144.070000", "093146.070000", "093148.070000", "093150.070000", "093152.070000", "093154.070000", "093156.070000", "093158.070000", "093200.070000", "093202.070000", "093204.070000", "093206.070000", "093208.070000", "093210.070000", "093212.070000", "093214.070000", "093216.070000", "093218.070000", "093220.070000", "093222.070000", "093224.070000", "093226.070000", "093228.070000", "093230.070000", "093232.070000", "093234.070000", "093236.070000", "093238.070000", "093240.070000", "093242.070000", "093244.070000", "093246.070000", "093248.070000", "093250.070000", "093252.070000", "093254.070000", "093256.070000", "093258.070000", "093300.070000", "093302.070000", "093304.070000", "093306.070000", "093308.070000", "093310.070000", "093312.070000", "093314.070000", "093316.070000", "093318.070000", "093320.070000", "093322.070000", "093324.070000", "093326.070000", "093328.070000", "093330.070000", "093332.070000", "093334.070000", "093336.070000", "093338.070000", "093340.070000", "093342.070000", "093344.070000", "093346.070000", "093348.070000", "093350.070000", "093352.070000", "093354.070000", "093356.070000", "093358.070000", "093400.070000", "093402.070000", "093404.070000", "093406.070000", "093408.070000", "093410.070000", "093412.070000", "093414.070000", "093416.070000", "093418.070000", "093420.070000", "093422.070000", "093424.070000", "093426.070000", "093428.070000", "093430.070000", "093432.070000", "093434.070000", "093436.070000", "093438.070000", "093440.070000", "093442.070000", "093444.070000", "093446.070000", "093448.070000", "093450.070000", "093452.070000", "093454.070000", "093456.070000", "093458.070000", "093500.070000", "093502.070000", "093504.070000", "093506.070000", "093508.070000", "093510.070000", "093512.070000", "093514.070000", "093516.070000", "093518.070000", "093520.070000", "093522.070000", "093524.070000", "093526.070000", "093528.070000", "093530.070000", "093532.070000", "093534.070000", "093536.070000", "093538.070000", "093540.070000"],
      "ContentTime": ["092947.659000", "092947.662000", "092947.670000", "092947.673000", "092947.675000", "092947.682000", "092947.685000", "092947.688000", "092947.690000", "092947.693000", "092947.695000", "092947.697000", "092947.700000", "092947.702000", "092947.704000", "092947.706000", "092947.709000", "092947.711000", "092947.718000", "092947.721000", "092947.723000", "092947.725000", "092947.728000", "093027.655000", "093027.658000", "093027.660000", "093027.670000", "093027.673000", "093027.675000", "093027.677000", "093027.680000", "093027.682000", "093027.684000", "093027.687000", "093027.694000", "093027.696000", "093027.698000", "093027.701000", "093027.703000", "093027.705000", "093027.707000", "093027.710000", "093027.712000", "093107.655000", "093107.662000", "093107.664000", "093107.666000", "093107.668000", "093107.671000", "093107.673000", "093107.675000", "093107.678000", "093107.680000", "093107.682000", "093107.684000", "093107.687000", "093107.689000", "093107.691000", "093107.694000", "093107.696000", "093107.698000", "093107.701000", "093107.703000", "093147.655000", "093147.658000", "093147.660000", "093147.662000", "093147.665000", "093147.667000", "093147.669000", "093147.672000", "093147.674000", "093147.676000", "093147.678000", "093147.681000", "093147.683000", "093147.685000", "093147.688000", "093147.690000", "093147.692000", "093147.694000", "093147.697000", "093147.699000", "093227.655000", "093227.658000", "093227.660000", "093227.662000", "093227.665000", "093227.667000", "093227.669000", "093227.672000", "093227.674000", "093227.676000", "093227.678000", "093227.681000", "093227.683000", "093227.685000", "093227.688000", "093227.690000", "093227.692000", "093227.695000", "093227.697000", "093227.699000", "093307.655000", "093307.658000", "093307.660000", "093307.662000", "093307.665000", "093307.667000", "093307.669000", "093307.672000", "093307.674000", "093307.676000", "093307.678000", "093307.681000", "093307.683000", "093307.685000", "093307.688000", "093307.690000", "093307.692000", "093307.694000", "093307.697000", "093307.699000", "093347.655000", "093347.658000", "093347.660000", "093347.662000", "093347.665000", "093347.667000", "093347.669000", "093347.672000", "093347.674000", "093347.677000", "093347.679000", "093347.681000", "093347.684000", "093347.686000", "093347.688000", "093347.690000", "093347.693000", "093347.695000", "093347.697000", "093347.700000", "093427.654000", "093427.657000", "093427.659000", "093427.661000", "093427.664000", "093427.666000", "093427.668000", "093427.671000", "093427.673000", "093427.675000", "093427.678000", "093427.680000", "093427.682000", "093427.685000", "093427.687000", "093427.689000", "093427.692000", "093427.694000", "093427.697000", "093427.699000", "093507.655000", "093507.658000", "093507.660000", "093507.662000", "093507.665000", "093507.667000", "093507.669000", "093507.672000", "093507.675000", "093507.677000", "093507.679000", "093507.681000", "093507.684000", "093507.686000", "093507.688000", "093507.691000", "093507.693000", "093507.695000", "093507.698000", "093507.700000", "093541.410000", "093541.412000", "093541.415000", "093541.418000", "093541.420000", "093541.422000", "093541.425000", "093541.427000", "093541.429000", "093541.432000", "093541.434000", "093541.437000", "093541.439000", "093541.442000", "093541.444000", "093541.446000", "093541.449000"],
      "InstanceCreationTime": ["092947.659000", "092947.662000", "092947.670000", "092947.673000", "092947.675000", "092947.682000", "092947.685000", "092947.688000", "092947.690000", "092947.693000", "092947.695000", "092947.697000", "092947.700000", "092947.702000", "092947.704000", "092947.706000", "092947.709000", "092947.711000", "092947.718000", "092947.721000", "092947.723000", "092947.725000", "092947.728000", "093027.655000", "093027.658000", "093027.660000", "093027.670000", "093027.673000", "093027.675000", "093027.677000", "093027.680000", "093027.682000", "093027.684000", "093027.687000", "093027.694000", "093027.696000", "093027.698000", "093027.701000", "093027.703000", "093027.705000", "093027.707000", "093027.710000", "093027.712000", "093107.655000", "093107.662000", "093107.664000", "093107.666000", "093107.668000", "093107.671000", "093107.673000", "093107.675000", "093107.678000", "093107.680000", "093107.682000", "093107.684000", "093107.687000", "093107.689000", "093107.691000", "093107.694000", "093107.696000", "093107.698000", "093107.701000", "093107.703000", "093147.655000", "093147.658000", "093147.660000", "093147.662000", "093147.665000", "093147.667000", "093147.669000", "093147.672000", "093147.674000", "093147.676000", "093147.678000", "093147.681000", "093147.683000", "093147.685000", "093147.688000", "093147.690000", "093147.692000", "093147.694000", "093147.697000", "093147.699000", "093227.655000", "093227.658000", "093227.660000", "093227.662000", "093227.665000", "093227.667000", "093227.669000", "093227.672000", "093227.674000", "093227.676000", "093227.678000", "093227.681000", "093227.683000", "093227.685000", "093227.688000", "093227.690000", "093227.692000", "093227.695000", "093227.697000", "093227.699000", "093307.655000", "093307.658000", "093307.660000", "093307.662000", "093307.665000", "093307.667000", "093307.669000", "093307.672000", "093307.674000", "093307.676000", "093307.678000", "093307.681000", "093307.683000", "093307.685000", "093307.688000", "093307.690000", "093307.692000", "093307.694000", "093307.697000", "093307.699000", "093347.655000", "093347.658000", "093347.660000", "093347.662000", "093347.665000", "093347.667000", "093347.669000", "093347.672000", "093347.674000", "093347.677000", "093347.679000", "093347.681000", "093347.684000", "093347.686000", "093347.688000", "093347.690000", "093347.693000", "093347.695000", "093347.697000", "093347.700000", "093427.654000", "093427.657000", "093427.659000", "093427.661000", "093427.664000", "093427.666000", "093427.668000", "093427.671000", "093427.673000", "093427.675000", "093427.678000", "093427.680000", "093427.682000", "093427.685000", "093427.687000", "093427.689000", "093427.692000", "093427.694000", "093427.697000", "093427.699000", "093507.655000", "093507.658000", "093507.660000", "093507.662000", "093507.665000", "093507.667000", "093507.669000", "093507.672000", "093507.675000", "093507.677000", "093507.679000", "093507.681000", "093507.684000", "093507.686000", "093507.688000", "093507.691000", "093507.693000", "093507.695000", "093507.698000", "093507.700000", "093541.410000", "093541.412000", "093541.415000", "093541.418000", "093541.420000", "093541.422000", "093541.425000", "093541.427000", "093541.429000", "093541.432000", "093541.434000", "093541.437000", "093541.439000", "093541.442000", "093541.444000", "093541.446000", "093541.449000"],
      "InstanceNumber": [1, 2, 3, 4, 5, 6, 7, 8, 9, 10, 11, 12, 13, 14, 15, 16, 17, 18, 19, 20, 21, 22, 23, 24, 25, 26, 27, 28, 29, 30, 31, 32, 33, 34, 35, 36, 37, 38, 39, 40, 41, 42, 43, 44, 45, 46, 47, 48, 49, 50, 51, 52, 53, 54, 55, 56, 57, 58, 59, 60, 61, 62, 63, 64, 65, 66, 67, 68, 69, 70, 71, 72, 73, 74, 75, 76, 77, 78, 79, 80, 81, 82, 83, 84, 85, 86, 87, 88, 89, 90, 91, 92, 93, 94, 95, 96, 97, 98, 99, 100, 101, 102, 103, 104, 105, 106, 107, 108, 109, 110, 111, 112, 113, 114, 115, 116, 117, 118, 119, 120, 121, 122, 123, 124, 125, 126, 127, 128, 129, 130, 131, 132, 133, 134, 135, 136, 137, 138, 139, 140, 141, 142, 143, 144, 145, 146, 147, 148, 149, 150, 151, 152, 153, 154, 155, 156, 157, 158, 159, 160, 161, 162, 163, 164, 165, 166, 167, 168, 169, 170, 171, 172, 173, 174, 175, 176, 177, 178, 179, 180, 181, 182, 183, 184, 185, 186, 187, 188, 189, 190, 191, 192, 193, 194, 195, 196, 197, 198, 199, 200],
      "LargestImagePixelValue": [2136, 2134, 2139, 2133, 2137, 2141, 2137, 2135, 2143, 2136, 2136, 2139, 2136, 2140, 2139, 2136, 2139, 2137, 2138, 2137, 2137, 2139, 2140, 2139, 2141, 2137, 2140, 2141, 2141, 2135, 2139, 2140, 2137, 2137, 2137, 2137, 2144, 2141, 2135, 2135, 2138, 2135, 2141, 2140, 2138, 2138, 2137, 2138, 2140, 2137, 2138, 2136, 2137, 2144, 2139, 2142, 2137, 2140, 2142, 2141, 2136, 2138, 2139, 2138, 2138, 2140, 2143, 2139, 2137, 2137, 2145, 2139, 2136, 2142, 2138, 2136, 2138, 2136, 2137, 2139, 2136, 2136, 2141, 2138, 2142, 2143, 2137, 2144, 2136, 2139, 2140, 2140, 2139, 2141, 2139, 2139, 2141, 2138, 2145, 2141, 2139, 2140, 2141, 2138, 2141, 2140, 2136, 2141, 2138, 2138, 2141, 2140, 2137, 2140, 2138, 2143, 2139, 2139, 2143, 2139, 2142, 2141, 2139, 2137, 2147, 2141, 2139, 2145, 2141, 2140, 2144, 2139, 2138, 2142, 2139, 2142, 2138, 2139, 2138, 2138, 2140, 2141, 2140, 2139, 2142, 2140, 2144, 2145, 2141, 2141, 2140, 2140, 2142, 2139, 2139, 2142, 2143, 2140, 2143, 2141, 2139, 2140, 2140, 2138, 2138, 2139, 2138, 2139, 2140, 2139, 2143, 2139, 2138, 2140, 2139, 2145, 2141, 2138, 2144, 2137, 2137, 2139, 2140, 2141, 2144, 2139, 2141, 2143, 2139, 2144, 2140, 2138, 2138, 2140, 2138, 2143, 2138, 2140, 2143, 2141],
      "WindowCenter": [952.0, 953.0, 953.0, 954.0, 951.0, 953.0, 953.0, 953.0, 953.0, 953.0, 951.0, 953.0, 953.0, 952.0, 952.0, 953.0, 952.0, 953.0, 953.0, 953.0, 952.0, 953.0, 953.0, 952.0, 953.0, 953.0, 952.0, 953.0, 953.0, 953.0, 952.0, 953.0, 953.0, 953.0, 954.0, 953.0, 953.0, 953.0, 953.0, 952.0, 953.0, 952.0, 953.0, 953.0, 953.0, 953.0, 953.0, 953.0, 954.0, 952.0, 953.0, 953.0, 952.0, 953.0, 953.0, 953.0, 952.0, 953.0, 953.0, 953.0, 951.0, 953.0, 953.0, 952.0, 953.0, 953.0, 953.0, 953.0, 954.0, 953.0, 954.0, 952.0, 953.0, 953.0, 952.0, 952.0, 953.0, 953.0, 952.0, 952.0, 953.0, 953.0, 953.0, 953.0, 953.0, 953.0, 953.0, 953.0, 953.0, 953.0, 953.0, 952.0, 952.0, 953.0, 953.0, 953.0, 953.0, 953.0, 954.0, 953.0, 953.0, 952.0, 952.0, 953.0, 954.0, 953.0, 953.0, 953.0, 953.0, 953.0, 953.0, 952.0, 953.0, 952.0, 953.0, 953.0, 951.0, 953.0, 953.0, 953.0, 953.0, 953.0, 952.0, 953.0, 952.0, 953.0, 953.0, 951.0, 953.0, 953.0, 953.0, 953.0, 953.0, 953.0, 953.0, 953.0, 951.0, 953.0, 953.0, 953.0, 952.0, 953.0, 953.0, 953.0, 952.0, 953.0, 952.0, 953.0, 953.0, 953.0, 951.0, 953.0, 953.0, 953.0, 953.0, 952.0, 952.0, 953.0, 953.0, 952.0, 952.0, 953.0, 953.0, 952.0, 953.0, 952.0, 952.0, 952.0, 952.0, 952.0, 953.0, 952.0, 952.0, 953.0, 953.0, 952.0, 953.0, 953.0, 953.0, 952.0, 953.0, 953.0, 953.0, 953.0, 952.0, 953.0, 953.0, 953.0, 953.0, 952.0, 953.0, 953.0, 952.0, 952.0, 953.0, 953.0, 952.0, 952.0, 952.0, 952.0],
      "WindowWidth": [2223.0, 2224.0, 2225.0, 2224.0, 2223.0, 2224.0, 2223.0, 2225.0, 2224.0, 2224.0, 2223.0, 2224.0, 2224.0, 2223.0, 2223.0, 2225.0, 2223.0, 2224.0, 2225.0, 2224.0, 2223.0, 2225.0, 2224.0, 2223.0, 2224.0, 2224.0, 2223.0, 2225.0, 2225.0, 2224.0, 2223.0, 2223.0, 2224.0, 2224.0, 2224.0, 2224.0, 2224.0, 2223.0, 2224.0, 2223.0, 2224.0, 2223.0, 2224.0, 2224.0, 2225.0, 2224.0, 2223.0, 2224.0, 2224.0, 2223.0, 2224.0, 2223.0, 2223.0, 2225.0, 2224.0, 2225.0, 2223.0, 2224.0, 2223.0, 2223.0, 2222.0, 2224.0, 2223.0, 2223.0, 2224.0, 2224.0, 2225.0, 2224.0, 2224.0, 2224.0, 2224.0, 2222.0, 2224.0, 2224.0, 2223.0, 2223.0, 2223.0, 2225.0, 2223.0, 2223.0, 2225.0, 2225.0, 2225.0, 2225.0, 2225.0, 2223.0, 2224.0, 2224.0, 2223.0, 2225.0, 2223.0, 2223.0, 2223.0, 2224.0, 2223.0, 2225.0, 2223.0, 2223.0, 2224.0, 2225.0, 2225.0, 2223.0, 2223.0, 2223.0, 2224.0, 2224.0, 2223.0, 2223.0, 2224.0, 2224.0, 2224.0, 2223.0, 2223.0, 2223.0, 2223.0, 2224.0, 2222.0, 2224.0, 2224.0, 2224.0, 2223.0, 2224.0, 2223.0, 2224.0, 2222.0, 2223.0, 2224.0, 2222.0, 2224.0, 2223.0, 2224.0, 2224.0, 2223.0, 2224.0, 2224.0, 2223.0, 2222.0, 2224.0, 2223.0, 2224.0, 2224.0, 2223.0, 2224.0, 2224.0, 2223.0, 2224.0, 2222.0, 2223.0, 2224.0, 2224.0, 2222.0, 2223.0, 2223.0, 2224.0, 2223.0, 2222.0, 2223.0, 2224.0, 2223.0, 2223.0, 2223.0, 2223.0, 2224.0, 2222.0, 2224.0, 2223.0, 2223.0, 2223.0, 2223.0, 2222.0, 2224.0, 2223.0, 2223.0, 2224.0, 2224.0, 2223.0, 2223.0, 2224.0, 2224.0, 2222.0, 2223.0, 2224.0, 2224.0, 2223.0, 2223.0, 2223.0, 2223.0, 2223.0, 2223.0, 2223.0, 2224.0, 2224.0, 2223.0, 2222.0, 2224.0, 2224.0, 2223.0, 2223.0, 2223.0, 2223.0]
    },
    "slices": {}
  }
}