{
  "AcquisitionMatrixPE": 122,
  "AcquisitionNumber": 1,
  "AcquisitionTime": "10:20:36.190000",
  "BandwidthPerPixelPhaseEncode": 28.76,
  "BaseResolution": 122,
  "BodyPartExamined": "BRAIN",
  "CoilCombinationMethod": "Adaptive Combine",
  "ConsistencyInfo": "N4_VE11C_LATEST_20160120",
  "ConversionSoftware": "dcm2niix",
  "ConversionSoftwareVersion": "v1.0.20220720",
  "DerivedVendorReportedEchoSpacing": 0.000570008,
  "DeviceSerialNumber": "66112",
  "DiffusionScheme": "Monopolar",
  "DwellTime": 2e-06,
  "EchoTime": 0.075,
  "EchoTrainLength": 61,
  "EffectiveEchoSpacing": 0.000285004,
  "FlipAngle": 90,
  "HeudiconvVersion": "0.13.1",
  "ImageOrientationPatientDICOM": [0.989134, -0.146961, 0.00411219, 0.13831, 0.939661, 0.312902],
  "ImageOrientationText": "Tra>Cor(18.0)>Sag(2.9)",
  "ImageType": [
    "ORIGINAL",
    "PRIMARY",
    "DIFFUSION",
    "NONE",
    "ND",
    "NORM"
],
  "ImagingFrequency": 123.252,
  "InPlanePhaseEncodingDirectionDICOM": "COL",
  "InstitutionAddress": "Maynard 3,Hanover,NH,US,03755",
  "InstitutionName": "Dartmouth College - PBS",
  "InstitutionalDepartmentName": "Department",
  "MRAcquisitionType": "2D",
  "MagneticFieldStrength": 3,
  "Manufacturer": "Siemens",
  "ManufacturersModelName": "Prisma",
  "MatrixCoilMode": "GRAPPA",
  "Modality": "MR",
  "NonlinearGradientCorrection": false,
  "ParallelReductionFactorInPlane": 2,
  "PartialFourier": 1,
  "PatientPosition": "HFS",
  "PercentPhaseFOV": 100,
  "PercentSampling": 100,
  "PhaseEncodingDirection": "j-",
  "PhaseEncodingSteps": 122,
  "PhaseResolution": 1,
  "PixelBandwidth": 2050,
  "ProcedureStepDescription": "dbic^QA",
  "ProtocolName": "dwi_acq-DTI-30-p2",
  "PulseSequenceDetails": "%SiemensSeq%\\ep2d_diff",
  "ReceiveCoilActiveElements": "HEA;HEP",
  "ReceiveCoilName": "Head_32",
  "ReconMatrixPE": 122,
  "RefLinesPE": 38,
  "RepetitionTime": 7.7,
  "SAR": 0.120386,
  "ScanOptions": "FS",
  "ScanningSequence": "EP",
  "SequenceName": "*ep_b0",
  "SequenceVariant": "SK\\SP",
  "SeriesDescription": "dwi_acq-DTI-30-p2",
  "SeriesNumber": 8,
  "ShimSetting": [4143, -7693, -7494, 335, -85, -144, -65, 87],
  "SliceThickness": 2,
  "SliceTiming": [3.83594, 0, 3.94531, 0.10938, 4.05469, 0.21875, 4.16406, 0.32812, 4.27344, 0.4375, 4.38281, 0.54688, 4.49219, 0.65625, 4.60938, 0.76562, 4.71875, 0.875, 4.82031, 0.98438, 4.92969, 1.09375, 5.04688, 1.20312, 5.15625, 1.3125, 5.26562, 1.42188, 5.375, 1.53125, 5.48438, 1.64062, 5.59375, 1.75, 5.70312, 1.86719, 5.8125, 1.97656, 5.92188, 2.07812, 6.03125, 2.1875, 6.14062, 2.30469, 6.25, 2.41406, 6.35938, 2.52344, 6.46875, 2.63281, 6.57812, 2.74219, 6.6875, 2.85156, 6.79688, 2.96094, 6.90625, 3.07031, 7.01562, 3.17969, 7.125, 3.28906, 7.24219, 3.39844, 7.35156, 3.50781, 7.46094, 3.61719, 7.57031, 3.72656],
  "SoftwareVersions": "syngo MR E11",
  "SpacingBetweenSlices": 2,
  "SpoilingState": true,
  "StationName": "AWP66112",
  "TotalReadoutTime": 0.0344855,
  "TxRefAmp": 231.349,
  "dcmmeta_affine": [
    [-1.9458369016647339, 0.27208444476127625, 0.09969675540924072, 96.20386505126953],
    [0.28910332918167114, 1.8485136032104492, 0.6178665161132812, -145.3583984375],
    [0.008089559152722359, -0.6155443787574768, 1.8995513916015625, -27.784881591796875],
    [0.0, 0.0, 0.0, 1.0]
],
  "dcmmeta_reorient_transform": [
    [0.0, -1.0, 0.0, 121.0],
    [1.0, 0.0, 0.0, 0.0],
    [0.0, 0.0, -1.0, 69.0],
    [0.0, 0.0, 0.0, 1.0]
],
  "dcmmeta_shape": [122, 122, 70, 31],
  "dcmmeta_slice_dim": 2,
  "dcmmeta_version": 0.6,
  "global": {
    "const": {
      "AccessionNumber": "qa",
      "AcquisitionMatrix": [122, 0, 0, 122],
      "AngioFlag": "N",
      "BitsAllocated": 16,
      "BitsStored": 12,
      "BodyPartExamined": "BRAIN",
      "Columns": 122,
      "EchoNumbers": 1,
      "EchoTime": 75.0,
      "EchoTrainLength": 61,
      "FlipAngle": 90.0,
      "HighBit": 11,
      "ImageOrientationPatient": [0.98913376119578, -0.1469608530744, 0.00411219240206, 0.13830958831447, 0.93966109022325, 0.31290173106063],
      "ImageType": [
        "ORIGINAL",
        "PRIMARY",
        "DIFFUSION",
        "NONE",
        "ND",
        "NORM"
],
      "ImagedNucleus": "1H",
      "ImagingFrequency": 123.252455,
      "InPlanePhaseEncodingDirection": "COL",
      "MRAcquisitionType": "2D",
      "MagneticFieldStrength": 3.0,
      "Manufacturer": "SIEMENS",
      "ManufacturerModelName": "Prisma",
      "Modality": "MR",
      "NumberOfAverages": 1.0,
      "NumberOfPhaseEncodingSteps": 122,
      "PercentPhaseFieldOfView": 100.0,
      "PercentSampling": 100.0,
      "PerformedProcedureStepStartTime": "094800.514000",
      "PhotometricInterpretation": "MONOCHROME2",
      "PixelBandwidth": 2050.0,
      "PixelRepresentation": 0,
      "PixelSpacing": [1.9672131538391, 1.9672131538391],
      "ProtocolName": "dwi_acq-DTI-30-p2",
      "RepetitionTime": 7700.0,
      "Rows": 122,
      "SAR": 0.12038607829874,
      "SamplesPerPixel": 1,
      "ScanOptions": "FS",
      "ScanningSequence": "EP",
      "SequenceVariant": [
        "SK",
        "SP"
],
      "SeriesDescription": "dwi_acq-DTI-30-p2",
      "SeriesNumber": 8,
      "SeriesTime": "102041.463000",
      "SliceThickness": 2.0,
      "SmallestImagePixelValue": 0,
      "SoftwareVersions": "syngo MR E11",
      "SpacingBetweenSlices": 2.0,
      "SpecificCharacterSet": "ISO_IR 100",
      "StudyID": "29",
      "StudyTime": "094800.424000",
      "TransmitCoilName": "Body",
      "VariableFlipAngleFlag": "N",
      "WindowCenterWidthExplanation": "Algo1",
      "dBdt": 0.0},
    "slices": {
      "AcquisitionTime": ["102036.190000", "102032.350000", "102036.297500", "102032.457500", "102036.407500", "102032.567500", "102036.517500", "102032.677500", "102036.627500", "102032.787500", "102036.737500", "102032.897500", "102036.847500", "102033.007500", "102036.957500", "102033.117500", "102037.067500", "102033.227500", "102037.175000", "102033.337500", "102037.285000", "102033.445000", "102037.395000", "102033.555000", "102037.505000", "102033.665000", "102037.615000", "102033.775000", "102037.725000", "102033.885000", "102037.835000", "102033.995000", "102037.945000", "102034.105000", "102038.055000", "102034.215000", "102038.162500", "102034.325000", "102038.272500", "102034.432500", "102038.382500", "102034.542500", "102038.492500", "102034.652500", "102038.602500", "102034.762500", "102038.712500", "102034.872500", "102038.822500", "102034.982500", "102038.932500", "102035.092500", "102039.042500", "102035.202500", "102039.150000", "102035.310000", "102039.260000", "102035.420000", "102039.370000", "102035.530000", "102039.480000", "102035.640000", "102039.590000", "102035.750000", "102039.700000", "102035.860000", "102039.810000", "102035.970000", "102039.920000", "102036.080000", "102043.890000", "102040.050000", "102043.997500", "102040.157500", "102044.107500", "102040.267500", "102044.217500", "102040.377500", "102044.327500", "102040.487500", "102044.437500", "102040.597500", "102044.547500", "102040.707500", "102044.657500", "102040.817500", "102044.767500", "102040.927500", "102044.875000", "102041.037500", "102044.985000", "102041.145000", "102045.095000", "102041.255000", "102045.205000", "102041.365000", "102045.315000", "102041.475000", "102045.425000", "102041.585000", "102045.535000", "102041.695000", "102045.645000", "102041.805000", "102045.755000", "102041.915000", "102045.862500", "102042.025000", "102045.972500", "102042.132500", "102046.082500", "102042.242500", "102046.192500", "102042.352500", "102046.302500", "102042.462500", "102046.412500", "102042.572500", "102046.522500", "102042.682500", "102046.632500", "102042.792500", "102046.742500", "102042.902500", "102046.850000", "102043.010000", "102046.960000", "102043.120000", "102047.070000", "102043.230000", "102047.180000", "102043.340000", "102047.290000", "102043.450000", "102047.400000", "102043.560000", "102047.510000", "102043.670000", "102047.620000", "102043.780000", "102051.590000", "102047.750000", "102051.697500", "102047.857500", "102051.807500", "102047.967500", "102051.917500", "102048.077500", "102052.027500", "102048.187500", "102052.137500", "102048.297500", "102052.247500", "102048.407500", "102052.357500", "102048.517500", "102052.467500", "102048.627500", "102052.575000", "102048.737500", "102052.685000", "102048.845000", "102052.795000", "102048.955000", "102052.905000", "102049.065000", "102053.015000", "102049.175000", "102053.125000", "102049.285000", "102053.235000", "102049.395000", "102053.345000", "102049.505000", "102053.455000", "102049.615000", "102053.562500", "102049.725000", "102053.672500", "102049.832500", "102053.782500", "102049.942500", "102053.892500", "102050.052500", "102054.002500", "102050.162500", "102054.112500", "102050.272500", "102054.222500", "102050.382500", "102054.332500", "102050.492500", "102054.442500", "102050.602500", "102054.550000", "102050.710000", "102054.660000", "102050.820000", "102054.770000", "102050.930000", "102054.880000", "102051.040000", "102054.990000", "102051.150000", "102055.100000", "102051.260000", "102055.210000", "102051.370000", "102055.320000", "102051.480000", "102059.290000", "102055.450000", "102059.397500", "102055.557500", "102059.507500", "102055.667500", "102059.617500", "102055.777500", "102059.727500", "102055.887500", "102059.837500", "102055.997500", "102059.947500", "102056.107500", "102100.057500", "102056.217500", "102100.167500", "102056.327500", "102100.275000", "102056.437500", "102100.385000", "102056.545000", "102100.495000", "102056.655000", "102100.605000", "102056.765000", "102100.715000", "102056.875000", "102100.825000", "102056.985000", "102100.935000", "102057.095000", "102101.045000", "102057.205000", "102101.155000", "102057.315000", "102101.262500", "102057.425000", "102101.372500", "102057.532500", "102101.482500", "102057.642500", "102101.592500", "102057.752500", "102101.702500", "102057.862500", "102101.812500", "102057.972500", "102101.922500", "102058.082500", "102102.032500", "102058.192500", "102102.142500", "102058.302500", "102102.250000", "102058.410000", "102102.360000", "102058.520000", "102102.470000", "102058.630000", "102102.580000", "102058.740000", "102102.690000", "102058.850000", "102102.800000", "102058.960000", "102102.910000", "102059.070000", "102103.020000", "102059.180000", "102106.990000", "102103.150000", "102107.097500", "102103.257500", "102107.207500", "102103.367500", "102107.317500", "102103.477500", "102107.427500", "102103.587500", "102107.537500", "102103.697500", "102107.647500", "102103.807500", "102107.757500", "102103.917500", "102107.867500", "102104.027500", "102107.975000", "102104.137500", "102108.085000", "102104.245000", "102108.195000", "102104.355000", "102108.305000", "102104.465000", "102108.415000", "102104.575000", "102108.525000", "102104.685000", "102108.635000", "102104.795000", "102108.745000", "102104.905000", "102108.855000", "102105.015000", "102108.962500", "102105.125000", "102109.072500", "102105.232500", "102109.182500", "102105.342500", "102109.292500", "102105.452500", "102109.402500", "102105.562500", "102109.512500", "102105.672500", "102109.622500", "102105.782500", "102109.732500", "102105.892500", "102109.842500", "102106.002500", "102109.950000", "102106.110000", "102110.060000", "102106.220000", "102110.170000", "102106.330000", "102110.280000", "102106.440000", "102110.390000", "102106.550000", "102110.500000", "102106.660000", "102110.610000", "102106.770000", "102110.720000", "102106.880000", "102114.690000", "102110.850000", "102114.797500", "102110.957500", "102114.907500", "102111.067500", "102115.017500", "102111.177500", "102115.127500", "102111.287500", "102115.237500", "102111.397500", "102115.347500", "102111.507500", "102115.457500", "102111.617500", "102115.567500", "102111.727500", "102115.675000", "102111.837500", "102115.785000", "102111.945000", "102115.895000", "102112.055000", "102116.005000", "102112.165000", "102116.115000", "102112.275000", "102116.225000", "102112.385000", "102116.335000", "102112.495000", "102116.445000", "102112.605000", "102116.555000", "102112.715000", "102116.662500", "102112.825000", "102116.772500", "102112.932500", "102116.882500", "102113.042500", "102116.992500", "102113.152500", "102117.102500", "102113.262500", "102117.212500", "102113.372500", "102117.322500", "102113.482500", "102117.432500", "102113.592500", "102117.542500", "102113.702500", "102117.650000", "102113.810000", "102117.760000", "102113.920000", "102117.870000", "102114.030000", "102117.980000", "102114.140000", "102118.090000", "102114.250000", "102118.200000", "102114.360000", "102118.310000", "102114.470000", "102118.420000", "102114.580000", "102122.390000", "102118.550000", "102122.497500", "102118.657500", "102122.607500", "102118.767500", "102122.717500", "102118.877500", "102122.827500", "102118.987500", "102122.937500", "102119.097500", "102123.047500", "102119.207500", "102123.157500", "102119.317500", "102123.267500", "102119.427500", "102123.375000", "102119.537500", "102123.485000", "102119.645000", "102123.595000", "102119.755000", "102123.705000", "102119.865000", "102123.815000", "102119.975000", "102123.925000", "102120.085000", "102124.035000", "102120.195000", "102124.145000", "102120.305000", "102124.255000", "102120.415000", "102124.362500", "102120.525000", "102124.472500", "102120.632500", "102124.582500", "102120.742500", "102124.692500", "102120.852500", "102124.802500", "102120.962500", "102124.912500", "102121.072500", "102125.022500", "102121.182500", "102125.132500", "102121.292500", "102125.242500", "102121.402500", "102125.350000", "102121.510000", "102125.460000", "102121.620000", "102125.570000", "102121.730000", "102125.680000", "102121.840000", "102125.790000", "102121.950000", "102125.900000", "102122.060000", "102126.010000", "102122.170000", "102126.120000", "102122.280000", "102130.090000", "102126.250000", "102130.197500", "102126.357500", "102130.307500", "102126.467500", "102130.417500", "102126.577500", "102130.527500", "102126.687500", "102130.637500", "102126.797500", "102130.747500", "102126.907500", "102130.857500", "102127.017500", "102130.967500", "102127.127500", "102131.075000", "102127.237500", "102131.185000", "102127.345000", "102131.295000", "102127.455000", "102131.405000", "102127.565000", "102131.515000", "102127.675000", "102131.625000", "102127.785000", "102131.735000", "102127.895000", "102131.845000", "102128.005000", "102131.955000", "102128.115000", "102132.062500", "102128.225000", "102132.172500", "102128.332500", "102132.282500", "102128.442500", "102132.392500", "102128.552500", "102132.502500", "102128.662500", "102132.612500", "102128.772500", "102132.722500", "102128.882500", "102132.832500", "102128.992500", "102132.942500", "102129.102500", "102133.050000", "102129.210000", "102133.160000", "102129.320000", "102133.270000", "102129.430000", "102133.380000", "102129.540000", "102133.490000", "102129.650000", "102133.600000", "102129.760000", "102133.710000", "102129.870000", "102133.820000", "102129.980000", "102137.790000", "102133.950000", "102137.897500", "102134.057500", "102138.007500", "102134.167500", "102138.117500", "102134.277500", "102138.227500", "102134.387500", "102138.337500", "102134.497500", "102138.447500", "102134.607500", "102138.557500", "102134.717500", "102138.667500", "102134.827500", "102138.775000", "102134.937500", "102138.885000", "102135.045000", "102138.995000", "102135.155000", "102139.105000", "102135.265000", "102139.215000", "102135.375000", "102139.325000", "102135.485000", "102139.435000", "102135.595000", "102139.545000", "102135.705000", "102139.655000", "102135.815000", "102139.762500", "102135.925000", "102139.872500", "102136.032500", "102139.982500", "102136.142500", "102140.092500", "102136.252500", "102140.202500", "102136.362500", "102140.312500", "102136.472500", "102140.422500", "102136.582500", "102140.532500", "102136.692500", "102140.642500", "102136.802500", "102140.750000", "102136.910000", "102140.860000", "102137.020000", "102140.970000", "102137.130000", "102141.080000", "102137.240000", "102141.190000", "102137.350000", "102141.300000", "102137.460000", "102141.410000", "102137.570000", "102141.520000", "102137.680000", "102145.490000", "102141.650000", "102145.597500", "102141.757500", "102145.707500", "102141.867500", "102145.817500", "102141.977500", "102145.927500", "102142.087500", "102146.037500", "102142.197500", "102146.147500", "102142.307500", "102146.257500", "102142.417500", "102146.367500", "102142.527500", "102146.475000", "102142.637500", "102146.585000", "102142.745000", "102146.695000", "102142.855000", "102146.805000", "102142.965000", "102146.915000", "102143.075000", "102147.025000", "102143.185000", "102147.135000", "102143.295000", "102147.245000", "102143.405000", "102147.355000", "102143.515000", "102147.462500", "102143.625000", "102147.572500", "102143.732500", "102147.682500", "102143.842500", "102147.792500", "102143.952500", "102147.902500", "102144.062500", "102148.012500", "102144.172500", "102148.122500", "102144.282500", "102148.232500", "102144.392500", "102148.342500", "102144.502500", "102148.450000", "102144.610000", "102148.560000", "102144.720000", "102148.670000", "102144.830000", "102148.780000", "102144.940000", "102148.890000", "102145.050000", "102149.000000", "102145.160000", "102149.110000", "102145.270000", "102149.220000", "102145.380000", "102153.190000", "102149.350000", "102153.297500", "102149.457500", "102153.407500", "102149.567500", "102153.517500", "102149.677500", "102153.627500", "102149.787500", "102153.737500", "102149.897500", "102153.847500", "102150.007500", "102153.957500", "102150.117500", "102154.067500", "102150.227500", "102154.175000", "102150.337500", "102154.285000", "102150.445000", "102154.395000", "102150.555000", "102154.505000", "102150.665000", "102154.615000", "102150.775000", "102154.725000", "102150.885000", "102154.835000", "102150.995000", "102154.945000", "102151.105000", "102155.055000", "102151.215000", "102155.162500", "102151.325000", "102155.272500", "102151.432500", "102155.382500", "102151.542500", "102155.492500", "102151.652500", "102155.602500", "102151.762500", "102155.712500", "102151.872500", "102155.822500", "102151.982500", "102155.932500", "102152.092500", "102156.042500", "102152.202500", "102156.150000", "102152.310000", "102156.260000", "102152.420000", "102156.370000", "102152.530000", "102156.480000", "102152.640000", "102156.590000", "102152.750000", "102156.700000", "102152.860000", "102156.810000", "102152.970000", "102156.920000", "102153.080000", "102200.890000", "102157.050000", "102200.997500", "102157.157500", "102201.107500", "102157.267500", "102201.217500", "102157.377500", "102201.327500", "102157.487500", "102201.437500", "102157.597500", "102201.547500", "102157.707500", "102201.657500", "102157.817500", "102201.767500", "102157.927500", "102201.875000", "102158.037500", "102201.985000", "102158.145000", "102202.095000", "102158.255000", "102202.205000", "102158.365000", "102202.315000", "102158.475000", "102202.425000", "102158.585000", "102202.535000", "102158.695000", "102202.645000", "102158.805000", "102202.755000", "102158.915000", "102202.862500", "102159.025000", "102202.972500", "102159.132500", "102203.082500", "102159.242500", "102203.192500", "102159.352500", "102203.302500", "102159.462500", "102203.412500", "102159.572500", "102203.522500", "102159.682500", "102203.632500", "102159.792500", "102203.742500", "102159.902500", "102203.850000", "102200.010000", "102203.960000", "102200.120000", "102204.070000", "102200.230000", "102204.180000", "102200.340000", "102204.290000", "102200.450000", "102204.400000", "102200.560000", "102204.510000", "102200.670000", "102204.620000", "102200.780000", "102208.590000", "102204.750000", "102208.697500", "102204.857500", "102208.807500", "102204.967500", "102208.917500", "102205.077500", "102209.027500", "102205.187500", "102209.137500", "102205.297500", "102209.247500", "102205.407500", "102209.357500", "102205.517500", "102209.467500", "102205.627500", "102209.575000", "102205.737500", "102209.685000", "102205.845000", "102209.795000", "102205.955000", "102209.905000", "102206.065000", "102210.015000", "102206.175000", "102210.125000", "102206.285000", "102210.235000", "102206.395000", "102210.345000", "102206.505000", "102210.455000", "102206.615000", "102210.562500", "102206.725000", "102210.672500", "102206.832500", "102210.782500", "102206.942500", "102210.892500", "102207.052500", "102211.002500", "102207.162500", "102211.112500", "102207.272500", "102211.222500", "102207.382500", "102211.332500", "102207.492500", "102211.442500", "102207.602500", "102211.550000", "102207.710000", "102211.660000", "102207.820000", "102211.770000", "102207.930000", "102211.880000", "102208.040000", "102211.990000", "102208.150000", "102212.100000", "102208.260000", "102212.210000", "102208.370000", "102212.320000", "102208.480000", "102216.290000", "102212.450000", "102216.397500", "102212.557500", "102216.507500", "102212.667500", "102216.617500", "102212.777500", "102216.727500", "102212.887500", "102216.837500", "102212.997500", "102216.947500", "102213.107500", "102217.057500", "102213.217500", "102217.167500", "102213.327500", "102217.275000", "102213.437500", "102217.385000", "102213.545000", "102217.495000", "102213.655000", "102217.605000", "102213.765000", "102217.715000", "102213.875000", "102217.825000", "102213.985000", "102217.935000", "102214.095000", "102218.045000", "102214.205000", "102218.155000", "102214.315000", "102218.262500", "102214.425000", "102218.372500", "102214.532500", "102218.482500", "102214.642500", "102218.592500", "102214.752500", "102218.702500", "102214.862500", "102218.812500", "102214.972500", "102218.922500", "102215.082500", "102219.032500", "102215.192500", "102219.142500", "102215.302500", "102219.250000", "102215.410000", "102219.360000", "102215.520000", "102219.470000", "102215.630000", "102219.580000", "102215.740000", "102219.690000", "102215.850000", "102219.800000", "102215.960000", "102219.910000", "102216.070000", "102220.020000", "102216.180000", "102223.990000", "102220.150000", "102224.097500", "102220.257500", "102224.207500", "102220.367500", "102224.317500", "102220.477500", "102224.427500", "102220.587500", "102224.537500", "102220.697500", "102224.647500", "102220.807500", "102224.757500", "102220.917500", "102224.867500", "102221.027500", "102224.975000", "102221.137500", "102225.085000", "102221.245000", "102225.195000", "102221.355000", "102225.305000", "102221.465000", "102225.415000", "102221.575000", "102225.525000", "102221.685000", "102225.635000", "102221.795000", "102225.745000", "102221.905000", "102225.855000", "102222.015000", "102225.962500", "102222.125000", "102226.072500", "102222.232500", "102226.182500", "102222.342500", "102226.292500", "102222.452500", "102226.402500", "102222.562500", "102226.512500", "102222.672500", "102226.622500", "102222.782500", "102226.732500", "102222.892500", "102226.842500", "102223.002500", "102226.950000", "102223.110000", "102227.060000", "102223.220000", "102227.170000", "102223.330000", "102227.280000", "102223.440000", "102227.390000", "102223.550000", "102227.500000", "102223.660000", "102227.610000", "102223.770000", "102227.720000", "102223.880000", "102231.690000", "102227.850000", "102231.797500", "102227.957500", "102231.907500", "102228.067500", "102232.017500", "102228.177500", "102232.127500", "102228.287500", "102232.237500", "102228.397500", "102232.347500", "102228.507500", "102232.457500", "102228.617500", "102232.567500", "102228.727500", "102232.675000", "102228.837500", "102232.785000", "102228.945000", "102232.895000", "102229.055000", "102233.005000", "102229.165000", "102233.115000", "102229.275000", "102233.225000", "102229.385000", "102233.335000", "102229.495000", "102233.445000", "102229.605000", "102233.555000", "102229.715000", "102233.662500", "102229.825000", "102233.772500", "102229.932500", "102233.882500", "102230.042500", "102233.992500", "102230.152500", "102234.102500", "102230.262500", "102234.212500", "102230.372500", "102234.322500", "102230.482500", "102234.432500", "102230.592500", "102234.542500", "102230.702500", "102234.650000", "102230.810000", "102234.760000", "102230.920000", "102234.870000", "102231.030000", "102234.980000", "102231.140000", "102235.090000", "102231.250000", "102235.200000", "102231.360000", "102235.310000", "102231.470000", "102235.420000", "102231.580000", "102239.390000", "102235.550000", "102239.497500", "102235.657500", "102239.607500", "102235.767500", "102239.717500", "102235.877500", "102239.827500", "102235.987500", "102239.937500", "102236.097500", "102240.047500", "102236.207500", "102240.157500", "102236.317500", "102240.267500", "102236.427500", "102240.375000", "102236.537500", "102240.485000", "102236.645000", "102240.595000", "102236.755000", "102240.705000", "102236.865000", "102240.815000", "102236.975000", "102240.925000", "102237.085000", "102241.035000", "102237.195000", "102241.145000", "102237.305000", "102241.255000", "102237.415000", "102241.362500", "102237.525000", "102241.472500", "102237.632500", "102241.582500", "102237.742500", "102241.692500", "102237.852500", "102241.802500", "102237.962500", "102241.912500", "102238.072500", "102242.022500", "102238.182500", "102242.132500", "102238.292500", "102242.242500", "102238.402500", "102242.350000", "102238.510000", "102242.460000", "102238.620000", "102242.570000", "102238.730000", "102242.680000", "102238.840000", "102242.790000", "102238.950000", "102242.900000", "102239.060000", "102243.010000", "102239.170000", "102243.120000", "102239.280000", "102247.090000", "102243.250000", "102247.197500", "102243.357500", "102247.307500", "102243.467500", "102247.417500", "102243.577500", "102247.527500", "102243.687500", "102247.637500", "102243.797500", "102247.747500", "102243.907500", "102247.857500", "102244.017500", "102247.967500", "102244.127500", "102248.075000", "102244.237500", "102248.185000", "102244.345000", "102248.295000", "102244.455000", "102248.405000", "102244.565000", "102248.515000", "102244.675000", "102248.625000", "102244.785000", "102248.735000", "102244.895000", "102248.845000", "102245.005000", "102248.955000", "102245.115000", "102249.062500", "102245.225000", "102249.172500", "102245.332500", "102249.282500", "102245.442500", "102249.392500", "102245.552500", "102249.502500", "102245.662500", "102249.612500", "102245.772500", "102249.722500", "102245.882500", "102249.832500", "102245.992500", "102249.942500", "102246.102500", "102250.050000", "102246.210000", "102250.160000", "102246.320000", "102250.270000", "102246.430000", "102250.380000", "102246.540000", "102250.490000", "102246.650000", "102250.600000", "102246.760000", "102250.710000", "102246.870000", "102250.820000", "102246.980000", "102254.790000", "102250.950000", "102254.897500", "102251.057500", "102255.007500", "102251.167500", "102255.117500", "102251.277500", "102255.227500", "102251.387500", "102255.337500", "102251.497500", "102255.447500", "102251.607500", "102255.557500", "102251.717500", "102255.667500", "102251.827500", "102255.775000", "102251.937500", "102255.885000", "102252.045000", "102255.995000", "102252.155000", "102256.105000", "102252.265000", "102256.215000", "102252.375000", "102256.325000", "102252.485000", "102256.435000", "102252.595000", "102256.545000", "102252.705000", "102256.655000", "102252.815000", "102256.762500", "102252.925000", "102256.872500", "102253.032500", "102256.982500", "102253.142500", "102257.092500", "102253.252500", "102257.202500", "102253.362500", "102257.312500", "102253.472500", "102257.422500", "102253.582500", "102257.532500", "102253.692500", "102257.642500", "102253.802500", "102257.750000", "102253.910000", "102257.860000", "102254.020000", "102257.970000", "102254.130000", "102258.080000", "102254.240000", "102258.190000", "102254.350000", "102258.300000", "102254.460000", "102258.410000", "102254.570000", "102258.520000", "102254.680000", "102302.490000", "102258.650000", "102302.597500", "102258.757500", "102302.707500", "102258.867500", "102302.817500", "102258.977500", "102302.927500", "102259.087500", "102303.037500", "102259.197500", "102303.147500", "102259.307500", "102303.257500", "102259.417500", "102303.367500", "102259.527500", "102303.475000", "102259.637500", "102303.585000", "102259.745000", "102303.695000", "102259.855000", "102303.805000", "102259.965000", "102303.915000", "102300.075000", "102304.025000", "102300.185000", "102304.135000", "102300.295000", "102304.245000", "102300.405000", "102304.355000", "102300.515000", "102304.462500", "102300.625000", "102304.572500", "102300.732500", "102304.682500", "102300.842500", "102304.792500", "102300.952500", "102304.902500", "102301.062500", "102305.012500", "102301.172500", "102305.122500", "102301.282500", "102305.232500", "102301.392500", "102305.342500", "102301.502500", "102305.450000", "102301.610000", "102305.560000", "102301.720000", "102305.670000", "102301.830000", "102305.780000", "102301.940000", "102305.890000", "102302.050000", "102306.000000", "102302.160000", "102306.110000", "102302.270000", "102306.220000", "102302.380000", "102310.190000", "102306.350000", "102310.297500", "102306.457500", "102310.407500", "102306.567500", "102310.517500", "102306.677500", "102310.627500", "102306.787500", "102310.737500", "102306.897500", "102310.847500", "102307.007500", "102310.957500", "102307.117500", "102311.067500", "102307.227500", "102311.175000", "102307.337500", "102311.285000", "102307.445000", "102311.395000", "102307.555000", "102311.505000", "102307.665000", "102311.615000", "102307.775000", "102311.725000", "102307.885000", "102311.835000", "102307.995000", "102311.945000", "102308.105000", "102312.055000", "1023