{
  "AcquisitionMatrixPE": 80,
  "AcquisitionNumber": 1,
  "AcquisitionTime": "09:04:20.717500",
  "BandwidthPerPixelPhaseEncode": 48.077,
  "BaseResolution": 80,
  "BodyPartExamined": "BRAIN",
  "CoilCombinationMethod": "Sum of Squares",
  "ConsistencyInfo": "N4_VE11E_LATEST_20181129",
  "ConversionSoftware": "dcm2niix",
  "ConversionSoftwareVersion": "v1.0.20220720",
  "DerivedVendorReportedEchoSpacing": 0.000519999,
  "DeviceSerialNumber": "66112",
  "DwellTime": 2.7e-06,
  "EchoTime": 0.035,
  "EchoTrainLength": 39,
  "EffectiveEchoSpacing": 0.00026,
  "FlipAngle": 90,
  "HeudiconvVersion": "0.13.1",
  "ImageOrientationPatientDICOM": [0.998957, 0.0109403, -0.0443315, 0.00244088, 0.95669, 0.291099],
  "ImageOrientationText": "Tra>Cor(16.9)>Sag(-2.6)",
  "ImageType": [
    "ORIGINAL",
    "PRIMARY",
    "M",
    "ND",
    "NORM",
    "MOSAIC"
],
  "ImagingFrequency": 123.261,
  "InPlanePhaseEncodingDirectionDICOM": "COL",
  "InstitutionAddress": "Maynard 3,Hanover,NH,US,03755",
  "InstitutionName": "Dartmouth College - PBS",
  "InstitutionalDepartmentName": "Department",
  "MRAcquisitionType": "2D",
  "MagneticFieldStrength": 3,
  "Manufacturer": "Siemens",
  "ManufacturersModelName": "Prisma",
  "MatrixCoilMode": "GRAPPA",
  "Modality": "MR",
  "NonlinearGradientCorrection": false,
  "ParallelReductionFactorInPlane": 2,
  "PartialFourier": 1,
  "PatientPosition": "HFS",
  "PercentPhaseFOV": 100,
  "PercentSampling": 100,
  "PhaseEncodingDirection": "j-",
  "PhaseEncodingSteps": 79,
  "PhaseResolution": 1,
  "PixelBandwidth": 2315,
  "ProcedureStepDescription": "dbic^QA",
  "ProtocolName": "func-bold_task-rest_acq-p2",
  "PulseSequenceDetails": "%SiemensSeq%\\ep2d_bold",
  "ReceiveCoilActiveElements": "HC1-7;NC1,2",
  "ReceiveCoilName": "HeadNeck_64",
  "ReconMatrixPE": 80,
  "RefLinesPE": 24,
  "RepetitionTime": 2,
  "SAR": 0.0356515,
  "ScanOptions": "FS",
  "ScanningSequence": "EP",
  "SequenceName": "*epfid2d1_80",
  "SequenceVariant": "SK",
  "SeriesDescription": "func-bold_task-rest_acq-p2",
  "SeriesNumber": 5,
  "ShimSetting": [4244, -7723, -7484, -169, -201, -262, -78, 107],
  "SliceThickness": 3.5,
  "SliceTiming": [0.99, 0, 1.055, 0.065, 1.12, 0.13, 1.1875, 0.1975, 1.2525, 0.2625, 1.32, 0.33, 1.385, 0.395, 1.45, 0.46, 1.5175, 0.5275, 1.5825, 0.5925, 1.65, 0.66, 1.715, 0.725, 1.78, 0.79, 1.8475, 0.8575, 1.9125, 0.9225],
  "SoftwareVersions": "syngo MR E11",
  "SpacingBetweenSlices": 3.99,
  "StationName": "AWP66112",
  "TaskName": "rest",
  "TotalReadoutTime": 0.02054,
  "TxRefAmp": 211.977,
  "dcmmeta_affine": [
    [-2.996870994567871, 0.007322653196752071, -0.18192894756793976, 124.07139587402344],
    [-0.03282096982002258, 2.870069980621338, 1.1607033014297485, -126.99639892578125],
    [-0.13299453258514404, -0.8732954859733582, 3.8131051063537598, -32.307952880859375],
    [0.0, 0.0, 0.0, 1.0]
],
  "dcmmeta_reorient_transform": [
    [0.0, -1.0, 0.0, 79.0],
    [1.0, 0.0, 0.0, 0.0],
    [0.0, 0.0, 1.0, 0.0],
    [0.0, 0.0, 0.0, 1.0]
],
  "dcmmeta_shape": [80, 80, 30, 200],
  "dcmmeta_slice_dim": 2,
  "dcmmeta_version": 0.6,
  "global": {
    "const": {
      "AccessionNumber": "qa64",
      "AcquisitionMatrix": [80, 0, 0, 80],
      "AngioFlag": "N",
      "BitsAllocated": 16,
      "BitsStored": 12,
      "BodyPartExamined": "BRAIN",
      "Columns": 480,
      "EchoNumbers": 1,
      "EchoTime": 35.0,
      "EchoTrainLength": 39,
      "FlipAngle": 90.0,
      "HighBit": 11,
      "ImageOrientationPatient": [0.99895696920119, 0.01094032353774, -0.0443315125533, 0.00244088446969, 0.95668997617155, 0.29109849119481],
      "ImagePositionPatient": [-725.48859709146, -680.31730898527, -249.35848103059],
      "ImageType": [
        "ORIGINAL",
        "PRIMARY",
        "M",
        "ND",
        "NORM",
        "MOSAIC"
],
      "ImagedNucleus": "1H",
      "ImagingFrequency": 123.261276,
      "InPlanePhaseEncodingDirection": "COL",
      "MRAcquisitionType": "2D",
      "MagneticFieldStrength": 3.0,
      "Manufacturer": "SIEMENS",
      "ManufacturerModelName": "Prisma",
      "Modality": "MR",
      "NumberOfAverages": 1.0,
      "NumberOfPhaseEncodingSteps": 79,
      "PercentPhaseFieldOfView": 100.0,
      "PercentSampling": 100.0,
      "PerformedProcedureStepStartTime": "084926.819000",
      "PhotometricInterpretation": "MONOCHROME2",
      "PixelBandwidth": 2315.0,
      "PixelRepresentation": 0,
      "PixelSpacing": [3.0, 3.0],
      "ProtocolName": "func-bold_task-rest_acq-p2",
      "RepetitionTime": 2000.0,
      "Rows": 480,
      "SAR": 0.03565145955594,
      "SamplesPerPixel": 1,
      "ScanOptions": "FS",
      "ScanningSequence": "EP",
      "SequenceName": "*epfid2d1_80",
      "SequenceVariant": "SK",
      "SeriesDescription": "func-bold_task-rest_acq-p2",
      "SeriesNumber": 5,
      "SeriesTime": "090501.864000",
      "SliceLocation": -73.476420938449,
      "SliceThickness": 3.5,
      "SmallestImagePixelValue": 0,
      "SoftwareVersions": "syngo MR E11",
      "SpacingBetweenSlices": 3.9900000778001,
      "SpecificCharacterSet": "ISO_IR 100",
      "StudyID": "20",
      "StudyTime": "084926.624000",
      "TransmitCoilName": "Body",
      "VariableFlipAngleFlag": "N",
      "WindowCenterWidthExplanation": "Algo1"
    },
    "slices": {}
  },
  "time": {
    "samples": {
      "AcquisitionNumber": [1, 2, 3, 4, 5, 6, 7, 8, 9, 10, 11, 12, 13, 14, 15, 16, 17, 18, 19, 20, 21, 22, 23, 24, 25, 26, 27, 28, 29, 30, 31, 32, 33, 34, 35, 36, 37, 38, 39, 40, 41, 42, 43, 44, 45, 46, 47, 48, 49, 50, 51, 52, 53, 54, 55, 56, 57, 58, 59, 60, 61, 62, 63, 64, 65, 66, 67, 68, 69, 70, 71, 72, 73, 74, 75, 76, 77, 78, 79, 80, 81, 82, 83, 84, 85, 86, 87, 88, 89, 90, 91, 92, 93, 94, 95, 96, 97, 98, 99, 100, 101, 102, 103, 104, 105, 106, 107, 108, 109, 110, 111, 112, 113, 114, 115, 116, 117, 118, 119, 120, 121, 122, 123, 124, 125, 126, 127, 128, 129, 130, 131, 132, 133, 134, 135, 136, 137, 138, 139, 140, 141, 142, 143, 144, 145, 146, 147, 148, 149, 150, 151, 152, 153, 154, 155, 156, 157, 158, 159, 160, 161, 162, 163, 164, 165, 166, 167, 168, 169, 170, 171, 172, 173, 174, 175, 176, 177, 178, 179, 180, 181, 182, 183, 184, 185, 186, 187, 188, 189, 190, 191, 192, 193, 194, 195, 196, 197, 198, 199, 200],
      "AcquisitionTime": ["090420.717500", "090422.717500", "090424.717500", "090426.717500", "090428.717500", "090430.717500", "090432.717500", "090434.717500", "090436.717500", "090438.717500", "090440.717500", "090442.717500", "090444.717500", "090446.717500", "090448.717500", "090450.717500", "090452.717500", "090454.717500", "090456.717500", "090458.717500", "090500.717500", "090502.717500", "090504.717500", "090506.717500", "090508.717500", "090510.717500", "090512.717500", "090514.717500", "090516.717500", "090518.717500", "090520.717500", "090522.717500", "090524.717500", "090526.717500", "090528.717500", "090530.717500", "090532.717500", "090534.717500", "090536.717500", "090538.717500", "090540.717500", "090542.717500", "090544.717500", "090546.717500", "090548.717500", "090550.717500", "090552.717500", "090554.717500", "090556.717500", "090558.717500", "090600.717500", "090602.717500", "090604.717500", "090606.717500", "090608.717500", "090610.717500", "090612.717500", "090614.717500", "090616.717500", "090618.717500", "090620.717500", "090622.717500", "090624.717500", "090626.717500", "090628.717500", "090630.717500", "090632.717500", "090634.717500", "090636.717500", "090638.717500", "090640.717500", "090642.717500", "090644.717500", "090646.717500", "090648.717500", "090650.717500", "090652.717500", "090654.717500", "090656.717500", "090658.717500", "090700.717500", "090702.717500", "090704.717500", "090706.717500", "090708.717500", "090710.717500", "090712.717500", "090714.717500", "090716.717500", "090718.717500", "090720.717500", "090722.717500", "090724.717500", "090726.717500", "090728.717500", "090730.717500", "090732.717500", "090734.717500", "090736.717500", "090738.717500", "090740.717500", "090742.717500", "090744.717500", "090746.717500", "090748.717500", "090750.717500", "090752.717500", "090754.717500", "090756.717500", "090758.717500", "090800.717500", "090802.717500", "090804.717500", "090806.717500", "090808.717500", "090810.717500", "090812.717500", "090814.717500", "090816.717500", "090818.717500", "090820.717500", "090822.717500", "090824.717500", "090826.717500", "090828.717500", "090830.717500", "090832.717500", "090834.717500", "090836.717500", "090838.717500", "090840.717500", "090842.717500", "090844.717500", "090846.717500", "090848.717500", "090850.717500", "090852.717500", "090854.717500", "090856.717500", "090858.717500", "090900.717500", "090902.717500", "090904.717500", "090906.717500", "090908.717500", "090910.717500", "090912.717500", "090914.717500", "090916.717500", "090918.717500", "090920.717500", "090922.717500", "090924.717500", "090926.717500", "090928.717500", "090930.717500", "090932.717500", "090934.717500", "090936.717500", "090938.717500", "090940.717500", "090942.717500", "090944.717500", "090946.717500", "090948.717500", "090950.717500", "090952.717500", "090954.717500", "090956.717500", "090958.717500", "091000.717500", "091002.717500", "091004.717500", "091006.717500", "091008.717500", "091010.717500", "091012.717500", "091014.717500", "091016.717500", "091018.717500", "091020.717500", "091022.717500", "091024.717500", "091026.717500", "091028.717500", "091030.717500", "091032.717500", "091034.717500", "091036.717500", "091038.717500", "091040.717500", "091042.717500", "091044.717500", "091046.717500", "091048.717500", "091050.717500", "091052.717500", "091054.717500", "091056.717500", "091058.717500"],
      "ContentTime": ["090501.868000", "090501.871000", "090501.873000", "090501.875000", "090501.878000", "090501.880000", "090501.883000", "090501.885000", "090501.887000", "090501.890000", "090501.892000", "090501.895000", "090501.897000", "090501.899000", "090501.902000", "090501.908000", "090501.911000", "090501.913000", "090501.916000", "090501.918000", "090541.862000", "090541.865000", "090541.867000", "090541.870000", "090541.872000", "090541.875000", "090541.877000", "090541.879000", "090541.882000", "090541.884000", "090541.886000", "090541.889000", "090541.891000", "090541.893000", "090541.896000", "090541.898000", "090541.900000", "090541.903000", "090541.905000", "090541.907000", "090621.862000", "090621.865000", "090621.867000", "090621.870000", "090621.872000", "090621.874000", "090621.884000", "090621.886000", "090621.889000", "090621.891000", "090621.893000", "090621.896000", "090621.898000", "090621.900000", "090621.903000", "090621.913000", "090621.916000", "090621.918000", "090621.920000", "090621.923000", "090701.863000", "090701.866000", "090701.868000", "090701.871000", "090701.873000", "090701.875000", "090701.878000", "090701.880000", "090701.883000", "090701.885000", "090701.887000", "090701.890000", "090701.892000", "090701.894000", "090701.897000", "090701.899000", "090701.901000", "090701.904000", "090701.906000", "090701.909000", "090741.862000", "090741.865000", "090741.867000", "090741.870000", "090741.872000", "090741.875000", "090741.877000", "090741.879000", "090741.882000", "090741.884000", "090741.886000", "090741.889000", "090741.891000", "090741.893000", "090741.896000", "090741.898000", "090741.900000", "090741.903000", "090741.905000", "090741.908000", "090821.862000", "090821.865000", "090821.867000", "090821.870000", "090821.872000", "090821.879000", "090821.882000", "090821.884000", "090821.887000", "090821.889000", "090821.891000", "090821.894000", "090821.896000", "090821.899000", "090821.901000", "090821.903000", "090821.906000", "090821.908000", "090821.910000", "090821.913000", "090901.862000", "090901.865000", "090901.867000", "090901.870000", "090901.872000", "090901.874000", "090901.877000", "090901.890000", "090901.892000", "090901.895000", "090901.897000", "090901.900000", "090901.902000", "090901.904000", "090901.907000", "090901.909000", "090901.912000", "090901.914000", "090901.916000", "090901.919000", "090941.862000", "090941.865000", "090941.868000", "090941.870000", "090941.873000", "090941.875000", "090941.878000", "090941.880000", "090941.882000", "090941.885000", "090941.887000", "090941.889000", "090941.892000", "090941.894000", "090941.897000", "090941.899000", "090941.901000", "090941.904000", "090941.906000", "090941.909000", "091021.862000", "091021.865000", "091021.867000", "091021.870000", "091021.872000", "091021.874000", "091021.877000", "091021.879000", "091021.882000", "091021.884000", "091021.886000", "091021.889000", "091021.891000", "091021.894000", "091021.896000", "091021.898000", "091021.901000", "091021.903000", "091021.905000", "091021.908000", "091100.636000", "091100.638000", "091100.641000", "091100.643000", "091100.646000", "091100.648000", "091100.651000", "091100.653000", "091100.656000", "091100.658000", "091100.661000", "091100.668000", "091100.671000", "091100.673000", "091100.677000", "091100.679000", "091100.682000", "091100.692000", "091100.695000", "091100.698000"],
      "InstanceCreationTime": ["090501.868000", "090501.871000", "090501.873000", "090501.875000", "090501.878000", "090501.880000", "090501.883000", "090501.885000", "090501.887000", "090501.890000", "090501.892000", "090501.895000", "090501.897000", "090501.899000", "090501.902000", "090501.908000", "090501.911000", "090501.913000", "090501.916000", "090501.918000", "090541.862000", "090541.865000", "090541.867000", "090541.870000", "090541.872000", "090541.875000", "090541.877000", "090541.879000", "090541.882000", "090541.884000", "090541.886000", "090541.889000", "090541.891000", "090541.893000", "090541.896000", "090541.898000", "090541.900000", "090541.903000", "090541.905000", "090541.907000", "090621.862000", "090621.865000", "090621.867000", "090621.870000", "090621.872000", "090621.874000", "090621.884000", "090621.886000", "090621.889000", "090621.891000", "090621.893000", "090621.896000", "090621.898000", "090621.900000", "090621.903000", "090621.913000", "090621.916000", "090621.918000", "090621.920000", "090621.923000", "090701.863000", "090701.866000", "090701.868000", "090701.871000", "090701.873000", "090701.875000", "090701.878000", "090701.880000", "090701.883000", "090701.885000", "090701.887000", "090701.890000", "090701.892000", "090701.894000", "090701.897000", "090701.899000", "090701.901000", "090701.904000", "090701.906000", "090701.909000", "090741.862000", "090741.865000", "090741.867000", "090741.870000", "090741.872000", "090741.875000", "090741.877000", "090741.879000", "090741.882000", "090741.884000", "090741.886000", "090741.889000", "090741.891000", "090741.893000", "090741.896000", "090741.898000", "090741.900000", "090741.903000", "090741.905000", "090741.908000", "090821.862000", "090821.865000", "090821.867000", "090821.870000", "090821.872000", "090821.879000", "090821.882000", "090821.884000", "090821.887000", "090821.889000", "090821.891000", "090821.894000", "090821.896000", "090821.899000", "090821.901000", "090821.903000", "090821.906000", "090821.908000", "090821.910000", "090821.913000", "090901.862000", "090901.865000", "090901.867000", "090901.870000", "090901.872000", "090901.874000", "090901.877000", "090901.890000", "090901.892000", "090901.895000", "090901.897000", "090901.900000", "090901.902000", "090901.904000", "090901.907000", "090901.909000", "090901.912000", "090901.914000", "090901.916000", "090901.919000", "090941.862000", "090941.865000", "090941.868000", "090941.870000", "090941.873000", "090941.875000", "090941.878000", "090941.880000", "090941.882000", "090941.885000", "090941.887000", "090941.889000", "090941.892000", "090941.894000", "090941.897000", "090941.899000", "090941.901000", "090941.904000", "090941.906000", "090941.909000", "091021.862000", "091021.865000", "091021.867000", "091021.870000", "091021.872000", "091021.874000", "091021.877000", "091021.879000", "091021.882000", "091021.884000", "091021.886000", "091021.889000", "091021.891000", "091021.894000", "091021.896000", "091021.898000", "091021.901000", "091021.903000", "091021.905000", "091021.908000", "091100.636000", "091100.638000", "091100.641000", "091100.643000", "091100.646000", "091100.648000", "091100.651000", "091100.653000", "091100.656000", "091100.658000", "091100.661000", "091100.668000", "091100.671000", "091100.673000", "091100.677000", "091100.679000", "091100.682000", "091100.692000", "091100.695000", "091100.698000"],
      "InstanceNumber": [1, 2, 3, 4, 5, 6, 7, 8, 9, 10, 11, 12, 13, 14, 15, 16, 17, 18, 19, 20, 21, 22, 23, 24, 25, 26, 27, 28, 29, 30, 31, 32, 33, 34, 35, 36, 37, 38, 39, 40, 41, 42, 43, 44, 45, 46, 47, 48, 49, 50, 51, 52, 53, 54, 55, 56, 57, 58, 59, 60, 61, 62, 63, 64, 65, 66, 67, 68, 69, 70, 71, 72, 73, 74, 75, 76, 77, 78, 79, 80, 81, 82, 83, 84, 85, 86, 87, 88, 89, 90, 91, 92, 93, 94, 95, 96, 97, 98, 99, 100, 101, 102, 103, 104, 105, 106, 107, 108, 109, 110, 111, 112, 113, 114, 115, 116, 117, 118, 119, 120, 121, 122, 123, 124, 125, 126, 127, 128, 129, 130, 131, 132, 133, 134, 135, 136, 137, 138, 139, 140, 141, 142, 143, 144, 145, 146, 147, 148, 149, 150, 151, 152, 153, 154, 155, 156, 157, 158, 159, 160, 161, 162, 163, 164, 165, 166, 167, 168, 169, 170, 171, 172, 173, 174, 175, 176, 177, 178, 179, 180, 181, 182, 183, 184, 185, 186, 187, 188, 189, 190, 191, 192, 193, 194, 195, 196, 197, 198, 199, 200],
      "LargestImagePixelValue": [4050, 4042, 4053, 4037, 4042, 4034, 4043, 4045, 4036, 4044, 4036, 4042, 4045, 4037, 4043, 4051, 4043, 4045, 4037, 4042, 4040, 4049, 4037, 4042, 4045, 4036, 4030, 4038, 4035, 4039, 4041, 4039, 4047, 4049, 4049, 4041, 4048, 4041, 4043, 4043, 4048, 4038, 4040, 4045, 4048, 4046, 4060, 4046, 4053, 4048, 4048, 4056, 4053, 4049, 4053, 4060, 4046, 4054, 4058, 4054, 4052, 4054, 4056, 4056, 4052, 4060, 4061, 4053, 4056, 4062, 4057, 4059, 4052, 4054, 4059, 4062, 4065, 4068, 4061, 4058, 4066, 4060, 4061, 4056, 4060, 4061, 4064, 4057, 4064, 4065, 4054, 4062, 4070, 4055, 4063, 4071, 4057, 4062, 4061, 4060, 4068, 4063, 4060, 4060, 4066, 4057, 4060, 4065, 4058, 4070, 4057, 4063, 4063, 4059, 4058, 4063, 4061, 4074, 4063, 4059, 4063, 4066, 4066, 4066, 4066, 4064, 4058, 4063, 4063, 4065, 4056, 4065, 4056, 4061, 4059, 4074, 4065, 4072, 4071, 4068, 4068, 4065, 4063, 4061, 4063, 4064, 4068, 4065, 4071, 4063, 4067, 4069, 4071, 4062, 4069, 4071, 4069, 4066, 4062, 4065, 4071, 4069, 4067, 4065, 4063, 4069, 4064, 4068, 4068, 4061, 4064, 4075, 4068, 4075, 4069, 4063, 4068, 4077, 4066, 4070, 4073, 4073, 4068, 4069, 4072, 4074, 4072, 4072, 4079, 4077, 4075, 4075, 4071, 4071, 4077, 4078, 4077, 4069, 4066, 4070],
      "WindowCenter": [1488.0, 1488.0, 1488.0, 1487.0, 1487.0, 1487.0, 1487.0, 1487.0, 1487.0, 1487.0, 1487.0, 1488.0, 1487.0, 1487.0, 1488.0, 1487.0, 1487.0, 1487.0, 1487.0, 1487.0, 1487.0, 1487.0, 1488.0, 1487.0, 1486.0, 1486.0, 1486.0, 1486.0, 1487.0, 1486.0, 1487.0, 1487.0, 1486.0, 1486.0, 1486.0, 1486.0, 1486.0, 1486.0, 1487.0, 1487.0, 1486.0, 1487.0, 1487.0, 1487.0, 1486.0, 1487.0, 1487.0, 1486.0, 1487.0, 1487.0, 1486.0, 1487.0, 1487.0, 1487.0, 1487.0, 1486.0, 1487.0, 1486.0, 1487.0, 1486.0, 1487.0, 1486.0, 1485.0, 1486.0, 1486.0, 1486.0, 1486.0, 1486.0, 1486.0, 1486.0, 1486.0, 1486.0, 1486.0, 1486.0, 1486.0, 1487.0, 1486.0, 1486.0, 1486.0, 1486.0, 1485.0, 1485.0, 1486.0, 1485.0, 1485.0, 1485.0, 1485.0, 1486.0, 1485.0, 1486.0, 1485.0, 1486.0, 1486.0, 1486.0, 1485.0, 1486.0, 1485.0, 1485.0, 1485.0, 1485.0, 1485.0, 1486.0, 1485.0, 1485.0, 1484.0, 1484.0, 1484.0, 1485.0, 1485.0, 1485.0, 1485.0, 1485.0, 1485.0, 1485.0, 1485.0, 1485.0, 1484.0, 1485.0, 1486.0, 1484.0, 1484.0, 1485.0, 1485.0, 1484.0, 1484.0, 1485.0, 1485.0, 1485.0, 1485.0, 1485.0, 1485.0, 1485.0, 1484.0, 1484.0, 1484.0, 1484.0, 1485.0, 1484.0, 1484.0, 1484.0, 1484.0, 1484.0, 1485.0, 1484.0, 1485.0, 1484.0, 1485.0, 1484.0, 1484.0, 1484.0, 1484.0, 1484.0, 1484.0, 1485.0, 1484.0, 1484.0, 1484.0, 1484.0, 1484.0, 1485.0, 1484.0, 1484.0, 1485.0, 1484.0, 1484.0, 1484.0, 1484.0, 1484.0, 1484.0, 1483.0, 1484.0, 1484.0, 1484.0, 1484.0, 1483.0, 1484.0, 1483.0, 1484.0, 1484.0, 1484.0, 1483.0, 1483.0, 1483.0, 1483.0, 1483.0, 1483.0, 1483.0, 1483.0, 1482.0, 1483.0, 1484.0, 1483.0, 1483.0, 1483.0, 1483.0, 1484.0, 1483.0, 1483.0, 1484.0, 1483.0],
      "WindowWidth": [3385.0, 3383.0, 3383.0, 3383.0, 3383.0, 3383.0, 3383.0, 3383.0, 3383.0, 3383.0, 3383.0, 3382.0, 3383.0, 3383.0, 3383.0, 3384.0, 3384.0, 3383.0, 3383.0, 3383.0, 3383.0, 3383.0, 3382.0, 3383.0, 3383.0, 3383.0, 3383.0, 3383.0, 3382.0, 3383.0, 3383.0, 3383.0, 3383.0, 3383.0, 3383.0, 3383.0, 3383.0, 3383.0, 3383.0, 3383.0, 3384.0, 3383.0, 3384.0, 3383.0, 3384.0, 3384.0, 3384.0, 3384.0, 3384.0, 3384.0, 3385.0, 3384.0, 3384.0, 3384.0, 3384.0, 3385.0, 3384.0, 3384.0, 3384.0, 3385.0, 3384.0, 3385.0, 3384.0, 3384.0, 3384.0, 3384.0, 3385.0, 3385.0, 3385.0, 3384.0, 3385.0, 3385.0, 3384.0, 3384.0, 3384.0, 3384.0, 3384.0, 3385.0, 3384.0, 3384.0, 3384.0, 3384.0, 3384.0, 3384.0, 3384.0, 3384.0, 3384.0, 3384.0, 3384.0, 3384.0, 3384.0, 3384.0, 3384.0, 3384.0, 3384.0, 3384.0, 3384.0, 3384.0, 3384.0, 3384.0, 3384.0, 3384.0, 3384.0, 3384.0, 3384.0, 3384.0, 3384.0, 3384.0, 3384.0, 3384.0, 3384.0, 3384.0, 3384.0, 3384.0, 3384.0, 3384.0, 3384.0, 3384.0, 3383.0, 3384.0, 3384.0, 3383.0, 3384.0, 3384.0, 3384.0, 3384.0, 3384.0, 3384.0, 3384.0, 3384.0, 3384.0, 3383.0, 3384.0, 3384.0, 3384.0, 3384.0, 3383.0, 3384.0, 3384.0, 3384.0, 3384.0, 3384.0, 3383.0, 3383.0, 3383.0, 3383.0, 3383.0, 3383.0, 3383.0, 3383.0, 3383.0, 3384.0, 3383.0, 3383.0, 3383.0, 3383.0, 3383.0, 3383.0, 3383.0, 3383.0, 3383.0, 3383.0, 3383.0, 3383.0, 3383.0, 3383.0, 3383.0, 3383.0, 3383.0, 3384.0, 3383.0, 3383.0, 3383.0, 3383.0, 3383.0, 3383.0, 3383.0, 3383.0, 3383.0, 3383.0, 3384.0, 3383.0, 3383.0, 3383.0, 3383.0, 3383.0, 3383.0, 3383.0, 3384.0, 3383.0, 3383.0, 3383.0, 3383.0, 3383.0, 3383.0, 3383.0, 3383.0, 3383.0, 3383.0, 3383.0]
    },
    "slices": {}
  }
}