{
  "AcquisitionMatrixPE": 80,
  "AcquisitionNumber": 1,
  "AcquisitionTime": "09:11:12.437500",
  "BandwidthPerPixelPhaseEncode": 25,
  "BaseResolution": 80,
  "BodyPartExamined": "BRAIN",
  "CoilCombinationMethod": "Sum of Squares",
  "ConsistencyInfo": "N4_VE11E_LATEST_20181129",
  "ConversionSoftware": "dcm2niix",
  "ConversionSoftwareVersion": "v1.0.20220720",
  "DerivedVendorReportedEchoSpacing": 0.0005,
  "DeviceSerialNumber": "66112",
  "DwellTime": 2.7e-06,
  "EchoTime": 0.03,
  "EchoTrainLength": 80,
  "EffectiveEchoSpacing": 0.0005,
  "FlipAngle": 77,
  "HeudiconvVersion": "0.13.1",
  "ImageOrientationPatientDICOM": [0.998957, 0.0109403, -0.0443315, 0.00244088, 0.95669, 0.291099],
  "ImageOrientationText": "Tra>Cor(16.9)>Sag(-2.6)",
  "ImageType": [
    "ORIGINAL",
    "PRIMARY",
    "M",
    "ND",
    "NORM",
    "MOSAIC"
],
  "ImagingFrequency": 123.261,
  "InPlanePhaseEncodingDirectionDICOM": "COL",
  "InstitutionAddress": "Maynard 3,Hanover,NH,US,03755",
  "InstitutionName": "Dartmouth College - PBS",
  "InstitutionalDepartmentName": "Department",
  "MRAcquisitionType": "2D",
  "MagneticFieldStrength": 3,
  "Manufacturer": "Siemens",
  "ManufacturersModelName": "Prisma",
  "MatrixCoilMode": "SENSE",
  "Modality": "MR",
  "NonlinearGradientCorrection": false,
  "PartialFourier": 1,
  "PatientPosition": "HFS",
  "PercentPhaseFOV": 100,
  "PercentSampling": 100,
  "PhaseEncodingDirection": "j-",
  "PhaseEncodingSteps": 80,
  "PhaseResolution": 1,
  "PixelBandwidth": 2315,
  "ProcedureStepDescription": "dbic^QA",
  "ProtocolName": "func-bold_fa-77",
  "PulseSequenceDetails": "%SiemensSeq%\\ep2d_bold",
  "ReceiveCoilActiveElements": "HC1-7;NC1,2",
  "ReceiveCoilName": "HeadNeck_64",
  "ReconMatrixPE": 80,
  "RepetitionTime": 2,
  "SAR": 0.0280167,
  "ScanOptions": "FS",
  "ScanningSequence": "EP",
  "SequenceName": "*epfid2d1_80",
  "SequenceVariant": "SK",
  "SeriesDescription": "func-bold_fa-77",
  "SeriesNumber": 6,
  "ShimSetting": [4244, -7724, -7484, -167, -201, -262, -77, 106],
  "SliceThickness": 3.5,
  "SliceTiming": [0.99, 0, 1.0575, 0.0675, 1.1225, 0.1325, 1.1875, 0.1975, 1.255, 0.265, 1.32, 0.33, 1.3875, 0.3975, 1.4525, 0.4625, 1.5175, 0.5275, 1.585, 0.595, 1.65, 0.66, 1.7175, 0.7275, 1.7825, 0.7925, 1.8475, 0.8575, 1.915, 0.925],
  "SoftwareVersions": "syngo MR E11",
  "SpacingBetweenSlices": 3.99,
  "StationName": "AWP66112",
  "TotalReadoutTime": 0.0395,
  "TxRefAmp": 211.977,
  "dcmmeta_affine": [
    [-2.996870994567871, 0.007322653196752071, -0.18192893266677856, 122.09992218017578],
    [-0.03282096982002258, 2.870069980621338, 1.1607033014297485, -124.80738067626953],
    [-0.13299453258514404, -0.8732954859733582, 3.8131048679351807, -31.730588912963867],
    [0.0, 0.0, 0.0, 1.0]
],
  "dcmmeta_reorient_transform": [
    [0.0, -1.0, 0.0, 79.0],
    [1.0, 0.0, 0.0, 0.0],
    [0.0, 0.0, 1.0, 0.0],
    [0.0, 0.0, 0.0, 1.0]
],
  "dcmmeta_shape": [80, 80, 30, 200],
  "dcmmeta_slice_dim": 2,
  "dcmmeta_version": 0.6,
  "global": {
    "const": {
      "AccessionNumber": "qa64",
      "AcquisitionMatrix": [80, 0, 0, 80],
      "AngioFlag": "N",
      "BitsAllocated": 16,
      "BitsStored": 12,
      "BodyPartExamined": "BRAIN",
      "Columns": 480,
      "EchoNumbers": 1,
      "EchoTime": 30.0,
      "EchoTrainLength": 80,
      "FlipAngle": 77.0,
      "HighBit": 11,
      "ImageOrientationPatient": [0.99895696920119, 0.01094032353774, -0.0443315125533, 0.00244088446969, 0.95668997617155, 0.29109849119481],
      "ImagePositionPatient": [-723.51712745073, -682.50632342009, -248.78111897004],
      "ImageType": [
        "ORIGINAL",
        "PRIMARY",
        "M",
        "ND",
        "NORM",
        "MOSAIC"
],
      "ImagedNucleus": "1H",
      "ImagingFrequency": 123.261271,
      "InPlanePhaseEncodingDirection": "COL",
      "MRAcquisitionType": "2D",
      "MagneticFieldStrength": 3.0,
      "Manufacturer": "SIEMENS",
      "ManufacturerModelName": "Prisma",
      "Modality": "MR",
      "NumberOfAverages": 1.0,
      "NumberOfPhaseEncodingSteps": 80,
      "PercentPhaseFieldOfView": 100.0,
      "PercentSampling": 100.0,
      "PerformedProcedureStepStartTime": "084926.819000",
      "PhotometricInterpretation": "MONOCHROME2",
      "PixelBandwidth": 2315.0,
      "PixelRepresentation": 0,
      "PixelSpacing": [3.0, 3.0],
      "ProtocolName": "func-bold_fa-77",
      "RepetitionTime": 2000.0,
      "Rows": 480,
      "SAR": 0.02801669602089,
      "SamplesPerPixel": 1,
      "ScanOptions": "FS",
      "ScanningSequence": "EP",
      "SequenceName": "*epfid2d1_80",
      "SequenceVariant": "SK",
      "SeriesDescription": "func-bold_fa-77",
      "SeriesNumber": 6,
      "SeriesTime": "091201.674000",
      "SliceLocation": -72.197973381779,
      "SliceThickness": 3.5,
      "SmallestImagePixelValue": 0,
      "SoftwareVersions": "syngo MR E11",
      "SpacingBetweenSlices": 3.9899999518095,
      "SpecificCharacterSet": "ISO_IR 100",
      "StudyID": "20",
      "StudyTime": "084926.624000",
      "TransmitCoilName": "Body",
      "VariableFlipAngleFlag": "N",
      "WindowCenterWidthExplanation": "Algo1"
    },
    "slices": {}
  },
  "time": {
    "samples": {
      "AcquisitionNumber": [1, 2, 3, 4, 5, 6, 7, 8, 9, 10, 11, 12, 13, 14, 15, 16, 17, 18, 19, 20, 21, 22, 23, 24, 25, 26, 27, 28, 29, 30, 31, 32, 33, 34, 35, 36, 37, 38, 39, 40, 41, 42, 43, 44, 45, 46, 47, 48, 49, 50, 51, 52, 53, 54, 55, 56, 57, 58, 59, 60, 61, 62, 63, 64, 65, 66, 67, 68, 69, 70, 71, 72, 73, 74, 75, 76, 77, 78, 79, 80, 81, 82, 83, 84, 85, 86, 87, 88, 89, 90, 91, 92, 93, 94, 95, 96, 97, 98, 99, 100, 101, 102, 103, 104, 105, 106, 107, 108, 109, 110, 111, 112, 113, 114, 115, 116, 117, 118, 119, 120, 121, 122, 123, 124, 125, 126, 127, 128, 129, 130, 131, 132, 133, 134, 135, 136, 137, 138, 139, 140, 141, 142, 143, 144, 145, 146, 147, 148, 149, 150, 151, 152, 153, 154, 155, 156, 157, 158, 159, 160, 161, 162, 163, 164, 165, 166, 167, 168, 169, 170, 171, 172, 173, 174, 175, 176, 177, 178, 179, 180, 181, 182, 183, 184, 185, 186, 187, 188, 189, 190, 191, 192, 193, 194, 195, 196, 197, 198, 199, 200],
      "AcquisitionTime": ["091112.437500", "091114.437500", "091116.437500", "091118.437500", "091120.437500", "091122.437500", "091124.437500", "091126.437500", "091128.437500", "091130.437500", "091132.437500", "091134.437500", "091136.437500", "091138.437500", "091140.437500", "091142.437500", "091144.437500", "091146.437500", "091148.437500", "091150.437500", "091152.437500", "091154.437500", "091156.437500", "091158.437500", "091200.437500", "091202.437500", "091204.437500", "091206.437500", "091208.437500", "091210.437500", "091212.437500", "091214.437500", "091216.437500", "091218.437500", "091220.437500", "091222.437500", "091224.437500", "091226.437500", "091228.437500", "091230.437500", "091232.437500", "091234.437500", "091236.437500", "091238.437500", "091240.437500", "091242.437500", "091244.437500", "091246.437500", "091248.437500", "091250.437500", "091252.437500", "091254.437500", "091256.437500", "091258.437500", "091300.437500", "091302.437500", "091304.437500", "091306.437500", "091308.437500", "091310.437500", "091312.437500", "091314.437500", "091316.437500", "091318.437500", "091320.437500", "091322.437500", "091324.437500", "091326.437500", "091328.437500", "091330.437500", "091332.437500", "091334.437500", "091336.437500", "091338.437500", "091340.437500", "091342.437500", "091344.437500", "091346.437500", "091348.437500", "091350.437500", "091352.437500", "091354.437500", "091356.437500", "091358.437500", "091400.437500", "091402.437500", "091404.437500", "091406.437500", "091408.437500", "091410.437500", "091412.437500", "091414.437500", "091416.437500", "091418.437500", "091420.437500", "091422.437500", "091424.437500", "091426.437500", "091428.437500", "091430.437500", "091432.437500", "091434.437500", "091436.437500", "091438.437500", "091440.437500", "091442.437500", "091444.437500", "091446.437500", "091448.437500", "091450.437500", "091452.437500", "091454.437500", "091456.437500", "091458.437500", "091500.437500", "091502.437500", "091504.437500", "091506.437500", "091508.437500", "091510.437500", "091512.437500", "091514.437500", "091516.437500", "091518.437500", "091520.437500", "091522.437500", "091524.437500", "091526.437500", "091528.437500", "091530.437500", "091532.437500", "091534.437500", "091536.437500", "091538.437500", "091540.437500", "091542.437500", "091544.437500", "091546.437500", "091548.437500", "091550.437500", "091552.437500", "091554.437500", "091556.437500", "091558.437500", "091600.437500", "091602.437500", "091604.437500", "091606.437500", "091608.437500", "091610.437500", "091612.437500", "091614.437500", "091616.437500", "091618.437500", "091620.437500", "091622.437500", "091624.437500", "091626.437500", "091628.437500", "091630.437500", "091632.437500", "091634.437500", "091636.437500", "091638.437500", "091640.437500", "091642.437500", "091644.437500", "091646.437500", "091648.437500", "091650.437500", "091652.437500", "091654.437500", "091656.437500", "091658.437500", "091700.437500", "091702.437500", "091704.437500", "091706.437500", "091708.437500", "091710.437500", "091712.437500", "091714.437500", "091716.437500", "091718.437500", "091720.437500", "091722.437500", "091724.437500", "091726.437500", "091728.437500", "091730.437500", "091732.437500", "091734.437500", "091736.437500", "091738.437500", "091740.437500", "091742.437500", "091744.437500", "091746.437500", "091748.437500", "091750.437500"],
      "ContentTime": ["091201.677000", "091201.681000", "091201.683000", "091201.685000", "091201.687000", "091201.690000", "091201.692000", "091201.695000", "091201.697000", "091201.699000", "091201.702000", "091201.704000", "091201.713000", "091201.716000", "091201.718000", "091201.720000", "091201.723000", "091201.725000", "091201.727000", "091201.730000", "091201.732000", "091201.735000", "091201.737000", "091201.739000", "091241.672000", "091241.675000", "091241.677000", "091241.680000", "091241.682000", "091241.685000", "091241.687000", "091241.689000", "091241.692000", "091241.694000", "091241.696000", "091241.699000", "091241.701000", "091241.704000", "091241.706000", "091241.708000", "091241.711000", "091241.713000", "091241.715000", "091241.718000", "091321.672000", "091321.675000", "091321.677000", "091321.679000", "091321.682000", "091321.684000", "091321.687000", "091321.689000", "091321.691000", "091321.694000", "091321.696000", "091321.698000", "091321.701000", "091321.703000", "091321.705000", "091321.708000", "091321.720000", "091321.722000", "091321.724000", "091321.727000", "091401.673000", "091401.676000", "091401.678000", "091401.680000", "091401.683000", "091401.685000", "091401.688000", "091401.690000", "091401.692000", "091401.695000", "091401.697000", "091401.699000", "091401.702000", "091401.704000", "091401.706000", "091401.709000", "091401.711000", "091401.713000", "091401.716000", "091401.718000", "091441.672000", "091441.675000", "091441.677000", "091441.679000", "091441.682000", "091441.684000", "091441.687000", "091441.689000", "091441.691000", "091441.694000", "091441.696000", "091441.698000", "091441.701000", "091441.703000", "091441.706000", "091441.708000", "091441.710000", "091441.713000", "091441.715000", "091441.717000", "091521.672000", "091521.675000", "091521.677000", "091521.680000", "091521.683000", "091521.685000", "091521.687000", "091521.690000", "091521.692000", "091521.695000", "091521.697000", "091521.699000", "091521.702000", "091521.704000", "091521.706000", "091521.709000", "091521.711000", "091521.714000", "091521.716000", "091521.718000", "091601.672000", "091601.675000", "091601.724000", "091601.727000", "091601.729000", "091601.732000", "091601.734000", "091601.736000", "091601.739000", "091601.741000", "091601.743000", "091601.746000", "091601.748000", "091601.751000", "091601.753000", "091601.755000", "091601.758000", "091601.760000", "091601.762000", "091601.765000", "091641.672000", "091641.675000", "091641.677000", "091641.679000", "091641.682000", "091641.684000", "091641.687000", "091641.689000", "091641.691000", "091641.694000", "091641.696000", "091641.699000", "091641.701000", "091641.703000", "091641.706000", "091641.708000", "091641.710000", "091641.713000", "091641.715000", "091641.717000", "091721.672000", "091721.675000", "091721.677000", "091721.679000", "091721.682000", "091721.684000", "091721.687000", "091721.689000", "091721.692000", "091721.694000", "091721.696000", "091721.699000", "091721.701000", "091721.703000", "091721.706000", "091721.708000", "091721.711000", "091721.713000", "091721.715000", "091721.718000", "091751.905000", "091751.908000", "091751.910000", "091751.913000", "091751.915000", "091751.918000", "091751.920000", "091751.922000", "091751.925000", "091751.927000", "091751.930000", "091751.932000", "091751.936000", "091751.944000", "091751.946000", "091751.949000"],
      "InstanceCreationTime": ["091201.677000", "091201.681000", "091201.683000", "091201.685000", "091201.687000", "091201.690000", "091201.692000", "091201.695000", "091201.697000", "091201.699000", "091201.702000", "091201.704000", "091201.713000", "091201.716000", "091201.718000", "091201.720000", "091201.723000", "091201.725000", "091201.727000", "091201.730000", "091201.732000", "091201.735000", "091201.737000", "091201.739000", "091241.672000", "091241.675000", "091241.677000", "091241.680000", "091241.682000", "091241.685000", "091241.687000", "091241.689000", "091241.692000", "091241.694000", "091241.696000", "091241.699000", "091241.701000", "091241.704000", "091241.706000", "091241.708000", "091241.711000", "091241.713000", "091241.715000", "091241.718000", "091321.672000", "091321.675000", "091321.677000", "091321.679000", "091321.682000", "091321.684000", "091321.687000", "091321.689000", "091321.691000", "091321.694000", "091321.696000", "091321.698000", "091321.701000", "091321.703000", "091321.705000", "091321.708000", "091321.720000", "091321.722000", "091321.724000", "091321.727000", "091401.673000", "091401.676000", "091401.678000", "091401.680000", "091401.683000", "091401.685000", "091401.688000", "091401.690000", "091401.692000", "091401.695000", "091401.697000", "091401.699000", "091401.702000", "091401.704000", "091401.706000", "091401.709000", "091401.711000", "091401.713000", "091401.716000", "091401.718000", "091441.672000", "091441.675000", "091441.677000", "091441.679000", "091441.682000", "091441.684000", "091441.687000", "091441.689000", "091441.691000", "091441.694000", "091441.696000", "091441.698000", "091441.701000", "091441.703000", "091441.706000", "091441.708000", "091441.710000", "091441.713000", "091441.715000", "091441.717000", "091521.672000", "091521.675000", "091521.677000", "091521.680000", "091521.683000", "091521.685000", "091521.687000", "091521.690000", "091521.692000", "091521.695000", "091521.697000", "091521.699000", "091521.702000", "091521.704000", "091521.706000", "091521.709000", "091521.711000", "091521.714000", "091521.716000", "091521.718000", "091601.672000", "091601.675000", "091601.724000", "091601.727000", "091601.729000", "091601.732000", "091601.734000", "091601.736000", "091601.739000", "091601.741000", "091601.743000", "091601.746000", "091601.748000", "091601.751000", "091601.753000", "091601.755000", "091601.758000", "091601.760000", "091601.762000", "091601.765000", "091641.672000", "091641.675000", "091641.677000", "091641.679000", "091641.682000", "091641.684000", "091641.687000", "091641.689000", "091641.691000", "091641.694000", "091641.696000", "091641.699000", "091641.701000", "091641.703000", "091641.706000", "091641.708000", "091641.710000", "091641.713000", "091641.715000", "091641.717000", "091721.672000", "091721.675000", "091721.677000", "091721.679000", "091721.682000", "091721.684000", "091721.687000", "091721.689000", "091721.692000", "091721.694000", "091721.696000", "091721.699000", "091721.701000", "091721.703000", "091721.706000", "091721.708000", "091721.711000", "091721.713000", "091721.715000", "091721.718000", "091751.905000", "091751.908000", "091751.910000", "091751.913000", "091751.915000", "091751.918000", "091751.920000", "091751.922000", "091751.925000", "091751.927000", "091751.930000", "091751.932000", "091751.936000", "091751.944000", "091751.946000", "091751.949000"],
      "InstanceNumber": [1, 2, 3, 4, 5, 6, 7, 8, 9, 10, 11, 12, 13, 14, 15, 16, 17, 18, 19, 20, 21, 22, 23, 24, 25, 26, 27, 28, 29, 30, 31, 32, 33, 34, 35, 36, 37, 38, 39, 40, 41, 42, 43, 44, 45, 46, 47, 48, 49, 50, 51, 52, 53, 54, 55, 56, 57, 58, 59, 60, 61, 62, 63, 64, 65, 66, 67, 68, 69, 70, 71, 72, 73, 74, 75, 76, 77, 78, 79, 80, 81, 82, 83, 84, 85, 86, 87, 88, 89, 90, 91, 92, 93, 94, 95, 96, 97, 98, 99, 100, 101, 102, 103, 104, 105, 106, 107, 108, 109, 110, 111, 112, 113, 114, 115, 116, 117, 118, 119, 120, 121, 122, 123, 124, 125, 126, 127, 128, 129, 130, 131, 132, 133, 134, 135, 136, 137, 138, 139, 140, 141, 142, 143, 144, 145, 146, 147, 148, 149, 150, 151, 152, 153, 154, 155, 156, 157, 158, 159, 160, 161, 162, 163, 164, 165, 166, 167, 168, 169, 170, 171, 172, 173, 174, 175, 176, 177, 178, 179, 180, 181, 182, 183, 184, 185, 186, 187, 188, 189, 190, 191, 192, 193, 194, 195, 196, 197, 198, 199, 200],
      "LargestImagePixelValue": [3919, 3922, 3919, 3922, 3921, 3921, 3922, 3923, 3920, 3918, 3921, 3920, 3919, 3916, 3916, 3919, 3916, 3914, 3916, 3922, 3918, 3920, 3918, 3918, 3920, 3916, 3917, 3921, 3917, 3913, 3921, 3919, 3917, 3919, 3917, 3918, 3920, 3920, 3923, 3921, 3918, 3918, 3924, 3918, 3918, 3918, 3919, 3918, 3918, 3921, 3921, 3916, 3917, 3916, 3917, 3922, 3920, 3918, 3916, 3917, 3919, 3915, 3918, 3923, 3914, 3916, 3926, 3915, 3917, 3915, 3914, 3920, 3918, 3915, 3917, 3917, 3916, 3917, 3919, 3919, 3916, 3916, 3916, 3915, 3919, 3912, 3914, 3916, 3921, 3918, 3916, 3915, 3917, 3915, 3913, 3916, 3913, 3915, 3914, 3917, 3919, 3913, 3915, 3915, 3918, 3916, 3914, 3918, 3917, 3913, 3916, 3913, 3916, 3916, 3914, 3919, 3917, 3916, 3919, 3916, 3918, 3917, 3917, 3913, 3915, 3912, 3918, 3916, 3920, 3915, 3917, 3920, 3920, 3917, 3915, 3915, 3915, 3917, 3921, 3917, 3921, 3913, 3916, 3917, 3912, 3914, 3915, 3914, 3911, 3914, 3912, 3915, 3913, 3915, 3914, 3914, 3912, 3910, 3914, 3915, 3914, 3919, 3914, 3915, 3914, 3910, 3915, 3916, 3914, 3915, 3914, 3915, 3914, 3916, 3912, 3916, 3914, 3913, 3916, 3918, 3914, 3918, 3915, 3919, 3910, 3915, 3916, 3914, 3916, 3911, 3913, 3916, 3914, 3911, 3916, 3913, 3910, 3910, 3908, 3910],
      "WindowCenter": [1405.0, 1406.0, 1406.0, 1406.0, 1406.0, 1406.0, 1405.0, 1406.0, 1405.0, 1405.0, 1405.0, 1405.0, 1405.0, 1406.0, 1405.0, 1405.0, 1405.0, 1405.0, 1404.0, 1405.0, 1404.0, 1404.0, 1404.0, 1404.0, 1405.0, 1404.0, 1404.0, 1405.0, 1405.0, 1405.0, 1405.0, 1405.0, 1405.0, 1405.0, 1404.0, 1404.0, 1404.0, 1404.0, 1404.0, 1404.0, 1404.0, 1404.0, 1404.0, 1404.0, 1404.0, 1404.0, 1404.0, 1404.0, 1403.0, 1404.0, 1403.0, 1403.0, 1403.0, 1403.0, 1403.0, 1403.0, 1403.0, 1403.0, 1403.0, 1404.0, 1403.0, 1403.0, 1403.0, 1404.0, 1404.0, 1403.0, 1404.0, 1403.0, 1403.0, 1402.0, 1403.0, 1402.0, 1403.0, 1403.0, 1403.0, 1402.0, 1403.0, 1403.0, 1402.0, 1403.0, 1403.0, 1402.0, 1403.0, 1402.0, 1402.0, 1402.0, 1402.0, 1403.0, 1403.0, 1402.0, 1403.0, 1402.0, 1402.0, 1402.0, 1402.0, 1402.0, 1402.0, 1402.0, 1402.0, 1402.0, 1402.0, 1402.0, 1402.0, 1402.0, 1402.0, 1402.0, 1403.0, 1402.0, 1402.0, 1402.0, 1402.0, 1402.0, 1402.0, 1402.0, 1402.0, 1402.0, 1402.0, 1402.0, 1402.0, 1401.0, 1402.0, 1402.0, 1402.0, 1401.0, 1402.0, 1401.0, 1401.0, 1402.0, 1401.0, 1401.0, 1402.0, 1402.0, 1402.0, 1402.0, 1401.0, 1402.0, 1401.0, 1401.0, 1401.0, 1401.0, 1401.0, 1401.0, 1400.0, 1401.0, 1401.0, 1401.0, 1400.0, 1401.0, 1400.0, 1400.0, 1401.0, 1401.0, 1401.0, 1400.0, 1401.0, 1400.0, 1401.0, 1400.0, 1400.0, 1401.0, 1400.0, 1400.0, 1400.0, 1400.0, 1400.0, 1400.0, 1400.0, 1400.0, 1400.0, 1400.0, 1400.0, 1400.0, 1400.0, 1400.0, 1400.0, 1400.0, 1400.0, 1400.0, 1400.0, 1400.0, 1400.0, 1400.0, 1400.0, 1401.0, 1400.0, 1400.0, 1400.0, 1400.0, 1400.0, 1400.0, 1400.0, 1400.0, 1399.0, 1400.0, 1400.0, 1399.0, 1399.0, 1399.0, 1400.0, 1400.0],
      "WindowWidth": [3342.0, 3342.0, 3342.0, 3342.0, 3342.0, 3342.0, 3342.0, 3342.0, 3342.0, 3342.0, 3341.0, 3341.0, 3341.0, 3341.0, 3341.0, 3341.0, 3341.0, 3341.0, 3341.0, 3341.0, 3341.0, 3341.0, 3341.0, 3341.0, 3341.0, 3341.0, 3341.0, 3341.0, 3341.0, 3341.0, 3341.0, 3341.0, 3341.0, 3341.0, 3341.0, 3341.0, 3341.0, 3341.0, 3341.0, 3341.0, 3341.0, 3340.0, 3340.0, 3341.0, 3340.0, 3340.0, 3340.0, 3340.0, 3340.0, 3340.0, 3340.0, 3340.0, 3340.0, 3340.0, 3340.0, 3340.0, 3340.0, 3340.0, 3340.0, 3340.0, 3340.0, 3340.0, 3340.0, 3340.0, 3340.0, 3340.0, 3340.0, 3340.0, 3340.0, 3340.0, 3340.0, 3340.0, 3340.0, 3340.0, 3340.0, 3340.0, 3340.0, 3340.0, 3340.0, 3340.0, 3340.0, 3340.0, 3339.0, 3339.0, 3339.0, 3339.0, 3339.0, 3340.0, 3340.0, 3339.0, 3340.0, 3339.0, 3339.0, 3339.0, 3339.0, 3339.0, 3339.0, 3339.0, 3339.0, 3339.0, 3339.0, 3339.0, 3339.0, 3339.0, 3339.0, 3339.0, 3339.0, 3339.0, 3339.0, 3339.0, 3339.0, 3339.0, 3339.0, 3339.0, 3339.0, 3339.0, 3339.0, 3339.0, 3339.0, 3339.0, 3339.0, 3339.0, 3339.0, 3339.0, 3339.0, 3339.0, 3339.0, 3339.0, 3339.0, 3339.0, 3339.0, 3339.0, 3339.0, 3339.0, 3339.0, 3339.0, 3339.0, 3339.0, 3339.0, 3338.0, 3338.0, 3338.0, 3338.0, 3338.0, 3338.0, 3338.0, 3338.0, 3338.0, 3338.0, 3338.0, 3338.0, 3338.0, 3338.0, 3338.0, 3338.0, 3338.0, 3338.0, 3338.0, 3338.0, 3338.0, 3338.0, 3338.0, 3338.0, 3338.0, 3338.0, 3338.0, 3338.0, 3338.0, 3338.0, 3338.0, 3338.0, 3338.0, 3338.0, 3338.0, 3338.0, 3337.0, 3337.0, 3338.0, 3337.0, 3337.0, 3337.0, 3337.0, 3337.0, 3337.0, 3337.0, 3337.0, 3337.0, 3337.0, 3337.0, 3337.0, 3337.0, 3337.0, 3337.0, 3337.0, 3337.0, 3337.0, 3337.0, 3337.0, 3337.0, 3337.0]
    },
    "slices": {}
  }
}