{
  "AcquisitionMatrixPE": 122,
  "AcquisitionNumber": 1,
  "AcquisitionTime": "09:56:37.497500",
  "BandwidthPerPixelPhaseEncode": 27.785,
  "BaseResolution": 122,
  "BodyPartExamined": "BRAIN",
  "CoilCombinationMethod": "Adaptive Combine",
  "ConsistencyInfo": "N4_VE11C_LATEST_20160120",
  "ConversionSoftware": "dcm2niix",
  "ConversionSoftwareVersion": "v1.0.20220720",
  "DerivedVendorReportedEchoSpacing": 0.000590011,
  "DeviceSerialNumber": "66112",
  "DiffusionScheme": "Monopolar",
  "DwellTime": 2e-06,
  "EchoTime": 0.068,
  "EchoTrainLength": 61,
  "EffectiveEchoSpacing": 0.000295005,
  "FlipAngle": 90,
  "HeudiconvVersion": "0.13.1",
  "ImageOrientationPatientDICOM": [0.988149, -0.153442, 0.00416478, 0.145036, 0.942211, 0.301998],
  "ImageOrientationText": "Tra>Cor(17.3)>Sag(2.9)",
  "ImageType": [
    "ORIGINAL",
    "PRIMARY",
    "DIFFUSION",
    "NONE",
    "ND",
    "NORM"
],
  "ImagingFrequency": 123.252,
  "InPlanePhaseEncodingDirectionDICOM": "COL",
  "InstitutionAddress": "Maynard 3,Hanover,NH,US,03755",
  "InstitutionName": "Dartmouth College - PBS",
  "InstitutionalDepartmentName": "Department",
  "MRAcquisitionType": "2D",
  "MagneticFieldStrength": 3,
  "Manufacturer": "Siemens",
  "ManufacturersModelName": "Prisma",
  "Modality": "MR",
  "MultibandAccelerationFactor": 4,
  "NonlinearGradientCorrection": false,
  "ParallelReductionFactorInPlane": 2,
  "PartialFourier": 1,
  "PatientPosition": "HFS",
  "PercentPhaseFOV": 100,
  "PercentSampling": 100,
  "PhaseEncodingDirection": "j-",
  "PhaseEncodingSteps": 122,
  "PhaseResolution": 1,
  "PixelBandwidth": 2050,
  "ProcedureStepDescription": "dbic^QA",
  "ProtocolName": "dwi_acq-DTI-30-p2-s4",
  "PulseSequenceDetails": "%SiemensSeq%\\ep2d_diff",
  "ReceiveCoilActiveElements": "HEA;HEP",
  "ReceiveCoilName": "Head_32",
  "ReconMatrixPE": 122,
  "RefLinesPE": 38,
  "RepetitionTime": 3.6,
  "SAR": 0.161536,
  "ScanOptions": "FS",
  "ScanningSequence": "EP",
  "SequenceName": "*ep_b0",
  "SequenceVariant": "SK\\SP",
  "SeriesDescription": "dwi_acq-DTI-30-p2-s4",
  "SeriesNumber": 13,
  "ShimSetting": [4151, -7696, -7511, 261, -41, -64, -69, 101],
  "SliceThickness": 2,
  "SliceTiming": [2.58594, 0, 1.78906, 0.19531, 1.99219, 0.39844, 2.1875, 0.59375, 2.38281, 0.99219, 2.78125, 1.19531, 2.98438, 1.39062, 3.17969, 1.59375, 3.38281, 0.79688, 2.58594, 0, 1.78906, 0.19531, 1.99219, 0.39844, 2.1875, 0.59375, 2.38281, 0.99219, 2.78125, 1.19531, 2.98438, 1.39062, 3.17969, 1.59375, 3.38281, 0.79688, 2.58594, 0, 1.78906, 0.19531, 1.99219, 0.39844, 2.1875, 0.59375, 2.38281, 0.99219, 2.78125, 1.19531, 2.98438, 1.39062, 3.17969, 1.59375, 3.38281, 0.79688, 2.58594, 0, 1.78906, 0.19531, 1.99219, 0.39844, 2.1875, 0.59375, 2.38281, 0.99219, 2.78125, 1.19531, 2.98438, 1.39062, 3.17969, 1.59375, 3.38281, 0.79688],
  "SoftwareVersions": "syngo MR E11",
  "SpacingBetweenSlices": 2,
  "SpoilingState": true,
  "StationName": "AWP66112",
  "TotalReadoutTime": 0.0356956,
  "TxRefAmp": 230.108,
  "dcmmeta_affine": [
    [-1.943899393081665, 0.28531697392463684, 0.10052692890167236, 96.3064956665039],
    [0.301853746175766, 1.8535298109054565, 0.5956306457519531, -146.48695373535156],
    [0.008193016052246094, -0.5940952301025391, 1.9066009521484375, -34.283103942871094],
    [0.0, 0.0, 0.0, 1.0]
],
  "dcmmeta_reorient_transform": [
    [0.0, -1.0, 0.0, 121.0],
    [1.0, 0.0, 0.0, 0.0],
    [0.0, 0.0, -1.0, 71.0],
    [0.0, 0.0, 0.0, 1.0]
],
  "dcmmeta_shape": [122, 122, 72, 31],
  "dcmmeta_slice_dim": 2,
  "dcmmeta_version": 0.6,
  "global": {
    "const": {
      "AccessionNumber": "qa",
      "AcquisitionMatrix": [122, 0, 0, 122],
      "AngioFlag": "N",
      "BitsAllocated": 16,
      "BitsStored": 12,
      "BodyPartExamined": "BRAIN",
      "Columns": 122,
      "EchoNumbers": 1,
      "EchoTime": 68.0,
      "EchoTrainLength": 61,
      "FlipAngle": 90.0,
      "HighBit": 11,
      "ImageOrientationPatient": [0.98814882917438, -0.1534423213522, 0.00416478322984, 0.14503612596752, 0.94221095397424, 0.30199841121319],
      "ImageType": [
        "ORIGINAL",
        "PRIMARY",
        "DIFFUSION",
        "NONE",
        "ND",
        "NORM"
],
      "ImagedNucleus": "1H",
      "ImagingFrequency": 123.252439,
      "InPlanePhaseEncodingDirection": "COL",
      "MRAcquisitionType": "2D",
      "MagneticFieldStrength": 3.0,
      "Manufacturer": "SIEMENS",
      "ManufacturerModelName": "Prisma",
      "Modality": "MR",
      "NumberOfAverages": 1.0,
      "NumberOfPhaseEncodingSteps": 122,
      "PercentPhaseFieldOfView": 100.0,
      "PercentSampling": 100.0,
      "PerformedProcedureStepStartTime": "092246.763000",
      "PhotometricInterpretation": "MONOCHROME2",
      "PixelBandwidth": 2050.0,
      "PixelRepresentation": 0,
      "PixelSpacing": [1.9672131538391, 1.9672131538391],
      "ProtocolName": "dwi_acq-DTI-30-p2-s4",
      "RepetitionTime": 3600.0,
      "Rows": 122,
      "SAR": 0.16153579015778,
      "SamplesPerPixel": 1,
      "ScanOptions": "FS",
      "ScanningSequence": "EP",
      "SequenceVariant": [
        "SK",
        "SP"
],
      "SeriesDescription": "dwi_acq-DTI-30-p2-s4",
      "SeriesNumber": 13,
      "SeriesTime": "095646.682000",
      "SliceThickness": 2.0,
      "SmallestImagePixelValue": 0,
      "SoftwareVersions": "syngo MR E11",
      "SpacingBetweenSlices": 2.0,
      "SpecificCharacterSet": "ISO_IR 100",
      "StudyID": "113",
      "StudyTime": "092246.670000",
      "TransmitCoilName": "Body",
      "VariableFlipAngleFlag": "N",
      "WindowCenterWidthExplanation": "Algo1",
      "dBdt": 0.0},
    "slices": {
      "AcquisitionTime": ["095637.497500", "095634.912500", "095636.702500", "095635.112500", "095636.902500", "095635.310000", "095637.100000", "095635.510000", "095637.300000", "095635.907500", "095637.697500", "095636.107500", "095637.897500", "095636.305000", "095638.095000", "095636.505000", "095638.295000", "095635.707500", "095637.497500", "095634.912500", "095636.702500", "095635.112500", "095636.902500", "095635.310000", "095637.100000", "095635.510000", "095637.300000", "095635.907500", "095637.697500", "095636.107500", "095637.897500", "095636.305000", "095638.095000", "095636.505000", "095638.295000", "095635.707500", "095637.497500", "095634.912500", "095636.702500", "095635.112500", "095636.902500", "095635.310000", "095637.100000", "095635.510000", "095637.300000", "095635.907500", "095637.697500", "095636.107500", "095637.897500", "095636.305000", "095638.095000", "095636.505000", "095638.295000", "095635.707500", "095637.497500", "095634.912500", "095636.702500", "095635.112500", "095636.902500", "095635.310000", "095637.100000", "095635.510000", "095637.300000", "095635.907500", "095637.697500", "095636.107500", "095637.897500", "095636.305000", "095638.095000", "095636.505000", "095638.295000", "095635.707500", "095641.097500", "095638.512500", "095640.302500", "095638.712500", "095640.502500", "095638.910000", "095640.700000", "095639.110000", "095640.900000", "095639.507500", "095641.297500", "095639.707500", "095641.497500", "095639.905000", "095641.695000", "095640.105000", "095641.895000", "095639.307500", "095641.097500", "095638.512500", "095640.302500", "095638.712500", "095640.502500", "095638.910000", "095640.700000", "095639.110000", "095640.900000", "095639.507500", "095641.297500", "095639.707500", "095641.497500", "095639.905000", "095641.695000", "095640.105000", "095641.895000", "095639.307500", "095641.097500", "095638.512500", "095640.302500", "095638.712500", "095640.502500", "095638.910000", "095640.700000", "095639.110000", "095640.900000", "095639.507500", "095641.297500", "095639.707500", "095641.497500", "095639.905000", "095641.695000", "095640.105000", "095641.895000", "095639.307500", "095641.097500", "095638.512500", "095640.302500", "095638.712500", "095640.502500", "095638.910000", "095640.700000", "095639.110000", "095640.900000", "095639.507500", "095641.297500", "095639.707500", "095641.497500", "095639.905000", "095641.695000", "095640.105000", "095641.895000", "095639.307500", "095644.697500", "095642.112500", "095643.902500", "095642.312500", "095644.102500", "095642.510000", "095644.300000", "095642.710000", "095644.500000", "095643.107500", "095644.897500", "095643.307500", "095645.097500", "095643.505000", "095645.295000", "095643.705000", "095645.495000", "095642.907500", "095644.697500", "095642.112500", "095643.902500", "095642.312500", "095644.102500", "095642.510000", "095644.300000", "095642.710000", "095644.500000", "095643.107500", "095644.897500", "095643.307500", "095645.097500", "095643.505000", "095645.295000", "095643.705000", "095645.495000", "095642.907500", "095644.697500", "095642.112500", "095643.902500", "095642.312500", "095644.102500", "095642.510000", "095644.300000", "095642.710000", "095644.500000", "095643.107500", "095644.897500", "095643.307500", "095645.097500", "095643.505000", "095645.295000", "095643.705000", "095645.495000", "095642.907500", "095644.697500", "095642.112500", "095643.902500", "095642.312500", "095644.102500", "095642.510000", "095644.300000", "095642.710000", "095644.500000", "095643.107500", "095644.897500", "095643.307500", "095645.097500", "095643.505000", "095645.295000", "095643.705000", "095645.495000", "095642.907500", "095648.297500", "095645.712500", "095647.502500", "095645.912500", "095647.702500", "095646.110000", "095647.900000", "095646.310000", "095648.100000", "095646.707500", "095648.497500", "095646.907500", "095648.697500", "095647.105000", "095648.895000", "095647.305000", "095649.095000", "095646.507500", "095648.297500", "095645.712500", "095647.502500", "095645.912500", "095647.702500", "095646.110000", "095647.900000", "095646.310000", "095648.100000", "095646.707500", "095648.497500", "095646.907500", "095648.697500", "095647.105000", "095648.895000", "095647.305000", "095649.095000", "095646.507500", "095648.297500", "095645.712500", "095647.502500", "095645.912500", "095647.702500", "095646.110000", "095647.900000", "095646.310000", "095648.100000", "095646.707500", "095648.497500", "095646.907500", "095648.697500", "095647.105000", "095648.895000", "095647.305000", "095649.095000", "095646.507500", "095648.297500", "095645.712500", "095647.502500", "095645.912500", "095647.702500", "095646.110000", "095647.900000", "095646.310000", "095648.100000", "095646.707500", "095648.497500", "095646.907500", "095648.697500", "095647.105000", "095648.895000", "095647.305000", "095649.095000", "095646.507500", "095651.897500", "095649.312500", "095651.102500", "095649.512500", "095651.302500", "095649.710000", "095651.500000", "095649.910000", "095651.700000", "095650.307500", "095652.097500", "095650.507500", "095652.297500", "095650.705000", "095652.495000", "095650.905000", "095652.695000", "095650.107500", "095651.897500", "095649.312500", "095651.102500", "095649.512500", "095651.302500", "095649.710000", "095651.500000", "095649.910000", "095651.700000", "095650.307500", "095652.097500", "095650.507500", "095652.297500", "095650.705000", "095652.495000", "095650.905000", "095652.695000", "095650.107500", "095651.897500", "095649.312500", "095651.102500", "095649.512500", "095651.302500", "095649.710000", "095651.500000", "095649.910000", "095651.700000", "095650.307500", "095652.097500", "095650.507500", "095652.297500", "095650.705000", "095652.495000", "095650.905000", "095652.695000", "095650.107500", "095651.897500", "095649.312500", "095651.102500", "095649.512500", "095651.302500", "095649.710000", "095651.500000", "095649.910000", "095651.700000", "095650.307500", "095652.097500", "095650.507500", "095652.297500", "095650.705000", "095652.495000", "095650.905000", "095652.695000", "095650.107500", "095655.497500", "095652.912500", "095654.702500", "095653.112500", "095654.902500", "095653.310000", "095655.100000", "095653.510000", "095655.300000", "095653.907500", "095655.697500", "095654.107500", "095655.897500", "095654.305000", "095656.095000", "095654.505000", "095656.295000", "095653.707500", "095655.497500", "095652.912500", "095654.702500", "095653.112500", "095654.902500", "095653.310000", "095655.100000", "095653.510000", "095655.300000", "095653.907500", "095655.697500", "095654.107500", "095655.897500", "095654.305000", "095656.095000", "095654.505000", "095656.295000", "095653.707500", "095655.497500", "095652.912500", "095654.702500", "095653.112500", "095654.902500", "095653.310000", "095655.100000", "095653.510000", "095655.300000", "095653.907500", "095655.697500", "095654.107500", "095655.897500", "095654.305000", "095656.095000", "095654.505000", "095656.295000", "095653.707500", "095655.497500", "095652.912500", "095654.702500", "095653.112500", "095654.902500", "095653.310000", "095655.100000", "095653.510000", "095655.300000", "095653.907500", "095655.697500", "095654.107500", "095655.897500", "095654.305000", "095656.095000", "095654.505000", "095656.295000", "095653.707500", "095659.097500", "095656.512500", "095658.302500", "095656.712500", "095658.502500", "095656.910000", "095658.700000", "095657.110000", "095658.900000", "095657.507500", "095659.297500", "095657.707500", "095659.497500", "095657.905000", "095659.695000", "095658.105000", "095659.895000", "095657.307500", "095659.097500", "095656.512500", "095658.302500", "095656.712500", "095658.502500", "095656.910000", "095658.700000", "095657.110000", "095658.900000", "095657.507500", "095659.297500", "095657.707500", "095659.497500", "095657.905000", "095659.695000", "095658.105000", "095659.895000", "095657.307500", "095659.097500", "095656.512500", "095658.302500", "095656.712500", "095658.502500", "095656.910000", "095658.700000", "095657.110000", "095658.900000", "095657.507500", "095659.297500", "095657.707500", "095659.497500", "095657.905000", "095659.695000", "095658.105000", "095659.895000", "095657.307500", "095659.097500", "095656.512500", "095658.302500", "095656.712500", "095658.502500", "095656.910000", "095658.700000", "095657.110000", "095658.900000", "095657.507500", "095659.297500", "095657.707500", "095659.497500", "095657.905000", "095659.695000", "095658.105000", "095659.895000", "095657.307500", "095702.697500", "095700.112500", "095701.902500", "095700.312500", "095702.102500", "095700.510000", "095702.300000", "095700.710000", "095702.500000", "095701.107500", "095702.897500", "095701.307500", "095703.097500", "095701.505000", "095703.295000", "095701.705000", "095703.495000", "095700.907500", "095702.697500", "095700.112500", "095701.902500", "095700.312500", "095702.102500", "095700.510000", "095702.300000", "095700.710000", "095702.500000", "095701.107500", "095702.897500", "095701.307500", "095703.097500", "095701.505000", "095703.295000", "095701.705000", "095703.495000", "095700.907500", "095702.697500", "095700.112500", "095701.902500", "095700.312500", "095702.102500", "095700.510000", "095702.300000", "095700.710000", "095702.500000", "095701.107500", "095702.897500", "095701.307500", "095703.097500", "095701.505000", "095703.295000", "095701.705000", "095703.495000", "095700.907500", "095702.697500", "095700.112500", "095701.902500", "095700.312500", "095702.102500", "095700.510000", "095702.300000", "095700.710000", "095702.500000", "095701.107500", "095702.897500", "095701.307500", "095703.097500", "095701.505000", "095703.295000", "095701.705000", "095703.495000", "095700.907500", "095706.297500", "095703.712500", "095705.502500", "095703.912500", "095705.702500", "095704.110000", "095705.900000", "095704.310000", "095706.100000", "095704.707500", "095706.497500", "095704.907500", "095706.697500", "095705.105000", "095706.895000", "095705.305000", "095707.095000", "095704.507500", "095706.297500", "095703.712500", "095705.502500", "095703.912500", "095705.702500", "095704.110000", "095705.900000", "095704.310000", "095706.100000", "095704.707500", "095706.497500", "095704.907500", "095706.697500", "095705.105000", "095706.895000", "095705.305000", "095707.095000", "095704.507500", "095706.297500", "095703.712500", "095705.502500", "095703.912500", "095705.702500", "095704.110000", "095705.900000", "095704.310000", "095706.100000", "095704.707500", "095706.497500", "095704.907500", "095706.697500", "095705.105000", "095706.895000", "095705.305000", "095707.095000", "095704.507500", "095706.297500", "095703.712500", "095705.502500", "095703.912500", "095705.702500", "095704.110000", "095705.900000", "095704.310000", "095706.100000", "095704.707500", "095706.497500", "095704.907500", "095706.697500", "095705.105000", "095706.895000", "095705.305000", "095707.095000", "095704.507500", "095709.897500", "095707.312500", "095709.102500", "095707.512500", "095709.302500", "095707.710000", "095709.500000", "095707.910000", "095709.700000", "095708.307500", "095710.097500", "095708.507500", "095710.297500", "095708.705000", "095710.495000", "095708.905000", "095710.695000", "095708.107500", "095709.897500", "095707.312500", "095709.102500", "095707.512500", "095709.302500", "095707.710000", "095709.500000", "095707.910000", "095709.700000", "095708.307500", "095710.097500", "095708.507500", "095710.297500", "095708.705000", "095710.495000", "095708.905000", "095710.695000", "095708.107500", "095709.897500", "095707.312500", "095709.102500", "095707.512500", "095709.302500", "095707.710000", "095709.500000", "095707.910000", "095709.700000", "095708.307500", "095710.097500", "095708.507500", "095710.297500", "095708.705000", "095710.495000", "095708.905000", "095710.695000", "095708.107500", "095709.897500", "095707.312500", "095709.102500", "095707.512500", "095709.302500", "095707.710000", "095709.500000", "095707.910000", "095709.700000", "095708.307500", "095710.097500", "095708.507500", "095710.297500", "095708.705000", "095710.495000", "095708.905000", "095710.695000", "095708.107500", "095713.497500", "095710.912500", "095712.702500", "095711.112500", "095712.902500", "095711.310000", "095713.100000", "095711.510000", "095713.300000", "095711.907500", "095713.697500", "095712.107500", "095713.897500", "095712.305000", "095714.095000", "095712.505000", "095714.295000", "095711.707500", "095713.497500", "095710.912500", "095712.702500", "095711.112500", "095712.902500", "095711.310000", "095713.100000", "095711.510000", "095713.300000", "095711.907500", "095713.697500", "095712.107500", "095713.897500", "095712.305000", "095714.095000", "095712.505000", "095714.295000", "095711.707500", "095713.497500", "095710.912500", "095712.702500", "095711.112500", "095712.902500", "095711.310000", "095713.100000", "095711.510000", "095713.300000", "095711.907500", "095713.697500", "095712.107500", "095713.897500", "095712.305000", "095714.095000", "095712.505000", "095714.295000", "095711.707500", "095713.497500", "095710.912500", "095712.702500", "095711.112500", "095712.902500", "095711.310000", "095713.100000", "095711.510000", "095713.300000", "095711.907500", "095713.697500", "095712.107500", "095713.897500", "095712.305000", "095714.095000", "095712.505000", "095714.295000", "095711.707500", "095717.097500", "095714.512500", "095716.302500", "095714.712500", "095716.502500", "095714.910000", "095716.700000", "095715.110000", "095716.900000", "095715.507500", "095717.297500", "095715.707500", "095717.497500", "095715.905000", "095717.695000", "095716.105000", "095717.895000", "095715.307500", "095717.097500", "095714.512500", "095716.302500", "095714.712500", "095716.502500", "095714.910000", "095716.700000", "095715.110000", "095716.900000", "095715.507500", "095717.297500", "095715.707500", "095717.497500", "095715.905000", "095717.695000", "095716.105000", "095717.895000", "095715.307500", "095717.097500", "095714.512500", "095716.302500", "095714.712500", "095716.502500", "095714.910000", "095716.700000", "095715.110000", "095716.900000", "095715.507500", "095717.297500", "095715.707500", "095717.497500", "095715.905000", "095717.695000", "095716.105000", "095717.895000", "095715.307500", "095717.097500", "095714.512500", "095716.302500", "095714.712500", "095716.502500", "095714.910000", "095716.700000", "095715.110000", "095716.900000", "095715.507500", "095717.297500", "095715.707500", "095717.497500", "095715.905000", "095717.695000", "095716.105000", "095717.895000", "095715.307500", "095720.697500", "095718.112500", "095719.902500", "095718.312500", "095720.102500", "095718.510000", "095720.300000", "095718.710000", "095720.500000", "095719.107500", "095720.897500", "095719.307500", "095721.097500", "095719.505000", "095721.295000", "095719.705000", "095721.495000", "095718.907500", "095720.697500", "095718.112500", "095719.902500", "095718.312500", "095720.102500", "095718.510000", "095720.300000", "095718.710000", "095720.500000", "095719.107500", "095720.897500", "095719.307500", "095721.097500", "095719.505000", "095721.295000", "095719.705000", "095721.495000", "095718.907500", "095720.697500", "095718.112500", "095719.902500", "095718.312500", "095720.102500", "095718.510000", "095720.300000", "095718.710000", "095720.500000", "095719.107500", "095720.897500", "095719.307500", "095721.097500", "095719.505000", "095721.295000", "095719.705000", "095721.495000", "095718.907500", "095720.697500", "095718.112500", "095719.902500", "095718.312500", "095720.102500", "095718.510000", "095720.300000", "095718.710000", "095720.500000", "095719.107500", "095720.897500", "095719.307500", "095721.097500", "095719.505000", "095721.295000", "095719.705000", "095721.495000", "095718.907500", "095724.297500", "095721.712500", "095723.502500", "095721.912500", "095723.702500", "095722.110000", "095723.900000", "095722.310000", "095724.100000", "095722.707500", "095724.497500", "095722.907500", "095724.697500", "095723.105000", "095724.895000", "095723.305000", "095725.095000", "095722.507500", "095724.297500", "095721.712500", "095723.502500", "095721.912500", "095723.702500", "095722.110000", "095723.900000", "095722.310000", "095724.100000", "095722.707500", "095724.497500", "095722.907500", "095724.697500", "095723.105000", "095724.895000", "095723.305000", "095725.095000", "095722.507500", "095724.297500", "095721.712500", "095723.502500", "095721.912500", "095723.702500", "095722.110000", "095723.900000", "095722.310000", "095724.100000", "095722.707500", "095724.497500", "095722.907500", "095724.697500", "095723.105000", "095724.895000", "095723.305000", "095725.095000", "095722.507500", "095724.297500", "095721.712500", "095723.502500", "095721.912500", "095723.702500", "095722.110000", "095723.900000", "095722.310000", "095724.100000", "095722.707500", "095724.497500", "095722.907500", "095724.697500", "095723.105000", "095724.895000", "095723.305000", "095725.095000", "095722.507500", "095727.897500", "095725.312500", "095727.102500", "095725.512500", "095727.302500", "095725.710000", "095727.500000", "095725.910000", "095727.700000", "095726.307500", "095728.097500", "095726.507500", "095728.297500", "095726.705000", "095728.495000", "095726.905000", "095728.695000", "095726.107500", "095727.897500", "095725.312500", "095727.102500", "095725.512500", "095727.302500", "095725.710000", "095727.500000", "095725.910000", "095727.700000", "095726.307500", "095728.097500", "095726.507500", "095728.297500", "095726.705000", "095728.495000", "095726.905000", "095728.695000", "095726.107500", "095727.897500", "095725.312500", "095727.102500", "095725.512500", "095727.302500", "095725.710000", "095727.500000", "095725.910000", "095727.700000", "095726.307500", "095728.097500", "095726.507500", "095728.297500", "095726.705000", "095728.495000", "095726.905000", "095728.695000", "095726.107500", "095727.897500", "095725.312500", "095727.102500", "095725.512500", "095727.302500", "095725.710000", "095727.500000", "095725.910000", "095727.700000", "095726.307500", "095728.097500", "095726.507500", "095728.297500", "095726.705000", "095728.495000", "095726.905000", "095728.695000", "095726.107500", "095731.497500", "095728.912500", "095730.702500", "095729.112500", "095730.902500", "095729.310000", "095731.100000", "095729.510000", "095731.300000", "095729.907500", "095731.697500", "095730.107500", "095731.897500", "095730.305000", "095732.095000", "095730.505000", "095732.295000", "095729.707500", "095731.497500", "095728.912500", "095730.702500", "095729.112500", "095730.902500", "095729.310000", "095731.100000", "095729.510000", "095731.300000", "095729.907500", "095731.697500", "095730.107500", "095731.897500", "095730.305000", "095732.095000", "095730.505000", "095732.295000", "095729.707500", "095731.497500", "095728.912500", "095730.702500", "095729.112500", "095730.902500", "095729.310000", "095731.100000", "095729.510000", "095731.300000", "095729.907500", "095731.697500", "095730.107500", "095731.897500", "095730.305000", "095732.095000", "095730.505000", "095732.295000", "095729.707500", "095731.497500", "095728.912500", "095730.702500", "095729.112500", "095730.902500", "095729.310000", "095731.100000", "095729.510000", "095731.300000", "095729.907500", "095731.697500", "095730.107500", "095731.897500", "095730.305000", "095732.095000", "095730.505000", "095732.295000", "095729.707500", "095735.097500", "095732.512500", "095734.302500", "095732.712500", "095734.502500", "095732.910000", "095734.700000", "095733.110000", "095734.900000", "095733.507500", "095735.297500", "095733.707500", "095735.497500", "095733.905000", "095735.695000", "095734.105000", "095735.895000", "095733.307500", "095735.097500", "095732.512500", "095734.302500", "095732.712500", "095734.502500", "095732.910000", "095734.700000", "095733.110000", "095734.900000", "095733.507500", "095735.297500", "095733.707500", "095735.497500", "095733.905000", "095735.695000", "095734.105000", "095735.895000", "095733.307500", "095735.097500", "095732.512500", "095734.302500", "095732.712500", "095734.502500", "095732.910000", "095734.700000", "095733.110000", "095734.900000", "095733.507500", "095735.297500", "095733.707500", "095735.497500", "095733.905000", "095735.695000", "095734.105000", "095735.895000", "095733.307500", "095735.097500", "095732.512500", "095734.302500", "095732.712500", "095734.502500", "095732.910000", "095734.700000", "095733.110000", "095734.900000", "095733.507500", "095735.297500", "095733.707500", "095735.497500", "095733.905000", "095735.695000", "095734.105000", "095735.895000", "095733.307500", "095738.697500", "095736.112500", "095737.902500", "095736.312500", "095738.102500", "095736.510000", "095738.300000", "095736.710000", "095738.500000", "095737.107500", "095738.897500", "095737.307500", "095739.097500", "095737.505000", "095739.295000", "095737.705000", "095739.495000", "095736.907500", "095738.697500", "095736.112500", "095737.902500", "095736.312500", "095738.102500", "095736.510000", "095738.300000", "095736.710000", "095738.500000", "095737.107500", "095738.897500", "095737.307500", "095739.097500", "095737.505000", "095739.295000", "095737.705000", "095739.495000", "095736.907500", "095738.697500", "095736.112500", "095737.902500", "095736.312500", "095738.102500", "095736.510000", "095738.300000", "095736.710000", "095738.500000", "095737.107500", "095738.897500", "095737.307500", "095739.097500", "095737.505000", "095739.295000", "095737.705000", "095739.495000", "095736.907500", "095738.697500", "095736.112500", "095737.902500", "095736.312500", "095738.102500", "095736.510000", "095738.300000", "095736.710000", "095738.500000", "095737.107500", "095738.897500", "095737.307500", "095739.097500", "095737.505000", "095739.295000", "095737.705000", "095739.495000", "095736.907500", "095742.297500", "095739.712500", "095741.502500", "095739.912500", "095741.702500", "095740.110000", "095741.900000", "095740.310000", "095742.100000", "095740.707500", "095742.497500", "095740.907500", "095742.697500", "095741.105000", "095742.895000", "095741.305000", "095743.095000", "095740.507500", "095742.297500", "095739.712500", "095741.502500", "095739.912500", "095741.702500", "095740.110000", "095741.900000", "095740.310000", "095742.100000", "095740.707500", "095742.497500", "095740.907500", "095742.697500", "095741.105000", "095742.895000", "095741.305000", "095743.095000", "095740.507500", "095742.297500", "095739.712500", "095741.502500", "095739.912500", "095741.702500", "095740.110000", "095741.900000", "095740.310000", "095742.100000", "095740.707500", "095742.497500", "095740.907500", "095742.697500", "095741.105000", "095742.895000", "095741.305000", "095743.095000", "095740.507500", "095742.297500", "095739.712500", "095741.502500", "095739.912500", "095741.702500", "095740.110000", "095741.900000", "095740.310000", "095742.100000", "095740.707500", "095742.497500", "095740.907500", "095742.697500", "095741.105000", "095742.895000", "095741.305000", "095743.095000", "095740.507500", "095745.897500", "095743.312500", "095745.102500", "095743.512500", "095745.302500", "095743.710000", "095745.500000", "095743.910000", "095745.700000", "095744.307500", "095746.097500", "095744.507500", "095746.297500", "095744.705000", "095746.495000", "095744.905000", "095746.695000", "095744.107500", "095745.897500", "095743.312500", "095745.102500", "095743.512500", "095745.302500", "095743.710000", "095745.500000", "095743.910000", "095745.700000", "095744.307500", "095746.097500", "095744.507500", "095746.297500", "095744.705000", "095746.495000", "095744.905000", "095746.695000", "095744.107500", "095745.897500", "095743.312500", "095745.102500", "095743.512500", "095745.302500", "095743.710000", "095745.500000", "095743.910000", "095745.700000", "095744.307500", "095746.097500", "095744.507500", "095746.297500", "095744.705000", "095746.495000", "095744.905000", "095746.695000", "095744.107500", "095745.897500", "095743.312500", "095745.102500", "095743.512500", "095745.302500", "095743.710000", "095745.500000", "095743.910000", "095745.700000", "095744.307500", "095746.097500", "09