{
  "AcquisitionMatrixPE": 122,
  "AcquisitionNumber": 1,
  "AcquisitionTime": "09:52:16.192500",
  "BandwidthPerPixelPhaseEncode": 28.76,
  "BaseResolution": 122,
  "BodyPartExamined": "BRAIN",
  "CoilCombinationMethod": "Adaptive Combine",
  "ConsistencyInfo": "N4_VE11C_LATEST_20160120",
  "ConversionSoftware": "dcm2niix",
  "ConversionSoftwareVersion": "v1.0.20220720",
  "DerivedVendorReportedEchoSpacing": 0.000570008,
  "DeviceSerialNumber": "66112",
  "DiffusionScheme": "Monopolar",
  "DwellTime": 2e-06,
  "EchoTime": 0.075,
  "EchoTrainLength": 61,
  "EffectiveEchoSpacing": 0.000285004,
  "FlipAngle": 90,
  "HeudiconvVersion": "0.13.1",
  "ImageOrientationPatientDICOM": [0.988149, -0.153442, 0.00416478, 0.145036, 0.942211, 0.301998],
  "ImageOrientationText": "Tra>Cor(17.3)>Sag(2.9)",
  "ImageType": [
    "ORIGINAL",
    "PRIMARY",
    "DIFFUSION",
    "NONE",
    "ND",
    "NORM"
],
  "ImagingFrequency": 123.252,
  "InPlanePhaseEncodingDirectionDICOM": "COL",
  "InstitutionAddress": "Maynard 3,Hanover,NH,US,03755",
  "InstitutionName": "Dartmouth College - PBS",
  "InstitutionalDepartmentName": "Department",
  "MRAcquisitionType": "2D",
  "MagneticFieldStrength": 3,
  "Manufacturer": "Siemens",
  "ManufacturersModelName": "Prisma",
  "MatrixCoilMode": "GRAPPA",
  "Modality": "MR",
  "NonlinearGradientCorrection": false,
  "ParallelReductionFactorInPlane": 2,
  "PartialFourier": 1,
  "PatientPosition": "HFS",
  "PercentPhaseFOV": 100,
  "PercentSampling": 100,
  "PhaseEncodingDirection": "j-",
  "PhaseEncodingSteps": 122,
  "PhaseResolution": 1,
  "PixelBandwidth": 2050,
  "ProcedureStepDescription": "dbic^QA",
  "ProtocolName": "dwi_acq-DTI-30-p2",
  "PulseSequenceDetails": "%SiemensSeq%\\ep2d_diff",
  "ReceiveCoilActiveElements": "HEA;HEP",
  "ReceiveCoilName": "Head_32",
  "ReconMatrixPE": 122,
  "RefLinesPE": 38,
  "RepetitionTime": 7.7,
  "SAR": 0.101912,
  "ScanOptions": "FS",
  "ScanningSequence": "EP",
  "SequenceName": "*ep_b0",
  "SequenceVariant": "SK\\SP",
  "SeriesDescription": "dwi_acq-DTI-30-p2",
  "SeriesNumber": 12,
  "ShimSetting": [4151, -7697, -7511, 259, -42, -60, -69, 102],
  "SliceThickness": 2,
  "SliceTiming": [3.84375, 0, 3.95312, 0.10938, 4.0625, 0.21875, 4.17188, 0.32812, 4.28125, 0.4375, 4.39062, 0.55469, 4.5, 0.66406, 4.60938, 0.77344, 4.71875, 0.88281, 4.82812, 0.99219, 4.9375, 1.10156, 5.04688, 1.21094, 5.15625, 1.32031, 5.26562, 1.42969, 5.375, 1.53906, 5.49219, 1.64844, 5.60156, 1.75781, 5.70312, 1.86719, 5.8125, 1.97656, 5.92969, 2.08594, 6.03906, 2.19531, 6.14844, 2.30469, 6.25781, 2.41406, 6.36719, 2.52344, 6.47656, 2.63281, 6.58594, 2.74219, 6.69531, 2.85156, 6.80469, 2.96094, 6.91406, 3.07031, 7.02344, 3.17969, 7.13281, 3.29688, 7.24219, 3.40625, 7.35156, 3.51562, 7.46094, 3.625, 7.57031, 3.73438],
  "SoftwareVersions": "syngo MR E11",
  "SpacingBetweenSlices": 2,
  "SpoilingState": true,
  "StationName": "AWP66112",
  "TotalReadoutTime": 0.0344855,
  "TxRefAmp": 230.108,
  "dcmmeta_affine": [
    [-1.943899393081665, 0.28531697392463684, 0.10052680969238281, 96.40702819824219],
    [0.301853746175766, 1.8535298109054565, 0.5956306457519531, -145.89132690429688],
    [0.008193016052246094, -0.5940952301025391, 1.9066009521484375, -32.376502990722656],
    [0.0, 0.0, 0.0, 1.0]
],
  "dcmmeta_reorient_transform": [
    [0.0, -1.0, 0.0, 121.0],
    [1.0, 0.0, 0.0, 0.0],
    [0.0, 0.0, -1.0, 69.0],
    [0.0, 0.0, 0.0, 1.0]
],
  "dcmmeta_shape": [122, 122, 70, 31],
  "dcmmeta_slice_dim": 2,
  "dcmmeta_version": 0.6,
  "global": {
    "const": {
      "AccessionNumber": "qa",
      "AcquisitionMatrix": [122, 0, 0, 122],
      "AngioFlag": "N",
      "BitsAllocated": 16,
      "BitsStored": 12,
      "BodyPartExamined": "BRAIN",
      "Columns": 122,
      "EchoNumbers": 1,
      "EchoTime": 75.0,
      "EchoTrainLength": 61,
      "FlipAngle": 90.0,
      "HighBit": 11,
      "ImageOrientationPatient": [0.98814882917438, -0.1534423213522, 0.00416478322984, 0.14503612596752, 0.94221095397424, 0.30199841121319],
      "ImageType": [
        "ORIGINAL",
        "PRIMARY",
        "DIFFUSION",
        "NONE",
        "ND",
        "NORM"
],
      "ImagedNucleus": "1H",
      "ImagingFrequency": 123.252437,
      "InPlanePhaseEncodingDirection": "COL",
      "MRAcquisitionType": "2D",
      "MagneticFieldStrength": 3.0,
      "Manufacturer": "SIEMENS",
      "ManufacturerModelName": "Prisma",
      "Modality": "MR",
      "NumberOfAverages": 1.0,
      "NumberOfPhaseEncodingSteps": 122,
      "PercentPhaseFieldOfView": 100.0,
      "PercentSampling": 100.0,
      "PerformedProcedureStepStartTime": "092246.763000",
      "PhotometricInterpretation": "MONOCHROME2",
      "PixelBandwidth": 2050.0,
      "PixelRepresentation": 0,
      "PixelSpacing": [1.9672131538391, 1.9672131538391],
      "ProtocolName": "dwi_acq-DTI-30-p2",
      "RepetitionTime": 7700.0,
      "Rows": 122,
      "SAR": 0.10191165442876,
      "SamplesPerPixel": 1,
      "ScanOptions": "FS",
      "ScanningSequence": "EP",
      "SequenceVariant": [
        "SK",
        "SP"
],
      "SeriesDescription": "dwi_acq-DTI-30-p2",
      "SeriesNumber": 12,
      "SeriesTime": "095229.372000",
      "SliceThickness": 2.0,
      "SmallestImagePixelValue": 0,
      "SoftwareVersions": "syngo MR E11",
      "SpacingBetweenSlices": 2.0,
      "SpecificCharacterSet": "ISO_IR 100",
      "StudyID": "113",
      "StudyTime": "092246.670000",
      "TransmitCoilName": "Body",
      "VariableFlipAngleFlag": "N",
      "WindowCenterWidthExplanation": "Algo1",
      "dBdt": 0.0},
    "slices": {
      "AcquisitionTime": ["095216.192500", "095212.352500", "095216.302500", "095212.462500", "095216.412500", "095212.572500", "095216.522500", "095212.682500", "095216.632500", "095212.792500", "095216.742500", "095212.902500", "095216.852500", "095213.012500", "095216.962500", "095213.122500", "095217.070000", "095213.232500", "095217.180000", "095213.340000", "095217.290000", "095213.450000", "095217.400000", "095213.560000", "095217.510000", "095213.670000", "095217.620000", "095213.780000", "095217.730000", "095213.890000", "095217.840000", "095214.000000", "095217.950000", "095214.110000", "095218.057500", "095214.217500", "095218.167500", "095214.327500", "095218.277500", "095214.437500", "095218.387500", "095214.547500", "095218.497500", "095214.657500", "095218.607500", "095214.767500", "095218.717500", "095214.877500", "095218.827500", "095214.987500", "095218.935000", "095215.097500", "095219.045000", "095215.205000", "095219.155000", "095215.315000", "095219.265000", "095215.425000", "095219.375000", "095215.535000", "095219.485000", "095215.645000", "095219.595000", "095215.755000", "095219.705000", "095215.865000", "095219.815000", "095215.975000", "095219.922500", "095216.082500", "095223.892500", "095220.052500", "095224.002500", "095220.162500", "095224.112500", "095220.272500", "095224.222500", "095220.382500", "095224.332500", "095220.492500", "095224.442500", "095220.602500", "095224.552500", "095220.712500", "095224.662500", "095220.822500", "095224.770000", "095220.932500", "095224.880000", "095221.040000", "095224.990000", "095221.150000", "095225.100000", "095221.260000", "095225.210000", "095221.370000", "095225.320000", "095221.480000", "095225.430000", "095221.590000", "095225.540000", "095221.700000", "095225.650000", "095221.810000", "095225.757500", "095221.917500", "095225.867500", "095222.027500", "095225.977500", "095222.137500", "095226.087500", "095222.247500", "095226.197500", "095222.357500", "095226.307500", "095222.467500", "095226.417500", "095222.577500", "095226.527500", "095222.687500", "095226.635000", "095222.797500", "095226.745000", "095222.905000", "095226.855000", "095223.015000", "095226.965000", "095223.125000", "095227.075000", "095223.235000", "095227.185000", "095223.345000", "095227.295000", "095223.455000", "095227.405000", "095223.565000", "095227.515000", "095223.675000", "095227.622500", "095223.782500", "095231.592500", "095227.752500", "095231.702500", "095227.862500", "095231.812500", "095227.972500", "095231.922500", "095228.082500", "095232.032500", "095228.192500", "095232.142500", "095228.302500", "095232.252500", "095228.412500", "095232.362500", "095228.522500", "095232.470000", "095228.632500", "095232.580000", "095228.740000", "095232.690000", "095228.850000", "095232.800000", "095228.960000", "095232.910000", "095229.070000", "095233.020000", "095229.180000", "095233.130000", "095229.290000", "095233.240000", "095229.400000", "095233.350000", "095229.510000", "095233.457500", "095229.617500", "095233.567500", "095229.727500", "095233.677500", "095229.837500", "095233.787500", "095229.947500", "095233.897500", "095230.057500", "095234.007500", "095230.167500", "095234.117500", "095230.277500", "095234.227500", "095230.387500", "095234.335000", "095230.497500", "095234.445000", "095230.605000", "095234.555000", "095230.715000", "095234.665000", "095230.825000", "095234.775000", "095230.935000", "095234.885000", "095231.045000", "095234.995000", "095231.155000", "095235.105000", "095231.265000", "095235.215000", "095231.375000", "095235.322500", "095231.482500", "095239.292500", "095235.452500", "095239.402500", "095235.562500", "095239.512500", "095235.672500", "095239.622500", "095235.782500", "095239.732500", "095235.892500", "095239.842500", "095236.002500", "095239.952500", "095236.112500", "095240.062500", "095236.222500", "095240.170000", "095236.332500", "095240.280000", "095236.440000", "095240.390000", "095236.550000", "095240.500000", "095236.660000", "095240.610000", "095236.770000", "095240.720000", "095236.880000", "095240.830000", "095236.990000", "095240.940000", "095237.100000", "095241.050000", "095237.210000", "095241.157500", "095237.317500", "095241.267500", "095237.427500", "095241.377500", "095237.537500", "095241.487500", "095237.647500", "095241.597500", "095237.757500", "095241.707500", "095237.867500", "095241.817500", "095237.977500", "095241.927500", "095238.087500", "095242.035000", "095238.197500", "095242.145000", "095238.305000", "095242.255000", "095238.415000", "095242.365000", "095238.525000", "095242.475000", "095238.635000", "095242.585000", "095238.745000", "095242.695000", "095238.855000", "095242.805000", "095238.965000", "095242.915000", "095239.075000", "095243.022500", "095239.182500", "095246.992500", "095243.152500", "095247.102500", "095243.262500", "095247.212500", "095243.372500", "095247.322500", "095243.482500", "095247.432500", "095243.592500", "095247.542500", "095243.702500", "095247.652500", "095243.812500", "095247.762500", "095243.922500", "095247.870000", "095244.032500", "095247.980000", "095244.140000", "095248.090000", "095244.250000", "095248.200000", "095244.360000", "095248.310000", "095244.470000", "095248.420000", "095244.580000", "095248.530000", "095244.690000", "095248.640000", "095244.800000", "095248.750000", "095244.910000", "095248.857500", "095245.017500", "095248.967500", "095245.127500", "095249.077500", "095245.237500", "095249.187500", "095245.347500", "095249.297500", "095245.457500", "095249.407500", "095245.567500", "095249.517500", "095245.677500", "095249.627500", "095245.787500", "095249.735000", "095245.897500", "095249.845000", "095246.005000", "095249.955000", "095246.115000", "095250.065000", "095246.225000", "095250.175000", "095246.335000", "095250.285000", "095246.445000", "095250.395000", "095246.555000", "095250.505000", "095246.665000", "095250.615000", "095246.775000", "095250.722500", "095246.882500", "095254.692500", "095250.852500", "095254.802500", "095250.962500", "095254.912500", "095251.072500", "095255.022500", "095251.182500", "095255.132500", "095251.292500", "095255.242500", "095251.402500", "095255.352500", "095251.512500", "095255.462500", "095251.622500", "095255.570000", "095251.732500", "095255.680000", "095251.840000", "095255.790000", "095251.950000", "095255.900000", "095252.060000", "095256.010000", "095252.170000", "095256.120000", "095252.280000", "095256.230000", "095252.390000", "095256.340000", "095252.500000", "095256.450000", "095252.610000", "095256.557500", "095252.717500", "095256.667500", "095252.827500", "095256.777500", "095252.937500", "095256.887500", "095253.047500", "095256.997500", "095253.157500", "095257.107500", "095253.267500", "095257.217500", "095253.377500", "095257.327500", "095253.487500", "095257.435000", "095253.597500", "095257.545000", "095253.705000", "095257.655000", "095253.815000", "095257.765000", "095253.925000", "095257.875000", "095254.035000", "095257.985000", "095254.145000", "095258.095000", "095254.255000", "095258.205000", "095254.365000", "095258.315000", "095254.475000", "095258.422500", "095254.582500", "095302.392500", "095258.552500", "095302.502500", "095258.662500", "095302.612500", "095258.772500", "095302.722500", "095258.882500", "095302.832500", "095258.992500", "095302.942500", "095259.102500", "095303.052500", "095259.212500", "095303.162500", "095259.322500", "095303.270000", "095259.432500", "095303.380000", "095259.540000", "095303.490000", "095259.650000", "095303.600000", "095259.760000", "095303.710000", "095259.870000", "095303.820000", "095259.980000", "095303.930000", "095300.090000", "095304.040000", "095300.200000", "095304.150000", "095300.310000", "095304.257500", "095300.417500", "095304.367500", "095300.527500", "095304.477500", "095300.637500", "095304.587500", "095300.747500", "095304.697500", "095300.857500", "095304.807500", "095300.967500", "095304.917500", "095301.077500", "095305.027500", "095301.187500", "095305.135000", "095301.297500", "095305.245000", "095301.405000", "095305.355000", "095301.515000", "095305.465000", "095301.625000", "095305.575000", "095301.735000", "095305.685000", "095301.845000", "095305.795000", "095301.955000", "095305.905000", "095302.065000", "095306.015000", "095302.175000", "095306.122500", "095302.282500", "095310.092500", "095306.252500", "095310.202500", "095306.362500", "095310.312500", "095306.472500", "095310.422500", "095306.582500", "095310.532500", "095306.692500", "095310.642500", "095306.802500", "095310.752500", "095306.912500", "095310.862500", "095307.022500", "095310.970000", "095307.132500", "095311.080000", "095307.240000", "095311.190000", "095307.350000", "095311.300000", "095307.460000", "095311.410000", "095307.570000", "095311.520000", "095307.680000", "095311.630000", "095307.790000", "095311.740000", "095307.900000", "095311.850000", "095308.010000", "095311.957500", "095308.117500", "095312.067500", "095308.227500", "095312.177500", "095308.337500", "095312.287500", "095308.447500", "095312.397500", "095308.557500", "095312.507500", "095308.667500", "095312.617500", "095308.777500", "095312.727500", "095308.887500", "095312.835000", "095308.997500", "095312.945000", "095309.105000", "095313.055000", "095309.215000", "095313.165000", "095309.325000", "095313.275000", "095309.435000", "095313.385000", "095309.545000", "095313.495000", "095309.655000", "095313.605000", "095309.765000", "095313.715000", "095309.875000", "095313.822500", "095309.982500", "095317.792500", "095313.952500", "095317.902500", "095314.062500", "095318.012500", "095314.172500", "095318.122500", "095314.282500", "095318.232500", "095314.392500", "095318.342500", "095314.502500", "095318.452500", "095314.612500", "095318.562500", "095314.722500", "095318.670000", "095314.832500", "095318.780000", "095314.940000", "095318.890000", "095315.050000", "095319.000000", "095315.160000", "095319.110000", "095315.270000", "095319.220000", "095315.380000", "095319.330000", "095315.490000", "095319.440000", "095315.600000", "095319.550000", "095315.710000", "095319.657500", "095315.817500", "095319.767500", "095315.927500", "095319.877500", "095316.037500", "095319.987500", "095316.147500", "095320.097500", "095316.257500", "095320.207500", "095316.367500", "095320.317500", "095316.477500", "095320.427500", "095316.587500", "095320.535000", "095316.697500", "095320.645000", "095316.805000", "095320.755000", "095316.915000", "095320.865000", "095317.025000", "095320.975000", "095317.135000", "095321.085000", "095317.245000", "095321.195000", "095317.355000", "095321.305000", "095317.465000", "095321.415000", "095317.575000", "095321.522500", "095317.682500", "095325.492500", "095321.652500", "095325.602500", "095321.762500", "095325.712500", "095321.872500", "095325.822500", "095321.982500", "095325.932500", "095322.092500", "095326.042500", "095322.202500", "095326.152500", "095322.312500", "095326.262500", "095322.422500", "095326.370000", "095322.532500", "095326.480000", "095322.640000", "095326.590000", "095322.750000", "095326.700000", "095322.860000", "095326.810000", "095322.970000", "095326.920000", "095323.080000", "095327.030000", "095323.190000", "095327.140000", "095323.300000", "095327.250000", "095323.410000", "095327.357500", "095323.517500", "095327.467500", "095323.627500", "095327.577500", "095323.737500", "095327.687500", "095323.847500", "095327.797500", "095323.957500", "095327.907500", "095324.067500", "095328.017500", "095324.177500", "095328.127500", "095324.287500", "095328.235000", "095324.397500", "095328.345000", "095324.505000", "095328.455000", "095324.615000", "095328.565000", "095324.725000", "095328.675000", "095324.835000", "095328.785000", "095324.945000", "095328.895000", "095325.055000", "095329.005000", "095325.165000", "095329.115000", "095325.275000", "095329.222500", "095325.382500", "095333.192500", "095329.352500", "095333.302500", "095329.462500", "095333.412500", "095329.572500", "095333.522500", "095329.682500", "095333.632500", "095329.792500", "095333.742500", "095329.902500", "095333.852500", "095330.012500", "095333.962500", "095330.122500", "095334.070000", "095330.232500", "095334.180000", "095330.340000", "095334.290000", "095330.450000", "095334.400000", "095330.560000", "095334.510000", "095330.670000", "095334.620000", "095330.780000", "095334.730000", "095330.890000", "095334.840000", "095331.000000", "095334.950000", "095331.110000", "095335.057500", "095331.217500", "095335.167500", "095331.327500", "095335.277500", "095331.437500", "095335.387500", "095331.547500", "095335.497500", "095331.657500", "095335.607500", "095331.767500", "095335.717500", "095331.877500", "095335.827500", "095331.987500", "095335.935000", "095332.097500", "095336.045000", "095332.205000", "095336.155000", "095332.315000", "095336.265000", "095332.425000", "095336.375000", "095332.535000", "095336.485000", "095332.645000", "095336.595000", "095332.755000", "095336.705000", "095332.865000", "095336.815000", "095332.975000", "095336.922500", "095333.082500", "095340.892500", "095337.052500", "095341.002500", "095337.162500", "095341.112500", "095337.272500", "095341.222500", "095337.382500", "095341.332500", "095337.492500", "095341.442500", "095337.602500", "095341.552500", "095337.712500", "095341.662500", "095337.822500", "095341.770000", "095337.932500", "095341.880000", "095338.040000", "095341.990000", "095338.150000", "095342.100000", "095338.260000", "095342.210000", "095338.370000", "095342.320000", "095338.480000", "095342.430000", "095338.590000", "095342.540000", "095338.700000", "095342.650000", "095338.810000", "095342.757500", "095338.917500", "095342.867500", "095339.027500", "095342.977500", "095339.137500", "095343.087500", "095339.247500", "095343.197500", "095339.357500", "095343.307500", "095339.467500", "095343.417500", "095339.577500", "095343.527500", "095339.687500", "095343.635000", "095339.797500", "095343.745000", "095339.905000", "095343.855000", "095340.015000", "095343.965000", "095340.125000", "095344.075000", "095340.235000", "095344.185000", "095340.345000", "095344.295000", "095340.455000", "095344.405000", "095340.565000", "095344.515000", "095340.675000", "095344.622500", "095340.782500", "095348.592500", "095344.752500", "095348.702500", "095344.862500", "095348.812500", "095344.972500", "095348.922500", "095345.082500", "095349.032500", "095345.192500", "095349.142500", "095345.302500", "095349.252500", "095345.412500", "095349.362500", "095345.522500", "095349.470000", "095345.632500", "095349.580000", "095345.740000", "095349.690000", "095345.850000", "095349.800000", "095345.960000", "095349.910000", "095346.070000", "095350.020000", "095346.180000", "095350.130000", "095346.290000", "095350.240000", "095346.400000", "095350.350000", "095346.510000", "095350.457500", "095346.617500", "095350.567500", "095346.727500", "095350.677500", "095346.837500", "095350.787500", "095346.947500", "095350.897500", "095347.057500", "095351.007500", "095347.167500", "095351.117500", "095347.277500", "095351.227500", "095347.387500", "095351.335000", "095347.497500", "095351.445000", "095347.605000", "095351.555000", "095347.715000", "095351.665000", "095347.825000", "095351.775000", "095347.935000", "095351.885000", "095348.045000", "095351.995000", "095348.155000", "095352.105000", "095348.265000", "095352.215000", "095348.375000", "095352.322500", "095348.482500", "095356.292500", "095352.452500", "095356.402500", "095352.562500", "095356.512500", "095352.672500", "095356.622500", "095352.782500", "095356.732500", "095352.892500", "095356.842500", "095353.002500", "095356.952500", "095353.112500", "095357.062500", "095353.222500", "095357.170000", "095353.332500", "095357.280000", "095353.440000", "095357.390000", "095353.550000", "095357.500000", "095353.660000", "095357.610000", "095353.770000", "095357.720000", "095353.880000", "095357.830000", "095353.990000", "095357.940000", "095354.100000", "095358.050000", "095354.210000", "095358.157500", "095354.317500", "095358.267500", "095354.427500", "095358.377500", "095354.537500", "095358.487500", "095354.647500", "095358.597500", "095354.757500", "095358.707500", "095354.867500", "095358.817500", "095354.977500", "095358.927500", "095355.087500", "095359.035000", "095355.197500", "095359.145000", "095355.305000", "095359.255000", "095355.415000", "095359.365000", "095355.525000", "095359.475000", "095355.635000", "095359.585000", "095355.745000", "095359.695000", "095355.855000", "095359.805000", "095355.965000", "095359.915000", "095356.075000", "095400.022500", "095356.182500", "095403.992500", "095400.152500", "095404.102500", "095400.262500", "095404.212500", "095400.372500", "095404.322500", "095400.482500", "095404.432500", "095400.592500", "095404.542500", "095400.702500", "095404.652500", "095400.812500", "095404.762500", "095400.922500", "095404.870000", "095401.032500", "095404.980000", "095401.140000", "095405.090000", "095401.250000", "095405.200000", "095401.360000", "095405.310000", "095401.470000", "095405.420000", "095401.580000", "095405.530000", "095401.690000", "095405.640000", "095401.800000", "095405.750000", "095401.910000", "095405.857500", "095402.017500", "095405.967500", "095402.127500", "095406.077500", "095402.237500", "095406.187500", "095402.347500", "095406.297500", "095402.457500", "095406.407500", "095402.567500", "095406.517500", "095402.677500", "095406.627500", "095402.787500", "095406.735000", "095402.897500", "095406.845000", "095403.005000", "095406.955000", "095403.115000", "095407.065000", "095403.225000", "095407.175000", "095403.335000", "095407.285000", "095403.445000", "095407.395000", "095403.555000", "095407.505000", "095403.665000", "095407.615000", "095403.775000", "095407.722500", "095403.882500", "095411.692500", "095407.852500", "095411.802500", "095407.962500", "095411.912500", "095408.072500", "095412.022500", "095408.182500", "095412.132500", "095408.292500", "095412.242500", "095408.402500", "095412.352500", "095408.512500", "095412.462500", "095408.622500", "095412.570000", "095408.732500", "095412.680000", "095408.840000", "095412.790000", "095408.950000", "095412.900000", "095409.060000", "095413.010000", "095409.170000", "095413.120000", "095409.280000", "095413.230000", "095409.390000", "095413.340000", "095409.500000", "095413.450000", "095409.610000", "095413.557500", "095409.717500", "095413.667500", "095409.827500", "095413.777500", "095409.937500", "095413.887500", "095410.047500", "095413.997500", "095410.157500", "095414.107500", "095410.267500", "095414.217500", "095410.377500", "095414.327500", "095410.487500", "095414.435000", "095410.597500", "095414.545000", "095410.705000", "095414.655000", "095410.815000", "095414.765000", "095410.925000", "095414.875000", "095411.035000", "095414.985000", "095411.145000", "095415.095000", "095411.255000", "095415.205000", "095411.365000", "095415.315000", "095411.475000", "095415.422500", "095411.582500", "095419.392500", "095415.552500", "095419.502500", "095415.662500", "095419.612500", "095415.772500", "095419.722500", "095415.882500", "095419.832500", "095415.992500", "095419.942500", "095416.102500", "095420.052500", "095416.212500", "095420.162500", "095416.322500", "095420.270000", "095416.432500", "095420.380000", "095416.540000", "095420.490000", "095416.650000", "095420.600000", "095416.760000", "095420.710000", "095416.870000", "095420.820000", "095416.980000", "095420.930000", "095417.090000", "095421.040000", "095417.200000", "095421.150000", "095417.310000", "095421.257500", "095417.417500", "095421.367500", "095417.527500", "095421.477500", "095417.637500", "095421.587500", "095417.747500", "095421.697500", "095417.857500", "095421.807500", "095417.967500", "095421.917500", "095418.077500", "095422.027500", "095418.187500", "095422.135000", "095418.297500", "095422.245000", "095418.405000", "095422.355000", "095418.515000", "095422.465000", "095418.625000", "095422.575000", "095418.735000", "095422.685000", "095418.845000", "095422.795000", "095418.955000", "095422.905000", "095419.065000", "095423.015000", "095419.175000", "095423.122500", "095419.282500", "095427.092500", "095423.252500", "095427.202500", "095423.362500", "095427.312500", "095423.472500", "095427.422500", "095423.582500", "095427.532500", "095423.692500", "095427.642500", "095423.802500", "095427.752500", "095423.912500", "095427.862500", "095424.022500", "095427.970000", "095424.132500", "095428.080000", "095424.240000", "095428.190000", "095424.350000", "095428.300000", "095424.460000", "095428.410000", "095424.570000", "095428.520000", "095424.680000", "095428.630000", "095424.790000", "095428.740000", "095424.900000", "095428.850000", "095425.010000", "095428.957500", "095425.117500", "095429.067500", "095425.227500", "095429.177500", "095425.337500", "095429.287500", "095425.447500", "095429.397500", "095425.557500", "095429.507500", "095425.667500", "095429.617500", "095425.777500", "095429.727500", "095425.887500", "095429.835000", "095425.997500", "095429.945000", "095426.105000", "095430.055000", "095426.215000", "095430.165000", "095426.325000", "095430.275000", "095426.435000", "095430.385000", "095426.545000", "095430.495000", "095426.655000", "095430.605000", "095426.765000", "095430.715000", "095426.875000", "095430.822500", "095426.982500", "095434.792500", "095430.952500", "095434.902500", "095431.062500", "095435.012500", "095431.172500", "095435.122500", "095431.282500", "095435.232500", "095431.392500", "095435.342500", "095431.502500", "095435.452500", "095431.612500", "095435.562500", "095431.722500", "095435.670000", "095431.832500", "095435.780000", "095431.940000", "095435.890000", "095432.050000", "095436.000000", "095432.160000", "095436.110000", "095432.270000", "095436.220000", "095432.380000", "095436.330000", "095432.490000", "095436.440000", "095432.600000", "095436.550000", "095432.710000", "095436.657500", "095432.817500", "095436.767500", "095432.927500", "095436.877500", "095433.037500", "095436.987500", "095433.147500", "095437.097500", "095433.257500", "095437.207500", "095433.367500", "095437.317500", "095433.477500", "095437.427500", "095433.587500", "095437.535000", "095433.697500", "095437.645000", "095433.805000", "095437.755000", "095433.915000", "095437.865000", "095434.025000", "095437.975000", "095434.135000", "095438.085000", "095434.245000", "095438.195000", "095434.355000", "095438.305000", "095434.465000", "095438.415000", "095434.575000", "095438.522500", "095434.682500", "095442.492500", "095438.652500", "095442.602500", "095438.762500", "095442.712500", "095438.872500", "095442.822500", "095438.982500", "095442.932500", "095439.092500", "095443.042500", "095439.202500", "095443.152500", "095439.312500", "095443.262500", "095439.422500", "095443.370000", "095439.532500", "095443.480000", "095439.640000", "095443.590000", "095439.750000", "095443.700000", "095439.860000", "095443.810000", "095439.970000", "095443.920000", "095440.080000", "095444.030000", "095440.190000", "095444.140000", "095440.300000", "095444.250000", "095440.410000", "095444.357500", "095440.517500", "095444.467500", "095440.627500", "095444.577500", "095440.737500", "095444.687500", "095440.847500", "095444.797500", "095440.957500", "095444.907500", "095441.067500", "095445.017500", "095441.177500", "095445.127500", "095441.287500", "095445.235000", "095441.397500", "095445.345000", "095441.505000", "095445.455000", "095441.615000", "095445.565000", "095441.725000", "095445.675000", "095441.835000", "095445.785000", "095441.945000", "095445.895000", "095442.055000", "095446.005000", "095442.165000", "095446.115000", "095442.275000", "095446.222500", "095442.382500", "095450.192500", "095446.352500", "095450.302500", "095446.462500", "095450.412500", "095446.572500", "095450.522500", "095446.682500", "095450.632500", "095446.792500", "095450.742500", "095446.902500", "095450.852500", "095447.012500", "095450.962500", "095447.122500", "095451.070000", "095447.232500", "095451.180000", "095447.340000", "095451.290000", "095447.450000", "095451.400000", "095447.560000", "095451.510000", "095447.670000", "095451.620000", "095447.780000", "095451.730000", "095447.890000", "095451.840000", "095448.000000", "095451.950000", "095448.110000", "095452.0575