{
  "AcquisitionMatrixPE": 122,
  "AcquisitionNumber": 1,
  "AcquisitionTime": "10:44:16.477500",
  "BandwidthPerPixelPhaseEncode": 27.785,
  "BaseResolution": 122,
  "BodyPartExamined": "BRAIN",
  "CoilCombinationMethod": "Adaptive Combine",
  "ConsistencyInfo": "N4_VE11C_LATEST_20160120",
  "ConversionSoftware": "dcm2niix",
  "ConversionSoftwareVersion": "v1.0.20220720",
  "DerivedVendorReportedEchoSpacing": 0.000590011,
  "DeviceSerialNumber": "66112",
  "DiffusionScheme": "Monopolar",
  "DwellTime": 2e-06,
  "EchoTime": 0.068,
  "EchoTrainLength": 61,
  "EffectiveEchoSpacing": 0.000295005,
  "FlipAngle": 90,
  "HeudiconvVersion": "0.13.1",
  "ImageOrientationPatientDICOM": [0.99862, -0.0524245, 0.0030545, 0.0490154, 0.951395, 0.304047],
  "ImageOrientationText": "Tra>Cor(17.7)>Sag(1.1)",
  "ImageType": [
    "ORIGINAL",
    "PRIMARY",
    "DIFFUSION",
    "NONE",
    "ND",
    "NORM"
],
  "ImagingFrequency": 123.252,
  "InPlanePhaseEncodingDirectionDICOM": "COL",
  "InstitutionAddress": "Maynard 3,Hanover,NH,US,03755",
  "InstitutionName": "Dartmouth College - PBS",
  "InstitutionalDepartmentName": "Department",
  "MRAcquisitionType": "2D",
  "MagneticFieldStrength": 3,
  "Manufacturer": "Siemens",
  "ManufacturersModelName": "Prisma",
  "Modality": "MR",
  "MultibandAccelerationFactor": 4,
  "NonlinearGradientCorrection": false,
  "ParallelReductionFactorInPlane": 2,
  "PartialFourier": 1,
  "PatientPosition": "HFS",
  "PercentPhaseFOV": 100,
  "PercentSampling": 100,
  "PhaseEncodingDirection": "j-",
  "PhaseEncodingSteps": 122,
  "PhaseResolution": 1,
  "PixelBandwidth": 2050,
  "ProcedureStepDescription": "dbic^QA",
  "ProtocolName": "dwi_acq-DTI-30-p2-s4",
  "PulseSequenceDetails": "%SiemensSeq%\\ep2d_diff",
  "ReceiveCoilActiveElements": "HEA;HEP",
  "ReceiveCoilName": "Head_32",
  "ReconMatrixPE": 122,
  "RefLinesPE": 38,
  "RepetitionTime": 3.6,
  "SAR": 0.159084,
  "ScanOptions": "FS",
  "ScanningSequence": "EP",
  "SequenceName": "*ep_b0",
  "SequenceVariant": "SK\\SP",
  "SeriesDescription": "dwi_acq-DTI-30-p2-s4",
  "SeriesNumber": 13,
  "ShimSetting": [4148, -7700, -7518, 226, -58, -60, -11, 71],
  "SliceThickness": 2,
  "SliceTiming": [2.58594, 0, 1.78906, 0.20312, 1.99219, 0.39844, 2.1875, 0.59375, 2.39062, 1, 2.78125, 1.19531, 2.98438, 1.39062, 3.1875, 1.59375, 3.38281, 0.79688, 2.58594, 0, 1.78906, 0.20312, 1.99219, 0.39844, 2.1875, 0.59375, 2.39062, 1, 2.78125, 1.19531, 2.98438, 1.39062, 3.1875, 1.59375, 3.38281, 0.79688, 2.58594, 0, 1.78906, 0.20312, 1.99219, 0.39844, 2.1875, 0.59375, 2.39062, 1, 2.78125, 1.19531, 2.98438, 1.39062, 3.1875, 1.59375, 3.38281, 0.79688, 2.58594, 0, 1.78906, 0.20312, 1.99219, 0.39844, 2.1875, 0.59375, 2.39062, 1, 2.78125, 1.19531, 2.98438, 1.39062, 3.1875, 1.59375, 3.38281, 0.79688],
  "SoftwareVersions": "syngo MR E11",
  "SpacingBetweenSlices": 2,
  "SpoilingState": true,
  "StationName": "AWP66112",
  "TotalReadoutTime": 0.0356956,
  "TxRefAmp": 228.054,
  "dcmmeta_affine": [
    [-1.9644988775253296, 0.09642364084720612, 0.03769111633300781, 113.98835754394531],
    [0.10313019901514053, 1.8715970516204834, 0.6069564819335938, -130.8117218017578],
    [0.006008849013596773, -0.5981257557868958, 1.905303955078125, -24.58674430847168],
    [0.0, 0.0, 0.0, 1.0]
],
  "dcmmeta_reorient_transform": [
    [0.0, -1.0, 0.0, 121.0],
    [1.0, 0.0, 0.0, 0.0],
    [0.0, 0.0, -1.0, 71.0],
    [0.0, 0.0, 0.0, 1.0]
],
  "dcmmeta_shape": [122, 122, 72, 31],
  "dcmmeta_slice_dim": 2,
  "dcmmeta_version": 0.6,
  "global": {
    "const": {
      "AccessionNumber": "qa",
      "AcquisitionMatrix": [122, 0, 0, 122],
      "AngioFlag": "N",
      "BitsAllocated": 16,
      "BitsStored": 12,
      "BodyPartExamined": "BRAIN",
      "Columns": 122,
      "EchoNumbers": 1,
      "EchoTime": 68.0,
      "EchoTrainLength": 61,
      "FlipAngle": 90.0,
      "HighBit": 11,
      "ImageOrientationPatient": [0.99862021813931, -0.0524245168238, 0.00305449818941, 0.04901535047773, 0.95139516424691, 0.30404726090715],
      "ImageType": [
        "ORIGINAL",
        "PRIMARY",
        "DIFFUSION",
        "NONE",
        "ND",
        "NORM"
],
      "ImagedNucleus": "1H",
      "ImagingFrequency": 123.252367,
      "InPlanePhaseEncodingDirection": "COL",
      "MRAcquisitionType": "2D",
      "MagneticFieldStrength": 3.0,
      "Manufacturer": "SIEMENS",
      "ManufacturerModelName": "Prisma",
      "Modality": "MR",
      "NumberOfAverages": 1.0,
      "NumberOfPhaseEncodingSteps": 122,
      "PercentPhaseFieldOfView": 100.0,
      "PercentSampling": 100.0,
      "PerformedProcedureStepStartTime": "100544.459000",
      "PhotometricInterpretation": "MONOCHROME2",
      "PixelBandwidth": 2050.0,
      "PixelRepresentation": 0,
      "PixelSpacing": [1.9672131538391, 1.9672131538391],
      "ProtocolName": "dwi_acq-DTI-30-p2-s4",
      "RepetitionTime": 3600.0,
      "Rows": 122,
      "SAR": 0.15908409927915,
      "SamplesPerPixel": 1,
      "ScanOptions": "FS",
      "ScanningSequence": "EP",
      "SequenceVariant": [
        "SK",
        "SP"
],
      "SeriesDescription": "dwi_acq-DTI-30-p2-s4",
      "SeriesNumber": 13,
      "SeriesTime": "104426.103000",
      "SliceThickness": 2.0,
      "SmallestImagePixelValue": 0,
      "SoftwareVersions": "syngo MR E11",
      "SpacingBetweenSlices": 2.0,
      "SpecificCharacterSet": "ISO_IR 100",
      "StudyID": "3",
      "StudyTime": "100544.410000",
      "TransmitCoilName": "Body",
      "VariableFlipAngleFlag": "N",
      "WindowCenterWidthExplanation": "Algo1",
      "dBdt": 0.0},
    "slices": {
      "AcquisitionTime": ["104416.477500", "104413.892500", "104415.682500", "104414.090000", "104415.880000", "104414.290000", "104416.080000", "104414.487500", "104416.277500", "104414.887500", "104416.675000", "104415.085000", "104416.875000", "104415.285000", "104417.075000", "104415.482500", "104417.272500", "104414.687500", "104416.477500", "104413.892500", "104415.682500", "104414.090000", "104415.880000", "104414.290000", "104416.080000", "104414.487500", "104416.277500", "104414.887500", "104416.675000", "104415.085000", "104416.875000", "104415.285000", "104417.075000", "104415.482500", "104417.272500", "104414.687500", "104416.477500", "104413.892500", "104415.682500", "104414.090000", "104415.880000", "104414.290000", "104416.080000", "104414.487500", "104416.277500", "104414.887500", "104416.675000", "104415.085000", "104416.875000", "104415.285000", "104417.075000", "104415.482500", "104417.272500", "104414.687500", "104416.477500", "104413.892500", "104415.682500", "104414.090000", "104415.880000", "104414.290000", "104416.080000", "104414.487500", "104416.277500", "104414.887500", "104416.675000", "104415.085000", "104416.875000", "104415.285000", "104417.075000", "104415.482500", "104417.272500", "104414.687500", "104420.077500", "104417.492500", "104419.282500", "104417.690000", "104419.480000", "104417.890000", "104419.680000", "104418.087500", "104419.877500", "104418.487500", "104420.275000", "104418.685000", "104420.475000", "104418.885000", "104420.675000", "104419.082500", "104420.872500", "104418.287500", "104420.077500", "104417.492500", "104419.282500", "104417.690000", "104419.480000", "104417.890000", "104419.680000", "104418.087500", "104419.877500", "104418.487500", "104420.275000", "104418.685000", "104420.475000", "104418.885000", "104420.675000", "104419.082500", "104420.872500", "104418.287500", "104420.077500", "104417.492500", "104419.282500", "104417.690000", "104419.480000", "104417.890000", "104419.680000", "104418.087500", "104419.877500", "104418.487500", "104420.275000", "104418.685000", "104420.475000", "104418.885000", "104420.675000", "104419.082500", "104420.872500", "104418.287500", "104420.077500", "104417.492500", "104419.282500", "104417.690000", "104419.480000", "104417.890000", "104419.680000", "104418.087500", "104419.877500", "104418.487500", "104420.275000", "104418.685000", "104420.475000", "104418.885000", "104420.675000", "104419.082500", "104420.872500", "104418.287500", "104423.677500", "104421.092500", "104422.882500", "104421.290000", "104423.080000", "104421.490000", "104423.280000", "104421.687500", "104423.477500", "104422.087500", "104423.875000", "104422.285000", "104424.075000", "104422.485000", "104424.275000", "104422.682500", "104424.472500", "104421.887500", "104423.677500", "104421.092500", "104422.882500", "104421.290000", "104423.080000", "104421.490000", "104423.280000", "104421.687500", "104423.477500", "104422.087500", "104423.875000", "104422.285000", "104424.075000", "104422.485000", "104424.275000", "104422.682500", "104424.472500", "104421.887500", "104423.677500", "104421.092500", "104422.882500", "104421.290000", "104423.080000", "104421.490000", "104423.280000", "104421.687500", "104423.477500", "104422.087500", "104423.875000", "104422.285000", "104424.075000", "104422.485000", "104424.275000", "104422.682500", "104424.472500", "104421.887500", "104423.677500", "104421.092500", "104422.882500", "104421.290000", "104423.080000", "104421.490000", "104423.280000", "104421.687500", "104423.477500", "104422.087500", "104423.875000", "104422.285000", "104424.075000", "104422.485000", "104424.275000", "104422.682500", "104424.472500", "104421.887500", "104427.277500", "104424.692500", "104426.482500", "104424.890000", "104426.680000", "104425.090000", "104426.880000", "104425.287500", "104427.077500", "104425.687500", "104427.475000", "104425.885000", "104427.675000", "104426.085000", "104427.875000", "104426.282500", "104428.072500", "104425.487500", "104427.277500", "104424.692500", "104426.482500", "104424.890000", "104426.680000", "104425.090000", "104426.880000", "104425.287500", "104427.077500", "104425.687500", "104427.475000", "104425.885000", "104427.675000", "104426.085000", "104427.875000", "104426.282500", "104428.072500", "104425.487500", "104427.277500", "104424.692500", "104426.482500", "104424.890000", "104426.680000", "104425.090000", "104426.880000", "104425.287500", "104427.077500", "104425.687500", "104427.475000", "104425.885000", "104427.675000", "104426.085000", "104427.875000", "104426.282500", "104428.072500", "104425.487500", "104427.277500", "104424.692500", "104426.482500", "104424.890000", "104426.680000", "104425.090000", "104426.880000", "104425.287500", "104427.077500", "104425.687500", "104427.475000", "104425.885000", "104427.675000", "104426.085000", "104427.875000", "104426.282500", "104428.072500", "104425.487500", "104430.877500", "104428.292500", "104430.082500", "104428.490000", "104430.280000", "104428.690000", "104430.480000", "104428.887500", "104430.677500", "104429.287500", "104431.075000", "104429.485000", "104431.275000", "104429.685000", "104431.475000", "104429.882500", "104431.672500", "104429.087500", "104430.877500", "104428.292500", "104430.082500", "104428.490000", "104430.280000", "104428.690000", "104430.480000", "104428.887500", "104430.677500", "104429.287500", "104431.075000", "104429.485000", "104431.275000", "104429.685000", "104431.475000", "104429.882500", "104431.672500", "104429.087500", "104430.877500", "104428.292500", "104430.082500", "104428.490000", "104430.280000", "104428.690000", "104430.480000", "104428.887500", "104430.677500", "104429.287500", "104431.075000", "104429.485000", "104431.275000", "104429.685000", "104431.475000", "104429.882500", "104431.672500", "104429.087500", "104430.877500", "104428.292500", "104430.082500", "104428.490000", "104430.280000", "104428.690000", "104430.480000", "104428.887500", "104430.677500", "104429.287500", "104431.075000", "104429.485000", "104431.275000", "104429.685000", "104431.475000", "104429.882500", "104431.672500", "104429.087500", "104434.477500", "104431.892500", "104433.682500", "104432.090000", "104433.880000", "104432.290000", "104434.080000", "104432.487500", "104434.277500", "104432.887500", "104434.675000", "104433.085000", "104434.875000", "104433.285000", "104435.075000", "104433.482500", "104435.272500", "104432.687500", "104434.477500", "104431.892500", "104433.682500", "104432.090000", "104433.880000", "104432.290000", "104434.080000", "104432.487500", "104434.277500", "104432.887500", "104434.675000", "104433.085000", "104434.875000", "104433.285000", "104435.075000", "104433.482500", "104435.272500", "104432.687500", "104434.477500", "104431.892500", "104433.682500", "104432.090000", "104433.880000", "104432.290000", "104434.080000", "104432.487500", "104434.277500", "104432.887500", "104434.675000", "104433.085000", "104434.875000", "104433.285000", "104435.075000", "104433.482500", "104435.272500", "104432.687500", "104434.477500", "104431.892500", "104433.682500", "104432.090000", "104433.880000", "104432.290000", "104434.080000", "104432.487500", "104434.277500", "104432.887500", "104434.675000", "104433.085000", "104434.875000", "104433.285000", "104435.075000", "104433.482500", "104435.272500", "104432.687500", "104438.077500", "104435.492500", "104437.282500", "104435.690000", "104437.480000", "104435.890000", "104437.680000", "104436.087500", "104437.877500", "104436.487500", "104438.275000", "104436.685000", "104438.475000", "104436.885000", "104438.675000", "104437.082500", "104438.872500", "104436.287500", "104438.077500", "104435.492500", "104437.282500", "104435.690000", "104437.480000", "104435.890000", "104437.680000", "104436.087500", "104437.877500", "104436.487500", "104438.275000", "104436.685000", "104438.475000", "104436.885000", "104438.675000", "104437.082500", "104438.872500", "104436.287500", "104438.077500", "104435.492500", "104437.282500", "104435.690000", "104437.480000", "104435.890000", "104437.680000", "104436.087500", "104437.877500", "104436.487500", "104438.275000", "104436.685000", "104438.475000", "104436.885000", "104438.675000", "104437.082500", "104438.872500", "104436.287500", "104438.077500", "104435.492500", "104437.282500", "104435.690000", "104437.480000", "104435.890000", "104437.680000", "104436.087500", "104437.877500", "104436.487500", "104438.275000", "104436.685000", "104438.475000", "104436.885000", "104438.675000", "104437.082500", "104438.872500", "104436.287500", "104441.677500", "104439.092500", "104440.882500", "104439.290000", "104441.080000", "104439.490000", "104441.280000", "104439.687500", "104441.477500", "104440.087500", "104441.875000", "104440.285000", "104442.075000", "104440.485000", "104442.275000", "104440.682500", "104442.472500", "104439.887500", "104441.677500", "104439.092500", "104440.882500", "104439.290000", "104441.080000", "104439.490000", "104441.280000", "104439.687500", "104441.477500", "104440.087500", "104441.875000", "104440.285000", "104442.075000", "104440.485000", "104442.275000", "104440.682500", "104442.472500", "104439.887500", "104441.677500", "104439.092500", "104440.882500", "104439.290000", "104441.080000", "104439.490000", "104441.280000", "104439.687500", "104441.477500", "104440.087500", "104441.875000", "104440.285000", "104442.075000", "104440.485000", "104442.275000", "104440.682500", "104442.472500", "104439.887500", "104441.677500", "104439.092500", "104440.882500", "104439.290000", "104441.080000", "104439.490000", "104441.280000", "104439.687500", "104441.477500", "104440.087500", "104441.875000", "104440.285000", "104442.075000", "104440.485000", "104442.275000", "104440.682500", "104442.472500", "104439.887500", "104445.277500", "104442.692500", "104444.482500", "104442.890000", "104444.680000", "104443.090000", "104444.880000", "104443.287500", "104445.077500", "104443.687500", "104445.475000", "104443.885000", "104445.675000", "104444.085000", "104445.875000", "104444.282500", "104446.072500", "104443.487500", "104445.277500", "104442.692500", "104444.482500", "104442.890000", "104444.680000", "104443.090000", "104444.880000", "104443.287500", "104445.077500", "104443.687500", "104445.475000", "104443.885000", "104445.675000", "104444.085000", "104445.875000", "104444.282500", "104446.072500", "104443.487500", "104445.277500", "104442.692500", "104444.482500", "104442.890000", "104444.680000", "104443.090000", "104444.880000", "104443.287500", "104445.077500", "104443.687500", "104445.475000", "104443.885000", "104445.675000", "104444.085000", "104445.875000", "104444.282500", "104446.072500", "104443.487500", "104445.277500", "104442.692500", "104444.482500", "104442.890000", "104444.680000", "104443.090000", "104444.880000", "104443.287500", "104445.077500", "104443.687500", "104445.475000", "104443.885000", "104445.675000", "104444.085000", "104445.875000", "104444.282500", "104446.072500", "104443.487500", "104448.877500", "104446.292500", "104448.082500", "104446.490000", "104448.280000", "104446.690000", "104448.480000", "104446.887500", "104448.677500", "104447.287500", "104449.075000", "104447.485000", "104449.275000", "104447.685000", "104449.475000", "104447.882500", "104449.672500", "104447.087500", "104448.877500", "104446.292500", "104448.082500", "104446.490000", "104448.280000", "104446.690000", "104448.480000", "104446.887500", "104448.677500", "104447.287500", "104449.075000", "104447.485000", "104449.275000", "104447.685000", "104449.475000", "104447.882500", "104449.672500", "104447.087500", "104448.877500", "104446.292500", "104448.082500", "104446.490000", "104448.280000", "104446.690000", "104448.480000", "104446.887500", "104448.677500", "104447.287500", "104449.075000", "104447.485000", "104449.275000", "104447.685000", "104449.475000", "104447.882500", "104449.672500", "104447.087500", "104448.877500", "104446.292500", "104448.082500", "104446.490000", "104448.280000", "104446.690000", "104448.480000", "104446.887500", "104448.677500", "104447.287500", "104449.075000", "104447.485000", "104449.275000", "104447.685000", "104449.475000", "104447.882500", "104449.672500", "104447.087500", "104452.477500", "104449.892500", "104451.682500", "104450.090000", "104451.880000", "104450.290000", "104452.080000", "104450.487500", "104452.277500", "104450.887500", "104452.675000", "104451.085000", "104452.875000", "104451.285000", "104453.075000", "104451.482500", "104453.272500", "104450.687500", "104452.477500", "104449.892500", "104451.682500", "104450.090000", "104451.880000", "104450.290000", "104452.080000", "104450.487500", "104452.277500", "104450.887500", "104452.675000", "104451.085000", "104452.875000", "104451.285000", "104453.075000", "104451.482500", "104453.272500", "104450.687500", "104452.477500", "104449.892500", "104451.682500", "104450.090000", "104451.880000", "104450.290000", "104452.080000", "104450.487500", "104452.277500", "104450.887500", "104452.675000", "104451.085000", "104452.875000", "104451.285000", "104453.075000", "104451.482500", "104453.272500", "104450.687500", "104452.477500", "104449.892500", "104451.682500", "104450.090000", "104451.880000", "104450.290000", "104452.080000", "104450.487500", "104452.277500", "104450.887500", "104452.675000", "104451.085000", "104452.875000", "104451.285000", "104453.075000", "104451.482500", "104453.272500", "104450.687500", "104456.077500", "104453.492500", "104455.282500", "104453.690000", "104455.480000", "104453.890000", "104455.680000", "104454.087500", "104455.877500", "104454.487500", "104456.275000", "104454.685000", "104456.475000", "104454.885000", "104456.675000", "104455.082500", "104456.872500", "104454.287500", "104456.077500", "104453.492500", "104455.282500", "104453.690000", "104455.480000", "104453.890000", "104455.680000", "104454.087500", "104455.877500", "104454.487500", "104456.275000", "104454.685000", "104456.475000", "104454.885000", "104456.675000", "104455.082500", "104456.872500", "104454.287500", "104456.077500", "104453.492500", "104455.282500", "104453.690000", "104455.480000", "104453.890000", "104455.680000", "104454.087500", "104455.877500", "104454.487500", "104456.275000", "104454.685000", "104456.475000", "104454.885000", "104456.675000", "104455.082500", "104456.872500", "104454.287500", "104456.077500", "104453.492500", "104455.282500", "104453.690000", "104455.480000", "104453.890000", "104455.680000", "104454.087500", "104455.877500", "104454.487500", "104456.275000", "104454.685000", "104456.475000", "104454.885000", "104456.675000", "104455.082500", "104456.872500", "104454.287500", "104459.677500", "104457.092500", "104458.882500", "104457.290000", "104459.080000", "104457.490000", "104459.280000", "104457.687500", "104459.477500", "104458.087500", "104459.875000", "104458.285000", "104500.075000", "104458.485000", "104500.275000", "104458.682500", "104500.472500", "104457.887500", "104459.677500", "104457.092500", "104458.882500", "104457.290000", "104459.080000", "104457.490000", "104459.280000", "104457.687500", "104459.477500", "104458.087500", "104459.875000", "104458.285000", "104500.075000", "104458.485000", "104500.275000", "104458.682500", "104500.472500", "104457.887500", "104459.677500", "104457.092500", "104458.882500", "104457.290000", "104459.080000", "104457.490000", "104459.280000", "104457.687500", "104459.477500", "104458.087500", "104459.875000", "104458.285000", "104500.075000", "104458.485000", "104500.275000", "104458.682500", "104500.472500", "104457.887500", "104459.677500", "104457.092500", "104458.882500", "104457.290000", "104459.080000", "104457.490000", "104459.280000", "104457.687500", "104459.477500", "104458.087500", "104459.875000", "104458.285000", "104500.075000", "104458.485000", "104500.275000", "104458.682500", "104500.472500", "104457.887500", "104503.277500", "104500.692500", "104502.482500", "104500.890000", "104502.680000", "104501.090000", "104502.880000", "104501.287500", "104503.077500", "104501.687500", "104503.475000", "104501.885000", "104503.675000", "104502.085000", "104503.875000", "104502.282500", "104504.072500", "104501.487500", "104503.277500", "104500.692500", "104502.482500", "104500.890000", "104502.680000", "104501.090000", "104502.880000", "104501.287500", "104503.077500", "104501.687500", "104503.475000", "104501.885000", "104503.675000", "104502.085000", "104503.875000", "104502.282500", "104504.072500", "104501.487500", "104503.277500", "104500.692500", "104502.482500", "104500.890000", "104502.680000", "104501.090000", "104502.880000", "104501.287500", "104503.077500", "104501.687500", "104503.475000", "104501.885000", "104503.675000", "104502.085000", "104503.875000", "104502.282500", "104504.072500", "104501.487500", "104503.277500", "104500.692500", "104502.482500", "104500.890000", "104502.680000", "104501.090000", "104502.880000", "104501.287500", "104503.077500", "104501.687500", "104503.475000", "104501.885000", "104503.675000", "104502.085000", "104503.875000", "104502.282500", "104504.072500", "104501.487500", "104506.877500", "104504.292500", "104506.082500", "104504.490000", "104506.280000", "104504.690000", "104506.480000", "104504.887500", "104506.677500", "104505.287500", "104507.075000", "104505.485000", "104507.275000", "104505.685000", "104507.475000", "104505.882500", "104507.672500", "104505.087500", "104506.877500", "104504.292500", "104506.082500", "104504.490000", "104506.280000", "104504.690000", "104506.480000", "104504.887500", "104506.677500", "104505.287500", "104507.075000", "104505.485000", "104507.275000", "104505.685000", "104507.475000", "104505.882500", "104507.672500", "104505.087500", "104506.877500", "104504.292500", "104506.082500", "104504.490000", "104506.280000", "104504.690000", "104506.480000", "104504.887500", "104506.677500", "104505.287500", "104507.075000", "104505.485000", "104507.275000", "104505.685000", "104507.475000", "104505.882500", "104507.672500", "104505.087500", "104506.877500", "104504.292500", "104506.082500", "104504.490000", "104506.280000", "104504.690000", "104506.480000", "104504.887500", "104506.677500", "104505.287500", "104507.075000", "104505.485000", "104507.275000", "104505.685000", "104507.475000", "104505.882500", "104507.672500", "104505.087500", "104510.477500", "104507.892500", "104509.682500", "104508.090000", "104509.880000", "104508.290000", "104510.080000", "104508.487500", "104510.277500", "104508.887500", "104510.675000", "104509.085000", "104510.875000", "104509.285000", "104511.075000", "104509.482500", "104511.272500", "104508.687500", "104510.477500", "104507.892500", "104509.682500", "104508.090000", "104509.880000", "104508.290000", "104510.080000", "104508.487500", "104510.277500", "104508.887500", "104510.675000", "104509.085000", "104510.875000", "104509.285000", "104511.075000", "104509.482500", "104511.272500", "104508.687500", "104510.477500", "104507.892500", "104509.682500", "104508.090000", "104509.880000", "104508.290000", "104510.080000", "104508.487500", "104510.277500", "104508.887500", "104510.675000", "104509.085000", "104510.875000", "104509.285000", "104511.075000", "104509.482500", "104511.272500", "104508.687500", "104510.477500", "104507.892500", "104509.682500", "104508.090000", "104509.880000", "104508.290000", "104510.080000", "104508.487500", "104510.277500", "104508.887500", "104510.675000", "104509.085000", "104510.875000", "104509.285000", "104511.075000", "104509.482500", "104511.272500", "104508.687500", "104514.077500", "104511.492500", "104513.282500", "104511.690000", "104513.480000", "104511.890000", "104513.680000", "104512.087500", "104513.877500", "104512.487500", "104514.275000", "104512.685000", "104514.475000", "104512.885000", "104514.675000", "104513.082500", "104514.872500", "104512.287500", "104514.077500", "104511.492500", "104513.282500", "104511.690000", "104513.480000", "104511.890000", "104513.680000", "104512.087500", "104513.877500", "104512.487500", "104514.275000", "104512.685000", "104514.475000", "104512.885000", "104514.675000", "104513.082500", "104514.872500", "104512.287500", "104514.077500", "104511.492500", "104513.282500", "104511.690000", "104513.480000", "104511.890000", "104513.680000", "104512.087500", "104513.877500", "104512.487500", "104514.275000", "104512.685000", "104514.475000", "104512.885000", "104514.675000", "104513.082500", "104514.872500", "104512.287500", "104514.077500", "104511.492500", "104513.282500", "104511.690000", "104513.480000", "104511.890000", "104513.680000", "104512.087500", "104513.877500", "104512.487500", "104514.275000", "104512.685000", "104514.475000", "104512.885000", "104514.675000", "104513.082500", "104514.872500", "104512.287500", "104517.677500", "104515.092500", "104516.882500", "104515.290000", "104517.080000", "104515.490000", "104517.280000", "104515.687500", "104517.477500", "104516.087500", "104517.875000", "104516.285000", "104518.075000", "104516.485000", "104518.275000", "104516.682500", "104518.472500", "104515.887500", "104517.677500", "104515.092500", "104516.882500", "104515.290000", "104517.080000", "104515.490000", "104517.280000", "104515.687500", "104517.477500", "104516.087500", "104517.875000", "104516.285000", "104518.075000", "104516.485000", "104518.275000", "104516.682500", "104518.472500", "104515.887500", "104517.677500", "104515.092500", "104516.882500", "104515.290000", "104517.080000", "104515.490000", "104517.280000", "104515.687500", "104517.477500", "104516.087500", "104517.875000", "104516.285000", "104518.075000", "104516.485000", "104518.275000", "104516.682500", "104518.472500", "104515.887500", "104517.677500", "104515.092500", "104516.882500", "104515.290000", "104517.080000", "104515.490000", "104517.280000", "104515.687500", "104517.477500", "104516.087500", "104517.875000", "104516.285000", "104518.075000", "104516.485000", "104518.275000", "104516.682500", "104518.472500", "104515.887500", "104521.277500", "104518.692500", "104520.482500", "104518.890000", "104520.680000", "104519.090000", "104520.880000", "104519.287500", "104521.077500", "104519.687500", "104521.475000", "104519.885000", "104521.675000", "104520.085000", "104521.875000", "104520.282500", "104522.072500", "104519.487500", "104521.277500", "104518.692500", "104520.482500", "104518.890000", "104520.680000", "104519.090000", "104520.880000", "104519.287500", "104521.077500", "104519.687500", "104521.475000", "104519.885000", "104521.675000", "104520.085000", "104521.875000", "104520.282500", "104522.072500", "104519.487500", "104521.277500", "104518.692500", "104520.482500", "104518.890000", "104520.680000", "104519.090000", "104520.880000", "104519.287500", "104521.077500", "104519.687500", "104521.475000", "104519.885000", "104521.675000", "104520.085000", "104521.875000", "104520.282500", "104522.072500", "104519.487500", "104521.277500", "104518.692500", "104520.482500", "104518.890000", "104520.680000", "104519.090000", "104520.880000", "104519.287500", "104521.077500", "104519.687500", "104521.475000", "104519.885000", "104521.675000", "104520.085000", "104521.875000", "104520.282500", "104522.072500", "104519.487500", "104524.877500", "104522.292500", "104524.082500", "104522.490000", "104524.280000", "104522.690000", "104524.480000", "104522.887500", "104524.677500", "104523.287500", "104525.075000", "104523.485000", "104525.275000", "104523.685000", "104525.475000", "104523.882500", "104525.672500", "104523.087500", "104524.877500", "104522.292500", "104524.082500", "104522.490000", "104524.280000", "104522.690000", "104524.480000", "104522.887500", "104524.677500", "104523.287500", "104525.075000", "104523.485000", "104525.275000", "104523.685000", "104525.475000", "104523.882500", "104525.672500", "104523.087500", "104524.877500", "104522.292500", "104524.082500", "104522.490000", "104524.280000", "104522.690000", "104524.480000", "104522.887500", "104524.677500", "104523.287500", "104525.075000", "104523.485000", "104525.275000", "104523.685000", "104525.475000", "104523.882500", "104525.672500", "104523.087500", "104524.877500", "104522.292500", "104524.082500", "104522.490000", "104524.280000", "104522.690000", "104524.480000", "104522.887500", "104524.677500", "104523.287500", "104525.075000", "104523.485000", "104525.275000"