{
  "AcquisitionMatrixPE": 80,
  "AcquisitionNumber": 1,
  "AcquisitionTime": "09:14:10.917500",
  "BandwidthPerPixelPhaseEncode": 48.077,
  "BaseResolution": 80,
  "BodyPartExamined": "BRAIN",
  "CoilCombinationMethod": "Sum of Squares",
  "ConsistencyInfo": "N4_VE11E_LATEST_20181129",
  "ConversionSoftware": "dcm2niix",
  "ConversionSoftwareVersion": "v1.0.20220720",
  "DerivedVendorReportedEchoSpacing": 0.000519999,
  "DeviceSerialNumber": "66112",
  "DwellTime": 2.7e-06,
  "EchoTime": 0.035,
  "EchoTrainLength": 39,
  "EffectiveEchoSpacing": 0.00026,
  "FlipAngle": 90,
  "HeudiconvVersion": "0.13.1",
  "ImageOrientationPatientDICOM": [0.970314, 0.241651, 0.00974815, -0.233131, 0.92386, 0.303533],
  "ImageOrientationText": "Tra>Cor(17.3)>Sag(-3.7)",
  "ImageType": [
    "ORIGINAL",
    "PRIMARY",
    "M",
    "ND",
    "NORM",
    "MOSAIC"
],
  "ImagingFrequency": 123.259,
  "InPlanePhaseEncodingDirectionDICOM": "COL",
  "InstitutionAddress": "Maynard 3,Hanover,NH,US,03755",
  "InstitutionName": "Dartmouth College - PBS",
  "InstitutionalDepartmentName": "Department",
  "MRAcquisitionType": "2D",
  "MagneticFieldStrength": 3,
  "Manufacturer": "Siemens",
  "ManufacturersModelName": "Prisma",
  "MatrixCoilMode": "GRAPPA",
  "Modality": "MR",
  "NonlinearGradientCorrection": false,
  "ParallelReductionFactorInPlane": 2,
  "PartialFourier": 1,
  "PatientPosition": "HFS",
  "PercentPhaseFOV": 100,
  "PercentSampling": 100,
  "PhaseEncodingDirection": "j-",
  "PhaseEncodingSteps": 79,
  "PhaseResolution": 1,
  "PixelBandwidth": 2315,
  "ProcedureStepDescription": "dbic^QA",
  "ProtocolName": "func-bold_task-rest_acq-p2",
  "PulseSequenceDetails": "%SiemensSeq%\\ep2d_bold",
  "ReceiveCoilActiveElements": "HEA;HEP",
  "ReceiveCoilName": "Head_32",
  "ReconMatrixPE": 80,
  "RefLinesPE": 24,
  "RepetitionTime": 2,
  "SAR": 0.0713202,
  "ScanOptions": "FS",
  "ScanningSequence": "EP",
  "SequenceName": "*epfid2d1_80",
  "SequenceVariant": "SK",
  "SeriesDescription": "func-bold_task-rest_acq-p2",
  "SeriesNumber": 5,
  "ShimSetting": [4221, -7734, -7498, -45, -140, -81, 18, 83],
  "SliceThickness": 3.5,
  "SliceTiming": [0.99, 0, 1.055, 0.0675, 1.1225, 0.1325, 1.1875, 0.1975, 1.255, 0.265, 1.32, 0.33, 1.385, 0.3975, 1.4525, 0.4625, 1.5175, 0.5275, 1.585, 0.595, 1.65, 0.66, 1.715, 0.725, 1.7825, 0.7925, 1.8475, 0.8575, 1.915, 0.925],
  "SoftwareVersions": "syngo MR E11",
  "SpacingBetweenSlices": 3.99,
  "StationName": "AWP66112",
  "TaskName": "rest",
  "TotalReadoutTime": 0.02054,
  "TxRefAmp": 225.073,
  "dcmmeta_affine": [
    [-2.910943031311035, -0.6993928551673889, -0.25672852993011475, 149.5675048828125],
    [-0.7249519228935242, 2.771580696105957, 1.1842117309570312, -92.47298431396484],
    [0.029244448989629745, -0.910598635673523, 3.8015565872192383, -25.57648277282715],
    [0.0, 0.0, 0.0, 1.0]
],
  "dcmmeta_reorient_transform": [
    [0.0, -1.0, 0.0, 79.0],
    [1.0, 0.0, 0.0, 0.0],
    [0.0, 0.0, 1.0, 0.0],
    [0.0, 0.0, 0.0, 1.0]
],
  "dcmmeta_shape": [80, 80, 30, 200],
  "dcmmeta_slice_dim": 2,
  "dcmmeta_version": 0.6,
  "global": {
    "const": {
      "AccessionNumber": "qa",
      "AcquisitionMatrix": [80, 0, 0, 80],
      "AngioFlag": "N",
      "BitsAllocated": 16,
      "BitsStored": 12,
      "BodyPartExamined": "BRAIN",
      "Columns": 480,
      "EchoNumbers": 1,
      "EchoTime": 35.0,
      "EchoTrainLength": 39,
      "FlipAngle": 90.0,
      "HighBit": 11,
      "ImageOrientationPatient": [0.97031435187845, 0.24165064062933, 0.00974814967748, -0.2331309471844, 0.92386024461596, 0.3035328810575],
      "ImagePositionPatient": [-536.62550978429, -825.78842567922, -285.48239370389],
      "ImageType": [
        "ORIGINAL",
        "PRIMARY",
        "M",
        "ND",
        "NORM",
        "MOSAIC"
],
      "ImagedNucleus": "1H",
      "ImagingFrequency": 123.259158,
      "InPlanePhaseEncodingDirection": "COL",
      "MRAcquisitionType": "2D",
      "MagneticFieldStrength": 3.0,
      "Manufacturer": "SIEMENS",
      "ManufacturerModelName": "Prisma",
      "Modality": "MR",
      "NumberOfAverages": 1.0,
      "NumberOfPhaseEncodingSteps": 79,
      "PercentPhaseFieldOfView": 100.0,
      "PercentSampling": 100.0,
      "PerformedProcedureStepStartTime": "085818.901000",
      "PhotometricInterpretation": "MONOCHROME2",
      "PixelBandwidth": 2315.0,
      "PixelRepresentation": 0,
      "PixelSpacing": [3.0, 3.0],
      "ProtocolName": "func-bold_task-rest_acq-p2",
      "RepetitionTime": 2000.0,
      "Rows": 480,
      "SAR": 0.07132017044321,
      "SamplesPerPixel": 1,
      "ScanOptions": "FS",
      "ScanningSequence": "EP",
      "SequenceName": "*epfid2d1_80",
      "SequenceVariant": "SK",
      "SeriesDescription": "func-bold_task-rest_acq-p2",
      "SeriesNumber": 5,
      "SeriesTime": "091459.631000",
      "SliceLocation": -61.437663522229,
      "SliceThickness": 3.5,
      "SmallestImagePixelValue": 0,
      "SoftwareVersions": "syngo MR E11",
      "SpacingBetweenSlices": 3.9900000042009,
      "SpecificCharacterSet": "ISO_IR 100",
      "StudyID": "43",
      "StudyTime": "085818.773000",
      "TransmitCoilName": "Body",
      "VariableFlipAngleFlag": "N",
      "WindowCenterWidthExplanation": "Algo1"
    },
    "slices": {}
  },
  "time": {
    "samples": {
      "AcquisitionNumber": [1, 2, 3, 4, 5, 6, 7, 8, 9, 10, 11, 12, 13, 14, 15, 16, 17, 18, 19, 20, 21, 22, 23, 24, 25, 26, 27, 28, 29, 30, 31, 32, 33, 34, 35, 36, 37, 38, 39, 40, 41, 42, 43, 44, 45, 46, 47, 48, 49, 50, 51, 52, 53, 54, 55, 56, 57, 58, 59, 60, 61, 62, 63, 64, 65, 66, 67, 68, 69, 70, 71, 72, 73, 74, 75, 76, 77, 78, 79, 80, 81, 82, 83, 84, 85, 86, 87, 88, 89, 90, 91, 92, 93, 94, 95, 96, 97, 98, 99, 100, 101, 102, 103, 104, 105, 106, 107, 108, 109, 110, 111, 112, 113, 114, 115, 116, 117, 118, 119, 120, 121, 122, 123, 124, 125, 126, 127, 128, 129, 130, 131, 132, 133, 134, 135, 136, 137, 138, 139, 140, 141, 142, 143, 144, 145, 146, 147, 148, 149, 150, 151, 152, 153, 154, 155, 156, 157, 158, 159, 160, 161, 162, 163, 164, 165, 166, 167, 168, 169, 170, 171, 172, 173, 174, 175, 176, 177, 178, 179, 180, 181, 182, 183, 184, 185, 186, 187, 188, 189, 190, 191, 192, 193, 194, 195, 196, 197, 198, 199, 200],
      "AcquisitionTime": ["091410.917500", "091412.917500", "091414.917500", "091416.917500", "091418.917500", "091420.917500", "091422.917500", "091424.917500", "091426.917500", "091428.917500", "091430.917500", "091432.917500", "091434.917500", "091436.917500", "091438.917500", "091440.917500", "091442.917500", "091444.917500", "091446.917500", "091448.917500", "091450.917500", "091452.917500", "091454.917500", "091456.917500", "091458.917500", "091500.917500", "091502.917500", "091504.917500", "091506.917500", "091508.917500", "091510.917500", "091512.917500", "091514.917500", "091516.917500", "091518.917500", "091520.917500", "091522.917500", "091524.917500", "091526.917500", "091528.917500", "091530.917500", "091532.917500", "091534.917500", "091536.917500", "091538.917500", "091540.917500", "091542.917500", "091544.917500", "091546.917500", "091548.917500", "091550.917500", "091552.917500", "091554.917500", "091556.917500", "091558.917500", "091600.917500", "091602.917500", "091604.917500", "091606.917500", "091608.917500", "091610.917500", "091612.917500", "091614.917500", "091616.917500", "091618.917500", "091620.917500", "091622.917500", "091624.917500", "091626.917500", "091628.917500", "091630.917500", "091632.917500", "091634.917500", "091636.917500", "091638.917500", "091640.917500", "091642.917500", "091644.917500", "091646.917500", "091648.917500", "091650.917500", "091652.917500", "091654.917500", "091656.917500", "091658.917500", "091700.917500", "091702.917500", "091704.917500", "091706.917500", "091708.917500", "091710.917500", "091712.917500", "091714.917500", "091716.917500", "091718.917500", "091720.917500", "091722.917500", "091724.917500", "091726.917500", "091728.917500", "091730.917500", "091732.917500", "091734.917500", "091736.917500", "091738.917500", "091740.917500", "091742.917500", "091744.917500", "091746.917500", "091748.917500", "091750.917500", "091752.917500", "091754.917500", "091756.917500", "091758.917500", "091800.917500", "091802.917500", "091804.917500", "091806.917500", "091808.917500", "091810.917500", "091812.917500", "091814.917500", "091816.917500", "091818.917500", "091820.917500", "091822.917500", "091824.917500", "091826.917500", "091828.917500", "091830.917500", "091832.917500", "091834.917500", "091836.917500", "091838.917500", "091840.917500", "091842.917500", "091844.917500", "091846.917500", "091848.917500", "091850.917500", "091852.917500", "091854.917500", "091856.917500", "091858.917500", "091900.917500", "091902.917500", "091904.917500", "091906.917500", "091908.917500", "091910.917500", "091912.917500", "091914.917500", "091916.917500", "091918.917500", "091920.917500", "091922.917500", "091924.917500", "091926.917500", "091928.917500", "091930.917500", "091932.917500", "091934.917500", "091936.917500", "091938.917500", "091940.917500", "091942.917500", "091944.917500", "091946.917500", "091948.917500", "091950.917500", "091952.917500", "091954.917500", "091956.917500", "091958.917500", "092000.917500", "092002.917500", "092004.917500", "092006.917500", "092008.917500", "092010.917500", "092012.917500", "092014.917500", "092016.917500", "092018.917500", "092020.917500", "092022.917500", "092024.917500", "092026.917500", "092028.917500", "092030.917500", "092032.917500", "092034.917500", "092036.917500", "092038.917500", "092040.917500", "092042.917500", "092044.917500", "092046.917500", "092048.917500"],
      "ContentTime": ["091459.634000", "091459.637000", "091459.640000", "091459.642000", "091459.644000", "091459.647000", "091459.649000", "091459.651000", "091459.654000", "091459.656000", "091459.658000", "091459.661000", "091459.663000", "091459.665000", "091459.667000", "091459.670000", "091459.672000", "091459.674000", "091459.683000", "091459.686000", "091459.688000", "091459.691000", "091459.693000", "091459.695000", "091539.628000", "091539.631000", "091539.635000", "091539.638000", "091539.640000", "091539.642000", "091539.645000", "091539.647000", "091539.649000", "091539.652000", "091539.654000", "091539.657000", "091539.659000", "091539.661000", "091539.664000", "091539.666000", "091539.668000", "091539.671000", "091539.673000", "091539.675000", "091619.628000", "091619.631000", "091619.633000", "091619.636000", "091619.638000", "091619.640000", "091619.643000", "091619.645000", "091619.647000", "091619.650000", "091619.652000", "091619.654000", "091619.656000", "091619.659000", "091619.661000", "091619.663000", "091619.666000", "091619.668000", "091619.671000", "091619.673000", "091659.628000", "091659.631000", "091659.633000", "091659.636000", "091659.638000", "091659.640000", "091659.643000", "091659.645000", "091659.647000", "091659.650000", "091659.652000", "091659.654000", "091659.657000", "091659.659000", "091659.661000", "091659.664000", "091659.666000", "091659.668000", "091659.671000", "091659.674000", "091739.628000", "091739.631000", "091739.633000", "091739.635000", "091739.638000", "091739.640000", "091739.642000", "091739.645000", "091739.647000", "091739.649000", "091739.651000", "091739.654000", "091739.656000", "091739.658000", "091739.661000", "091739.663000", "091739.665000", "091739.667000", "091739.670000", "091739.672000", "091819.628000", "091819.631000", "091819.633000", "091819.636000", "091819.638000", "091819.640000", "091819.642000", "091819.645000", "091819.647000", "091819.649000", "091819.652000", "091819.654000", "091819.656000", "091819.658000", "091819.661000", "091819.663000", "091819.665000", "091819.668000", "091819.670000", "091819.672000", "091859.628000", "091859.631000", "091859.633000", "091859.635000", "091859.638000", "091859.640000", "091859.642000", "091859.645000", "091859.647000", "091859.649000", "091859.651000", "091859.654000", "091859.656000", "091859.658000", "091859.661000", "091859.663000", "091859.665000", "091859.668000", "091859.670000", "091859.672000", "091919.629000", "091919.632000", "091919.634000", "091919.636000", "091919.639000", "091919.641000", "091919.643000", "091919.646000", "091919.648000", "091919.650000", "091959.628000", "091959.631000", "091959.633000", "091959.635000", "091959.638000", "091959.640000", "091959.642000", "091959.644000", "091959.647000", "091959.649000", "091959.651000", "091959.654000", "091959.656000", "091959.658000", "091959.661000", "091959.663000", "091959.665000", "091959.668000", "091959.670000", "091959.672000", "092039.628000", "092039.631000", "092039.633000", "092039.636000", "092039.638000", "092039.640000", "092039.643000", "092039.645000", "092039.648000", "092039.650000", "092039.652000", "092039.655000", "092039.657000", "092039.659000", "092039.662000", "092039.664000", "092039.667000", "092039.696000", "092039.698000", "092039.700000", "092050.301000", "092050.304000", "092050.307000", "092050.309000", "092050.311000", "092050.314000"],
      "InstanceCreationTime": ["091459.634000", "091459.637000", "091459.640000", "091459.642000", "091459.644000", "091459.647000", "091459.649000", "091459.651000", "091459.654000", "091459.656000", "091459.658000", "091459.661000", "091459.663000", "091459.665000", "091459.667000", "091459.670000", "091459.672000", "091459.674000", "091459.683000", "091459.686000", "091459.688000", "091459.691000", "091459.693000", "091459.695000", "091539.628000", "091539.631000", "091539.635000", "091539.638000", "091539.640000", "091539.642000", "091539.645000", "091539.647000", "091539.649000", "091539.652000", "091539.654000", "091539.657000", "091539.659000", "091539.661000", "091539.664000", "091539.666000", "091539.668000", "091539.671000", "091539.673000", "091539.675000", "091619.628000", "091619.631000", "091619.633000", "091619.636000", "091619.638000", "091619.640000", "091619.643000", "091619.645000", "091619.647000", "091619.650000", "091619.652000", "091619.654000", "091619.656000", "091619.659000", "091619.661000", "091619.663000", "091619.666000", "091619.668000", "091619.671000", "091619.673000", "091659.628000", "091659.631000", "091659.633000", "091659.636000", "091659.638000", "091659.640000", "091659.643000", "091659.645000", "091659.647000", "091659.650000", "091659.652000", "091659.654000", "091659.657000", "091659.659000", "091659.661000", "091659.664000", "091659.666000", "091659.668000", "091659.671000", "091659.674000", "091739.628000", "091739.631000", "091739.633000", "091739.635000", "091739.638000", "091739.640000", "091739.642000", "091739.645000", "091739.647000", "091739.649000", "091739.651000", "091739.654000", "091739.656000", "091739.658000", "091739.661000", "091739.663000", "091739.665000", "091739.667000", "091739.670000", "091739.672000", "091819.628000", "091819.631000", "091819.633000", "091819.636000", "091819.638000", "091819.640000", "091819.642000", "091819.645000", "091819.647000", "091819.649000", "091819.652000", "091819.654000", "091819.656000", "091819.658000", "091819.661000", "091819.663000", "091819.665000", "091819.668000", "091819.670000", "091819.672000", "091859.628000", "091859.631000", "091859.633000", "091859.635000", "091859.638000", "091859.640000", "091859.642000", "091859.645000", "091859.647000", "091859.649000", "091859.651000", "091859.654000", "091859.656000", "091859.658000", "091859.661000", "091859.663000", "091859.665000", "091859.668000", "091859.670000", "091859.672000", "091919.629000", "091919.632000", "091919.634000", "091919.636000", "091919.639000", "091919.641000", "091919.643000", "091919.646000", "091919.648000", "091919.650000", "091959.628000", "091959.631000", "091959.633000", "091959.635000", "091959.638000", "091959.640000", "091959.642000", "091959.644000", "091959.647000", "091959.649000", "091959.651000", "091959.654000", "091959.656000", "091959.658000", "091959.661000", "091959.663000", "091959.665000", "091959.668000", "091959.670000", "091959.672000", "092039.628000", "092039.631000", "092039.633000", "092039.636000", "092039.638000", "092039.640000", "092039.643000", "092039.645000", "092039.648000", "092039.650000", "092039.652000", "092039.655000", "092039.657000", "092039.659000", "092039.662000", "092039.664000", "092039.667000", "092039.696000", "092039.698000", "092039.700000", "092050.301000", "092050.304000", "092050.307000", "092050.309000", "092050.311000", "092050.314000"],
      "InstanceNumber": [1, 2, 3, 4, 5, 6, 7, 8, 9, 10, 11, 12, 13, 14, 15, 16, 17, 18, 19, 20, 21, 22, 23, 24, 25, 26, 27, 28, 29, 30, 31, 32, 33, 34, 35, 36, 37, 38, 39, 40, 41, 42, 43, 44, 45, 46, 47, 48, 49, 50, 51, 52, 53, 54, 55, 56, 57, 58, 59, 60, 61, 62, 63, 64, 65, 66, 67, 68, 69, 70, 71, 72, 73, 74, 75, 76, 77, 78, 79, 80, 81, 82, 83, 84, 85, 86, 87, 88, 89, 90, 91, 92, 93, 94, 95, 96, 97, 98, 99, 100, 101, 102, 103, 104, 105, 106, 107, 108, 109, 110, 111, 112, 113, 114, 115, 116, 117, 118, 119, 120, 121, 122, 123, 124, 125, 126, 127, 128, 129, 130, 131, 132, 133, 134, 135, 136, 137, 138, 139, 140, 141, 142, 143, 144, 145, 146, 147, 148, 149, 150, 151, 152, 153, 154, 155, 156, 157, 158, 159, 160, 161, 162, 163, 164, 165, 166, 167, 168, 169, 170, 171, 172, 173, 174, 175, 176, 177, 178, 179, 180, 181, 182, 183, 184, 185, 186, 187, 188, 189, 190, 191, 192, 193, 194, 195, 196, 197, 198, 199, 200],
      "LargestImagePixelValue": [2308, 2304, 2299, 2304, 2299, 2303, 2300, 2284, 2304, 2293, 2299, 2294, 2304, 2302, 2300, 2299, 2285, 2298, 2294, 2297, 2303, 2291, 2303, 2307, 2305, 2302, 2299, 2289, 2287, 2295, 2305, 2290, 2295, 2294, 2297, 2308, 2293, 2305, 2297, 2302, 2297, 2304, 2302, 2295, 2304, 2306, 2303, 2299, 2289, 2294, 2292, 2289, 2291, 2291, 2289, 2283, 2287, 2296, 2291, 2291, 2292, 2297, 2293, 2292, 2298, 2296, 2296, 2304, 2302, 2304, 2286, 2294, 2299, 2287, 2299, 2296, 2290, 2301, 2288, 2292, 2302, 2293, 2288, 2290, 2286, 2293, 2291, 2290, 2303, 2287, 2287, 2291, 2280, 2300, 2286, 2284, 2293, 2294, 2291, 2290, 2292, 2289, 2305, 2290, 2297, 2292, 2293, 2292, 2297, 2291, 2303, 2293, 2294, 2289, 2297, 2284, 2286, 2302, 2296, 2282, 2281, 2288, 2292, 2296, 2294, 2295, 2293, 2300, 2287, 2289, 2291, 2298, 2284, 2290, 2292, 2294, 2293, 2294, 2283, 2288, 2283, 2300, 2292, 2291, 2297, 2293, 2290, 2280, 2298, 2290, 2282, 2291, 2291, 2292, 2288, 2287, 2283, 2284, 2302, 2292, 2288, 2297, 2285, 2293, 2297, 2288, 2286, 2275, 2288, 2290, 2289, 2286, 2292, 2295, 2286, 2296, 2289, 2287, 2276, 2295, 2290, 2287, 2291, 2288, 2289, 2289, 2294, 2297, 2292, 2298, 2290, 2292, 2297, 2291, 2281, 2288, 2280, 2288, 2282, 2288],
      "WindowCenter": [1042.0, 1041.0, 1041.0, 1041.0, 1041.0, 1041.0, 1041.0, 1041.0, 1041.0, 1041.0, 1041.0, 1041.0, 1041.0, 1041.0, 1041.0, 1041.0, 1041.0, 1041.0, 1041.0, 1041.0, 1041.0, 1041.0, 1041.0, 1041.0, 1041.0, 1041.0, 1041.0, 1041.0, 1041.0, 1041.0, 1041.0, 1041.0, 1041.0, 1041.0, 1041.0, 1041.0, 1041.0, 1041.0, 1041.0, 1041.0, 1041.0, 1041.0, 1041.0, 1041.0, 1041.0, 1041.0, 1041.0, 1041.0, 1041.0, 1041.0, 1041.0, 1041.0, 1041.0, 1041.0, 1041.0, 1041.0, 1041.0, 1041.0, 1041.0, 1041.0, 1041.0, 1041.0, 1041.0, 1041.0, 1041.0, 1041.0, 1041.0, 1041.0, 1041.0, 1041.0, 1041.0, 1041.0, 1041.0, 1041.0, 1041.0, 1041.0, 1041.0, 1041.0, 1041.0, 1041.0, 1040.0, 1041.0, 1041.0, 1041.0, 1041.0, 1041.0, 1041.0, 1041.0, 1040.0, 1041.0, 1040.0, 1040.0, 1041.0, 1040.0, 1040.0, 1040.0, 1040.0, 1041.0, 1040.0, 1040.0, 1040.0, 1040.0, 1041.0, 1040.0, 1040.0, 1040.0, 1040.0, 1040.0, 1040.0, 1040.0, 1040.0, 1040.0, 1040.0, 1041.0, 1040.0, 1040.0, 1040.0, 1040.0, 1040.0, 1040.0, 1040.0, 1040.0, 1040.0, 1040.0, 1040.0, 1040.0, 1040.0, 1040.0, 1040.0, 1040.0, 1040.0, 1040.0, 1040.0, 1040.0, 1040.0, 1040.0, 1040.0, 1040.0, 1040.0, 1040.0, 1040.0, 1040.0, 1040.0, 1040.0, 1040.0, 1040.0, 1040.0, 1040.0, 1040.0, 1040.0, 1040.0, 1040.0, 1040.0, 1040.0, 1040.0, 1040.0, 1040.0, 1040.0, 1040.0, 1040.0, 1040.0, 1040.0, 1040.0, 1040.0, 1040.0, 1040.0, 1040.0, 1040.0, 1040.0, 1040.0, 1040.0, 1040.0, 1040.0, 1040.0, 1040.0, 1040.0, 1040.0, 1040.0, 1040.0, 1040.0, 1040.0, 1040.0, 1040.0, 1040.0, 1040.0, 1040.0, 1040.0, 1040.0, 1040.0, 1040.0, 1040.0, 1040.0, 1040.0, 1040.0, 1040.0, 1040.0, 1040.0, 1040.0, 1040.0, 1040.0],
      "WindowWidth": [2328.0, 2327.0, 2327.0, 2327.0, 2327.0, 2328.0, 2327.0, 2327.0, 2327.0, 2327.0, 2327.0, 2327.0, 2327.0, 2327.0, 2327.0, 2327.0, 2327.0, 2327.0, 2327.0, 2327.0, 2327.0, 2327.0, 2327.0, 2327.0, 2327.0, 2327.0, 2327.0, 2327.0, 2327.0, 2327.0, 2327.0, 2327.0, 2327.0, 2327.0, 2326.0, 2327.0, 2327.0, 2327.0, 2327.0, 2327.0, 2327.0, 2327.0, 2327.0, 2327.0, 2327.0, 2327.0, 2327.0, 2326.0, 2326.0, 2327.0, 2326.0, 2327.0, 2327.0, 2327.0, 2326.0, 2326.0, 2326.0, 2326.0, 2326.0, 2327.0, 2327.0, 2326.0, 2326.0, 2326.0, 2326.0, 2327.0, 2326.0, 2326.0, 2326.0, 2326.0, 2326.0, 2327.0, 2326.0, 2326.0, 2326.0, 2326.0, 2326.0, 2326.0, 2326.0, 2326.0, 2326.0, 2326.0, 2326.0, 2326.0, 2326.0, 2326.0, 2326.0, 2326.0, 2326.0, 2326.0, 2326.0, 2326.0, 2326.0, 2326.0, 2326.0, 2326.0, 2326.0, 2326.0, 2326.0, 2326.0, 2326.0, 2326.0, 2327.0, 2326.0, 2326.0, 2326.0, 2326.0, 2326.0, 2326.0, 2326.0, 2326.0, 2325.0, 2326.0, 2326.0, 2326.0, 2326.0, 2326.0, 2326.0, 2326.0, 2326.0, 2326.0, 2326.0, 2326.0, 2326.0, 2326.0, 2326.0, 2326.0, 2326.0, 2326.0, 2326.0, 2326.0, 2326.0, 2326.0, 2326.0, 2326.0, 2326.0, 2326.0, 2326.0, 2325.0, 2326.0, 2326.0, 2326.0, 2326.0, 2325.0, 2325.0, 2326.0, 2325.0, 2326.0, 2326.0, 2326.0, 2325.0, 2325.0, 2326.0, 2325.0, 2325.0, 2325.0, 2325.0, 2325.0, 2326.0, 2326.0, 2325.0, 2325.0, 2326.0, 2326.0, 2325.0, 2325.0, 2326.0, 2325.0, 2325.0, 2325.0, 2325.0, 2325.0, 2326.0, 2325.0, 2325.0, 2325.0, 2325.0, 2326.0, 2325.0, 2326.0, 2326.0, 2325.0, 2325.0, 2325.0, 2325.0, 2325.0, 2325.0, 2325.0, 2325.0, 2325.0, 2326.0, 2325.0, 2325.0, 2325.0, 2325.0, 2325.0, 2325.0, 2325.0, 2325.0, 2325.0]
    },
    "slices": {}
  }
}