{
  "AcquisitionMatrixPE": 80,
  "AcquisitionNumber": 1,
  "AcquisitionTime": "09:34:40.437500",
  "BandwidthPerPixelPhaseEncode": 25,
  "BaseResolution": 80,
  "BodyPartExamined": "BRAIN",
  "CoilCombinationMethod": "Sum of Squares",
  "ConsistencyInfo": "N4_VE11E_LATEST_20181129",
  "ConversionSoftware": "dcm2niix",
  "ConversionSoftwareVersion": "v1.0.20220720",
  "DerivedVendorReportedEchoSpacing": 0.0005,
  "DeviceSerialNumber": "66112",
  "DwellTime": 2.7e-06,
  "EchoTime": 0.03,
  "EchoTrainLength": 80,
  "EffectiveEchoSpacing": 0.0005,
  "FlipAngle": 10,
  "HeudiconvVersion": "0.13.1",
  "ImageOrientationPatientDICOM": [0.970314, 0.241651, 0.00974815, -0.233131, 0.92386, 0.303533],
  "ImageOrientationText": "Tra>Cor(17.3)>Sag(-3.7)",
  "ImageType": [
    "ORIGINAL",
    "PRIMARY",
    "M",
    "ND",
    "NORM",
    "MOSAIC"
],
  "ImagingFrequency": 123.259,
  "InPlanePhaseEncodingDirectionDICOM": "COL",
  "InstitutionAddress": "Maynard 3,Hanover,NH,US,03755",
  "InstitutionName": "Dartmouth College - PBS",
  "InstitutionalDepartmentName": "Department",
  "MRAcquisitionType": "2D",
  "MagneticFieldStrength": 3,
  "Manufacturer": "Siemens",
  "ManufacturersModelName": "Prisma",
  "MatrixCoilMode": "SENSE",
  "Modality": "MR",
  "NonlinearGradientCorrection": false,
  "PartialFourier": 1,
  "PatientPosition": "HFS",
  "PercentPhaseFOV": 100,
  "PercentSampling": 100,
  "PhaseEncodingDirection": "j-",
  "PhaseEncodingSteps": 80,
  "PhaseResolution": 1,
  "PixelBandwidth": 2315,
  "ProcedureStepDescription": "dbic^QA",
  "ProtocolName": "func-bold_fa-10",
  "PulseSequenceDetails": "%SiemensSeq%\\ep2d_bold",
  "ReceiveCoilActiveElements": "HEA;HEP",
  "ReceiveCoilName": "Head_32",
  "ReconMatrixPE": 80,
  "RepetitionTime": 2,
  "SAR": 0.0150345,
  "ScanOptions": "FS",
  "ScanningSequence": "EP",
  "SequenceName": "*epfid2d1_80",
  "SequenceVariant": "SK",
  "SeriesDescription": "func-bold_fa-10",
  "SeriesNumber": 8,
  "ShimSetting": [4221, -7735, -7498, -40, -134, -72, 22, 82],
  "SliceThickness": 3.5,
  "SliceTiming": [0.99, 0, 1.055, 0.065, 1.1225, 0.1325, 1.1875, 0.1975, 1.255, 0.265, 1.32, 0.33, 1.385, 0.395, 1.4525, 0.4625, 1.5175, 0.5275, 1.585, 0.595, 1.65, 0.66, 1.715, 0.725, 1.7825, 0.7925, 1.8475, 0.8575, 1.9125, 0.925],
  "SoftwareVersions": "syngo MR E11",
  "SpacingBetweenSlices": 3.99,
  "StationName": "AWP66112",
  "TotalReadoutTime": 0.0395,
  "TxRefAmp": 225.073,
  "dcmmeta_affine": [
    [-2.910943031311035, -0.6993928551673889, -0.25672852993011475, 149.0474853515625],
    [-0.7249519228935242, 2.771580696105957, 1.1842117309570312, -90.17169952392578],
    [0.029244448989629745, -0.910598635673523, 3.8015565872192383, -20.28736686706543],
    [0.0, 0.0, 0.0, 1.0]
],
  "dcmmeta_reorient_transform": [
    [0.0, -1.0, 0.0, 79.0],
    [1.0, 0.0, 0.0, 0.0],
    [0.0, 0.0, 1.0, 0.0],
    [0.0, 0.0, 0.0, 1.0]
],
  "dcmmeta_shape": [80, 80, 30, 200],
  "dcmmeta_slice_dim": 2,
  "dcmmeta_version": 0.6,
  "global": {
    "const": {
      "AccessionNumber": "qa",
      "AcquisitionMatrix": [80, 0, 0, 80],
      "AngioFlag": "N",
      "BitsAllocated": 16,
      "BitsStored": 12,
      "BodyPartExamined": "BRAIN",
      "Columns": 480,
      "EchoNumbers": 1,
      "EchoTime": 30.0,
      "EchoTrainLength": 80,
      "FlipAngle": 10.0,
      "HighBit": 11,
      "ImageOrientationPatient": [0.97031435187845, 0.24165064062933, 0.00974814967748, -0.2331309471844, 0.92386024461596, 0.3035328810575],
      "ImagePositionPatient": [-536.1054988361, -828.08970760824, -280.19327779813],
      "ImageType": [
        "ORIGINAL",
        "PRIMARY",
        "M",
        "ND",
        "NORM",
        "MOSAIC"
],
      "ImagedNucleus": "1H",
      "ImagingFrequency": 123.259158,
      "InPlanePhaseEncodingDirection": "COL",
      "MRAcquisitionType": "2D",
      "MagneticFieldStrength": 3.0,
      "Manufacturer": "SIEMENS",
      "ManufacturerModelName": "Prisma",
      "Modality": "MR",
      "NumberOfAverages": 1.0,
      "NumberOfPhaseEncodingSteps": 80,
      "PercentPhaseFieldOfView": 100.0,
      "PercentSampling": 100.0,
      "PerformedProcedureStepStartTime": "085818.901000",
      "PhotometricInterpretation": "MONOCHROME2",
      "PixelBandwidth": 2315.0,
      "PixelRepresentation": 0,
      "PixelSpacing": [3.0, 3.0],
      "ProtocolName": "func-bold_fa-10",
      "RepetitionTime": 2000.0,
      "Rows": 480,
      "SAR": 0.01503454325682,
      "SamplesPerPixel": 1,
      "ScanOptions": "FS",
      "ScanningSequence": "EP",
      "SequenceName": "*epfid2d1_80",
      "SequenceVariant": "SK",
      "SeriesDescription": "func-bold_fa-10",
      "SeriesNumber": 8,
      "SeriesTime": "093539.631000",
      "SliceLocation": -55.681878945503,
      "SliceThickness": 3.5,
      "SmallestImagePixelValue": 0,
      "SoftwareVersions": "syngo MR E11",
      "SpacingBetweenSlices": 3.9899999941762,
      "SpecificCharacterSet": "ISO_IR 100",
      "StudyID": "43",
      "StudyTime": "085818.773000",
      "TransmitCoilName": "Body",
      "VariableFlipAngleFlag": "N",
      "WindowCenterWidthExplanation": "Algo1"
    },
    "slices": {}
  },
  "time": {
    "samples": {
      "AcquisitionNumber": [1, 2, 3, 4, 5, 6, 7, 8, 9, 10, 11, 12, 13, 14, 15, 16, 17, 18, 19, 20, 21, 22, 23, 24, 25, 26, 27, 28, 29, 30, 31, 32, 33, 34, 35, 36, 37, 38, 39, 40, 41, 42, 43, 44, 45, 46, 47, 48, 49, 50, 51, 52, 53, 54, 55, 56, 57, 58, 59, 60, 61, 62, 63, 64, 65, 66, 67, 68, 69, 70, 71, 72, 73, 74, 75, 76, 77, 78, 79, 80, 81, 82, 83, 84, 85, 86, 87, 88, 89, 90, 91, 92, 93, 94, 95, 96, 97, 98, 99, 100, 101, 102, 103, 104, 105, 106, 107, 108, 109, 110, 111, 112, 113, 114, 115, 116, 117, 118, 119, 120, 121, 122, 123, 124, 125, 126, 127, 128, 129, 130, 131, 132, 133, 134, 135, 136, 137, 138, 139, 140, 141, 142, 143, 144, 145, 146, 147, 148, 149, 150, 151, 152, 153, 154, 155, 156, 157, 158, 159, 160, 161, 162, 163, 164, 165, 166, 167, 168, 169, 170, 171, 172, 173, 174, 175, 176, 177, 178, 179, 180, 181, 182, 183, 184, 185, 186, 187, 188, 189, 190, 191, 192, 193, 194, 195, 196, 197, 198, 199, 200],
      "AcquisitionTime": ["093440.437500", "093442.437500", "093444.437500", "093446.437500", "093448.437500", "093450.437500", "093452.437500", "093454.437500", "093456.437500", "093458.437500", "093500.437500", "093502.437500", "093504.437500", "093506.437500", "093508.437500", "093510.437500", "093512.437500", "093514.437500", "093516.437500", "093518.437500", "093520.437500", "093522.437500", "093524.437500", "093526.437500", "093528.437500", "093530.437500", "093532.437500", "093534.437500", "093536.437500", "093538.437500", "093540.437500", "093542.437500", "093544.437500", "093546.437500", "093548.437500", "093550.437500", "093552.437500", "093554.437500", "093556.437500", "093558.437500", "093600.437500", "093602.437500", "093604.437500", "093606.437500", "093608.437500", "093610.437500", "093612.437500", "093614.437500", "093616.437500", "093618.437500", "093620.437500", "093622.437500", "093624.437500", "093626.437500", "093628.437500", "093630.437500", "093632.437500", "093634.437500", "093636.437500", "093638.437500", "093640.437500", "093642.437500", "093644.437500", "093646.437500", "093648.437500", "093650.437500", "093652.437500", "093654.437500", "093656.437500", "093658.437500", "093700.437500", "093702.437500", "093704.437500", "093706.437500", "093708.437500", "093710.437500", "093712.437500", "093714.437500", "093716.437500", "093718.437500", "093720.437500", "093722.437500", "093724.437500", "093726.437500", "093728.437500", "093730.437500", "093732.437500", "093734.437500", "093736.437500", "093738.437500", "093740.437500", "093742.437500", "093744.437500", "093746.437500", "093748.437500", "093750.437500", "093752.437500", "093754.437500", "093756.437500", "093758.437500", "093800.437500", "093802.437500", "093804.437500", "093806.437500", "093808.437500", "093810.437500", "093812.437500", "093814.437500", "093816.437500", "093818.437500", "093820.437500", "093822.437500", "093824.437500", "093826.437500", "093828.437500", "093830.437500", "093832.437500", "093834.437500", "093836.437500", "093838.437500", "093840.437500", "093842.437500", "093844.437500", "093846.437500", "093848.437500", "093850.437500", "093852.437500", "093854.437500", "093856.437500", "093858.437500", "093900.437500", "093902.437500", "093904.437500", "093906.437500", "093908.437500", "093910.437500", "093912.437500", "093914.437500", "093916.437500", "093918.437500", "093920.437500", "093922.437500", "093924.437500", "093926.437500", "093928.437500", "093930.437500", "093932.437500", "093934.437500", "093936.437500", "093938.437500", "093940.437500", "093942.437500", "093944.437500", "093946.437500", "093948.437500", "093950.437500", "093952.437500", "093954.437500", "093956.437500", "093958.437500", "094000.437500", "094002.437500", "094004.437500", "094006.437500", "094008.437500", "094010.437500", "094012.437500", "094014.437500", "094016.437500", "094018.437500", "094020.437500", "094022.437500", "094024.437500", "094026.437500", "094028.437500", "094030.437500", "094032.437500", "094034.437500", "094036.437500", "094038.437500", "094040.437500", "094042.437500", "094044.437500", "094046.437500", "094048.437500", "094050.437500", "094052.437500", "094054.437500", "094056.437500", "094058.437500", "094100.437500", "094102.437500", "094104.437500", "094106.437500", "094108.437500", "094110.437500", "094112.437500", "094114.437500", "094116.437500", "094118.437500"],
      "ContentTime": ["093539.634000", "093539.637000", "093539.639000", "093539.642000", "093539.644000", "093539.647000", "093539.649000", "093539.651000", "093539.654000", "093539.656000", "093539.658000", "093539.660000", "093539.663000", "093539.665000", "093539.667000", "093539.669000", "093539.672000", "093539.681000", "093539.684000", "093539.686000", "093539.688000", "093539.691000", "093539.693000", "093539.704000", "093539.706000", "093539.708000", "093539.711000", "093539.713000", "093539.715000", "093619.628000", "093619.631000", "093619.633000", "093619.635000", "093619.637000", "093619.640000", "093619.642000", "093619.644000", "093619.647000", "093619.649000", "093619.651000", "093619.654000", "093619.656000", "093619.658000", "093619.661000", "093619.663000", "093619.665000", "093619.668000", "093619.676000", "093619.679000", "093659.628000", "093659.631000", "093659.633000", "093659.635000", "093659.638000", "093659.640000", "093659.642000", "093659.645000", "093659.647000", "093659.649000", "093659.651000", "093659.654000", "093659.656000", "093659.658000", "093659.660000", "093659.663000", "093659.665000", "093659.667000", "093659.670000", "093659.672000", "093739.628000", "093739.631000", "093739.633000", "093739.635000", "093739.638000", "093739.640000", "093739.642000", "093739.644000", "093739.647000", "093739.649000", "093739.651000", "093739.654000", "093739.656000", "093739.658000", "093739.661000", "093739.663000", "093739.665000", "093739.668000", "093739.670000", "093739.672000", "093819.629000", "093819.632000", "093819.634000", "093819.636000", "093819.639000", "093819.641000", "093819.643000", "093819.646000", "093819.648000", "093819.650000", "093819.653000", "093819.655000", "093819.657000", "093819.659000", "093819.662000", "093819.664000", "093819.666000", "093819.669000", "093819.671000", "093819.673000", "093859.629000", "093859.631000", "093859.633000", "093859.636000", "093859.638000", "093859.640000", "093859.642000", "093859.645000", "093859.647000", "093859.649000", "093859.652000", "093859.654000", "093859.656000", "093859.658000", "093859.661000", "093859.663000", "093859.665000", "093859.667000", "093859.670000", "093859.672000", "093939.628000", "093939.631000", "093939.633000", "093939.636000", "093939.638000", "093939.640000", "093939.643000", "093939.645000", "093939.647000", "093939.649000", "093939.652000", "093939.654000", "093939.656000", "093939.659000", "093939.661000", "093939.663000", "093939.666000", "093939.668000", "093939.670000", "093939.673000", "094019.629000", "094019.632000", "094019.634000", "094019.636000", "094019.639000", "094019.641000", "094019.643000", "094019.645000", "094019.648000", "094019.650000", "094019.652000", "094019.655000", "094019.657000", "094019.659000", "094019.661000", "094019.664000", "094019.666000", "094019.668000", "094019.670000", "094019.673000", "094059.628000", "094059.631000", "094059.633000", "094059.635000", "094059.638000", "094059.640000", "094059.642000", "094059.645000", "094059.647000", "094059.649000", "094059.652000", "094059.654000", "094059.656000", "094059.659000", "094059.661000", "094059.663000", "094059.666000", "094059.668000", "094059.671000", "094059.673000", "094120.409000", "094120.412000", "094120.414000", "094120.417000", "094120.419000", "094120.421000", "094120.424000", "094120.426000", "094120.428000", "094120.431000", "094120.433000"],
      "InstanceCreationTime": ["093539.634000", "093539.637000", "093539.639000", "093539.642000", "093539.644000", "093539.647000", "093539.649000", "093539.651000", "093539.654000", "093539.656000", "093539.658000", "093539.660000", "093539.663000", "093539.665000", "093539.667000", "093539.669000", "093539.672000", "093539.681000", "093539.684000", "093539.686000", "093539.688000", "093539.691000", "093539.693000", "093539.704000", "093539.706000", "093539.708000", "093539.711000", "093539.713000", "093539.715000", "093619.628000", "093619.631000", "093619.633000", "093619.635000", "093619.637000", "093619.640000", "093619.642000", "093619.644000", "093619.647000", "093619.649000", "093619.651000", "093619.654000", "093619.656000", "093619.658000", "093619.661000", "093619.663000", "093619.665000", "093619.668000", "093619.676000", "093619.679000", "093659.628000", "093659.631000", "093659.633000", "093659.635000", "093659.638000", "093659.640000", "093659.642000", "093659.645000", "093659.647000", "093659.649000", "093659.651000", "093659.654000", "093659.656000", "093659.658000", "093659.660000", "093659.663000", "093659.665000", "093659.667000", "093659.670000", "093659.672000", "093739.628000", "093739.631000", "093739.633000", "093739.635000", "093739.638000", "093739.640000", "093739.642000", "093739.644000", "093739.647000", "093739.649000", "093739.651000", "093739.654000", "093739.656000", "093739.658000", "093739.661000", "093739.663000", "093739.665000", "093739.668000", "093739.670000", "093739.672000", "093819.629000", "093819.632000", "093819.634000", "093819.636000", "093819.639000", "093819.641000", "093819.643000", "093819.646000", "093819.648000", "093819.650000", "093819.653000", "093819.655000", "093819.657000", "093819.659000", "093819.662000", "093819.664000", "093819.666000", "093819.669000", "093819.671000", "093819.673000", "093859.629000", "093859.631000", "093859.633000", "093859.636000", "093859.638000", "093859.640000", "093859.642000", "093859.645000", "093859.647000", "093859.649000", "093859.652000", "093859.654000", "093859.656000", "093859.658000", "093859.661000", "093859.663000", "093859.665000", "093859.667000", "093859.670000", "093859.672000", "093939.628000", "093939.631000", "093939.633000", "093939.636000", "093939.638000", "093939.640000", "093939.643000", "093939.645000", "093939.647000", "093939.649000", "093939.652000", "093939.654000", "093939.656000", "093939.659000", "093939.661000", "093939.663000", "093939.666000", "093939.668000", "093939.670000", "093939.673000", "094019.629000", "094019.632000", "094019.634000", "094019.636000", "094019.639000", "094019.641000", "094019.643000", "094019.645000", "094019.648000", "094019.650000", "094019.652000", "094019.655000", "094019.657000", "094019.659000", "094019.661000", "094019.664000", "094019.666000", "094019.668000", "094019.670000", "094019.673000", "094059.628000", "094059.631000", "094059.633000", "094059.635000", "094059.638000", "094059.640000", "094059.642000", "094059.645000", "094059.647000", "094059.649000", "094059.652000", "094059.654000", "094059.656000", "094059.659000", "094059.661000", "094059.663000", "094059.666000", "094059.668000", "094059.671000", "094059.673000", "094120.409000", "094120.412000", "094120.414000", "094120.417000", "094120.419000", "094120.421000", "094120.424000", "094120.426000", "094120.428000", "094120.431000", "094120.433000"],
      "InstanceNumber": [1, 2, 3, 4, 5, 6, 7, 8, 9, 10, 11, 12, 13, 14, 15, 16, 17, 18, 19, 20, 21, 22, 23, 24, 25, 26, 27, 28, 29, 30, 31, 32, 33, 34, 35, 36, 37, 38, 39, 40, 41, 42, 43, 44, 45, 46, 47, 48, 49, 50, 51, 52, 53, 54, 55, 56, 57, 58, 59, 60, 61, 62, 63, 64, 65, 66, 67, 68, 69, 70, 71, 72, 73, 74, 75, 76, 77, 78, 79, 80, 81, 82, 83, 84, 85, 86, 87, 88, 89, 90, 91, 92, 93, 94, 95, 96, 97, 98, 99, 100, 101, 102, 103, 104, 105, 106, 107, 108, 109, 110, 111, 112, 113, 114, 115, 116, 117, 118, 119, 120, 121, 122, 123, 124, 125, 126, 127, 128, 129, 130, 131, 132, 133, 134, 135, 136, 137, 138, 139, 140, 141, 142, 143, 144, 145, 146, 147, 148, 149, 150, 151, 152, 153, 154, 155, 156, 157, 158, 159, 160, 161, 162, 163, 164, 165, 166, 167, 168, 169, 170, 171, 172, 173, 174, 175, 176, 177, 178, 179, 180, 181, 182, 183, 184, 185, 186, 187, 188, 189, 190, 191, 192, 193, 194, 195, 196, 197, 198, 199, 200],
      "LargestImagePixelValue": [384, 382, 383, 381, 382, 386, 384, 384, 384, 382, 382, 381, 382, 383, 384, 384, 382, 382, 380, 382, 384, 382, 384, 383, 383, 384, 382, 382, 381, 384, 381, 383, 384, 384, 381, 381, 380, 380, 383, 384, 383, 383, 384, 382, 383, 382, 382, 382, 382, 384, 383, 382, 381, 381, 381, 382, 382, 384, 383, 383, 382, 381, 383, 382, 382, 383, 381, 384, 381, 381, 381, 381, 382, 381, 383, 384, 382, 382, 382, 381, 382, 385, 383, 384, 384, 382, 381, 382, 380, 382, 383, 383, 381, 381, 381, 381, 380, 381, 383, 381, 382, 381, 382, 382, 380, 382, 381, 383, 383, 381, 382, 380, 382, 381, 382, 382, 382, 382, 383, 382, 381, 381, 382, 380, 383, 383, 382, 381, 379, 381, 381, 382, 383, 383, 382, 381, 381, 381, 381, 382, 382, 382, 384, 381, 382, 380, 381, 382, 380, 382, 383, 382, 380, 381, 382, 381, 382, 381, 383, 382, 382, 380, 380, 380, 379, 383, 382, 381, 382, 381, 380, 379, 382, 381, 382, 382, 380, 381, 380, 380, 380, 382, 381, 382, 381, 382, 381, 381, 381, 381, 383, 382, 383, 381, 381, 382, 380, 381, 382, 380],
      "WindowCenter": [304.0, 304.0, 304.0, 304.0, 304.0, 304.0, 304.0, 304.0, 304.0, 304.0, 304.0, 304.0, 304.0, 304.0, 304.0, 304.0, 304.0, 304.0, 304.0, 304.0, 304.0, 304.0, 304.0, 304.0, 304.0, 304.0, 304.0, 304.0, 304.0, 304.0, 304.0, 304.0, 304.0, 304.0, 304.0, 304.0, 304.0, 304.0, 304.0, 304.0, 304.0, 304.0, 304.0, 304.0, 304.0, 304.0, 304.0, 304.0, 304.0, 304.0, 304.0, 304.0, 304.0, 304.0, 304.0, 304.0, 304.0, 304.0, 304.0, 304.0, 304.0, 304.0, 304.0, 304.0, 304.0, 304.0, 304.0, 304.0, 304.0, 304.0, 304.0, 304.0, 304.0, 304.0, 304.0, 304.0, 304.0, 304.0, 304.0, 304.0, 304.0, 304.0, 304.0, 304.0, 304.0, 304.0, 304.0, 304.0, 304.0, 304.0, 304.0, 304.0, 303.0, 304.0, 303.0, 303.0, 303.0, 304.0, 303.0, 304.0, 304.0, 304.0, 304.0, 304.0, 303.0, 304.0, 303.0, 304.0, 304.0, 304.0, 303.0, 304.0, 304.0, 303.0, 303.0, 303.0, 304.0, 303.0, 303.0, 303.0, 303.0, 303.0, 304.0, 303.0, 304.0, 304.0, 303.0, 304.0, 304.0, 303.0, 303.0, 303.0, 303.0, 303.0, 303.0, 304.0, 303.0, 303.0, 303.0, 303.0, 304.0, 303.0, 303.0, 303.0, 303.0, 303.0, 303.0, 304.0, 303.0, 304.0, 303.0, 303.0, 303.0, 303.0, 303.0, 303.0, 303.0, 304.0, 303.0, 303.0, 303.0, 303.0, 303.0, 303.0, 303.0, 303.0, 303.0, 303.0, 303.0, 303.0, 304.0, 304.0, 303.0, 303.0, 303.0, 303.0, 303.0, 304.0, 303.0, 303.0, 303.0, 303.0, 303.0, 303.0, 303.0, 303.0, 303.0, 303.0, 303.0, 303.0, 303.0, 303.0, 303.0, 303.0, 303.0, 303.0, 303.0, 303.0, 303.0, 303.0],
      "WindowWidth": [658.0, 657.0, 658.0, 657.0, 658.0, 658.0, 658.0, 658.0, 657.0, 658.0, 658.0, 658.0, 658.0, 658.0, 657.0, 657.0, 658.0, 658.0, 657.0, 658.0, 657.0, 658.0, 658.0, 658.0, 658.0, 657.0, 657.0, 657.0, 658.0, 657.0, 658.0, 658.0, 658.0, 657.0, 657.0, 657.0, 657.0, 657.0, 657.0, 658.0, 658.0, 657.0, 657.0, 657.0, 657.0, 657.0, 657.0, 657.0, 658.0, 657.0, 657.0, 657.0, 657.0, 657.0, 657.0, 657.0, 657.0, 657.0, 657.0, 657.0, 657.0, 658.0, 657.0, 657.0, 658.0, 658.0, 658.0, 657.0, 657.0, 657.0, 658.0, 657.0, 658.0, 657.0, 658.0, 657.0, 657.0, 657.0, 657.0, 657.0, 657.0, 657.0, 657.0, 658.0, 657.0, 658.0, 658.0, 658.0, 657.0, 657.0, 657.0, 657.0, 656.0, 657.0, 656.0, 656.0, 656.0, 658.0, 656.0, 657.0, 657.0, 657.0, 657.0, 657.0, 656.0, 657.0, 656.0, 657.0, 657.0, 657.0, 656.0, 657.0, 657.0, 656.0, 656.0, 656.0, 657.0, 656.0, 656.0, 656.0, 656.0, 656.0, 656.0, 656.0, 657.0, 657.0, 656.0, 656.0, 657.0, 656.0, 656.0, 656.0, 656.0, 656.0, 656.0, 657.0, 656.0, 656.0, 656.0, 656.0, 656.0, 656.0, 656.0, 656.0, 656.0, 656.0, 656.0, 656.0, 656.0, 657.0, 656.0, 656.0, 656.0, 656.0, 656.0, 656.0, 656.0, 656.0, 656.0, 656.0, 656.0, 656.0, 656.0, 656.0, 656.0, 656.0, 656.0, 656.0, 656.0, 656.0, 657.0, 656.0, 656.0, 656.0, 656.0, 656.0, 656.0, 657.0, 656.0, 656.0, 656.0, 656.0, 656.0, 656.0, 656.0, 656.0, 656.0, 656.0, 655.0, 655.0, 656.0, 656.0, 656.0, 656.0, 656.0, 656.0, 656.0, 656.0, 656.0, 656.0]
    },
    "slices": {}
  }
}