{
  "AcquisitionMatrixPE": 80,
  "AcquisitionNumber": 1,
  "AcquisitionTime": "09:40:25.505000",
  "BandwidthPerPixelPhaseEncode": 25,
  "BaseResolution": 80,
  "BodyPartExamined": "BRAIN",
  "CoilCombinationMethod": "Sum of Squares",
  "ConsistencyInfo": "N4_VE11C_LATEST_20160120",
  "ConversionSoftware": "dcm2niix",
  "ConversionSoftwareVersion": "v1.0.20220720",
  "DerivedVendorReportedEchoSpacing": 0.0005,
  "DeviceSerialNumber": "66112",
  "DwellTime": 2.7e-06,
  "EchoTime": 0.03,
  "EchoTrainLength": 80,
  "EffectiveEchoSpacing": 0.0005,
  "FlipAngle": 77,
  "HeudiconvVersion": "0.13.1",
  "ImageOrientationPatientDICOM": [0.986552, 0.163215, 0.00872435, -0.15802, 0.938786, 0.306121],
  "ImageOrientationText": "Tra>Cor(17.7)>Sag(-2.4)",
  "ImageType": [
    "ORIGINAL",
    "PRIMARY",
    "M",
    "ND",
    "NORM",
    "MOSAIC"
],
  "ImagingFrequency": 123.252,
  "InPlanePhaseEncodingDirectionDICOM": "COL",
  "InstitutionAddress": "Maynard 3,Hanover,NH,US,03755",
  "InstitutionName": "Dartmouth College - PBS",
  "InstitutionalDepartmentName": "Department",
  "MRAcquisitionType": "2D",
  "MagneticFieldStrength": 3,
  "Manufacturer": "Siemens",
  "ManufacturersModelName": "Prisma",
  "MatrixCoilMode": "SENSE",
  "Modality": "MR",
  "NonlinearGradientCorrection": false,
  "PartialFourier": 1,
  "PatientPosition": "HFS",
  "PercentPhaseFOV": 100,
  "PercentSampling": 100,
  "PhaseEncodingDirection": "j-",
  "PhaseEncodingSteps": 80,
  "PhaseResolution": 1,
  "PixelBandwidth": 2315,
  "ProcedureStepDescription": "dbic^QA",
  "ProtocolName": "func-bold_fa-77",
  "PulseSequenceDetails": "%SiemensSeq%\\ep2d_bold",
  "ReceiveCoilActiveElements": "HEA;HEP",
  "ReceiveCoilName": "Head_32",
  "ReconMatrixPE": 80,
  "RepetitionTime": 2,
  "SAR": 0.0437451,
  "ScanOptions": "FS",
  "ScanningSequence": "EP",
  "SequenceName": "*epfid2d1_80",
  "SequenceVariant": "SK",
  "SeriesDescription": "func-bold_fa-77",
  "SeriesNumber": 8,
  "ShimSetting": [4147, -7697, -7516, 264, -48, -97, -20, 71],
  "SliceThickness": 3.5,
  "SliceTiming": [0.99, 0, 1.055, 0.065, 1.12, 0.1325, 1.1875, 0.1975, 1.2525, 0.2625, 1.32, 0.33, 1.385, 0.395, 1.45, 0.4625, 1.5175, 0.5275, 1.5825, 0.5925, 1.65, 0.66, 1.715, 0.725, 1.78, 0.7925, 1.8475, 0.8575, 1.9125, 0.9225],
  "SoftwareVersions": "syngo MR E11",
  "SpacingBetweenSlices": 3.99,
  "StationName": "AWP66112",
  "TotalReadoutTime": 0.0395,
  "TxRefAmp": 229.8,
  "dcmmeta_affine": [
    [-2.95965576171875, -0.4740598797798157, -0.16667528450489044, 140.9261474609375],
    [-0.4896455705165863, 2.816359043121338, 1.2104966640472412, -97.82733917236328],
    [0.026173060759902, -0.9183622598648071, 3.7982912063598633, -19.78020668029785],
    [0.0, 0.0, 0.0, 1.0]
],
  "dcmmeta_reorient_transform": [
    [0.0, -1.0, 0.0, 79.0],
    [1.0, 0.0, 0.0, 0.0],
    [0.0, 0.0, 1.0, 0.0],
    [0.0, 0.0, 0.0, 1.0]
],
  "dcmmeta_shape": [80, 80, 30, 200],
  "dcmmeta_slice_dim": 2,
  "dcmmeta_version": 0.6,
  "global": {
    "const": {
      "AccessionNumber": "qa",
      "AcquisitionMatrix": [80, 0, 0, 80],
      "AngioFlag": "N",
      "BitsAllocated": 16,
      "BitsStored": 12,
      "BodyPartExamined": "BRAIN",
      "Columns": 480,
      "EchoNumbers": 1,
      "EchoTime": 30.0,
      "EchoTrainLength": 80,
      "FlipAngle": 77.0,
      "HighBit": 11,
      "ImageOrientationPatient": [0.9865519175709, 0.16321519412581, 0.00872435348083, -0.1580199648522, 0.93878633411736, 0.30612074346994],
      "ImagePositionPatient": [-600.59459496958, -785.86593840118, -281.23788157824],
      "ImageType": [
        "ORIGINAL",
        "PRIMARY",
        "M",
        "ND",
        "NORM",
        "MOSAIC"
],
      "ImagedNucleus": "1H",
      "ImagingFrequency": 123.252398,
      "InPlanePhaseEncodingDirection": "COL",
      "MRAcquisitionType": "2D",
      "MagneticFieldStrength": 3.0,
      "Manufacturer": "SIEMENS",
      "ManufacturerModelName": "Prisma",
      "Modality": "MR",
      "NumberOfAverages": 1.0,
      "NumberOfPhaseEncodingSteps": 80,
      "PercentPhaseFieldOfView": 100.0,
      "PercentSampling": 100.0,
      "PerformedProcedureStepStartTime": "092514.259000",
      "PhotometricInterpretation": "MONOCHROME2",
      "PixelBandwidth": 2315.0,
      "PixelRepresentation": 0,
      "PixelSpacing": [3.0, 3.0],
      "ProtocolName": "func-bold_fa-77",
      "RepetitionTime": 2000.0,
      "Rows": 480,
      "SAR": 0.04374506440921,
      "SamplesPerPixel": 1,
      "ScanOptions": "FS",
      "ScanningSequence": "EP",
      "SequenceName": "*epfid2d1_80",
      "SequenceVariant": "SK",
      "SeriesDescription": "func-bold_fa-77",
      "SeriesNumber": 8,
      "SeriesTime": "094115.143000",
      "SliceLocation": -54.395881358635,
      "SliceThickness": 3.5,
      "SmallestImagePixelValue": 0,
      "SoftwareVersions": "syngo MR E11",
      "SpacingBetweenSlices": 3.9899999818601,
      "SpecificCharacterSet": "ISO_IR 100",
      "StudyID": "23",
      "StudyTime": "092514.217000",
      "TransmitCoilName": "Body",
      "VariableFlipAngleFlag": "N",
      "WindowCenterWidthExplanation": "Algo1",
      "dBdt": 0.0},
    "slices": {}
  },
  "time": {
    "samples": {
      "AcquisitionNumber": [1, 2, 3, 4, 5, 6, 7, 8, 9, 10, 11, 12, 13, 14, 15, 16, 17, 18, 19, 20, 21, 22, 23, 24, 25, 26, 27, 28, 29, 30, 31, 32, 33, 34, 35, 36, 37, 38, 39, 40, 41, 42, 43, 44, 45, 46, 47, 48, 49, 50, 51, 52, 53, 54, 55, 56, 57, 58, 59, 60, 61, 62, 63, 64, 65, 66, 67, 68, 69, 70, 71, 72, 73, 74, 75, 76, 77, 78, 79, 80, 81, 82, 83, 84, 85, 86, 87, 88, 89, 90, 91, 92, 93, 94, 95, 96, 97, 98, 99, 100, 101, 102, 103, 104, 105, 106, 107, 108, 109, 110, 111, 112, 113, 114, 115, 116, 117, 118, 119, 120, 121, 122, 123, 124, 125, 126, 127, 128, 129, 130, 131, 132, 133, 134, 135, 136, 137, 138, 139, 140, 141, 142, 143, 144, 145, 146, 147, 148, 149, 150, 151, 152, 153, 154, 155, 156, 157, 158, 159, 160, 161, 162, 163, 164, 165, 166, 167, 168, 169, 170, 171, 172, 173, 174, 175, 176, 177, 178, 179, 180, 181, 182, 183, 184, 185, 186, 187, 188, 189, 190, 191, 192, 193, 194, 195, 196, 197, 198, 199, 200],
      "AcquisitionTime": ["094025.505000", "094027.505000", "094029.505000", "094031.505000", "094033.505000", "094035.505000", "094037.505000", "094039.505000", "094041.505000", "094043.505000", "094045.505000", "094047.505000", "094049.505000", "094051.505000", "094053.505000", "094055.505000", "094057.505000", "094059.505000", "094101.505000", "094103.505000", "094105.505000", "094107.505000", "094109.505000", "094111.505000", "094113.505000", "094115.505000", "094117.505000", "094119.505000", "094121.505000", "094123.505000", "094125.505000", "094127.505000", "094129.505000", "094131.505000", "094133.505000", "094135.505000", "094137.505000", "094139.505000", "094141.505000", "094143.505000", "094145.505000", "094147.505000", "094149.505000", "094151.505000", "094153.505000", "094155.505000", "094157.505000", "094159.505000", "094201.505000", "094203.505000", "094205.505000", "094207.505000", "094209.505000", "094211.505000", "094213.505000", "094215.505000", "094217.505000", "094219.505000", "094221.505000", "094223.505000", "094225.505000", "094227.505000", "094229.505000", "094231.505000", "094233.505000", "094235.505000", "094237.505000", "094239.505000", "094241.505000", "094243.505000", "094245.505000", "094247.505000", "094249.505000", "094251.505000", "094253.505000", "094255.505000", "094257.505000", "094259.505000", "094301.505000", "094303.505000", "094305.505000", "094307.505000", "094309.505000", "094311.505000", "094313.505000", "094315.505000", "094317.505000", "094319.505000", "094321.505000", "094323.505000", "094325.505000", "094327.505000", "094329.505000", "094331.505000", "094333.505000", "094335.505000", "094337.505000", "094339.505000", "094341.505000", "094343.505000", "094345.505000", "094347.505000", "094349.505000", "094351.505000", "094353.505000", "094355.505000", "094357.505000", "094359.505000", "094401.505000", "094403.505000", "094405.505000", "094407.505000", "094409.505000", "094411.505000", "094413.505000", "094415.505000", "094417.505000", "094419.505000", "094421.505000", "094423.505000", "094425.505000", "094427.505000", "094429.505000", "094431.505000", "094433.505000", "094435.505000", "094437.505000", "094439.505000", "094441.505000", "094443.505000", "094445.505000", "094447.505000", "094449.505000", "094451.505000", "094453.505000", "094455.505000", "094457.505000", "094459.505000", "094501.505000", "094503.505000", "094505.505000", "094507.505000", "094509.505000", "094511.505000", "094513.505000", "094515.505000", "094517.505000", "094519.505000", "094521.505000", "094523.505000", "094525.505000", "094527.505000", "094529.505000", "094531.505000", "094533.505000", "094535.505000", "094537.505000", "094539.505000", "094541.505000", "094543.505000", "094545.505000", "094547.505000", "094549.505000", "094551.505000", "094553.505000", "094555.505000", "094557.505000", "094559.505000", "094601.505000", "094603.505000", "094605.505000", "094607.505000", "094609.505000", "094611.505000", "094613.505000", "094615.505000", "094617.505000", "094619.505000", "094621.505000", "094623.505000", "094625.505000", "094627.505000", "094629.505000", "094631.505000", "094633.505000", "094635.505000", "094637.505000", "094639.505000", "094641.505000", "094643.505000", "094645.505000", "094647.505000", "094649.505000", "094651.505000", "094653.505000", "094655.505000", "094657.505000", "094659.505000", "094701.505000", "094703.505000"],
      "ContentTime": ["094115.146000", "094115.150000", "094115.152000", "094115.166000", "094115.168000", "094115.178000", "094115.180000", "094115.183000", "094115.185000", "094115.188000", "094115.191000", "094115.193000", "094115.196000", "094115.198000", "094115.201000", "094115.204000", "094115.206000", "094115.209000", "094115.211000", "094115.214000", "094115.216000", "094115.219000", "094115.222000", "094115.224000", "094115.227000", "094155.141000", "094155.144000", "094155.147000", "094155.158000", "094155.160000", "094155.163000", "094155.165000", "094155.168000", "094155.171000", "094155.173000", "094155.176000", "094155.178000", "094155.181000", "094155.183000", "094155.186000", "094155.189000", "094155.191000", "094155.194000", "094155.196000", "094155.199000", "094235.141000", "094235.144000", "094235.147000", "094235.158000", "094235.160000", "094235.163000", "094235.165000", "094235.168000", "094235.171000", "094235.173000", "094235.176000", "094235.178000", "094235.181000", "094235.184000", "094235.186000", "094235.189000", "094235.191000", "094235.194000", "094235.196000", "094235.199000", "094315.141000", "094315.144000", "094315.147000", "094315.149000", "094315.152000", "094315.155000", "094315.157000", "094315.160000", "094315.162000", "094315.165000", "094315.167000", "094315.170000", "094315.172000", "094315.175000", "094315.177000", "094315.180000", "094315.183000", "094315.185000", "094315.204000", "094315.207000", "094355.141000", "094355.144000", "094355.147000", "094355.150000", "094355.152000", "094355.155000", "094355.157000", "094355.160000", "094355.163000", "094355.165000", "094355.168000", "094355.170000", "094355.173000", "094355.176000", "094355.178000", "094355.181000", "094355.183000", "094355.186000", "094355.188000", "094355.191000", "094435.141000", "094435.144000", "094435.147000", "094435.150000", "094435.152000", "094435.155000", "094435.157000", "094435.160000", "094435.163000", "094435.165000", "094435.168000", "094435.170000", "094435.173000", "094435.176000", "094435.178000", "094435.181000", "094435.183000", "094435.186000", "094435.188000", "094435.191000", "094535.142000", "094535.145000", "094535.147000", "094535.150000", "094535.153000", "094535.155000", "094535.158000", "094535.161000", "094535.163000", "094535.166000", "094535.168000", "094535.171000", "094535.174000", "094535.176000", "094535.179000", "094535.181000", "094535.184000", "094535.186000", "094535.189000", "094535.192000", "094535.194000", "094535.197000", "094535.199000", "094535.202000", "094535.205000", "094535.207000", "094535.210000", "094535.213000", "094535.215000", "094535.218000", "094615.142000", "094615.144000", "094615.147000", "094615.150000", "094615.152000", "094615.155000", "094615.158000", "094615.160000", "094615.163000", "094615.165000", "094615.168000", "094615.170000", "094615.173000", "094615.175000", "094615.178000", "094615.181000", "094615.183000", "094615.186000", "094615.188000", "094615.191000", "094655.142000", "094655.144000", "094655.147000", "094655.150000", "094655.152000", "094655.155000", "094655.158000", "094655.160000", "094655.163000", "094655.165000", "094655.168000", "094655.171000", "094655.173000", "094655.176000", "094655.178000", "094655.181000", "094655.184000", "094655.186000", "094655.189000", "094655.192000", "094705.125000", "094705.128000", "094705.131000", "094705.144000", "094705.146000"],
      "InstanceCreationTime": ["094115.146000", "094115.150000", "094115.152000", "094115.166000", "094115.168000", "094115.178000", "094115.180000", "094115.183000", "094115.185000", "094115.188000", "094115.191000", "094115.193000", "094115.196000", "094115.198000", "094115.201000", "094115.204000", "094115.206000", "094115.209000", "094115.211000", "094115.214000", "094115.216000", "094115.219000", "094115.222000", "094115.224000", "094115.227000", "094155.141000", "094155.144000", "094155.147000", "094155.158000", "094155.160000", "094155.163000", "094155.165000", "094155.168000", "094155.171000", "094155.173000", "094155.176000", "094155.178000", "094155.181000", "094155.183000", "094155.186000", "094155.189000", "094155.191000", "094155.194000", "094155.196000", "094155.199000", "094235.141000", "094235.144000", "094235.147000", "094235.158000", "094235.160000", "094235.163000", "094235.165000", "094235.168000", "094235.171000", "094235.173000", "094235.176000", "094235.178000", "094235.181000", "094235.184000", "094235.186000", "094235.189000", "094235.191000", "094235.194000", "094235.196000", "094235.199000", "094315.141000", "094315.144000", "094315.147000", "094315.149000", "094315.152000", "094315.155000", "094315.157000", "094315.160000", "094315.162000", "094315.165000", "094315.167000", "094315.170000", "094315.172000", "094315.175000", "094315.177000", "094315.180000", "094315.183000", "094315.185000", "094315.204000", "094315.207000", "094355.141000", "094355.144000", "094355.147000", "094355.150000", "094355.152000", "094355.155000", "094355.157000", "094355.160000", "094355.163000", "094355.165000", "094355.168000", "094355.170000", "094355.173000", "094355.176000", "094355.178000", "094355.181000", "094355.183000", "094355.186000", "094355.188000", "094355.191000", "094435.141000", "094435.144000", "094435.147000", "094435.150000", "094435.152000", "094435.155000", "094435.157000", "094435.160000", "094435.163000", "094435.165000", "094435.168000", "094435.170000", "094435.173000", "094435.176000", "094435.178000", "094435.181000", "094435.183000", "094435.186000", "094435.188000", "094435.191000", "094535.142000", "094535.145000", "094535.147000", "094535.150000", "094535.153000", "094535.155000", "094535.158000", "094535.161000", "094535.163000", "094535.166000", "094535.168000", "094535.171000", "094535.174000", "094535.176000", "094535.179000", "094535.181000", "094535.184000", "094535.186000", "094535.189000", "094535.192000", "094535.194000", "094535.197000", "094535.199000", "094535.202000", "094535.205000", "094535.207000", "094535.210000", "094535.213000", "094535.215000", "094535.218000", "094615.142000", "094615.144000", "094615.147000", "094615.150000", "094615.152000", "094615.155000", "094615.158000", "094615.160000", "094615.163000", "094615.165000", "094615.168000", "094615.170000", "094615.173000", "094615.175000", "094615.178000", "094615.181000", "094615.183000", "094615.186000", "094615.188000", "094615.191000", "094655.142000", "094655.144000", "094655.147000", "094655.150000", "094655.152000", "094655.155000", "094655.158000", "094655.160000", "094655.163000", "094655.165000", "094655.168000", "094655.171000", "094655.173000", "094655.176000", "094655.178000", "094655.181000", "094655.184000", "094655.186000", "094655.189000", "094655.192000", "094705.125000", "094705.128000", "094705.131000", "094705.144000", "094705.146000"],
      "InstanceNumber": [1, 2, 3, 4, 5, 6, 7, 8, 9, 10, 11, 12, 13, 14, 15, 16, 17, 18, 19, 20, 21, 22, 23, 24, 25, 26, 27, 28, 29, 30, 31, 32, 33, 34, 35, 36, 37, 38, 39, 40, 41, 42, 43, 44, 45, 46, 47, 48, 49, 50, 51, 52, 53, 54, 55, 56, 57, 58, 59, 60, 61, 62, 63, 64, 65, 66, 67, 68, 69, 70, 71, 72, 73, 74, 75, 76, 77, 78, 79, 80, 81, 82, 83, 84, 85, 86, 87, 88, 89, 90, 91, 92, 93, 94, 95, 96, 97, 98, 99, 100, 101, 102, 103, 104, 105, 106, 107, 108, 109, 110, 111, 112, 113, 114, 115, 116, 117, 118, 119, 120, 121, 122, 123, 124, 125, 126, 127, 128, 129, 130, 131, 132, 133, 134, 135, 136, 137, 138, 139, 140, 141, 142, 143, 144, 145, 146, 147, 148, 149, 150, 151, 152, 153, 154, 155, 156, 157, 158, 159, 160, 161, 162, 163, 164, 165, 166, 167, 168, 169, 170, 171, 172, 173, 174, 175, 176, 177, 178, 179, 180, 181, 182, 183, 184, 185, 186, 187, 188, 189, 190, 191, 192, 193, 194, 195, 196, 197, 198, 199, 200],
      "LargestImagePixelValue": [1984, 1983, 1982, 1985, 1984, 1984, 1984, 1983, 1983, 1987, 1986, 1984, 1985, 1986, 1984, 1985, 1988, 1984, 1984, 1985, 1985, 1985, 1985, 1984, 1983, 1983, 1982, 1983, 1982, 1983, 1983, 1985, 1982, 1985, 1985, 1982, 1986, 1984, 1983, 1984, 1984, 1981, 1986, 1981, 1981, 1982, 1982, 1982, 1982, 1981, 1982, 1983, 1984, 1983, 1981, 1982, 1982, 1982, 1981, 1982, 1980, 1983, 1982, 1979, 1980, 1981, 1980, 1982, 1982, 1980, 1978, 1981, 1980, 1980, 1981, 1981, 1983, 1979, 1980, 1983, 1981, 1979, 1982, 1982, 1981, 1982, 1981, 1982, 1982, 1982, 1981, 1982, 1983, 1982, 1982, 1981, 1980, 1982, 1983, 1980, 1981, 1981, 1982, 1981, 1982, 1980, 1980, 1980, 1980, 1978, 1979, 1979, 1982, 1980, 1981, 1980, 1979, 1978, 1982, 1981, 1980, 1981, 1980, 1980, 1979, 1980, 1981, 1978, 1980, 1982, 1982, 1981, 1983, 1982, 1980, 1982, 1983, 1980, 1980, 1979, 1980, 1981, 1980, 1981, 1980, 1982, 1982, 1976, 1981, 1980, 1978, 1980, 1978, 1979, 1979, 1978, 1979, 1978, 1980, 1981, 1981, 1979, 1981, 1980, 1978, 1979, 1980, 1978, 1978, 1979, 1979, 1980, 1981, 1979, 1982, 1982, 1980, 1981, 1979, 1979, 1980, 1979, 1980, 1980, 1980, 1980, 1979, 1979, 1979, 1980, 1980, 1980, 1980, 1979, 1981, 1980, 1979, 1980, 1979, 1979],
      "WindowCenter": [979.0, 979.0, 978.0, 978.0, 978.0, 977.0, 978.0, 978.0, 978.0, 978.0, 977.0, 978.0, 978.0, 977.0, 977.0, 978.0, 978.0, 977.0, 978.0, 977.0, 978.0, 978.0, 977.0, 977.0, 978.0, 978.0, 976.0, 977.0, 978.0, 976.0, 977.0, 978.0, 978.0, 978.0, 976.0, 978.0, 978.0, 977.0, 978.0, 978.0, 977.0, 976.0, 976.0, 978.0, 976.0, 978.0, 976.0, 978.0, 975.0, 978.0, 978.0, 978.0, 977.0, 976.0, 978.0, 977.0, 978.0, 977.0, 977.0, 977.0, 976.0, 977.0, 977.0, 975.0, 977.0, 977.0, 976.0, 977.0, 977.0, 976.0, 977.0, 977.0, 977.0, 977.0, 976.0, 977.0, 977.0, 977.0, 977.0, 974.0, 977.0, 977.0, 977.0, 977.0, 977.0, 976.0, 977.0, 977.0, 976.0, 976.0, 977.0, 977.0, 976.0, 976.0, 977.0, 977.0, 977.0, 977.0, 977.0, 977.0, 977.0, 976.0, 977.0, 977.0, 977.0, 976.0, 975.0, 975.0, 976.0, 976.0, 977.0, 977.0, 977.0, 976.0, 977.0, 977.0, 977.0, 977.0, 977.0, 977.0, 975.0, 976.0, 978.0, 977.0, 976.0, 974.0, 977.0, 977.0, 975.0, 977.0, 977.0, 977.0, 977.0, 975.0, 975.0, 977.0, 977.0, 975.0, 977.0, 976.0, 975.0, 977.0, 977.0, 977.0, 976.0, 977.0, 977.0, 977.0, 977.0, 977.0, 975.0, 977.0, 977.0, 976.0, 977.0, 977.0, 977.0, 977.0, 977.0, 977.0, 977.0, 977.0, 976.0, 977.0, 975.0, 977.0, 977.0, 977.0, 977.0, 977.0, 977.0, 977.0, 977.0, 977.0, 977.0, 977.0, 977.0, 976.0, 977.0, 977.0, 975.0, 976.0, 976.0, 977.0, 976.0, 977.0, 977.0, 976.0, 975.0, 977.0, 977.0, 977.0, 977.0, 975.0, 977.0, 975.0, 975.0, 977.0, 977.0, 977.0],
      "WindowWidth": [2144.0, 2144.0, 2144.0, 2144.0, 2144.0, 2142.0, 2144.0, 2143.0, 2144.0, 2144.0, 2142.0, 2143.0, 2143.0, 2142.0, 2142.0, 2143.0, 2143.0, 2142.0, 2143.0, 2142.0, 2143.0, 2143.0, 2142.0, 2142.0, 2143.0, 2143.0, 2141.0, 2143.0, 2143.0, 2142.0, 2142.0, 2143.0, 2143.0, 2143.0, 2141.0, 2142.0, 2142.0, 2141.0, 2142.0, 2142.0, 2141.0, 2141.0, 2141.0, 2142.0, 2141.0, 2142.0, 2141.0, 2142.0, 2140.0, 2142.0, 2142.0, 2142.0, 2141.0, 2140.0, 2141.0, 2142.0, 2141.0, 2141.0, 2142.0, 2142.0, 2140.0, 2142.0, 2141.0, 2140.0, 2141.0, 2141.0, 2140.0, 2142.0, 2141.0, 2140.0, 2141.0, 2141.0, 2141.0, 2141.0, 2141.0, 2141.0, 2142.0, 2141.0, 2141.0, 2138.0, 2141.0, 2141.0, 2141.0, 2141.0, 2141.0, 2140.0, 2141.0, 2141.0, 2140.0, 2140.0, 2141.0, 2141.0, 2140.0, 2140.0, 2141.0, 2141.0, 2141.0, 2141.0, 2141.0, 2141.0, 2141.0, 2140.0, 2141.0, 2141.0, 2141.0, 2140.0, 2139.0, 2139.0, 2139.0, 2140.0, 2141.0, 2141.0, 2141.0, 2140.0, 2141.0, 2141.0, 2141.0, 2141.0, 2141.0, 2141.0, 2139.0, 2140.0, 2141.0, 2141.0, 2140.0, 2138.0, 2141.0, 2141.0, 2139.0, 2141.0, 2141.0, 2141.0, 2141.0, 2139.0, 2139.0, 2141.0, 2141.0, 2139.0, 2141.0, 2140.0, 2139.0, 2141.0, 2141.0, 2141.0, 2140.0, 2141.0, 2141.0, 2140.0, 2140.0, 2140.0, 2139.0, 2141.0, 2141.0, 2140.0, 2140.0, 2140.0, 2140.0, 2140.0, 2140.0, 2140.0, 2140.0, 2140.0, 2140.0, 2140.0, 2139.0, 2140.0, 2140.0, 2140.0, 2140.0, 2140.0, 2140.0, 2140.0, 2140.0, 2140.0, 2140.0, 2140.0, 2140.0, 2140.0, 2140.0, 2140.0, 2138.0, 2140.0, 2140.0, 2140.0, 2139.0, 2140.0, 2140.0, 2139.0, 2139.0, 2140.0, 2140.0, 2140.0, 2140.0, 2138.0, 2140.0, 2138.0, 2138.0, 2140.0, 2140.0, 2140.0]
    },
    "slices": {}
  }
}