{
  "AcquisitionMatrixPE": 122,
  "AcquisitionNumber": 1,
  "AcquisitionTime": "09:34:51.180000",
  "BandwidthPerPixelPhaseEncode": 28.76,
  "BaseResolution": 122,
  "BodyPartExamined": "BRAIN",
  "CoilCombinationMethod": "Adaptive Combine",
  "ConsistencyInfo": "N4_VE11C_LATEST_20160120",
  "ConversionSoftware": "dcm2niix",
  "ConversionSoftwareVersion": "v1.0.20220720",
  "DerivedVendorReportedEchoSpacing": 0.000570008,
  "DeviceSerialNumber": "66112",
  "DiffusionScheme": "Monopolar",
  "DwellTime": 2e-06,
  "EchoTime": 0.075,
  "EchoTrainLength": 61,
  "EffectiveEchoSpacing": 0.000285004,
  "FlipAngle": 90,
  "HeudiconvVersion": "0.13.1",
  "ImageOrientationPatientDICOM": [0.981973, -0.189016, 0.00161119, 0.179517, 0.935227, 0.305161],
  "ImageOrientationText": "Tra>Cor(17.5)>Sag(3.4)",
  "ImageType": [
    "ORIGINAL",
    "PRIMARY",
    "DIFFUSION",
    "NONE",
    "ND",
    "NORM"
],
  "ImagingFrequency": 123.252,
  "InPlanePhaseEncodingDirectionDICOM": "COL",
  "InstitutionAddress": "Maynard 3,Hanover,NH,US,03755",
  "InstitutionName": "Dartmouth College - PBS",
  "InstitutionalDepartmentName": "Department",
  "MRAcquisitionType": "2D",
  "MagneticFieldStrength": 3,
  "Manufacturer": "Siemens",
  "ManufacturersModelName": "Prisma",
  "MatrixCoilMode": "GRAPPA",
  "Modality": "MR",
  "NonlinearGradientCorrection": false,
  "ParallelReductionFactorInPlane": 2,
  "PartialFourier": 1,
  "PatientPosition": "HFS",
  "PercentPhaseFOV": 100,
  "PercentSampling": 100,
  "PhaseEncodingDirection": "j-",
  "PhaseEncodingSteps": 122,
  "PhaseResolution": 1,
  "PixelBandwidth": 2050,
  "ProcedureStepDescription": "dbic^QA",
  "ProtocolName": "dwi_acq-DTI-30-p2",
  "PulseSequenceDetails": "%SiemensSeq%\\ep2d_diff",
  "ReceiveCoilActiveElements": "HEA;HEP",
  "ReceiveCoilName": "Head_32",
  "ReconMatrixPE": 122,
  "RefLinesPE": 38,
  "RepetitionTime": 7.7,
  "SAR": 0.101549,
  "ScanOptions": "FS",
  "ScanningSequence": "EP",
  "SequenceName": "*ep_b0",
  "SequenceVariant": "SK\\SP",
  "SeriesDescription": "dwi_acq-DTI-30-p2",
  "SeriesNumber": 8,
  "ShimSetting": [4146, -7696, -7507, 326, -82, -136, -49, 94],
  "SliceThickness": 2,
  "SliceTiming": [3.83594, 0, 3.94531, 0.10938, 4.05469, 0.21875, 4.16406, 0.32812, 4.27344, 0.4375, 4.38281, 0.54688, 4.49219, 0.65625, 4.60156, 0.76562, 4.71094, 0.875, 4.82031, 0.98438, 4.9375, 1.09375, 5.04688, 1.20312, 5.15625, 1.3125, 5.26562, 1.42188, 5.375, 1.53125, 5.48438, 1.64062, 5.59375, 1.75, 5.70312, 1.85938, 5.8125, 1.96875, 5.92188, 2.07812, 6.03125, 2.1875, 6.14062, 2.30469, 6.25, 2.41406, 6.35938, 2.51562, 6.46875, 2.625, 6.57812, 2.74219, 6.6875, 2.85156, 6.79688, 2.96094, 6.90625, 3.07031, 7.01562, 3.17969, 7.125, 3.28906, 7.23438, 3.39844, 7.34375, 3.50781, 7.45312, 3.61719, 7.5625, 3.72656],
  "SoftwareVersions": "syngo MR E11",
  "SpacingBetweenSlices": 2,
  "SpoilingState": true,
  "StationName": "AWP66112",
  "TotalReadoutTime": 0.0344855,
  "TxRefAmp": 235.016,
  "dcmmeta_affine": [
    [-1.931749701499939, 0.3531486690044403, 0.11837416887283325, 88.56233215332031],
    [0.37183427810668945, 1.8397915363311768, 0.5987415313720703, -148.50039672851562],
    [0.003169555449858308, -0.6003170609474182, 1.9045982360839844, -33.40809631347656],
    [0.0, 0.0, 0.0, 1.0]
],
  "dcmmeta_reorient_transform": [
    [0.0, -1.0, 0.0, 121.0],
    [1.0, 0.0, 0.0, 0.0],
    [0.0, 0.0, -1.0, 69.0],
    [0.0, 0.0, 0.0, 1.0]
],
  "dcmmeta_shape": [122, 122, 70, 31],
  "dcmmeta_slice_dim": 2,
  "dcmmeta_version": 0.6,
  "global": {
    "const": {
      "AccessionNumber": "qa",
      "AcquisitionMatrix": [122, 0, 0, 122],
      "AngioFlag": "N",
      "BitsAllocated": 16,
      "BitsStored": 12,
      "BodyPartExamined": "BRAIN",
      "Columns": 122,
      "EchoNumbers": 1,
      "EchoTime": 75.0,
      "EchoTrainLength": 61,
      "FlipAngle": 90.0,
      "HighBit": 11,
      "ImageOrientationPatient": [0.98197273283249, -0.1890157560578, 0.00161119067166, 0.17951723976521, 0.93522736429424, 0.30516116676656],
      "ImageType": [
        "ORIGINAL",
        "PRIMARY",
        "DIFFUSION",
        "NONE",
        "ND",
        "NORM"
],
      "ImagedNucleus": "1H",
      "ImagingFrequency": 123.252469,
      "InPlanePhaseEncodingDirection": "COL",
      "MRAcquisitionType": "2D",
      "MagneticFieldStrength": 3.0,
      "Manufacturer": "SIEMENS",
      "ManufacturerModelName": "Prisma",
      "Modality": "MR",
      "NumberOfAverages": 1.0,
      "NumberOfPhaseEncodingSteps": 122,
      "PercentPhaseFieldOfView": 100.0,
      "PercentSampling": 100.0,
      "PerformedProcedureStepStartTime": "091620.721000",
      "PhotometricInterpretation": "MONOCHROME2",
      "PixelBandwidth": 2050.0,
      "PixelRepresentation": 0,
      "PixelSpacing": [1.9672131538391, 1.9672131538391],
      "ProtocolName": "dwi_acq-DTI-30-p2",
      "RepetitionTime": 7700.0,
      "Rows": 122,
      "SAR": 0.10154948882972,
      "SamplesPerPixel": 1,
      "ScanOptions": "FS",
      "ScanningSequence": "EP",
      "SequenceVariant": [
        "SK",
        "SP"
],
      "SeriesDescription": "dwi_acq-DTI-30-p2",
      "SeriesNumber": 8,
      "SeriesTime": "093502.306000",
      "SliceThickness": 2.0,
      "SmallestImagePixelValue": 0,
      "SoftwareVersions": "syngo MR E11",
      "SpacingBetweenSlices": 2.0,
      "SpecificCharacterSet": "ISO_IR 100",
      "StudyID": "61",
      "StudyTime": "091620.638000",
      "TransmitCoilName": "Body",
      "VariableFlipAngleFlag": "N",
      "WindowCenterWidthExplanation": "Algo1",
      "dBdt": 0.0},
    "slices": {
      "AcquisitionTime": ["093451.180000", "093447.340000", "093451.290000", "093447.450000", "093451.400000", "093447.560000", "093451.510000", "093447.670000", "093451.620000", "093447.780000", "093451.727500", "093447.890000", "093451.837500", "093447.997500", "093451.947500", "093448.107500", "093452.057500", "093448.217500", "093452.167500", "093448.327500", "093452.277500", "093448.437500", "093452.387500", "093448.547500", "093452.497500", "093448.657500", "093452.607500", "093448.767500", "093452.715000", "093448.875000", "093452.825000", "093448.985000", "093452.935000", "093449.095000", "093453.045000", "093449.205000", "093453.155000", "093449.315000", "093453.265000", "093449.425000", "093453.375000", "093449.535000", "093453.485000", "093449.645000", "093453.592500", "093449.755000", "093453.702500", "093449.862500", "093453.812500", "093449.972500", "093453.922500", "093450.082500", "093454.032500", "093450.192500", "093454.142500", "093450.302500", "093454.252500", "093450.412500", "093454.362500", "093450.522500", "093454.472500", "093450.632500", "093454.580000", "093450.742500", "093454.690000", "093450.850000", "093454.800000", "093450.960000", "093454.910000", "093451.070000", "093458.880000", "093455.040000", "093458.990000", "093455.150000", "093459.100000", "093455.260000", "093459.210000", "093455.370000", "093459.320000", "093455.480000", "093459.427500", "093455.590000", "093459.537500", "093455.697500", "093459.647500", "093455.807500", "093459.757500", "093455.917500", "093459.867500", "093456.027500", "093459.977500", "093456.137500", "093500.087500", "093456.247500", "093500.197500", "093456.357500", "093500.307500", "093456.467500", "093500.415000", "093456.575000", "093500.525000", "093456.685000", "093500.635000", "093456.795000", "093500.745000", "093456.905000", "093500.855000", "093457.015000", "093500.965000", "093457.125000", "093501.075000", "093457.235000", "093501.185000", "093457.345000", "093501.292500", "093457.455000", "093501.402500", "093457.562500", "093501.512500", "093457.672500", "093501.622500", "093457.782500", "093501.732500", "093457.892500", "093501.842500", "093458.002500", "093501.952500", "093458.112500", "093502.062500", "093458.222500", "093502.172500", "093458.332500", "093502.280000", "093458.442500", "093502.390000", "093458.550000", "093502.500000", "093458.660000", "093502.610000", "093458.770000", "093506.580000", "093502.740000", "093506.690000", "093502.850000", "093506.800000", "093502.960000", "093506.910000", "093503.070000", "093507.020000", "093503.180000", "093507.127500", "093503.290000", "093507.237500", "093503.397500", "093507.347500", "093503.507500", "093507.457500", "093503.617500", "093507.567500", "093503.727500", "093507.677500", "093503.837500", "093507.787500", "093503.947500", "093507.897500", "093504.057500", "093508.007500", "093504.167500", "093508.115000", "093504.275000", "093508.225000", "093504.385000", "093508.335000", "093504.495000", "093508.445000", "093504.605000", "093508.555000", "093504.715000", "093508.665000", "093504.825000", "093508.775000", "093504.935000", "093508.885000", "093505.045000", "093508.992500", "093505.155000", "093509.102500", "093505.262500", "093509.212500", "093505.372500", "093509.322500", "093505.482500", "093509.432500", "093505.592500", "093509.542500", "093505.702500", "093509.652500", "093505.812500", "093509.762500", "093505.922500", "093509.872500", "093506.032500", "093509.980000", "093506.142500", "093510.090000", "093506.250000", "093510.200000", "093506.360000", "093510.310000", "093506.470000", "093514.280000", "093510.440000", "093514.390000", "093510.550000", "093514.500000", "093510.660000", "093514.610000", "093510.770000", "093514.720000", "093510.880000", "093514.827500", "093510.990000", "093514.937500", "093511.097500", "093515.047500", "093511.207500", "093515.157500", "093511.317500", "093515.267500", "093511.427500", "093515.377500", "093511.537500", "093515.487500", "093511.647500", "093515.597500", "093511.757500", "093515.707500", "093511.867500", "093515.815000", "093511.975000", "093515.925000", "093512.085000", "093516.035000", "093512.195000", "093516.145000", "093512.305000", "093516.255000", "093512.415000", "093516.365000", "093512.525000", "093516.475000", "093512.635000", "093516.585000", "093512.745000", "093516.692500", "093512.855000", "093516.802500", "093512.962500", "093516.912500", "093513.072500", "093517.022500", "093513.182500", "093517.132500", "093513.292500", "093517.242500", "093513.402500", "093517.352500", "093513.512500", "093517.462500", "093513.622500", "093517.572500", "093513.732500", "093517.680000", "093513.842500", "093517.790000", "093513.950000", "093517.900000", "093514.060000", "093518.010000", "093514.170000", "093521.980000", "093518.140000", "093522.090000", "093518.250000", "093522.200000", "093518.360000", "093522.310000", "093518.470000", "093522.420000", "093518.580000", "093522.527500", "093518.690000", "093522.637500", "093518.797500", "093522.747500", "093518.907500", "093522.857500", "093519.017500", "093522.967500", "093519.127500", "093523.077500", "093519.237500", "093523.187500", "093519.347500", "093523.297500", "093519.457500", "093523.407500", "093519.567500", "093523.515000", "093519.675000", "093523.625000", "093519.785000", "093523.735000", "093519.895000", "093523.845000", "093520.005000", "093523.955000", "093520.115000", "093524.065000", "093520.225000", "093524.175000", "093520.335000", "093524.285000", "093520.445000", "093524.392500", "093520.555000", "093524.502500", "093520.662500", "093524.612500", "093520.772500", "093524.722500", "093520.882500", "093524.832500", "093520.992500", "093524.942500", "093521.102500", "093525.052500", "093521.212500", "093525.162500", "093521.322500", "093525.272500", "093521.432500", "093525.380000", "093521.542500", "093525.490000", "093521.650000", "093525.600000", "093521.760000", "093525.710000", "093521.870000", "093529.680000", "093525.840000", "093529.790000", "093525.950000", "093529.900000", "093526.060000", "093530.010000", "093526.170000", "093530.120000", "093526.280000", "093530.227500", "093526.390000", "093530.337500", "093526.497500", "093530.447500", "093526.607500", "093530.557500", "093526.717500", "093530.667500", "093526.827500", "093530.777500", "093526.937500", "093530.887500", "093527.047500", "093530.997500", "093527.157500", "093531.107500", "093527.267500", "093531.215000", "093527.375000", "093531.325000", "093527.485000", "093531.435000", "093527.595000", "093531.545000", "093527.705000", "093531.655000", "093527.815000", "093531.765000", "093527.925000", "093531.875000", "093528.035000", "093531.985000", "093528.145000", "093532.092500", "093528.255000", "093532.202500", "093528.362500", "093532.312500", "093528.472500", "093532.422500", "093528.582500", "093532.532500", "093528.692500", "093532.642500", "093528.802500", "093532.752500", "093528.912500", "093532.862500", "093529.022500", "093532.972500", "093529.132500", "093533.080000", "093529.242500", "093533.190000", "093529.350000", "093533.300000", "093529.460000", "093533.410000", "093529.570000", "093537.380000", "093533.540000", "093537.490000", "093533.650000", "093537.600000", "093533.760000", "093537.710000", "093533.870000", "093537.820000", "093533.980000", "093537.927500", "093534.090000", "093538.037500", "093534.197500", "093538.147500", "093534.307500", "093538.257500", "093534.417500", "093538.367500", "093534.527500", "093538.477500", "093534.637500", "093538.587500", "093534.747500", "093538.697500", "093534.857500", "093538.807500", "093534.967500", "093538.915000", "093535.075000", "093539.025000", "093535.185000", "093539.135000", "093535.295000", "093539.245000", "093535.405000", "093539.355000", "093535.515000", "093539.465000", "093535.625000", "093539.575000", "093535.735000", "093539.685000", "093535.845000", "093539.792500", "093535.955000", "093539.902500", "093536.062500", "093540.012500", "093536.172500", "093540.122500", "093536.282500", "093540.232500", "093536.392500", "093540.342500", "093536.502500", "093540.452500", "093536.612500", "093540.562500", "093536.722500", "093540.672500", "093536.832500", "093540.780000", "093536.942500", "093540.890000", "093537.050000", "093541.000000", "093537.160000", "093541.110000", "093537.270000", "093545.080000", "093541.240000", "093545.190000", "093541.350000", "093545.300000", "093541.460000", "093545.410000", "093541.570000", "093545.520000", "093541.680000", "093545.627500", "093541.790000", "093545.737500", "093541.897500", "093545.847500", "093542.007500", "093545.957500", "093542.117500", "093546.067500", "093542.227500", "093546.177500", "093542.337500", "093546.287500", "093542.447500", "093546.397500", "093542.557500", "093546.507500", "093542.667500", "093546.615000", "093542.775000", "093546.725000", "093542.885000", "093546.835000", "093542.995000", "093546.945000", "093543.105000", "093547.055000", "093543.215000", "093547.165000", "093543.325000", "093547.275000", "093543.435000", "093547.385000", "093543.545000", "093547.492500", "093543.655000", "093547.602500", "093543.762500", "093547.712500", "093543.872500", "093547.822500", "093543.982500", "093547.932500", "093544.092500", "093548.042500", "093544.202500", "093548.152500", "093544.312500", "093548.262500", "093544.422500", "093548.372500", "093544.532500", "093548.480000", "093544.642500", "093548.590000", "093544.750000", "093548.700000", "093544.860000", "093548.810000", "093544.970000", "093552.780000", "093548.940000", "093552.890000", "093549.050000", "093553.000000", "093549.160000", "093553.110000", "093549.270000", "093553.220000", "093549.380000", "093553.327500", "093549.490000", "093553.437500", "093549.597500", "093553.547500", "093549.707500", "093553.657500", "093549.817500", "093553.767500", "093549.927500", "093553.877500", "093550.037500", "093553.987500", "093550.147500", "093554.097500", "093550.257500", "093554.207500", "093550.367500", "093554.315000", "093550.475000", "093554.425000", "093550.585000", "093554.535000", "093550.695000", "093554.645000", "093550.805000", "093554.755000", "093550.915000", "093554.865000", "093551.025000", "093554.975000", "093551.135000", "093555.085000", "093551.245000", "093555.192500", "093551.355000", "093555.302500", "093551.462500", "093555.412500", "093551.572500", "093555.522500", "093551.682500", "093555.632500", "093551.792500", "093555.742500", "093551.902500", "093555.852500", "093552.012500", "093555.962500", "093552.122500", "093556.072500", "093552.232500", "093556.180000", "093552.342500", "093556.290000", "093552.450000", "093556.400000", "093552.560000", "093556.510000", "093552.670000", "093600.480000", "093556.640000", "093600.590000", "093556.750000", "093600.700000", "093556.860000", "093600.810000", "093556.970000", "093600.920000", "093557.080000", "093601.027500", "093557.190000", "093601.137500", "093557.297500", "093601.247500", "093557.407500", "093601.357500", "093557.517500", "093601.467500", "093557.627500", "093601.577500", "093557.737500", "093601.687500", "093557.847500", "093601.797500", "093557.957500", "093601.907500", "093558.067500", "093602.015000", "093558.175000", "093602.125000", "093558.285000", "093602.235000", "093558.395000", "093602.345000", "093558.505000", "093602.455000", "093558.615000", "093602.565000", "093558.725000", "093602.675000", "093558.835000", "093602.785000", "093558.945000", "093602.892500", "093559.055000", "093603.002500", "093559.162500", "093603.112500", "093559.272500", "093603.222500", "093559.382500", "093603.332500", "093559.492500", "093603.442500", "093559.602500", "093603.552500", "093559.712500", "093603.662500", "093559.822500", "093603.772500", "093559.932500", "093603.880000", "093600.042500", "093603.990000", "093600.150000", "093604.100000", "093600.260000", "093604.210000", "093600.370000", "093608.180000", "093604.340000", "093608.290000", "093604.450000", "093608.400000", "093604.560000", "093608.510000", "093604.670000", "093608.620000", "093604.780000", "093608.727500", "093604.890000", "093608.837500", "093604.997500", "093608.947500", "093605.107500", "093609.057500", "093605.217500", "093609.167500", "093605.327500", "093609.277500", "093605.437500", "093609.387500", "093605.547500", "093609.497500", "093605.657500", "093609.607500", "093605.767500", "093609.715000", "093605.875000", "093609.825000", "093605.985000", "093609.935000", "093606.095000", "093610.045000", "093606.205000", "093610.155000", "093606.315000", "093610.265000", "093606.425000", "093610.375000", "093606.535000", "093610.485000", "093606.645000", "093610.592500", "093606.755000", "093610.702500", "093606.862500", "093610.812500", "093606.972500", "093610.922500", "093607.082500", "093611.032500", "093607.192500", "093611.142500", "093607.302500", "093611.252500", "093607.412500", "093611.362500", "093607.522500", "093611.472500", "093607.632500", "093611.580000", "093607.742500", "093611.690000", "093607.850000", "093611.800000", "093607.960000", "093611.910000", "093608.070000", "093615.880000", "093612.040000", "093615.990000", "093612.150000", "093616.100000", "093612.260000", "093616.210000", "093612.370000", "093616.320000", "093612.480000", "093616.427500", "093612.590000", "093616.537500", "093612.697500", "093616.647500", "093612.807500", "093616.757500", "093612.917500", "093616.867500", "093613.027500", "093616.977500", "093613.137500", "093617.087500", "093613.247500", "093617.197500", "093613.357500", "093617.307500", "093613.467500", "093617.415000", "093613.575000", "093617.525000", "093613.685000", "093617.635000", "093613.795000", "093617.745000", "093613.905000", "093617.855000", "093614.015000", "093617.965000", "093614.125000", "093618.075000", "093614.235000", "093618.185000", "093614.345000", "093618.292500", "093614.455000", "093618.402500", "093614.562500", "093618.512500", "093614.672500", "093618.622500", "093614.782500", "093618.732500", "093614.892500", "093618.842500", "093615.002500", "093618.952500", "093615.112500", "093619.062500", "093615.222500", "093619.172500", "093615.332500", "093619.280000", "093615.442500", "093619.390000", "093615.550000", "093619.500000", "093615.660000", "093619.610000", "093615.770000", "093623.580000", "093619.740000", "093623.690000", "093619.850000", "093623.800000", "093619.960000", "093623.910000", "093620.070000", "093624.020000", "093620.180000", "093624.127500", "093620.290000", "093624.237500", "093620.397500", "093624.347500", "093620.507500", "093624.457500", "093620.617500", "093624.567500", "093620.727500", "093624.677500", "093620.837500", "093624.787500", "093620.947500", "093624.897500", "093621.057500", "093625.007500", "093621.167500", "093625.115000", "093621.275000", "093625.225000", "093621.385000", "093625.335000", "093621.495000", "093625.445000", "093621.605000", "093625.555000", "093621.715000", "093625.665000", "093621.825000", "093625.775000", "093621.935000", "093625.885000", "093622.045000", "093625.992500", "093622.155000", "093626.102500", "093622.262500", "093626.212500", "093622.372500", "093626.322500", "093622.482500", "093626.432500", "093622.592500", "093626.542500", "093622.702500", "093626.652500", "093622.812500", "093626.762500", "093622.922500", "093626.872500", "093623.032500", "093626.980000", "093623.142500", "093627.090000", "093623.250000", "093627.200000", "093623.360000", "093627.310000", "093623.470000", "093631.280000", "093627.440000", "093631.390000", "093627.550000", "093631.500000", "093627.660000", "093631.610000", "093627.770000", "093631.720000", "093627.880000", "093631.827500", "093627.990000", "093631.937500", "093628.097500", "093632.047500", "093628.207500", "093632.157500", "093628.317500", "093632.267500", "093628.427500", "093632.377500", "093628.537500", "093632.487500", "093628.647500", "093632.597500", "093628.757500", "093632.707500", "093628.867500", "093632.815000", "093628.975000", "093632.925000", "093629.085000", "093633.035000", "093629.195000", "093633.145000", "093629.305000", "093633.255000", "093629.415000", "093633.365000", "093629.525000", "093633.475000", "093629.635000", "093633.585000", "093629.745000", "093633.692500", "093629.855000", "093633.802500", "093629.962500", "093633.912500", "093630.072500", "093634.022500", "093630.182500", "093634.132500", "093630.292500", "093634.242500", "093630.402500", "093634.352500", "093630.512500", "093634.462500", "093630.622500", "093634.572500", "093630.732500", "093634.680000", "093630.842500", "093634.790000", "093630.950000", "093634.900000", "093631.060000", "093635.010000", "093631.170000", "093638.980000", "093635.140000", "093639.090000", "093635.250000", "093639.200000", "093635.360000", "093639.310000", "093635.470000", "093639.420000", "093635.580000", "093639.527500", "093635.690000", "093639.637500", "093635.797500", "093639.747500", "093635.907500", "093639.857500", "093636.017500", "093639.967500", "093636.127500", "093640.077500", "093636.237500", "093640.187500", "093636.347500", "093640.297500", "093636.457500", "093640.407500", "093636.567500", "093640.515000", "093636.675000", "093640.625000", "093636.785000", "093640.735000", "093636.895000", "093640.845000", "093637.005000", "093640.955000", "093637.115000", "093641.065000", "093637.225000", "093641.175000", "093637.335000", "093641.285000", "093637.445000", "093641.392500", "093637.555000", "093641.502500", "093637.662500", "093641.612500", "093637.772500", "093641.722500", "093637.882500", "093641.832500", "093637.992500", "093641.942500", "093638.102500", "093642.052500", "093638.212500", "093642.162500", "093638.322500", "093642.272500", "093638.432500", "093642.380000", "093638.542500", "093642.490000", "093638.650000", "093642.600000", "093638.760000", "093642.710000", "093638.870000", "093646.680000", "093642.840000", "093646.790000", "093642.950000", "093646.900000", "093643.060000", "093647.010000", "093643.170000", "093647.120000", "093643.280000", "093647.227500", "093643.390000", "093647.337500", "093643.497500", "093647.447500", "093643.607500", "093647.557500", "093643.717500", "093647.667500", "093643.827500", "093647.777500", "093643.937500", "093647.887500", "093644.047500", "093647.997500", "093644.157500", "093648.107500", "093644.267500", "093648.215000", "093644.375000", "093648.325000", "093644.485000", "093648.435000", "093644.595000", "093648.545000", "093644.705000", "093648.655000", "093644.815000", "093648.765000", "093644.925000", "093648.875000", "093645.035000", "093648.985000", "093645.145000", "093649.092500", "093645.255000", "093649.202500", "093645.362500", "093649.312500", "093645.472500", "093649.422500", "093645.582500", "093649.532500", "093645.692500", "093649.642500", "093645.802500", "093649.752500", "093645.912500", "093649.862500", "093646.022500", "093649.972500", "093646.132500", "093650.080000", "093646.242500", "093650.190000", "093646.350000", "093650.300000", "093646.460000", "093650.410000", "093646.570000", "093654.380000", "093650.540000", "093654.490000", "093650.650000", "093654.600000", "093650.760000", "093654.710000", "093650.870000", "093654.820000", "093650.980000", "093654.927500", "093651.090000", "093655.037500", "093651.197500", "093655.147500", "093651.307500", "093655.257500", "093651.417500", "093655.367500", "093651.527500", "093655.477500", "093651.637500", "093655.587500", "093651.747500", "093655.697500", "093651.857500", "093655.807500", "093651.967500", "093655.915000", "093652.075000", "093656.025000", "093652.185000", "093656.135000", "093652.295000", "093656.245000", "093652.405000", "093656.355000", "093652.515000", "093656.465000", "093652.625000", "093656.575000", "093652.735000", "093656.685000", "093652.845000", "093656.792500", "093652.955000", "093656.902500", "093653.062500", "093657.012500", "093653.172500", "093657.122500", "093653.282500", "093657.232500", "093653.392500", "093657.342500", "093653.502500", "093657.452500", "093653.612500", "093657.562500", "093653.722500", "093657.672500", "093653.832500", "093657.780000", "093653.942500", "093657.890000", "093654.050000", "093658.000000", "093654.160000", "093658.110000", "093654.270000", "093702.080000", "093658.240000", "093702.190000", "093658.350000", "093702.300000", "093658.460000", "093702.410000", "093658.570000", "093702.520000", "093658.680000", "093702.627500", "093658.790000", "093702.737500", "093658.897500", "093702.847500", "093659.007500", "093702.957500", "093659.117500", "093703.067500", "093659.227500", "093703.177500", "093659.337500", "093703.287500", "093659.447500", "093703.397500", "093659.557500", "093703.507500", "093659.667500", "093703.615000", "093659.775000", "093703.725000", "093659.885000", "093703.835000", "093659.995000", "093703.945000", "093700.105000", "093704.055000", "093700.215000", "093704.165000", "093700.325000", "093704.275000", "093700.435000", "093704.385000", "093700.545000", "093704.492500", "093700.655000", "093704.602500", "093700.762500", "093704.712500", "093700.872500", "093704.822500", "093700.982500", "093704.932500", "093701.092500", "093705.042500", "093701.202500", "093705.152500", "093701.312500", "093705.262500", "093701.422500", "093705.372500", "093701.532500", "093705.480000", "093701.642500", "093705.590000", "093701.750000", "093705.700000", "093701.860000", "093705.810000", "093701.970000", "093709.780000", "093705.940000", "093709.890000", "093706.050000", "093710.000000", "093706.160000", "093710.110000", "093706.270000", "093710.220000", "093706.380000", "093710.327500", "093706.490000", "093710.437500", "093706.597500", "093710.547500", "093706.707500", "093710.657500", "093706.817500", "093710.767500", "093706.927500", "093710.877500", "093707.037500", "093710.987500", "093707.147500", "093711.097500", "093707.257500", "093711.207500", "093707.367500", "093711.315000", "093707.475000", "093711.425000", "093707.585000", "093711.535000", "093707.695000", "093711.645000", "093707.805000", "093711.755000", "093707.915000", "093711.865000", "093708.025000", "093711.975000", "093708.135000", "093712.085000", "093708.245000", "093712.192500", "093708.355000", "093712.302500", "093708.462500", "093712.412500", "093708.572500", "093712.522500", "093708.682500", "093712.632500", "093708.792500", "093712.742500", "093708.902500", "093712.852500", "093709.012500", "093712.962500", "093709.122500", "093713.072500", "093709.232500", "093713.180000", "093709.342500", "093713.290000", "093709.450000", "093713.400000", "093709.560000", "093713.510000", "093709.670000", "093717.480000", "093713.640000", "093717.590000", "093713.750000", "093717.700000", "093713.860000", "093717.810000", "093713.970000", "093717.920000", "093714.080000", "093718.027500", "093714.190000", "093718.137500", "093714.297500", "093718.247500", "093714.407500", "093718.357500", "093714.517500", "093718.467500", "093714.627500", "093718.577500", "093714.737500", "093718.687500", "093714.847500", "093718.797500", "093714.957500", "093718.907500", "093715.067500", "093719.015000", "093715.175000", "093719.125000", "093715.285000", "093719.235000", "093715.395000", "093719.345000", "093715.505000", "093719.455000", "093715.615000", "093719.565000", "093715.725000", "093719.675000", "093715.835000", "093719.785000", "093715.945000", "093719.892500", "093716.055000", "093720.002500", "093716.162500", "093720.112500", "093716.272500", "093720.222500", "093716.382500", "093720.332500", "093716.492500", "093720.442500", "093716.602500", "093720.552500", "093716.712500", "093720.662500", "093716.822500", "093720.772500", "093716.932500", "093720.880000", "093717.042500", "093720.990000", "093717.150000", "093721.100000", "093717.260000", "093721.210000", "093717.370000", "093725.180000", "093721.340000", "093725.290000", "093721.450000", "093725.400000", "093721.560000", "093725.510000", "093721.670000", "093725.620000", "093721.780000", "093725.727500", "093721.890000", "093725.837500", "093721.997500", "093725.947500", "093722.107500", "093726.057500", "093722.217500", "093726.167500", "093722.327500", "093726.277500", "093722.437500", "093726.387500", "093722.547500", "093726.497500", "093722.657500", "093726.607500", "093722.767500", "093726.715000", "093722.875000", "093726.825000", "093722.985000", "093726.935000", "093723.095000", "093727.045000", "093723