{
  "AcquisitionMatrixPE": 122,
  "AcquisitionNumber": 1,
  "AcquisitionTime": "09:39:12.462500",
  "BandwidthPerPixelPhaseEncode": 27.785,
  "BaseResolution": 122,
  "BodyPartExamined": "BRAIN",
  "CoilCombinationMethod": "Adaptive Combine",
  "ConsistencyInfo": "N4_VE11C_LATEST_20160120",
  "ConversionSoftware": "dcm2niix",
  "ConversionSoftwareVersion": "v1.0.20220720",
  "DerivedVendorReportedEchoSpacing": 0.000590011,
  "DeviceSerialNumber": "66112",
  "DiffusionScheme": "Monopolar",
  "DwellTime": 2e-06,
  "EchoTime": 0.068,
  "EchoTrainLength": 61,
  "EffectiveEchoSpacing": 0.000295005,
  "FlipAngle": 90,
  "HeudiconvVersion": "0.13.1",
  "ImageOrientationPatientDICOM": [0.981973, -0.189016, 0.00161119, 0.179517, 0.935227, 0.305161],
  "ImageOrientationText": "Tra>Cor(17.5)>Sag(3.4)",
  "ImageType": [
    "ORIGINAL",
    "PRIMARY",
    "DIFFUSION",
    "NONE",
    "ND",
    "NORM"
],
  "ImagingFrequency": 123.252,
  "InPlanePhaseEncodingDirectionDICOM": "COL",
  "InstitutionAddress": "Maynard 3,Hanover,NH,US,03755",
  "InstitutionName": "Dartmouth College - PBS",
  "InstitutionalDepartmentName": "Department",
  "MRAcquisitionType": "2D",
  "MagneticFieldStrength": 3,
  "Manufacturer": "Siemens",
  "ManufacturersModelName": "Prisma",
  "Modality": "MR",
  "MultibandAccelerationFactor": 4,
  "NonlinearGradientCorrection": false,
  "ParallelReductionFactorInPlane": 2,
  "PartialFourier": 1,
  "PatientPosition": "HFS",
  "PercentPhaseFOV": 100,
  "PercentSampling": 100,
  "PhaseEncodingDirection": "j-",
  "PhaseEncodingSteps": 122,
  "PhaseResolution": 1,
  "PixelBandwidth": 2050,
  "ProcedureStepDescription": "dbic^QA",
  "ProtocolName": "dwi_acq-DTI-30-p2-s4",
  "PulseSequenceDetails": "%SiemensSeq%\\ep2d_diff",
  "ReceiveCoilActiveElements": "HEA;HEP",
  "ReceiveCoilName": "Head_32",
  "ReconMatrixPE": 122,
  "RefLinesPE": 38,
  "RepetitionTime": 3.6,
  "SAR": 0.161026,
  "ScanOptions": "FS",
  "ScanningSequence": "EP",
  "SequenceName": "*ep_b0",
  "SequenceVariant": "SK\\SP",
  "SeriesDescription": "dwi_acq-DTI-30-p2-s4",
  "SeriesNumber": 9,
  "ShimSetting": [4146, -7696, -7507, 326, -82, -137, -48, 93],
  "SliceThickness": 2,
  "SliceTiming": [2.58594, 0, 1.78906, 0.20312, 1.99219, 0.39844, 2.1875, 0.59375, 2.39062, 0.99219, 2.78125, 1.19531, 2.98438, 1.39844, 3.1875, 1.59375, 3.38281, 0.79688, 2.58594, 0, 1.78906, 0.20312, 1.99219, 0.39844, 2.1875, 0.59375, 2.39062, 0.99219, 2.78125, 1.19531, 2.98438, 1.39844, 3.1875, 1.59375, 3.38281, 0.79688, 2.58594, 0, 1.78906, 0.20312, 1.99219, 0.39844, 2.1875, 0.59375, 2.39062, 0.99219, 2.78125, 1.19531, 2.98438, 1.39844, 3.1875, 1.59375, 3.38281, 0.79688, 2.58594, 0, 1.78906, 0.20312, 1.99219, 0.39844, 2.1875, 0.59375, 2.39062, 0.99219, 2.78125, 1.19531, 2.98438, 1.39844, 3.1875, 1.59375, 3.38281, 0.79688],
  "SoftwareVersions": "syngo MR E11",
  "SpacingBetweenSlices": 2,
  "SpoilingState": true,
  "StationName": "AWP66112",
  "TotalReadoutTime": 0.0356956,
  "TxRefAmp": 235.016,
  "dcmmeta_affine": [
    [-1.931749701499939, 0.3531486690044403, 0.11837416887283325, 88.44396209716797],
    [0.37183427810668945, 1.8397915363311768, 0.5987415313720703, -149.09913635253906],
    [0.003169555449858308, -0.6003170609474182, 1.90460205078125, -35.31296157836914],
    [0.0, 0.0, 0.0, 1.0]
],
  "dcmmeta_reorient_transform": [
    [0.0, -1.0, 0.0, 121.0],
    [1.0, 0.0, 0.0, 0.0],
    [0.0, 0.0, -1.0, 71.0],
    [0.0, 0.0, 0.0, 1.0]
],
  "dcmmeta_shape": [122, 122, 72, 31],
  "dcmmeta_slice_dim": 2,
  "dcmmeta_version": 0.6,
  "global": {
    "const": {
      "AccessionNumber": "qa",
      "AcquisitionMatrix": [122, 0, 0, 122],
      "AngioFlag": "N",
      "BitsAllocated": 16,
      "BitsStored": 12,
      "BodyPartExamined": "BRAIN",
      "Columns": 122,
      "EchoNumbers": 1,
      "EchoTime": 68.0,
      "EchoTrainLength": 61,
      "FlipAngle": 90.0,
      "HighBit": 11,
      "ImageOrientationPatient": [0.98197273283249, -0.1890157560578, 0.00161119067166, 0.17951723976521, 0.93522736429424, 0.30516116676656],
      "ImageType": [
        "ORIGINAL",
        "PRIMARY",
        "DIFFUSION",
        "NONE",
        "ND",
        "NORM"
],
      "ImagedNucleus": "1H",
      "ImagingFrequency": 123.25247,
      "InPlanePhaseEncodingDirection": "COL",
      "MRAcquisitionType": "2D",
      "MagneticFieldStrength": 3.0,
      "Manufacturer": "SIEMENS",
      "ManufacturerModelName": "Prisma",
      "Modality": "MR",
      "NumberOfAverages": 1.0,
      "NumberOfPhaseEncodingSteps": 122,
      "PercentPhaseFieldOfView": 100.0,
      "PercentSampling": 100.0,
      "PerformedProcedureStepStartTime": "091620.721000",
      "PhotometricInterpretation": "MONOCHROME2",
      "PixelBandwidth": 2050.0,
      "PixelRepresentation": 0,
      "PixelSpacing": [1.9672131538391, 1.9672131538391],
      "ProtocolName": "dwi_acq-DTI-30-p2-s4",
      "RepetitionTime": 3600.0,
      "Rows": 122,
      "SAR": 0.16102613765174,
      "SamplesPerPixel": 1,
      "ScanOptions": "FS",
      "ScanningSequence": "EP",
      "SequenceVariant": [
        "SK",
        "SP"
],
      "SeriesDescription": "dwi_acq-DTI-30-p2-s4",
      "SeriesNumber": 9,
      "SeriesTime": "093921.627000",
      "SliceThickness": 2.0,
      "SmallestImagePixelValue": 0,
      "SoftwareVersions": "syngo MR E11",
      "SpacingBetweenSlices": 2.0,
      "SpecificCharacterSet": "ISO_IR 100",
      "StudyID": "61",
      "StudyTime": "091620.638000",
      "TransmitCoilName": "Body",
      "VariableFlipAngleFlag": "N",
      "WindowCenterWidthExplanation": "Algo1",
      "dBdt": 0.0},
    "slices": {
      "AcquisitionTime": ["093912.462500", "093909.877500", "093911.667500", "093910.075000", "093911.865000", "093910.275000", "093912.065000", "093910.472500", "093912.262500", "093910.870000", "093912.660000", "093911.070000", "093912.860000", "093911.270000", "093913.060000", "093911.467500", "093913.257500", "093910.672500", "093912.462500", "093909.877500", "093911.667500", "093910.075000", "093911.865000", "093910.275000", "093912.065000", "093910.472500", "093912.262500", "093910.870000", "093912.660000", "093911.070000", "093912.860000", "093911.270000", "093913.060000", "093911.467500", "093913.257500", "093910.672500", "093912.462500", "093909.877500", "093911.667500", "093910.075000", "093911.865000", "093910.275000", "093912.065000", "093910.472500", "093912.262500", "093910.870000", "093912.660000", "093911.070000", "093912.860000", "093911.270000", "093913.060000", "093911.467500", "093913.257500", "093910.672500", "093912.462500", "093909.877500", "093911.667500", "093910.075000", "093911.865000", "093910.275000", "093912.065000", "093910.472500", "093912.262500", "093910.870000", "093912.660000", "093911.070000", "093912.860000", "093911.270000", "093913.060000", "093911.467500", "093913.257500", "093910.672500", "093916.062500", "093913.477500", "093915.267500", "093913.675000", "093915.465000", "093913.875000", "093915.665000", "093914.072500", "093915.862500", "093914.470000", "093916.260000", "093914.670000", "093916.460000", "093914.870000", "093916.660000", "093915.067500", "093916.857500", "093914.272500", "093916.062500", "093913.477500", "093915.267500", "093913.675000", "093915.465000", "093913.875000", "093915.665000", "093914.072500", "093915.862500", "093914.470000", "093916.260000", "093914.670000", "093916.460000", "093914.870000", "093916.660000", "093915.067500", "093916.857500", "093914.272500", "093916.062500", "093913.477500", "093915.267500", "093913.675000", "093915.465000", "093913.875000", "093915.665000", "093914.072500", "093915.862500", "093914.470000", "093916.260000", "093914.670000", "093916.460000", "093914.870000", "093916.660000", "093915.067500", "093916.857500", "093914.272500", "093916.062500", "093913.477500", "093915.267500", "093913.675000", "093915.465000", "093913.875000", "093915.665000", "093914.072500", "093915.862500", "093914.470000", "093916.260000", "093914.670000", "093916.460000", "093914.870000", "093916.660000", "093915.067500", "093916.857500", "093914.272500", "093919.662500", "093917.077500", "093918.867500", "093917.275000", "093919.065000", "093917.475000", "093919.265000", "093917.672500", "093919.462500", "093918.070000", "093919.860000", "093918.270000", "093920.060000", "093918.470000", "093920.260000", "093918.667500", "093920.457500", "093917.872500", "093919.662500", "093917.077500", "093918.867500", "093917.275000", "093919.065000", "093917.475000", "093919.265000", "093917.672500", "093919.462500", "093918.070000", "093919.860000", "093918.270000", "093920.060000", "093918.470000", "093920.260000", "093918.667500", "093920.457500", "093917.872500", "093919.662500", "093917.077500", "093918.867500", "093917.275000", "093919.065000", "093917.475000", "093919.265000", "093917.672500", "093919.462500", "093918.070000", "093919.860000", "093918.270000", "093920.060000", "093918.470000", "093920.260000", "093918.667500", "093920.457500", "093917.872500", "093919.662500", "093917.077500", "093918.867500", "093917.275000", "093919.065000", "093917.475000", "093919.265000", "093917.672500", "093919.462500", "093918.070000", "093919.860000", "093918.270000", "093920.060000", "093918.470000", "093920.260000", "093918.667500", "093920.457500", "093917.872500", "093923.262500", "093920.677500", "093922.467500", "093920.875000", "093922.665000", "093921.075000", "093922.865000", "093921.272500", "093923.062500", "093921.670000", "093923.460000", "093921.870000", "093923.660000", "093922.070000", "093923.860000", "093922.267500", "093924.057500", "093921.472500", "093923.262500", "093920.677500", "093922.467500", "093920.875000", "093922.665000", "093921.075000", "093922.865000", "093921.272500", "093923.062500", "093921.670000", "093923.460000", "093921.870000", "093923.660000", "093922.070000", "093923.860000", "093922.267500", "093924.057500", "093921.472500", "093923.262500", "093920.677500", "093922.467500", "093920.875000", "093922.665000", "093921.075000", "093922.865000", "093921.272500", "093923.062500", "093921.670000", "093923.460000", "093921.870000", "093923.660000", "093922.070000", "093923.860000", "093922.267500", "093924.057500", "093921.472500", "093923.262500", "093920.677500", "093922.467500", "093920.875000", "093922.665000", "093921.075000", "093922.865000", "093921.272500", "093923.062500", "093921.670000", "093923.460000", "093921.870000", "093923.660000", "093922.070000", "093923.860000", "093922.267500", "093924.057500", "093921.472500", "093926.862500", "093924.277500", "093926.067500", "093924.475000", "093926.265000", "093924.675000", "093926.465000", "093924.872500", "093926.662500", "093925.270000", "093927.060000", "093925.470000", "093927.260000", "093925.670000", "093927.460000", "093925.867500", "093927.657500", "093925.072500", "093926.862500", "093924.277500", "093926.067500", "093924.475000", "093926.265000", "093924.675000", "093926.465000", "093924.872500", "093926.662500", "093925.270000", "093927.060000", "093925.470000", "093927.260000", "093925.670000", "093927.460000", "093925.867500", "093927.657500", "093925.072500", "093926.862500", "093924.277500", "093926.067500", "093924.475000", "093926.265000", "093924.675000", "093926.465000", "093924.872500", "093926.662500", "093925.270000", "093927.060000", "093925.470000", "093927.260000", "093925.670000", "093927.460000", "093925.867500", "093927.657500", "093925.072500", "093926.862500", "093924.277500", "093926.067500", "093924.475000", "093926.265000", "093924.675000", "093926.465000", "093924.872500", "093926.662500", "093925.270000", "093927.060000", "093925.470000", "093927.260000", "093925.670000", "093927.460000", "093925.867500", "093927.657500", "093925.072500", "093930.462500", "093927.877500", "093929.667500", "093928.075000", "093929.865000", "093928.275000", "093930.065000", "093928.472500", "093930.262500", "093928.870000", "093930.660000", "093929.070000", "093930.860000", "093929.270000", "093931.060000", "093929.467500", "093931.257500", "093928.672500", "093930.462500", "093927.877500", "093929.667500", "093928.075000", "093929.865000", "093928.275000", "093930.065000", "093928.472500", "093930.262500", "093928.870000", "093930.660000", "093929.070000", "093930.860000", "093929.270000", "093931.060000", "093929.467500", "093931.257500", "093928.672500", "093930.462500", "093927.877500", "093929.667500", "093928.075000", "093929.865000", "093928.275000", "093930.065000", "093928.472500", "093930.262500", "093928.870000", "093930.660000", "093929.070000", "093930.860000", "093929.270000", "093931.060000", "093929.467500", "093931.257500", "093928.672500", "093930.462500", "093927.877500", "093929.667500", "093928.075000", "093929.865000", "093928.275000", "093930.065000", "093928.472500", "093930.262500", "093928.870000", "093930.660000", "093929.070000", "093930.860000", "093929.270000", "093931.060000", "093929.467500", "093931.257500", "093928.672500", "093934.062500", "093931.477500", "093933.267500", "093931.675000", "093933.465000", "093931.875000", "093933.665000", "093932.072500", "093933.862500", "093932.470000", "093934.260000", "093932.670000", "093934.460000", "093932.870000", "093934.660000", "093933.067500", "093934.857500", "093932.272500", "093934.062500", "093931.477500", "093933.267500", "093931.675000", "093933.465000", "093931.875000", "093933.665000", "093932.072500", "093933.862500", "093932.470000", "093934.260000", "093932.670000", "093934.460000", "093932.870000", "093934.660000", "093933.067500", "093934.857500", "093932.272500", "093934.062500", "093931.477500", "093933.267500", "093931.675000", "093933.465000", "093931.875000", "093933.665000", "093932.072500", "093933.862500", "093932.470000", "093934.260000", "093932.670000", "093934.460000", "093932.870000", "093934.660000", "093933.067500", "093934.857500", "093932.272500", "093934.062500", "093931.477500", "093933.267500", "093931.675000", "093933.465000", "093931.875000", "093933.665000", "093932.072500", "093933.862500", "093932.470000", "093934.260000", "093932.670000", "093934.460000", "093932.870000", "093934.660000", "093933.067500", "093934.857500", "093932.272500", "093937.662500", "093935.077500", "093936.867500", "093935.275000", "093937.065000", "093935.475000", "093937.265000", "093935.672500", "093937.462500", "093936.070000", "093937.860000", "093936.270000", "093938.060000", "093936.470000", "093938.260000", "093936.667500", "093938.457500", "093935.872500", "093937.662500", "093935.077500", "093936.867500", "093935.275000", "093937.065000", "093935.475000", "093937.265000", "093935.672500", "093937.462500", "093936.070000", "093937.860000", "093936.270000", "093938.060000", "093936.470000", "093938.260000", "093936.667500", "093938.457500", "093935.872500", "093937.662500", "093935.077500", "093936.867500", "093935.275000", "093937.065000", "093935.475000", "093937.265000", "093935.672500", "093937.462500", "093936.070000", "093937.860000", "093936.270000", "093938.060000", "093936.470000", "093938.260000", "093936.667500", "093938.457500", "093935.872500", "093937.662500", "093935.077500", "093936.867500", "093935.275000", "093937.065000", "093935.475000", "093937.265000", "093935.672500", "093937.462500", "093936.070000", "093937.860000", "093936.270000", "093938.060000", "093936.470000", "093938.260000", "093936.667500", "093938.457500", "093935.872500", "093941.262500", "093938.677500", "093940.467500", "093938.875000", "093940.665000", "093939.075000", "093940.865000", "093939.272500", "093941.062500", "093939.670000", "093941.460000", "093939.870000", "093941.660000", "093940.070000", "093941.860000", "093940.267500", "093942.057500", "093939.472500", "093941.262500", "093938.677500", "093940.467500", "093938.875000", "093940.665000", "093939.075000", "093940.865000", "093939.272500", "093941.062500", "093939.670000", "093941.460000", "093939.870000", "093941.660000", "093940.070000", "093941.860000", "093940.267500", "093942.057500", "093939.472500", "093941.262500", "093938.677500", "093940.467500", "093938.875000", "093940.665000", "093939.075000", "093940.865000", "093939.272500", "093941.062500", "093939.670000", "093941.460000", "093939.870000", "093941.660000", "093940.070000", "093941.860000", "093940.267500", "093942.057500", "093939.472500", "093941.262500", "093938.677500", "093940.467500", "093938.875000", "093940.665000", "093939.075000", "093940.865000", "093939.272500", "093941.062500", "093939.670000", "093941.460000", "093939.870000", "093941.660000", "093940.070000", "093941.860000", "093940.267500", "093942.057500", "093939.472500", "093944.862500", "093942.277500", "093944.067500", "093942.475000", "093944.265000", "093942.675000", "093944.465000", "093942.872500", "093944.662500", "093943.270000", "093945.060000", "093943.470000", "093945.260000", "093943.670000", "093945.460000", "093943.867500", "093945.657500", "093943.072500", "093944.862500", "093942.277500", "093944.067500", "093942.475000", "093944.265000", "093942.675000", "093944.465000", "093942.872500", "093944.662500", "093943.270000", "093945.060000", "093943.470000", "093945.260000", "093943.670000", "093945.460000", "093943.867500", "093945.657500", "093943.072500", "093944.862500", "093942.277500", "093944.067500", "093942.475000", "093944.265000", "093942.675000", "093944.465000", "093942.872500", "093944.662500", "093943.270000", "093945.060000", "093943.470000", "093945.260000", "093943.670000", "093945.460000", "093943.867500", "093945.657500", "093943.072500", "093944.862500", "093942.277500", "093944.067500", "093942.475000", "093944.265000", "093942.675000", "093944.465000", "093942.872500", "093944.662500", "093943.270000", "093945.060000", "093943.470000", "093945.260000", "093943.670000", "093945.460000", "093943.867500", "093945.657500", "093943.072500", "093948.462500", "093945.877500", "093947.667500", "093946.075000", "093947.865000", "093946.275000", "093948.065000", "093946.472500", "093948.262500", "093946.870000", "093948.660000", "093947.070000", "093948.860000", "093947.270000", "093949.060000", "093947.467500", "093949.257500", "093946.672500", "093948.462500", "093945.877500", "093947.667500", "093946.075000", "093947.865000", "093946.275000", "093948.065000", "093946.472500", "093948.262500", "093946.870000", "093948.660000", "093947.070000", "093948.860000", "093947.270000", "093949.060000", "093947.467500", "093949.257500", "093946.672500", "093948.462500", "093945.877500", "093947.667500", "093946.075000", "093947.865000", "093946.275000", "093948.065000", "093946.472500", "093948.262500", "093946.870000", "093948.660000", "093947.070000", "093948.860000", "093947.270000", "093949.060000", "093947.467500", "093949.257500", "093946.672500", "093948.462500", "093945.877500", "093947.667500", "093946.075000", "093947.865000", "093946.275000", "093948.065000", "093946.472500", "093948.262500", "093946.870000", "093948.660000", "093947.070000", "093948.860000", "093947.270000", "093949.060000", "093947.467500", "093949.257500", "093946.672500", "093952.062500", "093949.477500", "093951.267500", "093949.675000", "093951.465000", "093949.875000", "093951.665000", "093950.072500", "093951.862500", "093950.470000", "093952.260000", "093950.670000", "093952.460000", "093950.870000", "093952.660000", "093951.067500", "093952.857500", "093950.272500", "093952.062500", "093949.477500", "093951.267500", "093949.675000", "093951.465000", "093949.875000", "093951.665000", "093950.072500", "093951.862500", "093950.470000", "093952.260000", "093950.670000", "093952.460000", "093950.870000", "093952.660000", "093951.067500", "093952.857500", "093950.272500", "093952.062500", "093949.477500", "093951.267500", "093949.675000", "093951.465000", "093949.875000", "093951.665000", "093950.072500", "093951.862500", "093950.470000", "093952.260000", "093950.670000", "093952.460000", "093950.870000", "093952.660000", "093951.067500", "093952.857500", "093950.272500", "093952.062500", "093949.477500", "093951.267500", "093949.675000", "093951.465000", "093949.875000", "093951.665000", "093950.072500", "093951.862500", "093950.470000", "093952.260000", "093950.670000", "093952.460000", "093950.870000", "093952.660000", "093951.067500", "093952.857500", "093950.272500", "093955.662500", "093953.077500", "093954.867500", "093953.275000", "093955.065000", "093953.475000", "093955.265000", "093953.672500", "093955.462500", "093954.070000", "093955.860000", "093954.270000", "093956.060000", "093954.470000", "093956.260000", "093954.667500", "093956.457500", "093953.872500", "093955.662500", "093953.077500", "093954.867500", "093953.275000", "093955.065000", "093953.475000", "093955.265000", "093953.672500", "093955.462500", "093954.070000", "093955.860000", "093954.270000", "093956.060000", "093954.470000", "093956.260000", "093954.667500", "093956.457500", "093953.872500", "093955.662500", "093953.077500", "093954.867500", "093953.275000", "093955.065000", "093953.475000", "093955.265000", "093953.672500", "093955.462500", "093954.070000", "093955.860000", "093954.270000", "093956.060000", "093954.470000", "093956.260000", "093954.667500", "093956.457500", "093953.872500", "093955.662500", "093953.077500", "093954.867500", "093953.275000", "093955.065000", "093953.475000", "093955.265000", "093953.672500", "093955.462500", "093954.070000", "093955.860000", "093954.270000", "093956.060000", "093954.470000", "093956.260000", "093954.667500", "093956.457500", "093953.872500", "093959.262500", "093956.677500", "093958.467500", "093956.875000", "093958.665000", "093957.075000", "093958.865000", "093957.272500", "093959.062500", "093957.670000", "093959.460000", "093957.870000", "093959.660000", "093958.070000", "093959.860000", "093958.267500", "094000.057500", "093957.472500", "093959.262500", "093956.677500", "093958.467500", "093956.875000", "093958.665000", "093957.075000", "093958.865000", "093957.272500", "093959.062500", "093957.670000", "093959.460000", "093957.870000", "093959.660000", "093958.070000", "093959.860000", "093958.267500", "094000.057500", "093957.472500", "093959.262500", "093956.677500", "093958.467500", "093956.875000", "093958.665000", "093957.075000", "093958.865000", "093957.272500", "093959.062500", "093957.670000", "093959.460000", "093957.870000", "093959.660000", "093958.070000", "093959.860000", "093958.267500", "094000.057500", "093957.472500", "093959.262500", "093956.677500", "093958.467500", "093956.875000", "093958.665000", "093957.075000", "093958.865000", "093957.272500", "093959.062500", "093957.670000", "093959.460000", "093957.870000", "093959.660000", "093958.070000", "093959.860000", "093958.267500", "094000.057500", "093957.472500", "094002.862500", "094000.277500", "094002.067500", "094000.475000", "094002.265000", "094000.675000", "094002.465000", "094000.872500", "094002.662500", "094001.270000", "094003.060000", "094001.470000", "094003.260000", "094001.670000", "094003.460000", "094001.867500", "094003.657500", "094001.072500", "094002.862500", "094000.277500", "094002.067500", "094000.475000", "094002.265000", "094000.675000", "094002.465000", "094000.872500", "094002.662500", "094001.270000", "094003.060000", "094001.470000", "094003.260000", "094001.670000", "094003.460000", "094001.867500", "094003.657500", "094001.072500", "094002.862500", "094000.277500", "094002.067500", "094000.475000", "094002.265000", "094000.675000", "094002.465000", "094000.872500", "094002.662500", "094001.270000", "094003.060000", "094001.470000", "094003.260000", "094001.670000", "094003.460000", "094001.867500", "094003.657500", "094001.072500", "094002.862500", "094000.277500", "094002.067500", "094000.475000", "094002.265000", "094000.675000", "094002.465000", "094000.872500", "094002.662500", "094001.270000", "094003.060000", "094001.470000", "094003.260000", "094001.670000", "094003.460000", "094001.867500", "094003.657500", "094001.072500", "094006.462500", "094003.877500", "094005.667500", "094004.075000", "094005.865000", "094004.275000", "094006.065000", "094004.472500", "094006.262500", "094004.870000", "094006.660000", "094005.070000", "094006.860000", "094005.270000", "094007.060000", "094005.467500", "094007.257500", "094004.672500", "094006.462500", "094003.877500", "094005.667500", "094004.075000", "094005.865000", "094004.275000", "094006.065000", "094004.472500", "094006.262500", "094004.870000", "094006.660000", "094005.070000", "094006.860000", "094005.270000", "094007.060000", "094005.467500", "094007.257500", "094004.672500", "094006.462500", "094003.877500", "094005.667500", "094004.075000", "094005.865000", "094004.275000", "094006.065000", "094004.472500", "094006.262500", "094004.870000", "094006.660000", "094005.070000", "094006.860000", "094005.270000", "094007.060000", "094005.467500", "094007.257500", "094004.672500", "094006.462500", "094003.877500", "094005.667500", "094004.075000", "094005.865000", "094004.275000", "094006.065000", "094004.472500", "094006.262500", "094004.870000", "094006.660000", "094005.070000", "094006.860000", "094005.270000", "094007.060000", "094005.467500", "094007.257500", "094004.672500", "094010.062500", "094007.477500", "094009.267500", "094007.675000", "094009.465000", "094007.875000", "094009.665000", "094008.072500", "094009.862500", "094008.470000", "094010.260000", "094008.670000", "094010.460000", "094008.870000", "094010.660000", "094009.067500", "094010.857500", "094008.272500", "094010.062500", "094007.477500", "094009.267500", "094007.675000", "094009.465000", "094007.875000", "094009.665000", "094008.072500", "094009.862500", "094008.470000", "094010.260000", "094008.670000", "094010.460000", "094008.870000", "094010.660000", "094009.067500", "094010.857500", "094008.272500", "094010.062500", "094007.477500", "094009.267500", "094007.675000", "094009.465000", "094007.875000", "094009.665000", "094008.072500", "094009.862500", "094008.470000", "094010.260000", "094008.670000", "094010.460000", "094008.870000", "094010.660000", "094009.067500", "094010.857500", "094008.272500", "094010.062500", "094007.477500", "094009.267500", "094007.675000", "094009.465000", "094007.875000", "094009.665000", "094008.072500", "094009.862500", "094008.470000", "094010.260000", "094008.670000", "094010.460000", "094008.870000", "094010.660000", "094009.067500", "094010.857500", "094008.272500", "094013.662500", "094011.077500", "094012.867500", "094011.275000", "094013.065000", "094011.475000", "094013.265000", "094011.672500", "094013.462500", "094012.070000", "094013.860000", "094012.270000", "094014.060000", "094012.470000", "094014.260000", "094012.667500", "094014.457500", "094011.872500", "094013.662500", "094011.077500", "094012.867500", "094011.275000", "094013.065000", "094011.475000", "094013.265000", "094011.672500", "094013.462500", "094012.070000", "094013.860000", "094012.270000", "094014.060000", "094012.470000", "094014.260000", "094012.667500", "094014.457500", "094011.872500", "094013.662500", "094011.077500", "094012.867500", "094011.275000", "094013.065000", "094011.475000", "094013.265000", "094011.672500", "094013.462500", "094012.070000", "094013.860000", "094012.270000", "094014.060000", "094012.470000", "094014.260000", "094012.667500", "094014.457500", "094011.872500", "094013.662500", "094011.077500", "094012.867500", "094011.275000", "094013.065000", "094011.475000", "094013.265000", "094011.672500", "094013.462500", "094012.070000", "094013.860000", "094012.270000", "094014.060000", "094012.470000", "094014.260000", "094012.667500", "094014.457500", "094011.872500", "094017.262500", "094014.677500", "094016.467500", "094014.875000", "094016.665000", "094015.075000", "094016.865000", "094015.272500", "094017.062500", "094015.670000", "094017.460000", "094015.870000", "094017.660000", "094016.070000", "094017.860000", "094016.267500", "094018.057500", "094015.472500", "094017.262500", "094014.677500", "094016.467500", "094014.875000", "094016.665000", "094015.075000", "094016.865000", "094015.272500", "094017.062500", "094015.670000", "094017.460000", "094015.870000", "094017.660000", "094016.070000", "094017.860000", "094016.267500", "094018.057500", "094015.472500", "094017.262500", "094014.677500", "094016.467500", "094014.875000", "094016.665000", "094015.075000", "094016.865000", "094015.272500", "094017.062500", "094015.670000", "094017.460000", "094015.870000", "094017.660000", "094016.070000", "094017.860000", "094016.267500", "094018.057500", "094015.472500", "094017.262500", "094014.677500", "094016.467500", "094014.875000", "094016.665000", "094015.075000", "094016.865000", "094015.272500", "094017.062500", "094015.670000", "094017.460000", "094015.870000", "094017.660000", "094016.070000", "094017.860000", "094016.267500", "094018.057500", "094015.472500", "094020.862500", "094018.277500", "094020.067500", "094018.475000", "094020.265000", "094018.675000", "094020.465000", "094018.872500", "094020.662500", "094019.270000", "094021.060000", "094019.470000", "094021.260000", "094019.670000", "094021.460000", "094019.867500", "094021.657500", "094019.072500", "094020.862500", "094018.277500", "094020.067500", "094018.475000", "094020.265000", "094018.675000", "094020.465000", "094018.872500", "094020.662500", "094019.270000", "094021.060000", "094019.470000", "094021.260000", "094019.670000", "094021.460000", "094019.867500", "094021.657500", "094019.072500", "094020.862500", "094018.277500", "094020.067500", "094018.475000", "094020.265000", "094018.675000", "094020.465000", "094018.872500", "094020.662500", "094019.270000", "094021.060000", "094019.470000", "094021.260000", "094019.670000", "094021.460000", "094019.867500", "094021.657500", "094019.072500", "094020.862500", "094018.277500", "094020.067500", "094018.475000", "094020.265000", "094018.675000", "094020.465000", "094018.872500", "094020.662500", "094019.270000", "094021.060000", "094019.4700