{
  "AcquisitionMatrixPE": 80,
  "AcquisitionNumber": 1,
  "AcquisitionTime": "12:29:13.995000",
  "BandwidthPerPixelPhaseEncode": 25,
  "BaseResolution": 80,
  "BodyPartExamined": "BRAIN",
  "CoilCombinationMethod": "Sum of Squares",
  "ConsistencyInfo": "N4_VE11E_LATEST_20181129",
  "ConversionSoftware": "dcm2niix",
  "ConversionSoftwareVersion": "v1.0.20220720",
  "DerivedVendorReportedEchoSpacing": 0.0005,
  "DeviceSerialNumber": "66112",
  "DwellTime": 2.7e-06,
  "EchoTime": 0.03,
  "EchoTrainLength": 80,
  "EffectiveEchoSpacing": 0.0005,
  "FlipAngle": 10,
  "HeudiconvVersion": "0.13.1",
  "ImageOrientationPatientDICOM": [0.999938, 0.0109402, 0.00190264, -0.0109953, 0.951515, 0.307407],
  "ImageOrientationText": "Tra>Cor(17.9)>Sag(-0.1)",
  "ImageType": [
    "ORIGINAL",
    "PRIMARY",
    "M",
    "ND",
    "NORM",
    "MOSAIC"
],
  "ImagingFrequency": 123.259,
  "InPlanePhaseEncodingDirectionDICOM": "COL",
  "InstitutionAddress": "Maynard 3,Hanover,NH,US,03755",
  "InstitutionName": "Dartmouth College - PBS",
  "InstitutionalDepartmentName": "Department",
  "MRAcquisitionType": "2D",
  "MagneticFieldStrength": 3,
  "Manufacturer": "Siemens",
  "ManufacturersModelName": "Prisma",
  "MatrixCoilMode": "SENSE",
  "Modality": "MR",
  "NonlinearGradientCorrection": false,
  "PartialFourier": 1,
  "PatientPosition": "HFS",
  "PercentPhaseFOV": 100,
  "PercentSampling": 100,
  "PhaseEncodingDirection": "j-",
  "PhaseEncodingSteps": 80,
  "PhaseResolution": 1,
  "PixelBandwidth": 2315,
  "ProcedureStepDescription": "dbic^QA",
  "ProtocolName": "func-bold_fa-10_acq-1500ms",
  "PulseSequenceDetails": "%SiemensSeq%\\ep2d_bold",
  "ReceiveCoilActiveElements": "HC1-7;NC1,2",
  "ReceiveCoilName": "HeadNeck_64",
  "ReconMatrixPE": 80,
  "RepetitionTime": 1.5,
  "SAR": 0.00192642,
  "ScanOptions": "FS",
  "ScanningSequence": "EP",
  "SequenceName": "*epfid2d1_80",
  "SequenceVariant": "SK",
  "SeriesDescription": "func-bold_fa-10_acq-1500ms",
  "SeriesNumber": 11,
  "ShimSetting": [4219, -7718, -7483, -78, -141, -165, -90, 74],
  "SliceThickness": 3.5,
  "SliceTiming": [0, 0.8875, 0.295, 1.1825, 0.59],
  "SoftwareVersions": "syngo MR E11",
  "SpacingBetweenSlices": 3.99,
  "StationName": "AWP66112",
  "TotalReadoutTime": 0.0395,
  "TxRefAmp": 218.972,
  "dcmmeta_affine": [
    [-2.999814987182617, -0.032985951751470566, -0.006195259280502796, 120.52779388427734],
    [-0.032820578664541245, 2.854544162750244, 1.226560354232788, -105.11248779296875],
    [0.0057079242542386055, -0.9222198724746704, 3.7967896461486816, 31.748369216918945],
    [0.0, 0.0, 0.0, 1.0]
],
  "dcmmeta_reorient_transform": [
    [0.0, -1.0, 0.0, 79.0],
    [1.0, 0.0, 0.0, 0.0],
    [0.0, 0.0, 1.0, 0.0],
    [0.0, 0.0, 0.0, 1.0]
],
  "dcmmeta_shape": [80, 80, 5, 200],
  "dcmmeta_slice_dim": 2,
  "dcmmeta_version": 0.6,
  "global": {
    "const": {
      "AccessionNumber": "qa64",
      "AcquisitionMatrix": [80, 0, 0, 80],
      "AngioFlag": "N",
      "BitsAllocated": 16,
      "BitsStored": 12,
      "BodyPartExamined": "BRAIN",
      "Columns": 240,
      "EchoNumbers": 1,
      "EchoTime": 30.0,
      "EchoTrainLength": 80,
      "FlipAngle": 10.0,
      "HighBit": 11,
      "ImageOrientationPatient": [0.9999383441641, 0.01094019314267, 0.00190264141818, -0.0109953173523, 0.9515147223212, 0.3074066300559],
      "ImagePositionPatient": [-355.26823223265, -351.3856822562, -115.34122663715],
      "ImageType": [
        "ORIGINAL",
        "PRIMARY",
        "M",
        "ND",
        "NORM",
        "MOSAIC"
],
      "ImagedNucleus": "1H",
      "ImagingFrequency": 123.259251,
      "InPlanePhaseEncodingDirection": "COL",
      "MRAcquisitionType": "2D",
      "MagneticFieldStrength": 3.0,
      "Manufacturer": "SIEMENS",
      "ManufacturerModelName": "Prisma",
      "Modality": "MR",
      "NumberOfAverages": 1.0,
      "NumberOfPhaseEncodingSteps": 80,
      "PercentPhaseFieldOfView": 100.0,
      "PercentSampling": 100.0,
      "PerformedProcedureStepStartTime": "121533.126000",
      "PhotometricInterpretation": "MONOCHROME2",
      "PixelBandwidth": 2315.0,
      "PixelRepresentation": 0,
      "PixelSpacing": [3.0, 3.0],
      "ProtocolName": "func-bold_fa-10_acq-1500ms",
      "RepetitionTime": 1500.0,
      "Rows": 240,
      "SAR": 0.00192642267981,
      "SamplesPerPixel": 1,
      "ScanOptions": "FS",
      "ScanningSequence": "EP",
      "SequenceName": "*epfid2d1_80",
      "SequenceVariant": "SK",
      "SeriesDescription": "func-bold_fa-10_acq-1500ms",
      "SeriesNumber": 11,
      "SeriesTime": "122959.676000",
      "SliceLocation": -2.2886273334858,
      "SliceThickness": 3.5,
      "SmallestImagePixelValue": 0,
      "SoftwareVersions": "syngo MR E11",
      "SpacingBetweenSlices": 3.9899999810409,
      "SpecificCharacterSet": "ISO_IR 100",
      "StudyID": "2",
      "StudyTime": "121533.021000",
      "TransmitCoilName": "Body",
      "VariableFlipAngleFlag": "N",
      "WindowCenterWidthExplanation": "Algo1"
    },
    "slices": {}
  },
  "time": {
    "samples": {
      "AcquisitionNumber": [1, 2, 3, 4, 5, 6, 7, 8, 9, 10, 11, 12, 13, 14, 15, 16, 17, 18, 19, 20, 21, 22, 23, 24, 25, 26, 27, 28, 29, 30, 31, 32, 33, 34, 35, 36, 37, 38, 39, 40, 41, 42, 43, 44, 45, 46, 47, 48, 49, 50, 51, 52, 53, 54, 55, 56, 57, 58, 59, 60, 61, 62, 63, 64, 65, 66, 67, 68, 69, 70, 71, 72, 73, 74, 75, 76, 77, 78, 79, 80, 81, 82, 83, 84, 85, 86, 87, 88, 89, 90, 91, 92, 93, 94, 95, 96, 97, 98, 99, 100, 101, 102, 103, 104, 105, 106, 107, 108, 109, 110, 111, 112, 113, 114, 115, 116, 117, 118, 119, 120, 121, 122, 123, 124, 125, 126, 127, 128, 129, 130, 131, 132, 133, 134, 135, 136, 137, 138, 139, 140, 141, 142, 143, 144, 145, 146, 147, 148, 149, 150, 151, 152, 153, 154, 155, 156, 157, 158, 159, 160, 161, 162, 163, 164, 165, 166, 167, 168, 169, 170, 171, 172, 173, 174, 175, 176, 177, 178, 179, 180, 181, 182, 183, 184, 185, 186, 187, 188, 189, 190, 191, 192, 193, 194, 195, 196, 197, 198, 199, 200],
      "AcquisitionTime": ["122913.995000", "122915.495000", "122916.995000", "122918.495000", "122919.995000", "122921.495000", "122922.995000", "122924.495000", "122925.995000", "122927.495000", "122928.995000", "122930.495000", "122931.995000", "122933.495000", "122934.995000", "122936.495000", "122937.995000", "122939.495000", "122940.995000", "122942.495000", "122943.995000", "122945.495000", "122946.995000", "122948.495000", "122949.995000", "122951.495000", "122952.995000", "122954.495000", "122955.995000", "122957.495000", "122958.995000", "123000.495000", "123001.995000", "123003.495000", "123004.995000", "123006.495000", "123007.995000", "123009.495000", "123010.995000", "123012.495000", "123013.995000", "123015.495000", "123016.995000", "123018.495000", "123019.995000", "123021.495000", "123022.995000", "123024.495000", "123025.995000", "123027.495000", "123028.995000", "123030.495000", "123031.995000", "123033.495000", "123034.995000", "123036.495000", "123037.995000", "123039.495000", "123040.995000", "123042.495000", "123043.995000", "123045.495000", "123046.995000", "123048.495000", "123049.995000", "123051.495000", "123052.995000", "123054.495000", "123055.995000", "123057.495000", "123058.995000", "123100.495000", "123101.995000", "123103.495000", "123104.995000", "123106.495000", "123107.995000", "123109.495000", "123110.995000", "123112.495000", "123113.995000", "123115.495000", "123116.995000", "123118.495000", "123119.995000", "123121.495000", "123122.995000", "123124.495000", "123125.995000", "123127.495000", "123128.995000", "123130.495000", "123131.995000", "123133.495000", "123134.995000", "123136.495000", "123137.995000", "123139.495000", "123140.995000", "123142.495000", "123143.995000", "123145.495000", "123146.995000", "123148.495000", "123149.995000", "123151.495000", "123152.995000", "123154.495000", "123155.995000", "123157.495000", "123158.995000", "123200.495000", "123201.995000", "123203.495000", "123204.995000", "123206.495000", "123207.995000", "123209.495000", "123210.995000", "123212.495000", "123213.995000", "123215.495000", "123216.995000", "123218.495000", "123219.995000", "123221.495000", "123222.995000", "123224.495000", "123225.995000", "123227.495000", "123228.995000", "123230.495000", "123231.995000", "123233.495000", "123234.995000", "123236.495000", "123237.995000", "123239.495000", "123240.995000", "123242.495000", "123243.995000", "123245.495000", "123246.995000", "123248.495000", "123249.995000", "123251.495000", "123252.995000", "123254.495000", "123255.995000", "123257.495000", "123258.995000", "123300.495000", "123301.995000", "123303.495000", "123304.995000", "123306.495000", "123307.995000", "123309.495000", "123310.995000", "123312.495000", "123313.995000", "123315.495000", "123316.995000", "123318.495000", "123319.995000", "123321.495000", "123322.995000", "123324.495000", "123325.995000", "123327.495000", "123328.995000", "123330.495000", "123331.995000", "123333.495000", "123334.995000", "123336.495000", "123337.995000", "123339.495000", "123340.995000", "123342.495000", "123343.995000", "123345.495000", "123346.995000", "123348.495000", "123349.995000", "123351.495000", "123352.995000", "123354.495000", "123355.995000", "123357.495000", "123358.995000", "123400.495000", "123401.995000", "123403.495000", "123404.995000", "123406.495000", "123407.995000", "123409.495000", "123410.995000", "123412.495000"],
      "ContentTime": ["122959.679000", "122959.682000", "122959.684000", "122959.686000", "122959.688000", "122959.690000", "122959.692000", "122959.695000", "122959.697000", "122959.699000", "122959.701000", "122959.711000", "122959.713000", "122959.715000", "122959.717000", "122959.719000", "122959.721000", "122959.724000", "122959.726000", "122959.728000", "122959.730000", "122959.732000", "122959.734000", "122959.736000", "122959.738000", "122959.740000", "122959.742000", "122959.744000", "122959.746000", "122959.748000", "123039.675000", "123039.677000", "123039.679000", "123039.682000", "123039.684000", "123039.686000", "123039.688000", "123039.690000", "123039.692000", "123039.694000", "123039.696000", "123039.698000", "123039.700000", "123039.703000", "123039.705000", "123039.708000", "123039.710000", "123039.712000", "123039.715000", "123039.717000", "123039.719000", "123039.721000", "123039.723000", "123039.725000", "123039.727000", "123039.729000", "123119.675000", "123119.677000", "123119.679000", "123119.681000", "123119.684000", "123119.686000", "123119.688000", "123119.690000", "123119.692000", "123119.694000", "123119.696000", "123119.698000", "123119.700000", "123119.702000", "123119.704000", "123119.706000", "123119.708000", "123119.710000", "123119.712000", "123119.715000", "123119.717000", "123119.719000", "123119.721000", "123119.723000", "123119.725000", "123119.727000", "123119.729000", "123159.674000", "123159.676000", "123159.678000", "123159.680000", "123159.683000", "123159.685000", "123159.687000", "123159.689000", "123159.691000", "123159.693000", "123159.695000", "123159.697000", "123159.699000", "123159.701000", "123159.703000", "123159.705000", "123159.707000", "123159.710000", "123159.712000", "123159.714000", "123159.716000", "123159.718000", "123159.720000", "123159.722000", "123159.724000", "123159.726000", "123159.728000", "123239.675000", "123239.677000", "123239.679000", "123239.682000", "123239.684000", "123239.686000", "123239.688000", "123239.690000", "123239.692000", "123239.694000", "123239.696000", "123239.698000", "123239.700000", "123239.702000", "123239.704000", "123239.707000", "123239.709000", "123239.711000", "123239.714000", "123239.716000", "123239.718000", "123239.720000", "123239.722000", "123239.724000", "123239.726000", "123239.728000", "123319.675000", "123319.677000", "123319.679000", "123319.681000", "123319.683000", "123319.686000", "123319.688000", "123319.690000", "123319.692000", "123319.694000", "123319.696000", "123319.698000", "123319.700000", "123319.703000", "123319.705000", "123319.707000", "123319.709000", "123319.711000", "123319.713000", "123319.715000", "123319.717000", "123319.719000", "123319.722000", "123319.724000", "123319.726000", "123319.728000", "123319.730000", "123359.674000", "123359.676000", "123359.679000", "123359.681000", "123359.683000", "123359.685000", "123359.687000", "123359.689000", "123359.691000", "123359.693000", "123359.695000", "123359.697000", "123359.699000", "123359.701000", "123359.704000", "123359.706000", "123359.708000", "123359.710000", "123359.712000", "123359.714000", "123359.716000", "123359.718000", "123359.720000", "123359.722000", "123359.724000", "123359.726000", "123359.729000", "123414.247000", "123414.249000", "123414.251000", "123414.254000", "123414.256000", "123414.258000", "123414.260000", "123414.262000", "123414.264000", "123414.266000"],
      "InstanceCreationTime": ["122959.679000", "122959.682000", "122959.684000", "122959.686000", "122959.688000", "122959.690000", "122959.692000", "122959.695000", "122959.697000", "122959.699000", "122959.701000", "122959.711000", "122959.713000", "122959.715000", "122959.717000", "122959.719000", "122959.721000", "122959.724000", "122959.726000", "122959.728000", "122959.730000", "122959.732000", "122959.734000", "122959.736000", "122959.738000", "122959.740000", "122959.742000", "122959.744000", "122959.746000", "122959.748000", "123039.675000", "123039.677000", "123039.679000", "123039.682000", "123039.684000", "123039.686000", "123039.688000", "123039.690000", "123039.692000", "123039.694000", "123039.696000", "123039.698000", "123039.700000", "123039.703000", "123039.705000", "123039.708000", "123039.710000", "123039.712000", "123039.715000", "123039.717000", "123039.719000", "123039.721000", "123039.723000", "123039.725000", "123039.727000", "123039.729000", "123119.675000", "123119.677000", "123119.679000", "123119.681000", "123119.684000", "123119.686000", "123119.688000", "123119.690000", "123119.692000", "123119.694000", "123119.696000", "123119.698000", "123119.700000", "123119.702000", "123119.704000", "123119.706000", "123119.708000", "123119.710000", "123119.712000", "123119.715000", "123119.717000", "123119.719000", "123119.721000", "123119.723000", "123119.725000", "123119.727000", "123119.729000", "123159.674000", "123159.676000", "123159.678000", "123159.680000", "123159.683000", "123159.685000", "123159.687000", "123159.689000", "123159.691000", "123159.693000", "123159.695000", "123159.697000", "123159.699000", "123159.701000", "123159.703000", "123159.705000", "123159.707000", "123159.710000", "123159.712000", "123159.714000", "123159.716000", "123159.718000", "123159.720000", "123159.722000", "123159.724000", "123159.726000", "123159.728000", "123239.675000", "123239.677000", "123239.679000", "123239.682000", "123239.684000", "123239.686000", "123239.688000", "123239.690000", "123239.692000", "123239.694000", "123239.696000", "123239.698000", "123239.700000", "123239.702000", "123239.704000", "123239.707000", "123239.709000", "123239.711000", "123239.714000", "123239.716000", "123239.718000", "123239.720000", "123239.722000", "123239.724000", "123239.726000", "123239.728000", "123319.675000", "123319.677000", "123319.679000", "123319.681000", "123319.683000", "123319.686000", "123319.688000", "123319.690000", "123319.692000", "123319.694000", "123319.696000", "123319.698000", "123319.700000", "123319.703000", "123319.705000", "123319.707000", "123319.709000", "123319.711000", "123319.713000", "123319.715000", "123319.717000", "123319.719000", "123319.722000", "123319.724000", "123319.726000", "123319.728000", "123319.730000", "123359.674000", "123359.676000", "123359.679000", "123359.681000", "123359.683000", "123359.685000", "123359.687000", "123359.689000", "123359.691000", "123359.693000", "123359.695000", "123359.697000", "123359.699000", "123359.701000", "123359.704000", "123359.706000", "123359.708000", "123359.710000", "123359.712000", "123359.714000", "123359.716000", "123359.718000", "123359.720000", "123359.722000", "123359.724000", "123359.726000", "123359.729000", "123414.247000", "123414.249000", "123414.251000", "123414.254000", "123414.256000", "123414.258000", "123414.260000", "123414.262000", "123414.264000", "123414.266000"],
      "InstanceNumber": [1, 2, 3, 4, 5, 6, 7, 8, 9, 10, 11, 12, 13, 14, 15, 16, 17, 18, 19, 20, 21, 22, 23, 24, 25, 26, 27, 28, 29, 30, 31, 32, 33, 34, 35, 36, 37, 38, 39, 40, 41, 42, 43, 44, 45, 46, 47, 48, 49, 50, 51, 52, 53, 54, 55, 56, 57, 58, 59, 60, 61, 62, 63, 64, 65, 66, 67, 68, 69, 70, 71, 72, 73, 74, 75, 76, 77, 78, 79, 80, 81, 82, 83, 84, 85, 86, 87, 88, 89, 90, 91, 92, 93, 94, 95, 96, 97, 98, 99, 100, 101, 102, 103, 104, 105, 106, 107, 108, 109, 110, 111, 112, 113, 114, 115, 116, 117, 118, 119, 120, 121, 122, 123, 124, 125, 126, 127, 128, 129, 130, 131, 132, 133, 134, 135, 136, 137, 138, 139, 140, 141, 142, 143, 144, 145, 146, 147, 148, 149, 150, 151, 152, 153, 154, 155, 156, 157, 158, 159, 160, 161, 162, 163, 164, 165, 166, 167, 168, 169, 170, 171, 172, 173, 174, 175, 176, 177, 178, 179, 180, 181, 182, 183, 184, 185, 186, 187, 188, 189, 190, 191, 192, 193, 194, 195, 196, 197, 198, 199, 200],
      "LargestImagePixelValue": [666, 667, 664, 666, 668, 666, 665, 664, 667, 665, 668, 668, 666, 668, 669, 671, 666, 665, 664, 667, 664, 666, 667, 662, 666, 667, 667, 669, 666, 661, 663, 667, 671, 670, 665, 668, 668, 666, 667, 664, 664, 665, 664, 668, 665, 667, 662, 669, 669, 667, 667, 667, 665, 668, 668, 666, 671, 668, 663, 667, 667, 672, 666, 665, 667, 667, 667, 666, 664, 667, 661, 666, 667, 667, 664, 662, 666, 667, 668, 666, 668, 662, 666, 667, 664, 668, 665, 664, 668, 668, 667, 665, 668, 664, 667, 671, 661, 664, 665, 663, 663, 667, 662, 667, 660, 666, 667, 667, 666, 668, 665, 669, 668, 664, 665, 664, 665, 667, 668, 665, 666, 662, 664, 664, 666, 666, 668, 666, 666, 670, 666, 667, 665, 663, 662, 668, 666, 669, 665, 662, 667, 667, 665, 663, 663, 664, 664, 670, 664, 664, 665, 663, 668, 665, 669, 663, 662, 667, 668, 666, 665, 665, 663, 670, 668, 666, 661, 659, 667, 668, 666, 663, 666, 664, 669, 663, 663, 665, 663, 666, 667, 666, 668, 663, 664, 664, 664, 668, 663, 664, 661, 664, 667, 663, 663, 665, 663, 670, 664, 666],
      "WindowCenter": [479.0, 479.0, 479.0, 479.0, 479.0, 479.0, 479.0, 479.0, 479.0, 479.0, 479.0, 479.0, 479.0, 479.0, 479.0, 480.0, 479.0, 479.0, 479.0, 479.0, 479.0, 479.0, 479.0, 479.0, 479.0, 479.0, 479.0, 479.0, 479.0, 479.0, 479.0, 479.0, 480.0, 480.0, 479.0, 479.0, 479.0, 479.0, 479.0, 479.0, 479.0, 479.0, 479.0, 479.0, 479.0, 479.0, 479.0, 479.0, 479.0, 479.0, 479.0, 479.0, 479.0, 479.0, 479.0, 479.0, 480.0, 479.0, 479.0, 479.0, 479.0, 479.0, 479.0, 478.0, 479.0, 479.0, 479.0, 479.0, 479.0, 479.0, 479.0, 479.0, 479.0, 479.0, 479.0, 479.0, 479.0, 479.0, 479.0, 479.0, 479.0, 479.0, 479.0, 479.0, 479.0, 479.0, 479.0, 479.0, 479.0, 479.0, 478.0, 479.0, 479.0, 479.0, 478.0, 480.0, 479.0, 479.0, 479.0, 479.0, 478.0, 479.0, 479.0, 479.0, 479.0, 479.0, 479.0, 478.0, 478.0, 479.0, 478.0, 478.0, 478.0, 479.0, 479.0, 479.0, 479.0, 479.0, 479.0, 478.0, 479.0, 479.0, 479.0, 479.0, 479.0, 478.0, 479.0, 479.0, 479.0, 479.0, 479.0, 479.0, 479.0, 479.0, 479.0, 478.0, 479.0, 479.0, 479.0, 479.0, 479.0, 479.0, 479.0, 479.0, 479.0, 479.0, 479.0, 479.0, 479.0, 479.0, 479.0, 479.0, 478.0, 479.0, 479.0, 478.0, 479.0, 479.0, 479.0, 478.0, 479.0, 479.0, 479.0, 480.0, 479.0, 479.0, 478.0, 479.0, 479.0, 479.0, 479.0, 479.0, 479.0, 479.0, 479.0, 479.0, 479.0, 479.0, 479.0, 478.0, 479.0, 479.0, 479.0, 479.0, 479.0, 479.0, 478.0, 478.0, 479.0, 478.0, 478.0, 479.0, 479.0, 479.0, 479.0, 479.0, 479.0, 479.0, 479.0, 478.0],
      "WindowWidth": [1001.0, 1001.0, 1000.0, 1000.0, 1000.0, 1001.0, 1000.0, 1001.0, 1001.0, 1000.0, 1001.0, 1000.0, 1000.0, 1000.0, 1001.0, 1002.0, 1000.0, 1000.0, 1001.0, 1000.0, 1000.0, 1000.0, 1000.0, 1001.0, 1000.0, 1001.0, 1001.0, 1000.0, 1000.0, 1001.0, 1001.0, 1000.0, 1001.0, 1001.0, 1000.0, 1000.0, 1000.0, 1001.0, 1000.0, 1000.0, 1000.0, 1000.0, 1000.0, 1000.0, 1000.0, 1000.0, 1000.0, 1001.0, 1000.0, 1000.0, 1000.0, 1001.0, 1000.0, 1001.0, 1000.0, 1000.0, 1001.0, 1000.0, 1000.0, 1000.0, 1001.0, 1001.0, 1000.0, 999.0, 1000.0, 1001.0, 1000.0, 1000.0, 1000.0, 1001.0, 1001.0, 1000.0, 1000.0, 1000.0, 1000.0, 1000.0, 1000.0, 1000.0, 1000.0, 1000.0, 1000.0, 1001.0, 1000.0, 1000.0, 1000.0, 1000.0, 1001.0, 1000.0, 1000.0, 1000.0, 999.0, 1000.0, 1000.0, 1001.0, 999.0, 1001.0, 1000.0, 1000.0, 1000.0, 1000.0, 999.0, 1001.0, 1001.0, 1000.0, 1000.0, 1000.0, 1000.0, 999.0, 999.0, 1000.0, 999.0, 999.0, 999.0, 1000.0, 1000.0, 1000.0, 1000.0, 1000.0, 1000.0, 999.0, 1001.0, 1000.0, 1000.0, 1000.0, 1000.0, 999.0, 1000.0, 1000.0, 1000.0, 1000.0, 1000.0, 1000.0, 1000.0, 1000.0, 1000.0, 999.0, 1000.0, 1000.0, 1000.0, 1001.0, 1000.0, 1000.0, 1000.0, 1000.0, 1000.0, 1000.0, 1000.0, 1001.0, 1000.0, 1000.0, 1000.0, 1000.0, 999.0, 1000.0, 1001.0, 999.0, 1000.0, 1000.0, 1000.0, 999.0, 1000.0, 1000.0, 1000.0, 1001.0, 1000.0, 1000.0, 999.0, 1000.0, 1000.0, 1000.0, 1000.0, 1000.0, 1000.0, 1000.0, 1000.0, 1000.0, 1000.0, 1000.0, 1000.0, 999.0, 1000.0, 1000.0, 1000.0, 1000.0, 1000.0, 1000.0, 999.0, 999.0, 1000.0, 999.0, 999.0, 1000.0, 1000.0, 1000.0, 1000.0, 1000.0, 1000.0, 1001.0, 1000.0, 999.0]
    },
    "slices": {}
  }
}