{
  "AcquisitionMatrixPE": 80,
  "AcquisitionNumber": 1,
  "AcquisitionTime": "12:34:20.497500",
  "BandwidthPerPixelPhaseEncode": 25,
  "BaseResolution": 80,
  "BodyPartExamined": "BRAIN",
  "CoilCombinationMethod": "Sum of Squares",
  "ConsistencyInfo": "N4_VE11E_LATEST_20181129",
  "ConversionSoftware": "dcm2niix",
  "ConversionSoftwareVersion": "v1.0.20220720",
  "DerivedVendorReportedEchoSpacing": 0.0005,
  "DeviceSerialNumber": "66112",
  "DwellTime": 2.7e-06,
  "EchoTime": 0.03,
  "EchoTrainLength": 80,
  "EffectiveEchoSpacing": 0.0005,
  "FlipAngle": 10,
  "HeudiconvVersion": "0.13.1",
  "ImageOrientationPatientDICOM": [0.999938, 0.0109402, 0.00190264, -0.0109953, 0.951515, 0.307407],
  "ImageOrientationText": "Tra>Cor(17.9)>Sag(-0.1)",
  "ImageType": [
    "ORIGINAL",
    "PRIMARY",
    "M",
    "ND",
    "NORM",
    "MOSAIC"
],
  "ImagingFrequency": 123.259,
  "InPlanePhaseEncodingDirectionDICOM": "COL",
  "InstitutionAddress": "Maynard 3,Hanover,NH,US,03755",
  "InstitutionName": "Dartmouth College - PBS",
  "InstitutionalDepartmentName": "Department",
  "MRAcquisitionType": "2D",
  "MagneticFieldStrength": 3,
  "Manufacturer": "Siemens",
  "ManufacturersModelName": "Prisma",
  "MatrixCoilMode": "SENSE",
  "Modality": "MR",
  "NonlinearGradientCorrection": false,
  "PartialFourier": 1,
  "PatientPosition": "HFS",
  "PercentPhaseFOV": 100,
  "PercentSampling": 100,
  "PhaseEncodingDirection": "j-",
  "PhaseEncodingSteps": 80,
  "PhaseResolution": 1,
  "PixelBandwidth": 2315,
  "ProcedureStepDescription": "dbic^QA",
  "ProtocolName": "func-bold_fa-10_acq-2000ms",
  "PulseSequenceDetails": "%SiemensSeq%\\ep2d_bold",
  "ReceiveCoilActiveElements": "HC1-7;NC1,2",
  "ReceiveCoilName": "HeadNeck_64",
  "ReconMatrixPE": 80,
  "RepetitionTime": 2,
  "SAR": 0.00144482,
  "ScanOptions": "FS",
  "ScanningSequence": "EP",
  "SequenceName": "*epfid2d1_80",
  "SequenceVariant": "SK",
  "SeriesDescription": "func-bold_fa-10_acq-2000ms",
  "SeriesNumber": 13,
  "ShimSetting": [4219, -7718, -7483, -78, -141, -165, -90, 74],
  "SliceThickness": 3.5,
  "SliceTiming": [0, 1.19, 0.3975, 1.585, 0.7925],
  "SoftwareVersions": "syngo MR E11",
  "SpacingBetweenSlices": 3.99,
  "StationName": "AWP66112",
  "TotalReadoutTime": 0.0395,
  "TxRefAmp": 218.972,
  "dcmmeta_affine": [
    [-2.999814987182617, -0.032985951751470566, -0.006195259280502796, 120.52779388427734],
    [-0.032820578664541245, 2.854544162750244, 1.226560354232788, -105.11248779296875],
    [0.0057079242542386055, -0.9222198724746704, 3.7967896461486816, 31.748369216918945],
    [0.0, 0.0, 0.0, 1.0]
],
  "dcmmeta_reorient_transform": [
    [0.0, -1.0, 0.0, 79.0],
    [1.0, 0.0, 0.0, 0.0],
    [0.0, 0.0, 1.0, 0.0],
    [0.0, 0.0, 0.0, 1.0]
],
  "dcmmeta_shape": [80, 80, 5, 200],
  "dcmmeta_slice_dim": 2,
  "dcmmeta_version": 0.6,
  "global": {
    "const": {
      "AccessionNumber": "qa64",
      "AcquisitionMatrix": [80, 0, 0, 80],
      "AngioFlag": "N",
      "BitsAllocated": 16,
      "BitsStored": 12,
      "BodyPartExamined": "BRAIN",
      "Columns": 240,
      "EchoNumbers": 1,
      "EchoTime": 30.0,
      "EchoTrainLength": 80,
      "FlipAngle": 10.0,
      "HighBit": 11,
      "ImageOrientationPatient": [0.9999383441641, 0.01094019314267, 0.00190264141818, -0.0109953173523, 0.9515147223212, 0.3074066300559],
      "ImagePositionPatient": [-355.26823223265, -351.3856822562, -115.34122663715],
      "ImageType": [
        "ORIGINAL",
        "PRIMARY",
        "M",
        "ND",
        "NORM",
        "MOSAIC"
],
      "ImagedNucleus": "1H",
      "ImagingFrequency": 123.259251,
      "InPlanePhaseEncodingDirection": "COL",
      "MRAcquisitionType": "2D",
      "MagneticFieldStrength": 3.0,
      "Manufacturer": "SIEMENS",
      "ManufacturerModelName": "Prisma",
      "Modality": "MR",
      "NumberOfAverages": 1.0,
      "NumberOfPhaseEncodingSteps": 80,
      "PercentPhaseFieldOfView": 100.0,
      "PercentSampling": 100.0,
      "PerformedProcedureStepStartTime": "121533.126000",
      "PhotometricInterpretation": "MONOCHROME2",
      "PixelBandwidth": 2315.0,
      "PixelRepresentation": 0,
      "PixelSpacing": [3.0, 3.0],
      "ProtocolName": "func-bold_fa-10_acq-2000ms",
      "RepetitionTime": 2000.0,
      "Rows": 240,
      "SAR": 0.00144481698173,
      "SamplesPerPixel": 1,
      "ScanOptions": "FS",
      "ScanningSequence": "EP",
      "SequenceName": "*epfid2d1_80",
      "SequenceVariant": "SK",
      "SeriesDescription": "func-bold_fa-10_acq-2000ms",
      "SeriesNumber": 13,
      "SeriesTime": "123519.506000",
      "SliceLocation": -2.2886273334858,
      "SliceThickness": 3.5,
      "SmallestImagePixelValue": 0,
      "SoftwareVersions": "syngo MR E11",
      "SpacingBetweenSlices": 3.9899999810409,
      "SpecificCharacterSet": "ISO_IR 100",
      "StudyID": "2",
      "StudyTime": "121533.021000",
      "TransmitCoilName": "Body",
      "VariableFlipAngleFlag": "N",
      "WindowCenterWidthExplanation": "Algo1"
    },
    "slices": {}
  },
  "time": {
    "samples": {
      "AcquisitionNumber": [1, 2, 3, 4, 5, 6, 7, 8, 9, 10, 11, 12, 13, 14, 15, 16, 17, 18, 19, 20, 21, 22, 23, 24, 25, 26, 27, 28, 29, 30, 31, 32, 33, 34, 35, 36, 37, 38, 39, 40, 41, 42, 43, 44, 45, 46, 47, 48, 49, 50, 51, 52, 53, 54, 55, 56, 57, 58, 59, 60, 61, 62, 63, 64, 65, 66, 67, 68, 69, 70, 71, 72, 73, 74, 75, 76, 77, 78, 79, 80, 81, 82, 83, 84, 85, 86, 87, 88, 89, 90, 91, 92, 93, 94, 95, 96, 97, 98, 99, 100, 101, 102, 103, 104, 105, 106, 107, 108, 109, 110, 111, 112, 113, 114, 115, 116, 117, 118, 119, 120, 121, 122, 123, 124, 125, 126, 127, 128, 129, 130, 131, 132, 133, 134, 135, 136, 137, 138, 139, 140, 141, 142, 143, 144, 145, 146, 147, 148, 149, 150, 151, 152, 153, 154, 155, 156, 157, 158, 159, 160, 161, 162, 163, 164, 165, 166, 167, 168, 169, 170, 171, 172, 173, 174, 175, 176, 177, 178, 179, 180, 181, 182, 183, 184, 185, 186, 187, 188, 189, 190, 191, 192, 193, 194, 195, 196, 197, 198, 199, 200],
      "AcquisitionTime": ["123420.497500", "123422.497500", "123424.497500", "123426.497500", "123428.497500", "123430.497500", "123432.497500", "123434.497500", "123436.497500", "123438.497500", "123440.497500", "123442.497500", "123444.497500", "123446.497500", "123448.497500", "123450.497500", "123452.497500", "123454.497500", "123456.497500", "123458.497500", "123500.497500", "123502.497500", "123504.497500", "123506.497500", "123508.497500", "123510.497500", "123512.497500", "123514.497500", "123516.497500", "123518.497500", "123520.497500", "123522.497500", "123524.497500", "123526.497500", "123528.497500", "123530.497500", "123532.497500", "123534.497500", "123536.497500", "123538.497500", "123540.497500", "123542.497500", "123544.497500", "123546.497500", "123548.497500", "123550.497500", "123552.497500", "123554.497500", "123556.497500", "123558.497500", "123600.497500", "123602.497500", "123604.497500", "123606.497500", "123608.497500", "123610.497500", "123612.497500", "123614.497500", "123616.497500", "123618.497500", "123620.497500", "123622.497500", "123624.497500", "123626.497500", "123628.497500", "123630.497500", "123632.497500", "123634.497500", "123636.497500", "123638.497500", "123640.497500", "123642.497500", "123644.497500", "123646.497500", "123648.497500", "123650.497500", "123652.497500", "123654.497500", "123656.497500", "123658.497500", "123700.497500", "123702.497500", "123704.497500", "123706.497500", "123708.497500", "123710.497500", "123712.497500", "123714.497500", "123716.497500", "123718.497500", "123720.497500", "123722.497500", "123724.497500", "123726.497500", "123728.497500", "123730.497500", "123732.497500", "123734.497500", "123736.497500", "123738.497500", "123740.497500", "123742.497500", "123744.497500", "123746.497500", "123748.497500", "123750.497500", "123752.497500", "123754.497500", "123756.497500", "123758.497500", "123800.497500", "123802.497500", "123804.497500", "123806.497500", "123808.497500", "123810.497500", "123812.497500", "123814.497500", "123816.497500", "123818.497500", "123820.497500", "123822.497500", "123824.497500", "123826.497500", "123828.497500", "123830.497500", "123832.497500", "123834.497500", "123836.497500", "123838.497500", "123840.497500", "123842.497500", "123844.497500", "123846.497500", "123848.497500", "123850.497500", "123852.497500", "123854.497500", "123856.497500", "123858.497500", "123900.497500", "123902.497500", "123904.497500", "123906.497500", "123908.497500", "123910.497500", "123912.497500", "123914.497500", "123916.497500", "123918.497500", "123920.497500", "123922.497500", "123924.497500", "123926.497500", "123928.497500", "123930.497500", "123932.497500", "123934.497500", "123936.497500", "123938.497500", "123940.497500", "123942.497500", "123944.497500", "123946.497500", "123948.497500", "123950.497500", "123952.497500", "123954.497500", "123956.497500", "123958.497500", "124000.497500", "124002.497500", "124004.497500", "124006.497500", "124008.497500", "124010.497500", "124012.497500", "124014.497500", "124016.497500", "124018.497500", "124020.497500", "124022.497500", "124024.497500", "124026.497500", "124028.497500", "124030.497500", "124032.497500", "124034.497500", "124036.497500", "124038.497500", "124040.497500", "124042.497500", "124044.497500", "124046.497500", "124048.497500", "124050.497500", "124052.497500", "124054.497500", "124056.497500", "124058.497500"],
      "ContentTime": ["123519.509000", "123519.512000", "123519.514000", "123519.516000", "123519.518000", "123519.520000", "123519.522000", "123519.524000", "123519.527000", "123519.529000", "123519.531000", "123519.533000", "123519.535000", "123519.537000", "123519.539000", "123519.541000", "123519.543000", "123519.545000", "123519.547000", "123519.549000", "123519.551000", "123519.553000", "123519.556000", "123519.558000", "123519.560000", "123519.562000", "123519.564000", "123519.570000", "123519.572000", "123559.504000", "123559.506000", "123559.508000", "123559.511000", "123559.513000", "123559.515000", "123559.517000", "123559.519000", "123559.521000", "123559.523000", "123559.525000", "123559.527000", "123559.529000", "123559.531000", "123559.533000", "123559.535000", "123559.537000", "123559.539000", "123559.541000", "123559.544000", "123639.503000", "123639.505000", "123639.507000", "123639.510000", "123639.512000", "123639.514000", "123639.516000", "123639.518000", "123639.520000", "123639.522000", "123639.524000", "123639.526000", "123639.528000", "123639.530000", "123639.532000", "123639.534000", "123639.536000", "123639.538000", "123639.541000", "123639.543000", "123719.504000", "123719.506000", "123719.508000", "123719.511000", "123719.513000", "123719.515000", "123719.517000", "123719.519000", "123719.521000", "123719.523000", "123719.525000", "123719.527000", "123719.529000", "123719.537000", "123719.539000", "123719.541000", "123719.543000", "123719.545000", "123719.547000", "123719.549000", "123739.504000", "123739.506000", "123739.508000", "123739.510000", "123739.513000", "123739.515000", "123739.517000", "123739.519000", "123739.521000", "123739.523000", "123819.504000", "123819.506000", "123819.508000", "123819.510000", "123819.512000", "123819.514000", "123819.517000", "123819.519000", "123819.521000", "123819.523000", "123819.525000", "123819.527000", "123819.529000", "123819.531000", "123819.533000", "123819.535000", "123819.537000", "123819.539000", "123819.542000", "123819.544000", "123859.503000", "123859.505000", "123859.508000", "123859.510000", "123859.512000", "123859.514000", "123859.516000", "123859.518000", "123859.520000", "123859.522000", "123859.524000", "123859.526000", "123859.528000", "123859.530000", "123859.532000", "123859.535000", "123859.537000", "123859.539000", "123859.541000", "123859.543000", "123939.504000", "123939.506000", "123939.508000", "123939.510000", "123939.513000", "123939.515000", "123939.517000", "123939.519000", "123939.521000", "123939.523000", "123939.525000", "123939.527000", "123939.529000", "123939.531000", "123939.533000", "123939.535000", "123939.537000", "123939.539000", "123939.542000", "123939.544000", "124019.504000", "124019.507000", "124019.509000", "124019.511000", "124019.513000", "124019.515000", "124019.517000", "124019.519000", "124019.521000", "124019.523000", "124019.525000", "124019.527000", "124019.529000", "124019.532000", "124019.534000", "124019.536000", "124019.538000", "124019.540000", "124019.542000", "124019.544000", "124059.503000", "124059.505000", "124059.507000", "124059.509000", "124059.511000", "124059.514000", "124059.516000", "124059.518000", "124059.520000", "124059.522000", "124059.524000", "124059.526000", "124059.528000", "124059.530000", "124059.532000", "124059.534000", "124059.537000", "124059.539000", "124059.541000", "124059.543000", "124100.700000"],
      "InstanceCreationTime": ["123519.509000", "123519.512000", "123519.514000", "123519.516000", "123519.518000", "123519.520000", "123519.522000", "123519.524000", "123519.527000", "123519.529000", "123519.531000", "123519.533000", "123519.535000", "123519.537000", "123519.539000", "123519.541000", "123519.543000", "123519.545000", "123519.547000", "123519.549000", "123519.551000", "123519.553000", "123519.556000", "123519.558000", "123519.560000", "123519.562000", "123519.564000", "123519.570000", "123519.572000", "123559.504000", "123559.506000", "123559.508000", "123559.511000", "123559.513000", "123559.515000", "123559.517000", "123559.519000", "123559.521000", "123559.523000", "123559.525000", "123559.527000", "123559.529000", "123559.531000", "123559.533000", "123559.535000", "123559.537000", "123559.539000", "123559.541000", "123559.544000", "123639.503000", "123639.505000", "123639.507000", "123639.510000", "123639.512000", "123639.514000", "123639.516000", "123639.518000", "123639.520000", "123639.522000", "123639.524000", "123639.526000", "123639.528000", "123639.530000", "123639.532000", "123639.534000", "123639.536000", "123639.538000", "123639.541000", "123639.543000", "123719.504000", "123719.506000", "123719.508000", "123719.511000", "123719.513000", "123719.515000", "123719.517000", "123719.519000", "123719.521000", "123719.523000", "123719.525000", "123719.527000", "123719.529000", "123719.537000", "123719.539000", "123719.541000", "123719.543000", "123719.545000", "123719.547000", "123719.549000", "123739.504000", "123739.506000", "123739.508000", "123739.510000", "123739.513000", "123739.515000", "123739.517000", "123739.519000", "123739.521000", "123739.523000", "123819.504000", "123819.506000", "123819.508000", "123819.510000", "123819.512000", "123819.514000", "123819.517000", "123819.519000", "123819.521000", "123819.523000", "123819.525000", "123819.527000", "123819.529000", "123819.531000", "123819.533000", "123819.535000", "123819.537000", "123819.539000", "123819.542000", "123819.544000", "123859.503000", "123859.505000", "123859.508000", "123859.510000", "123859.512000", "123859.514000", "123859.516000", "123859.518000", "123859.520000", "123859.522000", "123859.524000", "123859.526000", "123859.528000", "123859.530000", "123859.532000", "123859.535000", "123859.537000", "123859.539000", "123859.541000", "123859.543000", "123939.504000", "123939.506000", "123939.508000", "123939.510000", "123939.513000", "123939.515000", "123939.517000", "123939.519000", "123939.521000", "123939.523000", "123939.525000", "123939.527000", "123939.529000", "123939.531000", "123939.533000", "123939.535000", "123939.537000", "123939.539000", "123939.542000", "123939.544000", "124019.504000", "124019.507000", "124019.509000", "124019.511000", "124019.513000", "124019.515000", "124019.517000", "124019.519000", "124019.521000", "124019.523000", "124019.525000", "124019.527000", "124019.529000", "124019.532000", "124019.534000", "124019.536000", "124019.538000", "124019.540000", "124019.542000", "124019.544000", "124059.503000", "124059.505000", "124059.507000", "124059.509000", "124059.511000", "124059.514000", "124059.516000", "124059.518000", "124059.520000", "124059.522000", "124059.524000", "124059.526000", "124059.528000", "124059.530000", "124059.532000", "124059.534000", "124059.537000", "124059.539000", "124059.541000", "124059.543000", "124100.700000"],
      "InstanceNumber": [1, 2, 3, 4, 5, 6, 7, 8, 9, 10, 11, 12, 13, 14, 15, 16, 17, 18, 19, 20, 21, 22, 23, 24, 25, 26, 27, 28, 29, 30, 31, 32, 33, 34, 35, 36, 37, 38, 39, 40, 41, 42, 43, 44, 45, 46, 47, 48, 49, 50, 51, 52, 53, 54, 55, 56, 57, 58, 59, 60, 61, 62, 63, 64, 65, 66, 67, 68, 69, 70, 71, 72, 73, 74, 75, 76, 77, 78, 79, 80, 81, 82, 83, 84, 85, 86, 87, 88, 89, 90, 91, 92, 93, 94, 95, 96, 97, 98, 99, 100, 101, 102, 103, 104, 105, 106, 107, 108, 109, 110, 111, 112, 113, 114, 115, 116, 117, 118, 119, 120, 121, 122, 123, 124, 125, 126, 127, 128, 129, 130, 131, 132, 133, 134, 135, 136, 137, 138, 139, 140, 141, 142, 143, 144, 145, 146, 147, 148, 149, 150, 151, 152, 153, 154, 155, 156, 157, 158, 159, 160, 161, 162, 163, 164, 165, 166, 167, 168, 169, 170, 171, 172, 173, 174, 175, 176, 177, 178, 179, 180, 181, 182, 183, 184, 185, 186, 187, 188, 189, 190, 191, 192, 193, 194, 195, 196, 197, 198, 199, 200],
      "LargestImagePixelValue": [664, 665, 665, 665, 667, 669, 664, 665, 667, 663, 668, 666, 665, 664, 663, 664, 665, 663, 668, 661, 666, 664, 666, 665, 666, 666, 664, 667, 669, 663, 662, 663, 661, 665, 670, 663, 663, 663, 662, 666, 662, 664, 666, 662, 664, 666, 661, 663, 661, 668, 664, 664, 663, 662, 661, 666, 671, 668, 663, 661, 667, 665, 666, 668, 663, 662, 662, 664, 667, 661, 663, 666, 666, 661, 666, 660, 664, 664, 663, 667, 663, 667, 662, 661, 664, 664, 660, 660, 662, 665, 664, 663, 665, 666, 659, 664, 667, 668, 662, 663, 666, 667, 666, 662, 663, 661, 666, 664, 666, 668, 663, 664, 668, 665, 661, 662, 662, 663, 662, 666, 672, 662, 666, 662, 665, 665, 665, 663, 661, 663, 667, 663, 661, 663, 661, 662, 662, 662, 662, 665, 661, 667, 668, 662, 664, 663, 665, 666, 663, 662, 660, 662, 660, 663, 663, 663, 664, 664, 664, 665, 663, 666, 665, 665, 665, 669, 664, 663, 660, 663, 668, 670, 663, 661, 661, 665, 661, 663, 663, 668, 661, 663, 665, 665, 665, 661, 663, 663, 664, 665, 662, 663, 665, 666, 662, 664, 665, 661, 665, 666],
      "WindowCenter": [479.0, 479.0, 479.0, 479.0, 479.0, 479.0, 479.0, 479.0, 479.0, 479.0, 478.0, 479.0, 479.0, 479.0, 479.0, 479.0, 479.0, 479.0, 479.0, 479.0, 479.0, 479.0, 479.0, 479.0, 479.0, 479.0, 479.0, 479.0, 479.0, 479.0, 479.0, 479.0, 479.0, 479.0, 479.0, 479.0, 479.0, 479.0, 479.0, 478.0, 479.0, 479.0, 479.0, 479.0, 479.0, 479.0, 479.0, 479.0, 479.0, 479.0, 479.0, 478.0, 479.0, 479.0, 479.0, 479.0, 480.0, 478.0, 479.0, 479.0, 479.0, 479.0, 479.0, 479.0, 479.0, 479.0, 479.0, 479.0, 479.0, 479.0, 479.0, 479.0, 479.0, 479.0, 479.0, 479.0, 479.0, 479.0, 479.0, 479.0, 479.0, 479.0, 479.0, 479.0, 479.0, 479.0, 479.0, 479.0, 479.0, 479.0, 479.0, 479.0, 479.0, 479.0, 479.0, 479.0, 479.0, 479.0, 479.0, 479.0, 478.0, 479.0, 478.0, 479.0, 479.0, 479.0, 479.0, 479.0, 479.0, 479.0, 479.0, 478.0, 479.0, 479.0, 479.0, 479.0, 479.0, 479.0, 479.0, 479.0, 479.0, 479.0, 479.0, 479.0, 479.0, 479.0, 479.0, 479.0, 479.0, 479.0, 479.0, 479.0, 479.0, 479.0, 479.0, 479.0, 479.0, 478.0, 479.0, 479.0, 479.0, 479.0, 479.0, 479.0, 479.0, 479.0, 479.0, 478.0, 479.0, 479.0, 479.0, 478.0, 479.0, 479.0, 479.0, 479.0, 479.0, 479.0, 479.0, 479.0, 478.0, 479.0, 479.0, 479.0, 479.0, 479.0, 479.0, 479.0, 479.0, 479.0, 479.0, 480.0, 479.0, 479.0, 479.0, 479.0, 479.0, 479.0, 479.0, 479.0, 479.0, 478.0, 479.0, 479.0, 479.0, 479.0, 479.0, 478.0, 479.0, 479.0, 479.0, 479.0, 478.0, 478.0, 479.0, 479.0, 478.0, 478.0, 479.0, 479.0],
      "WindowWidth": [1001.0, 1001.0, 1001.0, 1001.0, 1000.0, 1000.0, 1001.0, 1000.0, 1000.0, 1000.0, 999.0, 1001.0, 1001.0, 1000.0, 1000.0, 1000.0, 1001.0, 1000.0, 1000.0, 1000.0, 1000.0, 1001.0, 1000.0, 1000.0, 1000.0, 1001.0, 1001.0, 1000.0, 1000.0, 1000.0, 1000.0, 1000.0, 1000.0, 1000.0, 1001.0, 1001.0, 1001.0, 1000.0, 1001.0, 999.0, 1000.0, 1001.0, 1000.0, 1000.0, 1000.0, 1000.0, 1000.0, 1001.0, 1000.0, 1000.0, 1000.0, 999.0, 1000.0, 1001.0, 1000.0, 1001.0, 1001.0, 1000.0, 1000.0, 1000.0, 1001.0, 1000.0, 1000.0, 1000.0, 1000.0, 1000.0, 1000.0, 1000.0, 1000.0, 1000.0, 1000.0, 1001.0, 1000.0, 1000.0, 1000.0, 1000.0, 1000.0, 1000.0, 1000.0, 1000.0, 1000.0, 1001.0, 1001.0, 1000.0, 1000.0, 1000.0, 1001.0, 1000.0, 1001.0, 1000.0, 1000.0, 1001.0, 1000.0, 1001.0, 1001.0, 1000.0, 1001.0, 1000.0, 1000.0, 1000.0, 1000.0, 1000.0, 999.0, 1000.0, 1000.0, 1000.0, 1001.0, 1001.0, 1000.0, 1000.0, 1000.0, 1000.0, 1000.0, 1000.0, 1000.0, 1000.0, 1000.0, 1000.0, 1000.0, 1000.0, 1001.0, 1001.0, 1001.0, 1000.0, 1000.0, 1000.0, 1000.0, 1001.0, 1000.0, 1000.0, 1000.0, 1000.0, 1000.0, 1000.0, 1001.0, 1000.0, 1001.0, 999.0, 1000.0, 1000.0, 1000.0, 1000.0, 1000.0, 1000.0, 1001.0, 1000.0, 1000.0, 999.0, 1000.0, 1000.0, 1000.0, 1000.0, 1000.0, 1000.0, 1000.0, 1000.0, 1001.0, 1000.0, 1000.0, 1000.0, 999.0, 1000.0, 1000.0, 1000.0, 1000.0, 1000.0, 1000.0, 1000.0, 1000.0, 1001.0, 1000.0, 1001.0, 1001.0, 1000.0, 1000.0, 1000.0, 1000.0, 1000.0, 1000.0, 1000.0, 1001.0, 999.0, 1001.0, 1000.0, 1000.0, 1000.0, 1000.0, 999.0, 1000.0, 1000.0, 1000.0, 1000.0, 999.0, 999.0, 1000.0, 1000.0, 999.0, 999.0, 1000.0, 1000.0]
    },
    "slices": {}
  }
}