{
  "AcquisitionMatrixPE": 80,
  "AcquisitionNumber": 1,
  "AcquisitionTime": "12:25:46.505000",
  "BandwidthPerPixelPhaseEncode": 25,
  "BaseResolution": 80,
  "BodyPartExamined": "BRAIN",
  "CoilCombinationMethod": "Sum of Squares",
  "ConsistencyInfo": "N4_VE11E_LATEST_20181129",
  "ConversionSoftware": "dcm2niix",
  "ConversionSoftwareVersion": "v1.0.20220720",
  "DerivedVendorReportedEchoSpacing": 0.0005,
  "DeviceSerialNumber": "66112",
  "DwellTime": 2.7e-06,
  "EchoTime": 0.03,
  "EchoTrainLength": 80,
  "EffectiveEchoSpacing": 0.0005,
  "FlipAngle": 10,
  "HeudiconvVersion": "0.13.1",
  "ImageOrientationPatientDICOM": [0.999938, 0.0109402, 0.00190264, -0.0109953, 0.951515, 0.307407],
  "ImageOrientationText": "Tra>Cor(17.9)>Sag(-0.1)",
  "ImageType": [
    "ORIGINAL",
    "PRIMARY",
    "M",
    "ND",
    "NORM",
    "MOSAIC"
],
  "ImagingFrequency": 123.259,
  "InPlanePhaseEncodingDirectionDICOM": "COL",
  "InstitutionAddress": "Maynard 3,Hanover,NH,US,03755",
  "InstitutionName": "Dartmouth College - PBS",
  "InstitutionalDepartmentName": "Department",
  "MRAcquisitionType": "2D",
  "MagneticFieldStrength": 3,
  "Manufacturer": "Siemens",
  "ManufacturersModelName": "Prisma",
  "MatrixCoilMode": "SENSE",
  "Modality": "MR",
  "NonlinearGradientCorrection": false,
  "PartialFourier": 1,
  "PatientPosition": "HFS",
  "PercentPhaseFOV": 100,
  "PercentSampling": 100,
  "PhaseEncodingDirection": "j-",
  "PhaseEncodingSteps": 80,
  "PhaseResolution": 1,
  "PixelBandwidth": 2315,
  "ProcedureStepDescription": "dbic^QA",
  "ProtocolName": "func-bold_fa-10_acq-1000ms",
  "PulseSequenceDetails": "%SiemensSeq%\\ep2d_bold",
  "ReceiveCoilActiveElements": "HC1-7;NC1,2",
  "ReceiveCoilName": "HeadNeck_64",
  "ReconMatrixPE": 80,
  "RepetitionTime": 1,
  "SAR": 0.00288963,
  "ScanOptions": "FS",
  "ScanningSequence": "EP",
  "SequenceName": "*epfid2d1_80",
  "SequenceVariant": "SK",
  "SeriesDescription": "func-bold_fa-10_acq-1000ms",
  "SeriesNumber": 9,
  "ShimSetting": [4219, -7718, -7483, -78, -141, -165, -90, 74],
  "SliceThickness": 3.5,
  "SliceTiming": [0, 0.5875, 0.195, 0.7825, 0.39],
  "SoftwareVersions": "syngo MR E11",
  "SpacingBetweenSlices": 3.99,
  "StationName": "AWP66112",
  "TotalReadoutTime": 0.0395,
  "TxRefAmp": 218.972,
  "dcmmeta_affine": [
    [-2.999814987182617, -0.032985951751470566, -0.006195259280502796, 120.52779388427734],
    [-0.032820578664541245, 2.854544162750244, 1.226560354232788, -105.11248779296875],
    [0.0057079242542386055, -0.9222198724746704, 3.7967896461486816, 31.748369216918945],
    [0.0, 0.0, 0.0, 1.0]
],
  "dcmmeta_reorient_transform": [
    [0.0, -1.0, 0.0, 79.0],
    [1.0, 0.0, 0.0, 0.0],
    [0.0, 0.0, 1.0, 0.0],
    [0.0, 0.0, 0.0, 1.0]
],
  "dcmmeta_shape": [80, 80, 5, 200],
  "dcmmeta_slice_dim": 2,
  "dcmmeta_version": 0.6,
  "global": {
    "const": {
      "AccessionNumber": "qa64",
      "AcquisitionMatrix": [80, 0, 0, 80],
      "AngioFlag": "N",
      "BitsAllocated": 16,
      "BitsStored": 12,
      "BodyPartExamined": "BRAIN",
      "Columns": 240,
      "EchoNumbers": 1,
      "EchoTime": 30.0,
      "EchoTrainLength": 80,
      "FlipAngle": 10.0,
      "HighBit": 11,
      "ImageOrientationPatient": [0.9999383441641, 0.01094019314267, 0.00190264141818, -0.0109953173523, 0.9515147223212, 0.3074066300559],
      "ImagePositionPatient": [-355.26823223265, -351.3856822562, -115.34122663715],
      "ImageType": [
        "ORIGINAL",
        "PRIMARY",
        "M",
        "ND",
        "NORM",
        "MOSAIC"
],
      "ImagedNucleus": "1H",
      "ImagingFrequency": 123.259251,
      "InPlanePhaseEncodingDirection": "COL",
      "MRAcquisitionType": "2D",
      "MagneticFieldStrength": 3.0,
      "Manufacturer": "SIEMENS",
      "ManufacturerModelName": "Prisma",
      "Modality": "MR",
      "NumberOfAverages": 1.0,
      "NumberOfPhaseEncodingSteps": 80,
      "PercentPhaseFieldOfView": 100.0,
      "PercentSampling": 100.0,
      "PerformedProcedureStepStartTime": "121533.126000",
      "PhotometricInterpretation": "MONOCHROME2",
      "PixelBandwidth": 2315.0,
      "PixelRepresentation": 0,
      "PixelSpacing": [3.0, 3.0],
      "ProtocolName": "func-bold_fa-10_acq-1000ms",
      "RepetitionTime": 1000.0,
      "Rows": 240,
      "SAR": 0.00288963389873,
      "SamplesPerPixel": 1,
      "ScanOptions": "FS",
      "ScanningSequence": "EP",
      "SequenceName": "*epfid2d1_80",
      "SequenceVariant": "SK",
      "SeriesDescription": "func-bold_fa-10_acq-1000ms",
      "SeriesNumber": 9,
      "SeriesTime": "122619.591000",
      "SliceLocation": -2.2886273334858,
      "SliceThickness": 3.5,
      "SmallestImagePixelValue": 0,
      "SoftwareVersions": "syngo MR E11",
      "SpacingBetweenSlices": 3.9899999810409,
      "SpecificCharacterSet": "ISO_IR 100",
      "StudyID": "2",
      "StudyTime": "121533.021000",
      "TransmitCoilName": "Body",
      "VariableFlipAngleFlag": "N",
      "WindowCenterWidthExplanation": "Algo1"
    },
    "slices": {}
  },
  "time": {
    "samples": {
      "AcquisitionNumber": [1, 2, 3, 4, 5, 6, 7, 8, 9, 10, 11, 12, 13, 14, 15, 16, 17, 18, 19, 20, 21, 22, 23, 24, 25, 26, 27, 28, 29, 30, 31, 32, 33, 34, 35, 36, 37, 38, 39, 40, 41, 42, 43, 44, 45, 46, 47, 48, 49, 50, 51, 52, 53, 54, 55, 56, 57, 58, 59, 60, 61, 62, 63, 64, 65, 66, 67, 68, 69, 70, 71, 72, 73, 74, 75, 76, 77, 78, 79, 80, 81, 82, 83, 84, 85, 86, 87, 88, 89, 90, 91, 92, 93, 94, 95, 96, 97, 98, 99, 100, 101, 102, 103, 104, 105, 106, 107, 108, 109, 110, 111, 112, 113, 114, 115, 116, 117, 118, 119, 120, 121, 122, 123, 124, 125, 126, 127, 128, 129, 130, 131, 132, 133, 134, 135, 136, 137, 138, 139, 140, 141, 142, 143, 144, 145, 146, 147, 148, 149, 150, 151, 152, 153, 154, 155, 156, 157, 158, 159, 160, 161, 162, 163, 164, 165, 166, 167, 168, 169, 170, 171, 172, 173, 174, 175, 176, 177, 178, 179, 180, 181, 182, 183, 184, 185, 186, 187, 188, 189, 190, 191, 192, 193, 194, 195, 196, 197, 198, 199, 200],
      "AcquisitionTime": ["122546.505000", "122547.505000", "122548.505000", "122549.505000", "122550.505000", "122551.505000", "122552.505000", "122553.505000", "122554.505000", "122555.505000", "122556.505000", "122557.505000", "122558.505000", "122559.505000", "122600.505000", "122601.505000", "122602.505000", "122603.505000", "122604.505000", "122605.505000", "122606.505000", "122607.505000", "122608.505000", "122609.505000", "122610.505000", "122611.505000", "122612.505000", "122613.505000", "122614.505000", "122615.505000", "122616.505000", "122617.505000", "122618.505000", "122619.505000", "122620.505000", "122621.505000", "122622.505000", "122623.505000", "122624.505000", "122625.505000", "122626.505000", "122627.505000", "122628.505000", "122629.505000", "122630.505000", "122631.505000", "122632.505000", "122633.505000", "122634.505000", "122635.505000", "122636.505000", "122637.505000", "122638.505000", "122639.505000", "122640.505000", "122641.505000", "122642.505000", "122643.505000", "122644.505000", "122645.505000", "122646.505000", "122647.505000", "122648.505000", "122649.505000", "122650.505000", "122651.505000", "122652.505000", "122653.505000", "122654.505000", "122655.505000", "122656.505000", "122657.505000", "122658.505000", "122659.505000", "122700.505000", "122701.505000", "122702.505000", "122703.505000", "122704.505000", "122705.505000", "122706.505000", "122707.505000", "122708.505000", "122709.505000", "122710.505000", "122711.505000", "122712.505000", "122713.505000", "122714.505000", "122715.505000", "122716.505000", "122717.505000", "122718.505000", "122719.505000", "122720.505000", "122721.505000", "122722.505000", "122723.505000", "122724.505000", "122725.505000", "122726.505000", "122727.505000", "122728.505000", "122729.505000", "122730.505000", "122731.505000", "122732.505000", "122733.505000", "122734.505000", "122735.505000", "122736.505000", "122737.505000", "122738.505000", "122739.505000", "122740.505000", "122741.505000", "122742.505000", "122743.505000", "122744.505000", "122745.505000", "122746.505000", "122747.505000", "122748.505000", "122749.505000", "122750.505000", "122751.505000", "122752.505000", "122753.505000", "122754.505000", "122755.505000", "122756.505000", "122757.505000", "122758.505000", "122759.505000", "122800.505000", "122801.505000", "122802.505000", "122803.505000", "122804.505000", "122805.505000", "122806.505000", "122807.505000", "122808.505000", "122809.505000", "122810.505000", "122811.505000", "122812.505000", "122813.505000", "122814.505000", "122815.505000", "122816.505000", "122817.505000", "122818.505000", "122819.505000", "122820.505000", "122821.505000", "122822.505000", "122823.505000", "122824.505000", "122825.505000", "122826.505000", "122827.505000", "122828.505000", "122829.505000", "122830.505000", "122831.505000", "122832.505000", "122833.505000", "122834.505000", "122835.505000", "122836.505000", "122837.505000", "122838.505000", "122839.505000", "122840.505000", "122841.505000", "122842.505000", "122843.505000", "122844.505000", "122845.505000", "122846.505000", "122847.505000", "122848.505000", "122849.505000", "122850.505000", "122851.505000", "122852.505000", "122853.505000", "122854.505000", "122855.505000", "122856.505000", "122857.505000", "122858.505000", "122859.505000", "122900.505000", "122901.505000", "122902.505000", "122903.505000", "122904.505000", "122905.505000"],
      "ContentTime": ["122619.594000", "122619.597000", "122619.599000", "122619.601000", "122619.603000", "122619.605000", "122619.607000", "122619.619000", "122619.621000", "122619.623000", "122619.625000", "122619.627000", "122619.629000", "122619.631000", "122619.633000", "122619.635000", "122619.637000", "122619.639000", "122619.641000", "122619.643000", "122619.645000", "122619.647000", "122619.649000", "122619.651000", "122619.653000", "122619.656000", "122619.658000", "122619.660000", "122619.662000", "122619.664000", "122619.666000", "122619.668000", "122639.589000", "122639.592000", "122639.594000", "122639.596000", "122639.598000", "122639.600000", "122639.602000", "122639.604000", "122639.606000", "122639.608000", "122639.610000", "122639.612000", "122639.614000", "122639.616000", "122639.619000", "122639.621000", "122639.623000", "122639.625000", "122639.627000", "122639.629000", "122659.588000", "122659.590000", "122659.593000", "122659.595000", "122659.597000", "122659.599000", "122659.601000", "122659.603000", "122659.605000", "122659.607000", "122659.609000", "122659.611000", "122659.613000", "122659.615000", "122659.617000", "122659.619000", "122659.621000", "122659.623000", "122659.625000", "122659.627000", "122719.588000", "122719.590000", "122719.592000", "122719.594000", "122719.596000", "122719.598000", "122719.601000", "122719.603000", "122719.605000", "122719.607000", "122719.609000", "122719.611000", "122719.613000", "122719.615000", "122719.617000", "122719.619000", "122719.621000", "122719.635000", "122719.637000", "122719.639000", "122739.588000", "122739.590000", "122739.593000", "122739.595000", "122739.597000", "122739.599000", "122739.601000", "122739.603000", "122739.605000", "122739.607000", "122739.609000", "122739.611000", "122739.613000", "122739.615000", "122739.617000", "122739.619000", "122739.621000", "122739.624000", "122739.626000", "122739.628000", "122759.589000", "122759.591000", "122759.593000", "122759.595000", "122759.597000", "122759.600000", "122759.602000", "122759.604000", "122759.606000", "122759.608000", "122759.610000", "122759.612000", "122759.614000", "122759.616000", "122759.618000", "122759.620000", "122759.622000", "122759.624000", "122759.627000", "122759.629000", "122819.589000", "122819.591000", "122819.593000", "122819.595000", "122819.598000", "122819.600000", "122819.602000", "122819.604000", "122819.606000", "122819.608000", "122819.610000", "122819.612000", "122819.614000", "122819.616000", "122819.618000", "122819.621000", "122819.623000", "122819.625000", "122819.627000", "122819.629000", "122839.589000", "122839.591000", "122839.594000", "122839.596000", "122839.598000", "122839.600000", "122839.602000", "122839.604000", "122839.606000", "122839.608000", "122839.610000", "122839.612000", "122839.614000", "122839.616000", "122839.618000", "122839.620000", "122839.623000", "122839.625000", "122839.627000", "122839.629000", "122859.589000", "122859.591000", "122859.593000", "122859.595000", "122859.597000", "122859.599000", "122859.601000", "122859.604000", "122859.606000", "122859.608000", "122859.610000", "122859.612000", "122859.614000", "122859.616000", "122859.618000", "122859.620000", "122859.622000", "122859.625000", "122859.627000", "122859.629000", "122907.348000", "122907.351000", "122907.354000", "122907.357000", "122907.359000", "122907.363000", "122907.368000", "122907.370000"],
      "InstanceCreationTime": ["122619.594000", "122619.597000", "122619.599000", "122619.601000", "122619.603000", "122619.605000", "122619.607000", "122619.619000", "122619.621000", "122619.623000", "122619.625000", "122619.627000", "122619.629000", "122619.631000", "122619.633000", "122619.635000", "122619.637000", "122619.639000", "122619.641000", "122619.643000", "122619.645000", "122619.647000", "122619.649000", "122619.651000", "122619.653000", "122619.656000", "122619.658000", "122619.660000", "122619.662000", "122619.664000", "122619.666000", "122619.668000", "122639.589000", "122639.592000", "122639.594000", "122639.596000", "122639.598000", "122639.600000", "122639.602000", "122639.604000", "122639.606000", "122639.608000", "122639.610000", "122639.612000", "122639.614000", "122639.616000", "122639.619000", "122639.621000", "122639.623000", "122639.625000", "122639.627000", "122639.629000", "122659.588000", "122659.590000", "122659.593000", "122659.595000", "122659.597000", "122659.599000", "122659.601000", "122659.603000", "122659.605000", "122659.607000", "122659.609000", "122659.611000", "122659.613000", "122659.615000", "122659.617000", "122659.619000", "122659.621000", "122659.623000", "122659.625000", "122659.627000", "122719.588000", "122719.590000", "122719.592000", "122719.594000", "122719.596000", "122719.598000", "122719.601000", "122719.603000", "122719.605000", "122719.607000", "122719.609000", "122719.611000", "122719.613000", "122719.615000", "122719.617000", "122719.619000", "122719.621000", "122719.635000", "122719.637000", "122719.639000", "122739.588000", "122739.590000", "122739.593000", "122739.595000", "122739.597000", "122739.599000", "122739.601000", "122739.603000", "122739.605000", "122739.607000", "122739.609000", "122739.611000", "122739.613000", "122739.615000", "122739.617000", "122739.619000", "122739.621000", "122739.624000", "122739.626000", "122739.628000", "122759.589000", "122759.591000", "122759.593000", "122759.595000", "122759.597000", "122759.600000", "122759.602000", "122759.604000", "122759.606000", "122759.608000", "122759.610000", "122759.612000", "122759.614000", "122759.616000", "122759.618000", "122759.620000", "122759.622000", "122759.624000", "122759.627000", "122759.629000", "122819.589000", "122819.591000", "122819.593000", "122819.595000", "122819.598000", "122819.600000", "122819.602000", "122819.604000", "122819.606000", "122819.608000", "122819.610000", "122819.612000", "122819.614000", "122819.616000", "122819.618000", "122819.621000", "122819.623000", "122819.625000", "122819.627000", "122819.629000", "122839.589000", "122839.591000", "122839.594000", "122839.596000", "122839.598000", "122839.600000", "122839.602000", "122839.604000", "122839.606000", "122839.608000", "122839.610000", "122839.612000", "122839.614000", "122839.616000", "122839.618000", "122839.620000", "122839.623000", "122839.625000", "122839.627000", "122839.629000", "122859.589000", "122859.591000", "122859.593000", "122859.595000", "122859.597000", "122859.599000", "122859.601000", "122859.604000", "122859.606000", "122859.608000", "122859.610000", "122859.612000", "122859.614000", "122859.616000", "122859.618000", "122859.620000", "122859.622000", "122859.625000", "122859.627000", "122859.629000", "122907.348000", "122907.351000", "122907.354000", "122907.357000", "122907.359000", "122907.363000", "122907.368000", "122907.370000"],
      "InstanceNumber": [1, 2, 3, 4, 5, 6, 7, 8, 9, 10, 11, 12, 13, 14, 15, 16, 17, 18, 19, 20, 21, 22, 23, 24, 25, 26, 27, 28, 29, 30, 31, 32, 33, 34, 35, 36, 37, 38, 39, 40, 41, 42, 43, 44, 45, 46, 47, 48, 49, 50, 51, 52, 53, 54, 55, 56, 57, 58, 59, 60, 61, 62, 63, 64, 65, 66, 67, 68, 69, 70, 71, 72, 73, 74, 75, 76, 77, 78, 79, 80, 81, 82, 83, 84, 85, 86, 87, 88, 89, 90, 91, 92, 93, 94, 95, 96, 97, 98, 99, 100, 101, 102, 103, 104, 105, 106, 107, 108, 109, 110, 111, 112, 113, 114, 115, 116, 117, 118, 119, 120, 121, 122, 123, 124, 125, 126, 127, 128, 129, 130, 131, 132, 133, 134, 135, 136, 137, 138, 139, 140, 141, 142, 143, 144, 145, 146, 147, 148, 149, 150, 151, 152, 153, 154, 155, 156, 157, 158, 159, 160, 161, 162, 163, 164, 165, 166, 167, 168, 169, 170, 171, 172, 173, 174, 175, 176, 177, 178, 179, 180, 181, 182, 183, 184, 185, 186, 187, 188, 189, 190, 191, 192, 193, 194, 195, 196, 197, 198, 199, 200],
      "LargestImagePixelValue": [666, 665, 669, 664, 668, 663, 665, 665, 666, 668, 663, 662, 667, 668, 668, 668, 664, 665, 667, 670, 665, 669, 662, 664, 665, 666, 666, 666, 664, 666, 665, 666, 670, 663, 663, 663, 667, 669, 667, 664, 663, 664, 671, 670, 662, 664, 664, 666, 665, 669, 663, 665, 664, 669, 666, 666, 665, 666, 667, 668, 670, 663, 666, 665, 664, 668, 669, 668, 663, 663, 667, 666, 671, 665, 665, 663, 667, 664, 664, 663, 665, 663, 664, 667, 667, 664, 664, 666, 667, 666, 669, 662, 667, 666, 668, 668, 664, 662, 664, 667, 665, 667, 662, 667, 667, 666, 666, 672, 665, 666, 666, 667, 667, 666, 664, 662, 666, 669, 663, 663, 662, 664, 666, 663, 666, 666, 664, 666, 671, 666, 665, 669, 663, 669, 664, 667, 665, 667, 664, 665, 667, 664, 662, 667, 668, 668, 667, 667, 662, 664, 665, 667, 670, 667, 664, 664, 666, 670, 665, 667, 662, 666, 667, 664, 665, 664, 661, 668, 666, 667, 666, 663, 668, 665, 664, 664, 664, 664, 667, 666, 665, 665, 666, 662, 663, 665, 668, 664, 664, 665, 667, 666, 668, 663, 663, 663, 663, 667, 661, 664],
      "WindowCenter": [479.0, 479.0, 479.0, 479.0, 479.0, 478.0, 479.0, 479.0, 479.0, 479.0, 479.0, 479.0, 479.0, 478.0, 478.0, 479.0, 479.0, 479.0, 479.0, 480.0, 479.0, 478.0, 479.0, 479.0, 479.0, 478.0, 479.0, 479.0, 479.0, 479.0, 479.0, 478.0, 479.0, 479.0, 478.0, 479.0, 479.0, 479.0, 478.0, 479.0, 479.0, 479.0, 479.0, 479.0, 479.0, 479.0, 479.0, 478.0, 478.0, 479.0, 479.0, 479.0, 479.0, 478.0, 479.0, 478.0, 479.0, 479.0, 479.0, 478.0, 479.0, 478.0, 479.0, 479.0, 478.0, 478.0, 478.0, 478.0, 479.0, 479.0, 478.0, 478.0, 479.0, 478.0, 479.0, 479.0, 478.0, 478.0, 479.0, 478.0, 479.0, 478.0, 478.0, 478.0, 478.0, 478.0, 478.0, 478.0, 478.0, 478.0, 478.0, 479.0, 479.0, 478.0, 478.0, 478.0, 478.0, 478.0, 478.0, 478.0, 478.0, 478.0, 478.0, 479.0, 478.0, 478.0, 478.0, 479.0, 478.0, 478.0, 478.0, 478.0, 478.0, 478.0, 478.0, 478.0, 478.0, 478.0, 478.0, 478.0, 479.0, 478.0, 478.0, 478.0, 478.0, 478.0, 479.0, 478.0, 479.0, 478.0, 478.0, 478.0, 479.0, 478.0, 478.0, 478.0, 479.0, 479.0, 478.0, 478.0, 478.0, 478.0, 479.0, 478.0, 478.0, 478.0, 478.0, 478.0, 479.0, 478.0, 478.0, 477.0, 479.0, 478.0, 478.0, 478.0, 478.0, 478.0, 477.0, 478.0, 479.0, 478.0, 478.0, 478.0, 478.0, 478.0, 478.0, 478.0, 478.0, 478.0, 478.0, 478.0, 478.0, 478.0, 478.0, 478.0, 478.0, 478.0, 478.0, 478.0, 478.0, 478.0, 478.0, 478.0, 478.0, 478.0, 477.0, 478.0, 478.0, 478.0, 478.0, 478.0, 478.0, 478.0, 478.0, 478.0, 478.0, 478.0, 478.0, 478.0],
      "WindowWidth": [1001.0, 1000.0, 1000.0, 1000.0, 1000.0, 999.0, 1000.0, 1000.0, 1000.0, 1000.0, 1000.0, 1000.0, 1000.0, 999.0, 999.0, 1000.0, 1000.0, 1000.0, 1000.0, 1001.0, 1000.0, 999.0, 1000.0, 1000.0, 1000.0, 999.0, 1000.0, 1000.0, 1000.0, 1000.0, 1000.0, 999.0, 1000.0, 1000.0, 999.0, 1000.0, 1000.0, 999.0, 999.0, 1000.0, 1000.0, 1000.0, 1000.0, 1000.0, 999.0, 1000.0, 1000.0, 999.0, 999.0, 999.0, 1000.0, 1000.0, 1000.0, 999.0, 999.0, 999.0, 999.0, 1000.0, 1000.0, 999.0, 999.0, 999.0, 999.0, 1000.0, 999.0, 999.0, 999.0, 999.0, 999.0, 999.0, 999.0, 999.0, 1000.0, 999.0, 999.0, 999.0, 999.0, 999.0, 999.0, 999.0, 999.0, 999.0, 999.0, 999.0, 999.0, 999.0, 999.0, 999.0, 998.0, 999.0, 999.0, 999.0, 999.0, 998.0, 999.0, 999.0, 999.0, 999.0, 999.0, 999.0, 999.0, 999.0, 999.0, 999.0, 999.0, 998.0, 998.0, 1000.0, 999.0, 999.0, 999.0, 998.0, 999.0, 999.0, 999.0, 999.0, 999.0, 998.0, 999.0, 999.0, 999.0, 999.0, 999.0, 998.0, 999.0, 999.0, 999.0, 999.0, 1000.0, 999.0, 999.0, 999.0, 999.0, 998.0, 998.0, 998.0, 999.0, 999.0, 999.0, 998.0, 998.0, 999.0, 999.0, 999.0, 999.0, 998.0, 998.0, 999.0, 999.0, 999.0, 999.0, 998.0, 1000.0, 999.0, 999.0, 999.0, 998.0, 999.0, 998.0, 999.0, 999.0, 999.0, 998.0, 999.0, 999.0, 999.0, 999.0, 999.0, 998.0, 998.0, 999.0, 999.0, 999.0, 998.0, 998.0, 999.0, 999.0, 999.0, 999.0, 999.0, 998.0, 999.0, 999.0, 999.0, 998.0, 998.0, 998.0, 999.0, 999.0, 999.0, 998.0, 998.0, 998.0, 998.0, 998.0, 998.0, 998.0, 998.0, 998.0, 999.0]
    },
    "slices": {}
  }
}