{
  "AcquisitionMatrixPE": 80,
  "AcquisitionNumber": 1,
  "AcquisitionTime": "12:22:45.670000",
  "BandwidthPerPixelPhaseEncode": 25,
  "BaseResolution": 80,
  "BodyPartExamined": "BRAIN",
  "CoilCombinationMethod": "Sum of Squares",
  "ConsistencyInfo": "N4_VE11E_LATEST_20181129",
  "ConversionSoftware": "dcm2niix",
  "ConversionSoftwareVersion": "v1.0.20220720",
  "DerivedVendorReportedEchoSpacing": 0.0005,
  "DeviceSerialNumber": "66112",
  "DwellTime": 2.7e-06,
  "EchoTime": 0.03,
  "EchoTrainLength": 80,
  "EffectiveEchoSpacing": 0.0005,
  "FlipAngle": 10,
  "HeudiconvVersion": "0.13.1",
  "ImageOrientationPatientDICOM": [0.999938, 0.0109402, 0.00190264, -0.0109953, 0.951515, 0.307407],
  "ImageOrientationText": "Tra>Cor(17.9)>Sag(-0.1)",
  "ImageType": [
    "ORIGINAL",
    "PRIMARY",
    "M",
    "ND",
    "NORM",
    "MOSAIC"
],
  "ImagingFrequency": 123.259,
  "InPlanePhaseEncodingDirectionDICOM": "COL",
  "InstitutionAddress": "Maynard 3,Hanover,NH,US,03755",
  "InstitutionName": "Dartmouth College - PBS",
  "InstitutionalDepartmentName": "Department",
  "MRAcquisitionType": "2D",
  "MagneticFieldStrength": 3,
  "Manufacturer": "Siemens",
  "ManufacturersModelName": "Prisma",
  "MatrixCoilMode": "SENSE",
  "Modality": "MR",
  "NonlinearGradientCorrection": false,
  "PartialFourier": 1,
  "PatientPosition": "HFS",
  "PercentPhaseFOV": 100,
  "PercentSampling": 100,
  "PhaseEncodingDirection": "j-",
  "PhaseEncodingSteps": 80,
  "PhaseResolution": 1,
  "PixelBandwidth": 2315,
  "ProcedureStepDescription": "dbic^QA",
  "ProtocolName": "func-bold_fa-10_acq-341ms",
  "PulseSequenceDetails": "%SiemensSeq%\\ep2d_bold",
  "ReceiveCoilActiveElements": "HC1-7;NC1,2",
  "ReceiveCoilName": "HeadNeck_64",
  "ReconMatrixPE": 80,
  "RepetitionTime": 0.341,
  "SAR": 0.008474,
  "ScanOptions": "FS",
  "ScanningSequence": "EP",
  "SequenceName": "*epfid2d1_80",
  "SequenceVariant": "SK",
  "SeriesDescription": "func-bold_fa-10_acq-341ms",
  "SeriesNumber": 5,
  "ShimSetting": [4219, -7718, -7483, -78, -141, -165, -90, 74],
  "SliceThickness": 3.5,
  "SliceTiming": [0, 0.1925, 0.0625, 0.255, 0.1275],
  "SoftwareVersions": "syngo MR E11",
  "SpacingBetweenSlices": 3.99,
  "StationName": "AWP66112",
  "TotalReadoutTime": 0.0395,
  "TxRefAmp": 218.972,
  "dcmmeta_affine": [
    [-2.999814987182617, -0.032985951751470566, -0.006195259280502796, 120.52779388427734],
    [-0.032820578664541245, 2.854544162750244, 1.226560354232788, -105.11248779296875],
    [0.0057079242542386055, -0.9222198724746704, 3.7967896461486816, 31.748369216918945],
    [0.0, 0.0, 0.0, 1.0]
],
  "dcmmeta_reorient_transform": [
    [0.0, -1.0, 0.0, 79.0],
    [1.0, 0.0, 0.0, 0.0],
    [0.0, 0.0, 1.0, 0.0],
    [0.0, 0.0, 0.0, 1.0]
],
  "dcmmeta_shape": [80, 80, 5, 200],
  "dcmmeta_slice_dim": 2,
  "dcmmeta_version": 0.6,
  "global": {
    "const": {
      "AccessionNumber": "qa64",
      "AcquisitionMatrix": [80, 0, 0, 80],
      "AngioFlag": "N",
      "BitsAllocated": 16,
      "BitsStored": 12,
      "BodyPartExamined": "BRAIN",
      "Columns": 240,
      "EchoNumbers": 1,
      "EchoTime": 30.0,
      "EchoTrainLength": 80,
      "FlipAngle": 10.0,
      "HighBit": 11,
      "ImageOrientationPatient": [0.9999383441641, 0.01094019314267, 0.00190264141818, -0.0109953173523, 0.9515147223212, 0.3074066300559],
      "ImagePositionPatient": [-355.26823223265, -351.3856822562, -115.34122663715],
      "ImageType": [
        "ORIGINAL",
        "PRIMARY",
        "M",
        "ND",
        "NORM",
        "MOSAIC"
],
      "ImagedNucleus": "1H",
      "ImagingFrequency": 123.259251,
      "InPlanePhaseEncodingDirection": "COL",
      "MRAcquisitionType": "2D",
      "MagneticFieldStrength": 3.0,
      "Manufacturer": "SIEMENS",
      "ManufacturerModelName": "Prisma",
      "Modality": "MR",
      "NumberOfAverages": 1.0,
      "NumberOfPhaseEncodingSteps": 80,
      "PercentPhaseFieldOfView": 100.0,
      "PercentSampling": 100.0,
      "PerformedProcedureStepStartTime": "121533.126000",
      "PhotometricInterpretation": "MONOCHROME2",
      "PixelBandwidth": 2315.0,
      "PixelRepresentation": 0,
      "PixelSpacing": [3.0, 3.0],
      "ProtocolName": "func-bold_fa-10_acq-341ms",
      "RepetitionTime": 341.0,
      "Rows": 240,
      "SAR": 0.00847399999664,
      "SamplesPerPixel": 1,
      "ScanOptions": "FS",
      "ScanningSequence": "EP",
      "SequenceName": "*epfid2d1_80",
      "SequenceVariant": "SK",
      "SeriesDescription": "func-bold_fa-10_acq-341ms",
      "SeriesNumber": 5,
      "SeriesTime": "122319.677000",
      "SliceLocation": -2.2886273334858,
      "SliceThickness": 3.5,
      "SmallestImagePixelValue": 0,
      "SoftwareVersions": "syngo MR E11",
      "SpacingBetweenSlices": 3.9899999810409,
      "SpecificCharacterSet": "ISO_IR 100",
      "StudyID": "2",
      "StudyTime": "121533.021000",
      "TransmitCoilName": "Body",
      "VariableFlipAngleFlag": "N",
      "WindowCenterWidthExplanation": "Algo1"
    },
    "slices": {}
  },
  "time": {
    "samples": {
      "AcquisitionNumber": [1, 2, 3, 4, 5, 6, 7, 8, 9, 10, 11, 12, 13, 14, 15, 16, 17, 18, 19, 20, 21, 22, 23, 24, 25, 26, 27, 28, 29, 30, 31, 32, 33, 34, 35, 36, 37, 38, 39, 40, 41, 42, 43, 44, 45, 46, 47, 48, 49, 50, 51, 52, 53, 54, 55, 56, 57, 58, 59, 60, 61, 62, 63, 64, 65, 66, 67, 68, 69, 70, 71, 72, 73, 74, 75, 76, 77, 78, 79, 80, 81, 82, 83, 84, 85, 86, 87, 88, 89, 90, 91, 92, 93, 94, 95, 96, 97, 98, 99, 100, 101, 102, 103, 104, 105, 106, 107, 108, 109, 110, 111, 112, 113, 114, 115, 116, 117, 118, 119, 120, 121, 122, 123, 124, 125, 126, 127, 128, 129, 130, 131, 132, 133, 134, 135, 136, 137, 138, 139, 140, 141, 142, 143, 144, 145, 146, 147, 148, 149, 150, 151, 152, 153, 154, 155, 156, 157, 158, 159, 160, 161, 162, 163, 164, 165, 166, 167, 168, 169, 170, 171, 172, 173, 174, 175, 176, 177, 178, 179, 180, 181, 182, 183, 184, 185, 186, 187, 188, 189, 190, 191, 192, 193, 194, 195, 196, 197, 198, 199, 200],
      "AcquisitionTime": ["122245.670000", "122246.010000", "122246.350000", "122246.692500", "122247.032500", "122247.375000", "122247.715000", "122248.055000", "122248.397500", "122248.737500", "122249.080000", "122249.420000", "122249.760000", "122250.102500", "122250.442500", "122250.785000", "122251.125000", "122251.465000", "122251.807500", "122252.147500", "122252.490000", "122252.830000", "122253.170000", "122253.512500", "122253.852500", "122254.195000", "122254.535000", "122254.875000", "122255.217500", "122255.557500", "122255.900000", "122256.240000", "122256.580000", "122256.922500", "122257.262500", "122257.605000", "122257.945000", "122258.285000", "122258.627500", "122258.967500", "122259.310000", "122259.650000", "122259.990000", "122300.332500", "122300.672500", "122301.015000", "122301.355000", "122301.695000", "122302.037500", "122302.377500", "122302.720000", "122303.060000", "122303.400000", "122303.742500", "122304.082500", "122304.425000", "122304.765000", "122305.105000", "122305.447500", "122305.787500", "122306.130000", "122306.470000", "122306.810000", "122307.152500", "122307.492500", "122307.835000", "122308.175000", "122308.515000", "122308.857500", "122309.197500", "122309.540000", "122309.880000", "122310.220000", "122310.562500", "122310.902500", "122311.245000", "122311.585000", "122311.925000", "122312.267500", "122312.607500", "122312.950000", "122313.290000", "122313.630000", "122313.972500", "122314.312500", "122314.655000", "122314.995000", "122315.335000", "122315.677500", "122316.017500", "122316.360000", "122316.700000", "122317.040000", "122317.382500", "122317.722500", "122318.065000", "122318.405000", "122318.745000", "122319.087500", "122319.427500", "122319.770000", "122320.110000", "122320.450000", "122320.792500", "122321.132500", "122321.475000", "122321.815000", "122322.155000", "122322.497500", "122322.837500", "122323.180000", "122323.520000", "122323.860000", "122324.202500", "122324.542500", "122324.885000", "122325.225000", "122325.565000", "122325.907500", "122326.247500", "122326.590000", "122326.930000", "122327.270000", "122327.612500", "122327.952500", "122328.295000", "122328.635000", "122328.975000", "122329.317500", "122329.657500", "122330.000000", "122330.340000", "122330.680000", "122331.022500", "122331.362500", "122331.705000", "122332.045000", "122332.385000", "122332.727500", "122333.067500", "122333.410000", "122333.750000", "122334.090000", "122334.432500", "122334.772500", "122335.115000", "122335.455000", "122335.795000", "122336.137500", "122336.477500", "122336.820000", "122337.160000", "122337.500000", "122337.842500", "122338.182500", "122338.525000", "122338.865000", "122339.205000", "122339.547500", "122339.887500", "122340.230000", "122340.570000", "122340.910000", "122341.252500", "122341.592500", "122341.935000", "122342.275000", "122342.615000", "122342.957500", "122343.297500", "122343.640000", "122343.980000", "122344.320000", "122344.662500", "122345.002500", "122345.345000", "122345.685000", "122346.025000", "122346.367500", "122346.707500", "122347.050000", "122347.390000", "122347.730000", "122348.072500", "122348.412500", "122348.755000", "122349.095000", "122349.435000", "122349.777500", "122350.117500", "122350.460000", "122350.800000", "122351.140000", "122351.482500", "122351.822500", "122352.165000", "122352.505000", "122352.845000", "122353.187500", "122353.527500"],
      "ContentTime": ["122319.680000", "122319.683000", "122319.685000", "122319.687000", "122319.689000", "122319.691000", "122319.694000", "122319.696000", "122319.698000", "122319.700000", "122319.702000", "122319.705000", "122319.708000", "122319.710000", "122319.712000", "122319.714000", "122319.716000", "122319.718000", "122319.720000", "122319.722000", "122319.725000", "122319.744000", "122319.746000", "122319.749000", "122319.751000", "122319.753000", "122319.755000", "122319.757000", "122319.759000", "122319.761000", "122319.763000", "122319.765000", "122319.767000", "122319.769000", "122319.771000", "122319.773000", "122319.775000", "122319.777000", "122319.779000", "122319.782000", "122319.784000", "122319.786000", "122319.788000", "122319.790000", "122319.792000", "122319.794000", "122319.796000", "122319.798000", "122319.800000", "122319.802000", "122319.805000", "122319.807000", "122319.809000", "122319.811000", "122319.813000", "122319.815000", "122319.817000", "122319.819000", "122319.821000", "122319.823000", "122319.825000", "122319.827000", "122319.830000", "122319.832000", "122319.834000", "122319.836000", "122319.838000", "122319.840000", "122319.842000", "122319.844000", "122319.846000", "122319.848000", "122319.851000", "122319.853000", "122319.855000", "122319.857000", "122319.859000", "122319.861000", "122319.863000", "122319.865000", "122319.867000", "122319.869000", "122319.871000", "122319.874000", "122319.876000", "122319.878000", "122319.880000", "122319.882000", "122319.884000", "122319.886000", "122319.888000", "122319.890000", "122319.892000", "122319.894000", "122319.897000", "122319.899000", "122339.675000", "122339.677000", "122339.679000", "122339.681000", "122339.683000", "122339.686000", "122339.688000", "122339.690000", "122339.692000", "122339.694000", "122339.696000", "122339.698000", "122339.700000", "122339.702000", "122339.704000", "122339.707000", "122339.709000", "122339.711000", "122339.713000", "122339.715000", "122339.717000", "122339.719000", "122339.721000", "122339.723000", "122339.725000", "122339.727000", "122339.729000", "122339.732000", "122339.734000", "122339.736000", "122339.738000", "122339.740000", "122339.742000", "122339.744000", "122339.746000", "122339.748000", "122339.750000", "122339.752000", "122339.754000", "122339.756000", "122339.759000", "122339.761000", "122339.763000", "122339.765000", "122339.767000", "122339.769000", "122339.771000", "122339.773000", "122339.775000", "122339.777000", "122339.779000", "122339.781000", "122339.784000", "122339.786000", "122339.788000", "122339.790000", "122339.792000", "122339.794000", "122339.796000", "122354.801000", "122354.803000", "122354.805000", "122354.807000", "122354.809000", "122354.812000", "122354.814000", "122354.816000", "122354.818000", "122354.820000", "122354.822000", "122354.824000", "122354.826000", "122354.828000", "122354.831000", "122354.833000", "122354.835000", "122354.837000", "122354.839000", "122354.842000", "122354.846000", "122354.851000", "122354.853000", "122354.860000", "122354.864000", "122354.866000", "122354.869000", "122354.871000", "122354.874000", "122354.876000", "122354.879000", "122354.881000", "122354.883000", "122354.886000", "122354.889000", "122354.892000", "122354.897000", "122354.900000", "122354.905000", "122354.907000", "122354.910000", "122354.913000", "122354.915000", "122354.918000", "122354.920000"],
      "InstanceCreationTime": ["122319.680000", "122319.683000", "122319.685000", "122319.687000", "122319.689000", "122319.691000", "122319.694000", "122319.696000", "122319.698000", "122319.700000", "122319.702000", "122319.705000", "122319.708000", "122319.710000", "122319.712000", "122319.714000", "122319.716000", "122319.718000", "122319.720000", "122319.722000", "122319.725000", "122319.744000", "122319.746000", "122319.749000", "122319.751000", "122319.753000", "122319.755000", "122319.757000", "122319.759000", "122319.761000", "122319.763000", "122319.765000", "122319.767000", "122319.769000", "122319.771000", "122319.773000", "122319.775000", "122319.777000", "122319.779000", "122319.782000", "122319.784000", "122319.786000", "122319.788000", "122319.790000", "122319.792000", "122319.794000", "122319.796000", "122319.798000", "122319.800000", "122319.802000", "122319.805000", "122319.807000", "122319.809000", "122319.811000", "122319.813000", "122319.815000", "122319.817000", "122319.819000", "122319.821000", "122319.823000", "122319.825000", "122319.827000", "122319.830000", "122319.832000", "122319.834000", "122319.836000", "122319.838000", "122319.840000", "122319.842000", "122319.844000", "122319.846000", "122319.848000", "122319.851000", "122319.853000", "122319.855000", "122319.857000", "122319.859000", "122319.861000", "122319.863000", "122319.865000", "122319.867000", "122319.869000", "122319.871000", "122319.874000", "122319.876000", "122319.878000", "122319.880000", "122319.882000", "122319.884000", "122319.886000", "122319.888000", "122319.890000", "122319.892000", "122319.894000", "122319.897000", "122319.899000", "122339.675000", "122339.677000", "122339.679000", "122339.681000", "122339.683000", "122339.686000", "122339.688000", "122339.690000", "122339.692000", "122339.694000", "122339.696000", "122339.698000", "122339.700000", "122339.702000", "122339.704000", "122339.707000", "122339.709000", "122339.711000", "122339.713000", "122339.715000", "122339.717000", "122339.719000", "122339.721000", "122339.723000", "122339.725000", "122339.727000", "122339.729000", "122339.732000", "122339.734000", "122339.736000", "122339.738000", "122339.740000", "122339.742000", "122339.744000", "122339.746000", "122339.748000", "122339.750000", "122339.752000", "122339.754000", "122339.756000", "122339.759000", "122339.761000", "122339.763000", "122339.765000", "122339.767000", "122339.769000", "122339.771000", "122339.773000", "122339.775000", "122339.777000", "122339.779000", "122339.781000", "122339.784000", "122339.786000", "122339.788000", "122339.790000", "122339.792000", "122339.794000", "122339.796000", "122354.801000", "122354.803000", "122354.805000", "122354.807000", "122354.809000", "122354.812000", "122354.814000", "122354.816000", "122354.818000", "122354.820000", "122354.822000", "122354.824000", "122354.826000", "122354.828000", "122354.831000", "122354.833000", "122354.835000", "122354.837000", "122354.839000", "122354.842000", "122354.846000", "122354.851000", "122354.853000", "122354.860000", "122354.864000", "122354.866000", "122354.869000", "122354.871000", "122354.874000", "122354.876000", "122354.879000", "122354.881000", "122354.883000", "122354.886000", "122354.889000", "122354.892000", "122354.897000", "122354.900000", "122354.905000", "122354.907000", "122354.910000", "122354.913000", "122354.915000", "122354.918000", "122354.920000"],
      "InstanceNumber": [1, 2, 3, 4, 5, 6, 7, 8, 9, 10, 11, 12, 13, 14, 15, 16, 17, 18, 19, 20, 21, 22, 23, 24, 25, 26, 27, 28, 29, 30, 31, 32, 33, 34, 35, 36, 37, 38, 39, 40, 41, 42, 43, 44, 45, 46, 47, 48, 49, 50, 51, 52, 53, 54, 55, 56, 57, 58, 59, 60, 61, 62, 63, 64, 65, 66, 67, 68, 69, 70, 71, 72, 73, 74, 75, 76, 77, 78, 79, 80, 81, 82, 83, 84, 85, 86, 87, 88, 89, 90, 91, 92, 93, 94, 95, 96, 97, 98, 99, 100, 101, 102, 103, 104, 105, 106, 107, 108, 109, 110, 111, 112, 113, 114, 115, 116, 117, 118, 119, 120, 121, 122, 123, 124, 125, 126, 127, 128, 129, 130, 131, 132, 133, 134, 135, 136, 137, 138, 139, 140, 141, 142, 143, 144, 145, 146, 147, 148, 149, 150, 151, 152, 153, 154, 155, 156, 157, 158, 159, 160, 161, 162, 163, 164, 165, 166, 167, 168, 169, 170, 171, 172, 173, 174, 175, 176, 177, 178, 179, 180, 181, 182, 183, 184, 185, 186, 187, 188, 189, 190, 191, 192, 193, 194, 195, 196, 197, 198, 199, 200],
      "LargestImagePixelValue": [653, 655, 655, 657, 658, 656, 658, 652, 659, 657, 657, 656, 654, 656, 659, 655, 653, 661, 655, 657, 657, 656, 655, 653, 653, 655, 655, 653, 653, 653, 654, 655, 662, 660, 655, 654, 655, 657, 658, 659, 656, 652, 655, 659, 655, 655, 655, 659, 660, 657, 659, 659, 657, 655, 658, 660, 659, 657, 655, 657, 659, 660, 656, 655, 653, 658, 660, 659, 657, 656, 654, 657, 656, 656, 656, 658, 655, 655, 656, 651, 656, 651, 652, 656, 657, 657, 656, 653, 654, 656, 655, 650, 651, 652, 654, 658, 655, 655, 655, 657, 656, 659, 657, 656, 654, 656, 660, 658, 655, 656, 658, 655, 659, 656, 657, 658, 657, 659, 659, 655, 653, 653, 659, 659, 657, 656, 653, 651, 661, 660, 652, 655, 656, 653, 661, 659, 656, 661, 653, 653, 658, 658, 654, 653, 663, 659, 658, 659, 658, 656, 657, 660, 657, 658, 655, 657, 656, 658, 657, 656, 655, 655, 654, 656, 660, 657, 655, 653, 654, 660, 659, 658, 656, 657, 657, 662, 657, 656, 653, 656, 654, 661, 655, 655, 658, 655, 656, 656, 654, 653, 654, 655, 657, 655, 654, 654, 655, 656, 655, 653],
      "WindowCenter": [473.0, 473.0, 473.0, 473.0, 473.0, 473.0, 473.0, 473.0, 473.0, 473.0, 473.0, 473.0, 473.0, 473.0, 473.0, 473.0, 473.0, 473.0, 473.0, 473.0, 473.0, 473.0, 473.0, 473.0, 473.0, 473.0, 473.0, 473.0, 473.0, 473.0, 473.0, 473.0, 473.0, 473.0, 473.0, 473.0, 473.0, 473.0, 473.0, 473.0, 473.0, 473.0, 473.0, 473.0, 473.0, 473.0, 473.0, 473.0, 473.0, 473.0, 473.0, 473.0, 473.0, 473.0, 473.0, 473.0, 473.0, 473.0, 473.0, 473.0, 473.0, 473.0, 473.0, 473.0, 473.0, 473.0, 473.0, 473.0, 473.0, 473.0, 473.0, 473.0, 473.0, 473.0, 473.0, 473.0, 473.0, 473.0, 473.0, 473.0, 473.0, 473.0, 472.0, 473.0, 473.0, 473.0, 473.0, 473.0, 473.0, 473.0, 473.0, 473.0, 473.0, 473.0, 473.0, 472.0, 473.0, 473.0, 472.0, 473.0, 473.0, 472.0, 473.0, 473.0, 472.0, 473.0, 472.0, 473.0, 472.0, 472.0, 473.0, 472.0, 473.0, 472.0, 473.0, 473.0, 472.0, 472.0, 472.0, 472.0, 473.0, 473.0, 472.0, 472.0, 472.0, 473.0, 472.0, 473.0, 472.0, 472.0, 472.0, 473.0, 473.0, 472.0, 472.0, 472.0, 472.0, 473.0, 472.0, 473.0, 472.0, 472.0, 472.0, 473.0, 472.0, 472.0, 472.0, 472.0, 472.0, 473.0, 472.0, 472.0, 472.0, 472.0, 472.0, 472.0, 472.0, 472.0, 472.0, 472.0, 472.0, 472.0, 472.0, 472.0, 472.0, 472.0, 472.0, 472.0, 472.0, 472.0, 472.0, 472.0, 472.0, 472.0, 472.0, 472.0, 472.0, 472.0, 472.0, 472.0, 472.0, 472.0, 472.0, 472.0, 472.0, 472.0, 472.0, 472.0, 472.0, 472.0, 472.0, 472.0, 472.0, 472.0, 472.0, 471.0, 472.0, 472.0, 472.0, 472.0],
      "WindowWidth": [989.0, 989.0, 989.0, 989.0, 989.0, 989.0, 989.0, 989.0, 989.0, 989.0, 988.0, 989.0, 988.0, 989.0, 989.0, 989.0, 989.0, 989.0, 989.0, 988.0, 989.0, 988.0, 989.0, 989.0, 989.0, 988.0, 988.0, 989.0, 989.0, 988.0, 988.0, 988.0, 988.0, 989.0, 988.0, 989.0, 989.0, 988.0, 988.0, 989.0, 988.0, 989.0, 989.0, 988.0, 988.0, 988.0, 988.0, 988.0, 988.0, 988.0, 988.0, 988.0, 989.0, 989.0, 988.0, 988.0, 988.0, 988.0, 988.0, 988.0, 988.0, 988.0, 988.0, 989.0, 988.0, 988.0, 988.0, 989.0, 988.0, 988.0, 988.0, 987.0, 987.0, 988.0, 988.0, 988.0, 988.0, 988.0, 987.0, 988.0, 988.0, 988.0, 987.0, 987.0, 987.0, 987.0, 988.0, 988.0, 987.0, 987.0, 987.0, 988.0, 988.0, 987.0, 987.0, 987.0, 987.0, 988.0, 987.0, 987.0, 987.0, 987.0, 987.0, 988.0, 987.0, 987.0, 986.0, 987.0, 987.0, 987.0, 987.0, 986.0, 987.0, 987.0, 987.0, 987.0, 987.0, 986.0, 987.0, 987.0, 987.0, 987.0, 987.0, 987.0, 987.0, 987.0, 987.0, 988.0, 987.0, 987.0, 986.0, 987.0, 987.0, 987.0, 987.0, 986.0, 987.0, 987.0, 987.0, 987.0, 986.0, 986.0, 986.0, 987.0, 987.0, 987.0, 986.0, 986.0, 987.0, 987.0, 986.0, 986.0, 986.0, 986.0, 987.0, 987.0, 986.0, 987.0, 986.0, 987.0, 986.0, 987.0, 986.0, 986.0, 987.0, 986.0, 986.0, 986.0, 986.0, 987.0, 986.0, 986.0, 987.0, 986.0, 986.0, 986.0, 987.0, 986.0, 986.0, 986.0, 986.0, 986.0, 986.0, 987.0, 986.0, 986.0, 986.0, 986.0, 987.0, 987.0, 987.0, 986.0, 986.0, 987.0, 986.0, 986.0, 986.0, 986.0, 986.0, 987.0]
    },
    "slices": {}
  }
}