{
  "AcquisitionMatrixPE": 122,
  "AcquisitionNumber": 1,
  "AcquisitionTime": "10:27:55.042500",
  "BandwidthPerPixelPhaseEncode": 27.785,
  "BaseResolution": 122,
  "BodyPartExamined": "BRAIN",
  "CoilCombinationMethod": "Adaptive Combine",
  "ConsistencyInfo": "N4_VE11C_LATEST_20160120",
  "ConversionSoftware": "dcm2niix",
  "ConversionSoftwareVersion": "v1.0.20220720",
  "DerivedVendorReportedEchoSpacing": 0.000590011,
  "DeviceSerialNumber": "66112",
  "DiffusionScheme": "Monopolar",
  "DwellTime": 2e-06,
  "EchoTime": 0.068,
  "EchoTrainLength": 61,
  "EffectiveEchoSpacing": 0.000295005,
  "FlipAngle": 90,
  "HeudiconvVersion": "0.13.1",
  "ImageOrientationPatientDICOM": [0.997172, 0.0747154, -0.00807545, -0.0744527, 0.996802, 0.0290117],
  "ImageOrientationText": "Tra>Cor(1.6)>Sag(-0.6)",
  "ImageType": [
    "ORIGINAL",
    "PRIMARY",
    "DIFFUSION",
    "NONE",
    "ND",
    "NORM"
],
  "ImagingFrequency": 123.252,
  "InPlanePhaseEncodingDirectionDICOM": "COL",
  "InstitutionAddress": "Maynard 3,Hanover,NH,US,03755",
  "InstitutionName": "Dartmouth College - PBS",
  "InstitutionalDepartmentName": "Department",
  "MRAcquisitionType": "2D",
  "MagneticFieldStrength": 3,
  "Manufacturer": "Siemens",
  "ManufacturersModelName": "Prisma",
  "Modality": "MR",
  "MultibandAccelerationFactor": 4,
  "NonlinearGradientCorrection": false,
  "ParallelReductionFactorInPlane": 2,
  "PartialFourier": 1,
  "PatientPosition": "HFS",
  "PercentPhaseFOV": 100,
  "PercentSampling": 100,
  "PhaseEncodingDirection": "j-",
  "PhaseEncodingSteps": 122,
  "PhaseResolution": 1,
  "PixelBandwidth": 2050,
  "ProcedureStepDescription": "dbic^QA",
  "ProtocolName": "dwi_acq-DTI-30-p2-s4",
  "PulseSequenceDetails": "%SiemensSeq%\\ep2d_diff",
  "ReceiveCoilActiveElements": "HEA;HEP",
  "ReceiveCoilName": "Head_32",
  "ReconMatrixPE": 122,
  "RefLinesPE": 38,
  "RepetitionTime": 3.6,
  "SAR": 0.514878,
  "ScanOptions": "FS",
  "ScanningSequence": "EP",
  "SequenceName": "*ep_b0",
  "SequenceVariant": "SK\\SP",
  "SeriesDescription": "dwi_acq-DTI-30-p2-s4",
  "SeriesNumber": 7,
  "ShimSetting": [4141, -7708, -7261, -880, -88, 15, -94, 63],
  "SliceThickness": 2,
  "SliceTiming": [2.57812, 0, 1.78906, 0.19531, 1.98438, 0.39062, 2.1875, 0.59375, 2.38281, 0.99219, 2.78125, 1.1875, 2.97656, 1.39062, 3.17969, 1.58594, 3.375, 0.78906, 2.57812, 0, 1.78906, 0.19531, 1.98438, 0.39062, 2.1875, 0.59375, 2.38281, 0.99219, 2.78125, 1.1875, 2.97656, 1.39062, 3.17969, 1.58594, 3.375, 0.78906, 2.57812, 0, 1.78906, 0.19531, 1.98438, 0.39062, 2.1875, 0.59375, 2.38281, 0.99219, 2.78125, 1.1875, 2.97656, 1.39062, 3.17969, 1.58594, 3.375, 0.78906, 2.57812, 0, 1.78906, 0.19531, 1.98438, 0.39062, 2.1875, 0.59375, 2.38281, 0.99219, 2.78125, 1.1875, 2.97656, 1.39062, 3.17969, 1.58594, 3.375, 0.78906],
  "SoftwareVersions": "syngo MR E11",
  "SpacingBetweenSlices": 2,
  "SpoilingState": true,
  "StationName": "AWP66112",
  "TotalReadoutTime": 0.0356956,
  "TxRefAmp": 185.683,
  "dcmmeta_affine": [
    [-1.9616502523422241, -0.14646434783935547, -0.02043449878692627, 130.42596435546875],
    [-0.14698104560375214, 1.9609228372573853, 0.0566558837890625, -94.56725311279297],
    [-0.01588613912463188, -0.05707226321101189, 1.9990921020507812, -88.54350280761719],
    [0.0, 0.0, 0.0, 1.0]
],
  "dcmmeta_reorient_transform": [
    [0.0, -1.0, 0.0, 121.0],
    [1.0, 0.0, 0.0, 0.0],
    [0.0, 0.0, -1.0, 71.0],
    [0.0, 0.0, 0.0, 1.0]
],
  "dcmmeta_shape": [122, 122, 72, 31],
  "dcmmeta_slice_dim": 2,
  "dcmmeta_version": 0.6,
  "global": {
    "const": {
      "AccessionNumber": "qa-emmet",
      "AcquisitionMatrix": [122, 0, 0, 122],
      "AngioFlag": "N",
      "BitsAllocated": 16,
      "BitsStored": 12,
      "BodyPartExamined": "BRAIN",
      "Columns": 122,
      "EchoNumbers": 1,
      "EchoTime": 68.0,
      "EchoTrainLength": 61,
      "FlipAngle": 90.0,
      "HighBit": 11,
      "ImageOrientationPatient": [0.99717220248549, 0.07471536415292, -0.0080754535313, -0.0744527118985, 0.99680244430819, 0.02901173404298],
      "ImageType": [
        "ORIGINAL",
        "PRIMARY",
        "DIFFUSION",
        "NONE",
        "ND",
        "NORM"
],
      "ImagedNucleus": "1H",
      "ImagingFrequency": 123.252329,
      "InPlanePhaseEncodingDirection": "COL",
      "MRAcquisitionType": "2D",
      "MagneticFieldStrength": 3.0,
      "Manufacturer": "SIEMENS",
      "ManufacturerModelName": "Prisma",
      "Modality": "MR",
      "NumberOfAverages": 1.0,
      "NumberOfPhaseEncodingSteps": 122,
      "PercentPhaseFieldOfView": 100.0,
      "PercentSampling": 100.0,
      "PerformedProcedureStepStartTime": "101752.076000",
      "PhotometricInterpretation": "MONOCHROME2",
      "PixelBandwidth": 2050.0,
      "PixelRepresentation": 0,
      "PixelSpacing": [1.9672131538391, 1.9672131538391],
      "ProtocolName": "dwi_acq-DTI-30-p2-s4",
      "RepetitionTime": 3600.0,
      "Rows": 122,
      "SAR": 0.51487778733491,
      "SamplesPerPixel": 1,
      "ScanOptions": "FS",
      "ScanningSequence": "EP",
      "SequenceVariant": [
        "SK",
        "SP"
],
      "SeriesDescription": "dwi_acq-DTI-30-p2-s4",
      "SeriesNumber": 7,
      "SeriesTime": "102759.248000",
      "SliceThickness": 2.0,
      "SmallestImagePixelValue": 0,
      "SoftwareVersions": "syngo MR E11",
      "SpacingBetweenSlices": 2.0,
      "SpecificCharacterSet": "ISO_IR 100",
      "StudyID": "1",
      "StudyTime": "101751.958000",
      "TransmitCoilName": "Body",
      "VariableFlipAngleFlag": "N",
      "WindowCenterWidthExplanation": "Algo1",
      "dBdt": 0.0},
    "slices": {
      "AcquisitionTime": ["102755.042500", "102752.457500", "102754.247500", "102752.655000", "102754.445000", "102752.855000", "102754.645000", "102753.055000", "102754.842500", "102753.452500", "102755.242500", "102753.650000", "102755.440000", "102753.850000", "102755.640000", "102754.047500", "102755.837500", "102753.252500", "102755.042500", "102752.457500", "102754.247500", "102752.655000", "102754.445000", "102752.855000", "102754.645000", "102753.055000", "102754.842500", "102753.452500", "102755.242500", "102753.650000", "102755.440000", "102753.850000", "102755.640000", "102754.047500", "102755.837500", "102753.252500", "102755.042500", "102752.457500", "102754.247500", "102752.655000", "102754.445000", "102752.855000", "102754.645000", "102753.055000", "102754.842500", "102753.452500", "102755.242500", "102753.650000", "102755.440000", "102753.850000", "102755.640000", "102754.047500", "102755.837500", "102753.252500", "102755.042500", "102752.457500", "102754.247500", "102752.655000", "102754.445000", "102752.855000", "102754.645000", "102753.055000", "102754.842500", "102753.452500", "102755.242500", "102753.650000", "102755.440000", "102753.850000", "102755.640000", "102754.047500", "102755.837500", "102753.252500", "102758.642500", "102756.057500", "102757.847500", "102756.255000", "102758.045000", "102756.455000", "102758.245000", "102756.655000", "102758.442500", "102757.052500", "102758.842500", "102757.250000", "102759.040000", "102757.450000", "102759.240000", "102757.647500", "102759.437500", "102756.852500", "102758.642500", "102756.057500", "102757.847500", "102756.255000", "102758.045000", "102756.455000", "102758.245000", "102756.655000", "102758.442500", "102757.052500", "102758.842500", "102757.250000", "102759.040000", "102757.450000", "102759.240000", "102757.647500", "102759.437500", "102756.852500", "102758.642500", "102756.057500", "102757.847500", "102756.255000", "102758.045000", "102756.455000", "102758.245000", "102756.655000", "102758.442500", "102757.052500", "102758.842500", "102757.250000", "102759.040000", "102757.450000", "102759.240000", "102757.647500", "102759.437500", "102756.852500", "102758.642500", "102756.057500", "102757.847500", "102756.255000", "102758.045000", "102756.455000", "102758.245000", "102756.655000", "102758.442500", "102757.052500", "102758.842500", "102757.250000", "102759.040000", "102757.450000", "102759.240000", "102757.647500", "102759.437500", "102756.852500", "102802.242500", "102759.657500", "102801.447500", "102759.855000", "102801.645000", "102800.055000", "102801.845000", "102800.255000", "102802.042500", "102800.652500", "102802.442500", "102800.850000", "102802.640000", "102801.050000", "102802.840000", "102801.247500", "102803.037500", "102800.452500", "102802.242500", "102759.657500", "102801.447500", "102759.855000", "102801.645000", "102800.055000", "102801.845000", "102800.255000", "102802.042500", "102800.652500", "102802.442500", "102800.850000", "102802.640000", "102801.050000", "102802.840000", "102801.247500", "102803.037500", "102800.452500", "102802.242500", "102759.657500", "102801.447500", "102759.855000", "102801.645000", "102800.055000", "102801.845000", "102800.255000", "102802.042500", "102800.652500", "102802.442500", "102800.850000", "102802.640000", "102801.050000", "102802.840000", "102801.247500", "102803.037500", "102800.452500", "102802.242500", "102759.657500", "102801.447500", "102759.855000", "102801.645000", "102800.055000", "102801.845000", "102800.255000", "102802.042500", "102800.652500", "102802.442500", "102800.850000", "102802.640000", "102801.050000", "102802.840000", "102801.247500", "102803.037500", "102800.452500", "102805.842500", "102803.257500", "102805.047500", "102803.455000", "102805.245000", "102803.655000", "102805.445000", "102803.855000", "102805.642500", "102804.252500", "102806.042500", "102804.450000", "102806.240000", "102804.650000", "102806.440000", "102804.847500", "102806.637500", "102804.052500", "102805.842500", "102803.257500", "102805.047500", "102803.455000", "102805.245000", "102803.655000", "102805.445000", "102803.855000", "102805.642500", "102804.252500", "102806.042500", "102804.450000", "102806.240000", "102804.650000", "102806.440000", "102804.847500", "102806.637500", "102804.052500", "102805.842500", "102803.257500", "102805.047500", "102803.455000", "102805.245000", "102803.655000", "102805.445000", "102803.855000", "102805.642500", "102804.252500", "102806.042500", "102804.450000", "102806.240000", "102804.650000", "102806.440000", "102804.847500", "102806.637500", "102804.052500", "102805.842500", "102803.257500", "102805.047500", "102803.455000", "102805.245000", "102803.655000", "102805.445000", "102803.855000", "102805.642500", "102804.252500", "102806.042500", "102804.450000", "102806.240000", "102804.650000", "102806.440000", "102804.847500", "102806.637500", "102804.052500", "102809.442500", "102806.857500", "102808.647500", "102807.055000", "102808.845000", "102807.255000", "102809.045000", "102807.455000", "102809.242500", "102807.852500", "102809.642500", "102808.050000", "102809.840000", "102808.250000", "102810.040000", "102808.447500", "102810.237500", "102807.652500", "102809.442500", "102806.857500", "102808.647500", "102807.055000", "102808.845000", "102807.255000", "102809.045000", "102807.455000", "102809.242500", "102807.852500", "102809.642500", "102808.050000", "102809.840000", "102808.250000", "102810.040000", "102808.447500", "102810.237500", "102807.652500", "102809.442500", "102806.857500", "102808.647500", "102807.055000", "102808.845000", "102807.255000", "102809.045000", "102807.455000", "102809.242500", "102807.852500", "102809.642500", "102808.050000", "102809.840000", "102808.250000", "102810.040000", "102808.447500", "102810.237500", "102807.652500", "102809.442500", "102806.857500", "102808.647500", "102807.055000", "102808.845000", "102807.255000", "102809.045000", "102807.455000", "102809.242500", "102807.852500", "102809.642500", "102808.050000", "102809.840000", "102808.250000", "102810.040000", "102808.447500", "102810.237500", "102807.652500", "102813.042500", "102810.457500", "102812.247500", "102810.655000", "102812.445000", "102810.855000", "102812.645000", "102811.055000", "102812.842500", "102811.452500", "102813.242500", "102811.650000", "102813.440000", "102811.850000", "102813.640000", "102812.047500", "102813.837500", "102811.252500", "102813.042500", "102810.457500", "102812.247500", "102810.655000", "102812.445000", "102810.855000", "102812.645000", "102811.055000", "102812.842500", "102811.452500", "102813.242500", "102811.650000", "102813.440000", "102811.850000", "102813.640000", "102812.047500", "102813.837500", "102811.252500", "102813.042500", "102810.457500", "102812.247500", "102810.655000", "102812.445000", "102810.855000", "102812.645000", "102811.055000", "102812.842500", "102811.452500", "102813.242500", "102811.650000", "102813.440000", "102811.850000", "102813.640000", "102812.047500", "102813.837500", "102811.252500", "102813.042500", "102810.457500", "102812.247500", "102810.655000", "102812.445000", "102810.855000", "102812.645000", "102811.055000", "102812.842500", "102811.452500", "102813.242500", "102811.650000", "102813.440000", "102811.850000", "102813.640000", "102812.047500", "102813.837500", "102811.252500", "102816.642500", "102814.057500", "102815.847500", "102814.255000", "102816.045000", "102814.455000", "102816.245000", "102814.655000", "102816.442500", "102815.052500", "102816.842500", "102815.250000", "102817.040000", "102815.450000", "102817.240000", "102815.647500", "102817.437500", "102814.852500", "102816.642500", "102814.057500", "102815.847500", "102814.255000", "102816.045000", "102814.455000", "102816.245000", "102814.655000", "102816.442500", "102815.052500", "102816.842500", "102815.250000", "102817.040000", "102815.450000", "102817.240000", "102815.647500", "102817.437500", "102814.852500", "102816.642500", "102814.057500", "102815.847500", "102814.255000", "102816.045000", "102814.455000", "102816.245000", "102814.655000", "102816.442500", "102815.052500", "102816.842500", "102815.250000", "102817.040000", "102815.450000", "102817.240000", "102815.647500", "102817.437500", "102814.852500", "102816.642500", "102814.057500", "102815.847500", "102814.255000", "102816.045000", "102814.455000", "102816.245000", "102814.655000", "102816.442500", "102815.052500", "102816.842500", "102815.250000", "102817.040000", "102815.450000", "102817.240000", "102815.647500", "102817.437500", "102814.852500", "102820.242500", "102817.657500", "102819.447500", "102817.855000", "102819.645000", "102818.055000", "102819.845000", "102818.255000", "102820.042500", "102818.652500", "102820.442500", "102818.850000", "102820.640000", "102819.050000", "102820.840000", "102819.247500", "102821.037500", "102818.452500", "102820.242500", "102817.657500", "102819.447500", "102817.855000", "102819.645000", "102818.055000", "102819.845000", "102818.255000", "102820.042500", "102818.652500", "102820.442500", "102818.850000", "102820.640000", "102819.050000", "102820.840000", "102819.247500", "102821.037500", "102818.452500", "102820.242500", "102817.657500", "102819.447500", "102817.855000", "102819.645000", "102818.055000", "102819.845000", "102818.255000", "102820.042500", "102818.652500", "102820.442500", "102818.850000", "102820.640000", "102819.050000", "102820.840000", "102819.247500", "102821.037500", "102818.452500", "102820.242500", "102817.657500", "102819.447500", "102817.855000", "102819.645000", "102818.055000", "102819.845000", "102818.255000", "102820.042500", "102818.652500", "102820.442500", "102818.850000", "102820.640000", "102819.050000", "102820.840000", "102819.247500", "102821.037500", "102818.452500", "102823.842500", "102821.257500", "102823.047500", "102821.455000", "102823.245000", "102821.655000", "102823.445000", "102821.855000", "102823.642500", "102822.252500", "102824.042500", "102822.450000", "102824.240000", "102822.650000", "102824.440000", "102822.847500", "102824.637500", "102822.052500", "102823.842500", "102821.257500", "102823.047500", "102821.455000", "102823.245000", "102821.655000", "102823.445000", "102821.855000", "102823.642500", "102822.252500", "102824.042500", "102822.450000", "102824.240000", "102822.650000", "102824.440000", "102822.847500", "102824.637500", "102822.052500", "102823.842500", "102821.257500", "102823.047500", "102821.455000", "102823.245000", "102821.655000", "102823.445000", "102821.855000", "102823.642500", "102822.252500", "102824.042500", "102822.450000", "102824.240000", "102822.650000", "102824.440000", "102822.847500", "102824.637500", "102822.052500", "102823.842500", "102821.257500", "102823.047500", "102821.455000", "102823.245000", "102821.655000", "102823.445000", "102821.855000", "102823.642500", "102822.252500", "102824.042500", "102822.450000", "102824.240000", "102822.650000", "102824.440000", "102822.847500", "102824.637500", "102822.052500", "102827.442500", "102824.857500", "102826.647500", "102825.055000", "102826.845000", "102825.255000", "102827.045000", "102825.455000", "102827.242500", "102825.852500", "102827.642500", "102826.050000", "102827.840000", "102826.250000", "102828.040000", "102826.447500", "102828.237500", "102825.652500", "102827.442500", "102824.857500", "102826.647500", "102825.055000", "102826.845000", "102825.255000", "102827.045000", "102825.455000", "102827.242500", "102825.852500", "102827.642500", "102826.050000", "102827.840000", "102826.250000", "102828.040000", "102826.447500", "102828.237500", "102825.652500", "102827.442500", "102824.857500", "102826.647500", "102825.055000", "102826.845000", "102825.255000", "102827.045000", "102825.455000", "102827.242500", "102825.852500", "102827.642500", "102826.050000", "102827.840000", "102826.250000", "102828.040000", "102826.447500", "102828.237500", "102825.652500", "102827.442500", "102824.857500", "102826.647500", "102825.055000", "102826.845000", "102825.255000", "102827.045000", "102825.455000", "102827.242500", "102825.852500", "102827.642500", "102826.050000", "102827.840000", "102826.250000", "102828.040000", "102826.447500", "102828.237500", "102825.652500", "102831.042500", "102828.457500", "102830.247500", "102828.655000", "102830.445000", "102828.855000", "102830.645000", "102829.055000", "102830.842500", "102829.452500", "102831.242500", "102829.650000", "102831.440000", "102829.850000", "102831.640000", "102830.047500", "102831.837500", "102829.252500", "102831.042500", "102828.457500", "102830.247500", "102828.655000", "102830.445000", "102828.855000", "102830.645000", "102829.055000", "102830.842500", "102829.452500", "102831.242500", "102829.650000", "102831.440000", "102829.850000", "102831.640000", "102830.047500", "102831.837500", "102829.252500", "102831.042500", "102828.457500", "102830.247500", "102828.655000", "102830.445000", "102828.855000", "102830.645000", "102829.055000", "102830.842500", "102829.452500", "102831.242500", "102829.650000", "102831.440000", "102829.850000", "102831.640000", "102830.047500", "102831.837500", "102829.252500", "102831.042500", "102828.457500", "102830.247500", "102828.655000", "102830.445000", "102828.855000", "102830.645000", "102829.055000", "102830.842500", "102829.452500", "102831.242500", "102829.650000", "102831.440000", "102829.850000", "102831.640000", "102830.047500", "102831.837500", "102829.252500", "102834.642500", "102832.057500", "102833.847500", "102832.255000", "102834.045000", "102832.455000", "102834.245000", "102832.655000", "102834.442500", "102833.052500", "102834.842500", "102833.250000", "102835.040000", "102833.450000", "102835.240000", "102833.647500", "102835.437500", "102832.852500", "102834.642500", "102832.057500", "102833.847500", "102832.255000", "102834.045000", "102832.455000", "102834.245000", "102832.655000", "102834.442500", "102833.052500", "102834.842500", "102833.250000", "102835.040000", "102833.450000", "102835.240000", "102833.647500", "102835.437500", "102832.852500", "102834.642500", "102832.057500", "102833.847500", "102832.255000", "102834.045000", "102832.455000", "102834.245000", "102832.655000", "102834.442500", "102833.052500", "102834.842500", "102833.250000", "102835.040000", "102833.450000", "102835.240000", "102833.647500", "102835.437500", "102832.852500", "102834.642500", "102832.057500", "102833.847500", "102832.255000", "102834.045000", "102832.455000", "102834.245000", "102832.655000", "102834.442500", "102833.052500", "102834.842500", "102833.250000", "102835.040000", "102833.450000", "102835.240000", "102833.647500", "102835.437500", "102832.852500", "102838.242500", "102835.657500", "102837.447500", "102835.855000", "102837.645000", "102836.055000", "102837.845000", "102836.255000", "102838.042500", "102836.652500", "102838.442500", "102836.850000", "102838.640000", "102837.050000", "102838.840000", "102837.247500", "102839.037500", "102836.452500", "102838.242500", "102835.657500", "102837.447500", "102835.855000", "102837.645000", "102836.055000", "102837.845000", "102836.255000", "102838.042500", "102836.652500", "102838.442500", "102836.850000", "102838.640000", "102837.050000", "102838.840000", "102837.247500", "102839.037500", "102836.452500", "102838.242500", "102835.657500", "102837.447500", "102835.855000", "102837.645000", "102836.055000", "102837.845000", "102836.255000", "102838.042500", "102836.652500", "102838.442500", "102836.850000", "102838.640000", "102837.050000", "102838.840000", "102837.247500", "102839.037500", "102836.452500", "102838.242500", "102835.657500", "102837.447500", "102835.855000", "102837.645000", "102836.055000", "102837.845000", "102836.255000", "102838.042500", "102836.652500", "102838.442500", "102836.850000", "102838.640000", "102837.050000", "102838.840000", "102837.247500", "102839.037500", "102836.452500", "102841.842500", "102839.257500", "102841.047500", "102839.455000", "102841.245000", "102839.655000", "102841.445000", "102839.855000", "102841.642500", "102840.252500", "102842.042500", "102840.450000", "102842.240000", "102840.650000", "102842.440000", "102840.847500", "102842.637500", "102840.052500", "102841.842500", "102839.257500", "102841.047500", "102839.455000", "102841.245000", "102839.655000", "102841.445000", "102839.855000", "102841.642500", "102840.252500", "102842.042500", "102840.450000", "102842.240000", "102840.650000", "102842.440000", "102840.847500", "102842.637500", "102840.052500", "102841.842500", "102839.257500", "102841.047500", "102839.455000", "102841.245000", "102839.655000", "102841.445000", "102839.855000", "102841.642500", "102840.252500", "102842.042500", "102840.450000", "102842.240000", "102840.650000", "102842.440000", "102840.847500", "102842.637500", "102840.052500", "102841.842500", "102839.257500", "102841.047500", "102839.455000", "102841.245000", "102839.655000", "102841.445000", "102839.855000", "102841.642500", "102840.252500", "102842.042500", "102840.450000", "102842.240000", "102840.650000", "102842.440000", "102840.847500", "102842.637500", "102840.052500", "102845.442500", "102842.857500", "102844.647500", "102843.055000", "102844.845000", "102843.255000", "102845.045000", "102843.455000", "102845.242500", "102843.852500", "102845.642500", "102844.050000", "102845.840000", "102844.250000", "102846.040000", "102844.447500", "102846.237500", "102843.652500", "102845.442500", "102842.857500", "102844.647500", "102843.055000", "102844.845000", "102843.255000", "102845.045000", "102843.455000", "102845.242500", "102843.852500", "102845.642500", "102844.050000", "102845.840000", "102844.250000", "102846.040000", "102844.447500", "102846.237500", "102843.652500", "102845.442500", "102842.857500", "102844.647500", "102843.055000", "102844.845000", "102843.255000", "102845.045000", "102843.455000", "102845.242500", "102843.852500", "102845.642500", "102844.050000", "102845.840000", "102844.250000", "102846.040000", "102844.447500", "102846.237500", "102843.652500", "102845.442500", "102842.857500", "102844.647500", "102843.055000", "102844.845000", "102843.255000", "102845.045000", "102843.455000", "102845.242500", "102843.852500", "102845.642500", "102844.050000", "102845.840000", "102844.250000", "102846.040000", "102844.447500", "102846.237500", "102843.652500", "102849.042500", "102846.457500", "102848.247500", "102846.655000", "102848.445000", "102846.855000", "102848.645000", "102847.055000", "102848.842500", "102847.452500", "102849.242500", "102847.650000", "102849.440000", "102847.850000", "102849.640000", "102848.047500", "102849.837500", "102847.252500", "102849.042500", "102846.457500", "102848.247500", "102846.655000", "102848.445000", "102846.855000", "102848.645000", "102847.055000", "102848.842500", "102847.452500", "102849.242500", "102847.650000", "102849.440000", "102847.850000", "102849.640000", "102848.047500", "102849.837500", "102847.252500", "102849.042500", "102846.457500", "102848.247500", "102846.655000", "102848.445000", "102846.855000", "102848.645000", "102847.055000", "102848.842500", "102847.452500", "102849.242500", "102847.650000", "102849.440000", "102847.850000", "102849.640000", "102848.047500", "102849.837500", "102847.252500", "102849.042500", "102846.457500", "102848.247500", "102846.655000", "102848.445000", "102846.855000", "102848.645000", "102847.055000", "102848.842500", "102847.452500", "102849.242500", "102847.650000", "102849.440000", "102847.850000", "102849.640000", "102848.047500", "102849.837500", "102847.252500", "102852.642500", "102850.057500", "102851.847500", "102850.255000", "102852.045000", "102850.455000", "102852.245000", "102850.655000", "102852.442500", "102851.052500", "102852.842500", "102851.250000", "102853.040000", "102851.450000", "102853.240000", "102851.647500", "102853.437500", "102850.852500", "102852.642500", "102850.057500", "102851.847500", "102850.255000", "102852.045000", "102850.455000", "102852.245000", "102850.655000", "102852.442500", "102851.052500", "102852.842500", "102851.250000", "102853.040000", "102851.450000", "102853.240000", "102851.647500", "102853.437500", "102850.852500", "102852.642500", "102850.057500", "102851.847500", "102850.255000", "102852.045000", "102850.455000", "102852.245000", "102850.655000", "102852.442500", "102851.052500", "102852.842500", "102851.250000", "102853.040000", "102851.450000", "102853.240000", "102851.647500", "102853.437500", "102850.852500", "102852.642500", "102850.057500", "102851.847500", "102850.255000", "102852.045000", "102850.455000", "102852.245000", "102850.655000", "102852.442500", "102851.052500", "102852.842500", "102851.250000", "102853.040000", "102851.450000", "102853.240000", "102851.647500", "102853.437500", "102850.852500", "102856.242500", "102853.657500", "102855.447500", "102853.855000", "102855.645000", "102854.055000", "102855.845000", "102854.255000", "102856.042500", "102854.652500", "102856.442500", "102854.850000", "102856.640000", "102855.050000", "102856.840000", "102855.247500", "102857.037500", "102854.452500", "102856.242500", "102853.657500", "102855.447500", "102853.855000", "102855.645000", "102854.055000", "102855.845000", "102854.255000", "102856.042500", "102854.652500", "102856.442500", "102854.850000", "102856.640000", "102855.050000", "102856.840000", "102855.247500", "102857.037500", "102854.452500", "102856.242500", "102853.657500", "102855.447500", "102853.855000", "102855.645000", "102854.055000", "102855.845000", "102854.255000", "102856.042500", "102854.652500", "102856.442500", "102854.850000", "102856.640000", "102855.050000", "102856.840000", "102855.247500", "102857.037500", "102854.452500", "102856.242500", "102853.657500", "102855.447500", "102853.855000", "102855.645000", "102854.055000", "102855.845000", "102854.255000", "102856.042500", "102854.652500", "102856.442500", "102854.850000", "102856.640000", "102855.050000", "102856.840000", "102855.247500", "102857.037500", "102854.452500", "102859.842500", "102857.257500", "102859.047500", "102857.455000", "102859.245000", "102857.655000", "102859.445000", "102857.855000", "102859.642500", "102858.252500", "102900.042500", "102858.450000", "102900.240000", "102858.650000", "102900.440000", "102858.847500", "102900.637500", "102858.052500", "102859.842500", "102857.257500", "102859.047500", "102857.455000", "102859.245000", "102857.655000", "102859.445000", "102857.855000", "102859.642500", "102858.252500", "102900.042500", "102858.450000", "102900.240000", "102858.650000", "102900.440000", "102858.847500", "102900.637500", "102858.052500", "102859.842500", "102857.257500", "102859.047500", "102857.455000", "102859.245000", "102857.655000", "102859.445000", "102857.855000", "102859.642500", "102858.252500", "102900.042500", "102858.450000", "102900.240000", "102858.650000", "102900.440000", "102858.847500", "102900.637500", "102858.052500", "102859.842500", "102857.257500", "102859.047500", "102857.455000", "102859.245000", "102857.655000", "102859.445000", "102857.855000", "102859.642500", "102858.252500", "102900.042500", "102858.450000", "102900.240000", "102858.650000", "102900.440000", "102858.847500", "102900.637500", "102858.052500", "102903.442500", "102900.857500", "102902.647500", "102901.055000", "102902.845000", "102901.255000", "102903.045000", "102901.455000", "102903.242500", "102901.852500", "102903.642500", "102902.050000", "102903.840000", "102902.250000", "102904.040000", "102902.447500", "102904.237500", "102901.652500", "102903.442500", "102900.857500", "102902.647500", "102901.055000", "102902.845000", "102901.255000", "102903.045000", "102901.455000", "102903.242500", "102901.852500", "102903.642500", "102902.050000", "102903.840000", "102902.250000", "102904.040000", "102902.447500", "102904.237500", "102901.652500", "102903.442500", "102900.857500", "102902.647500", "102901.055000", "102902.845000", "102901.255000", "102903.045000", "102901.455000", "102903.242500", "102901.852500", "102903.642500", "102902.050000", "102903.840000", "102902.250000", "102904.040000", "102902.447500", "102904.237500", "102901.652500", "102903.442500", "102900.857500", "102902.647500", "102901.055000", "102902.845000", "102901.255000", "102903.045000", "102901.455000", "102903.242500", "102901.852500", "102903.642500", "10