{
  "AcquisitionMatrixPE": 80,
  "AcquisitionNumber": 1,
  "AcquisitionTime": "09:09:9.555000",
  "BandwidthPerPixelPhaseEncode": 25,
  "BaseResolution": 80,
  "BodyPartExamined": "BRAIN",
  "CoilCombinationMethod": "Sum of Squares",
  "ConsistencyInfo": "N4_VE11C_LATEST_20160120",
  "ConversionSoftware": "dcm2niix",
  "ConversionSoftwareVersion": "v1.0.20220720",
  "DerivedVendorReportedEchoSpacing": 0.0005,
  "DeviceSerialNumber": "66112",
  "DwellTime": 2.7e-06,
  "EchoTime": 0.03,
  "EchoTrainLength": 80,
  "EffectiveEchoSpacing": 0.0005,
  "FlipAngle": 77,
  "HeudiconvVersion": "0.13.1",
  "ImageOrientationPatientDICOM": [0.987161, 0.159589, 0.00668928, -0.153173, 0.933942, 0.322941],
  "ImageOrientationText": "Tra>Cor(18.7)>Sag(-2.6)",
  "ImageType": [
    "ORIGINAL",
    "PRIMARY",
    "M",
    "ND",
    "NORM",
    "MOSAIC"
],
  "ImagingFrequency": 123.252,
  "InPlanePhaseEncodingDirectionDICOM": "COL",
  "InstitutionAddress": "Maynard 3,Hanover,NH,US,03755",
  "InstitutionName": "Dartmouth College - PBS",
  "InstitutionalDepartmentName": "Department",
  "MRAcquisitionType": "2D",
  "MagneticFieldStrength": 3,
  "Manufacturer": "Siemens",
  "ManufacturersModelName": "Prisma",
  "MatrixCoilMode": "SENSE",
  "Modality": "MR",
  "NonlinearGradientCorrection": false,
  "PartialFourier": 1,
  "PatientPosition": "HFS",
  "PercentPhaseFOV": 100,
  "PercentSampling": 100,
  "PhaseEncodingDirection": "j-",
  "PhaseEncodingSteps": 80,
  "PhaseResolution": 1,
  "PixelBandwidth": 2315,
  "ProcedureStepDescription": "dbic^QA",
  "ProtocolName": "func-bold_fa-77",
  "PulseSequenceDetails": "%SiemensSeq%\\ep2d_bold",
  "ReceiveCoilActiveElements": "HC1-7;NC1,2",
  "ReceiveCoilName": "HeadNeck_64",
  "ReconMatrixPE": 80,
  "RepetitionTime": 2,
  "SAR": 0.0322692,
  "ScanOptions": "FS",
  "ScanningSequence": "EP",
  "SequenceName": "*epfid2d1_80",
  "SequenceVariant": "SK",
  "SeriesDescription": "func-bold_fa-77",
  "SeriesNumber": 11,
  "ShimSetting": [4139, -7705, -7515, 194, -74, -266, -128, 82],
  "SliceThickness": 3.5,
  "SliceTiming": [0.99, 0, 1.0575, 0.0675, 1.1225, 0.1325, 1.1875, 0.1975, 1.255, 0.265, 1.32, 0.33, 1.3875, 0.3975, 1.4525, 0.4625, 1.5175, 0.5275, 1.585, 0.595, 1.65, 0.66, 1.7175, 0.7275, 1.7825, 0.7925, 1.8475, 0.8575, 1.915, 0.925],
  "SoftwareVersions": "syngo MR E11",
  "SpacingBetweenSlices": 3.99,
  "StationName": "AWP66112",
  "TotalReadoutTime": 0.0395,
  "TxRefAmp": 206.261,
  "dcmmeta_affine": [
    [-2.9614827632904053, -0.45952025055885315, -0.1807081401348114, 139.4195098876953],
    [-0.47876614332199097, 2.801825523376465, 1.276077389717102, -110.73665618896484],
    [0.0200678501278162, -0.9688215851783752, 3.776118516921997, -9.975570678710938],
    [0.0, 0.0, 0.0, 1.0]
],
  "dcmmeta_reorient_transform": [
    [0.0, -1.0, 0.0, 79.0],
    [1.0, 0.0, 0.0, 0.0],
    [0.0, 0.0, 1.0, 0.0],
    [0.0, 0.0, 0.0, 1.0]
],
  "dcmmeta_shape": [80, 80, 30, 200],
  "dcmmeta_slice_dim": 2,
  "dcmmeta_version": 0.6,
  "global": {
    "const": {
      "AccessionNumber": "qa64",
      "AcquisitionMatrix": [80, 0, 0, 80],
      "AngioFlag": "N",
      "BitsAllocated": 16,
      "BitsStored": 12,
      "BodyPartExamined": "BRAIN",
      "Columns": 480,
      "EchoNumbers": 1,
      "EchoTime": 30.0,
      "EchoTrainLength": 80,
      "FlipAngle": 77.0,
      "HighBit": 11,
      "ImageOrientationPatient": [0.98716092684496, 0.15958871513194, 0.00668928345404, -0.1531734205979, 0.93394182071433, 0.32294051889341],
      "ImagePositionPatient": [-603.50991750942, -766.72587596129, -284.29035542576],
      "ImageType": [
        "ORIGINAL",
        "PRIMARY",
        "M",
        "ND",
        "NORM",
        "MOSAIC"
],
      "ImagedNucleus": "1H",
      "ImagingFrequency": 123.252344,
      "InPlanePhaseEncodingDirection": "COL",
      "LargestImagePixelValue": 4095,
      "MRAcquisitionType": "2D",
      "MagneticFieldStrength": 3.0,
      "Manufacturer": "SIEMENS",
      "ManufacturerModelName": "Prisma",
      "Modality": "MR",
      "NumberOfAverages": 1.0,
      "NumberOfPhaseEncodingSteps": 80,
      "PercentPhaseFieldOfView": 100.0,
      "PercentSampling": 100.0,
      "PerformedProcedureStepStartTime": "085718.516000",
      "PhotometricInterpretation": "MONOCHROME2",
      "PixelBandwidth": 2315.0,
      "PixelRepresentation": 0,
      "PixelSpacing": [3.0, 3.0],
      "ProtocolName": "func-bold_fa-77",
      "RepetitionTime": 2000.0,
      "Rows": 480,
      "SAR": 0.03226917269078,
      "SamplesPerPixel": 1,
      "ScanOptions": "FS",
      "ScanningSequence": "EP",
      "SequenceName": "*epfid2d1_80",
      "SequenceVariant": "SK",
      "SeriesDescription": "func-bold_fa-77",
      "SeriesNumber": 11,
      "SeriesTime": "090950.848000",
      "SliceLocation": -51.170856848145,
      "SliceThickness": 3.5,
      "SmallestImagePixelValue": 0,
      "SoftwareVersions": "syngo MR E11",
      "SpacingBetweenSlices": 3.9900000367632,
      "SpecificCharacterSet": "ISO_IR 100",
      "StudyID": "3",
      "StudyTime": "085718.440000",
      "TransmitCoilName": "Body",
      "VariableFlipAngleFlag": "N",
      "WindowCenterWidthExplanation": "Algo1",
      "dBdt": 0.0},
    "slices": {}
  },
  "time": {
    "samples": {
      "AcquisitionNumber": [1, 2, 3, 4, 5, 6, 7, 8, 9, 10, 11, 12, 13, 14, 15, 16, 17, 18, 19, 20, 21, 22, 23, 24, 25, 26, 27, 28, 29, 30, 31, 32, 33, 34, 35, 36, 37, 38, 39, 40, 41, 42, 43, 44, 45, 46, 47, 48, 49, 50, 51, 52, 53, 54, 55, 56, 57, 58, 59, 60, 61, 62, 63, 64, 65, 66, 67, 68, 69, 70, 71, 72, 73, 74, 75, 76, 77, 78, 79, 80, 81, 82, 83, 84, 85, 86, 87, 88, 89, 90, 91, 92, 93, 94, 95, 96, 97, 98, 99, 100, 101, 102, 103, 104, 105, 106, 107, 108, 109, 110, 111, 112, 113, 114, 115, 116, 117, 118, 119, 120, 121, 122, 123, 124, 125, 126, 127, 128, 129, 130, 131, 132, 133, 134, 135, 136, 137, 138, 139, 140, 141, 142, 143, 144, 145, 146, 147, 148, 149, 150, 151, 152, 153, 154, 155, 156, 157, 158, 159, 160, 161, 162, 163, 164, 165, 166, 167, 168, 169, 170, 171, 172, 173, 174, 175, 176, 177, 178, 179, 180, 181, 182, 183, 184, 185, 186, 187, 188, 189, 190, 191, 192, 193, 194, 195, 196, 197, 198, 199, 200],
      "AcquisitionTime": ["090909.555000", "090911.555000", "090913.555000", "090915.555000", "090917.555000", "090919.555000", "090921.555000", "090923.555000", "090925.555000", "090927.555000", "090929.555000", "090931.555000", "090933.555000", "090935.555000", "090937.555000", "090939.555000", "090941.555000", "090943.555000", "090945.555000", "090947.555000", "090949.555000", "090951.555000", "090953.555000", "090955.555000", "090957.555000", "090959.555000", "091001.555000", "091003.555000", "091005.555000", "091007.555000", "091009.555000", "091011.555000", "091013.555000", "091015.555000", "091017.555000", "091019.555000", "091021.555000", "091023.555000", "091025.555000", "091027.555000", "091029.555000", "091031.555000", "091033.555000", "091035.555000", "091037.555000", "091039.555000", "091041.555000", "091043.555000", "091045.555000", "091047.555000", "091049.555000", "091051.555000", "091053.555000", "091055.555000", "091057.555000", "091059.555000", "091101.555000", "091103.555000", "091105.555000", "091107.555000", "091109.555000", "091111.555000", "091113.555000", "091115.555000", "091117.555000", "091119.555000", "091121.555000", "091123.555000", "091125.555000", "091127.555000", "091129.555000", "091131.555000", "091133.555000", "091135.555000", "091137.555000", "091139.555000", "091141.555000", "091143.555000", "091145.555000", "091147.555000", "091149.555000", "091151.555000", "091153.555000", "091155.555000", "091157.555000", "091159.555000", "091201.555000", "091203.555000", "091205.555000", "091207.555000", "091209.555000", "091211.555000", "091213.555000", "091215.555000", "091217.555000", "091219.555000", "091221.555000", "091223.555000", "091225.555000", "091227.555000", "091229.555000", "091231.555000", "091233.555000", "091235.555000", "091237.555000", "091239.555000", "091241.555000", "091243.555000", "091245.555000", "091247.555000", "091249.555000", "091251.555000", "091253.555000", "091255.555000", "091257.555000", "091259.555000", "091301.555000", "091303.555000", "091305.555000", "091307.555000", "091309.555000", "091311.555000", "091313.555000", "091315.555000", "091317.555000", "091319.555000", "091321.555000", "091323.555000", "091325.555000", "091327.555000", "091329.555000", "091331.555000", "091333.555000", "091335.555000", "091337.555000", "091339.555000", "091341.555000", "091343.555000", "091345.555000", "091347.555000", "091349.555000", "091351.555000", "091353.555000", "091355.555000", "091357.555000", "091359.555000", "091401.555000", "091403.555000", "091405.555000", "091407.555000", "091409.555000", "091411.555000", "091413.555000", "091415.555000", "091417.555000", "091419.555000", "091421.555000", "091423.555000", "091425.555000", "091427.555000", "091429.555000", "091431.555000", "091433.555000", "091435.555000", "091437.555000", "091439.555000", "091441.555000", "091443.555000", "091445.555000", "091447.555000", "091449.555000", "091451.555000", "091453.555000", "091455.555000", "091457.555000", "091459.555000", "091501.555000", "091503.555000", "091505.555000", "091507.555000", "091509.555000", "091511.555000", "091513.555000", "091515.555000", "091517.555000", "091519.555000", "091521.555000", "091523.555000", "091525.555000", "091527.555000", "091529.555000", "091531.555000", "091533.555000", "091535.555000", "091537.555000", "091539.555000", "091541.555000", "091543.555000", "091545.555000", "091547.555000"],
      "ContentTime": ["090950.851000", "090950.854000", "090950.857000", "090950.860000", "090950.862000", "090950.875000", "090950.878000", "090950.880000", "090950.883000", "090950.885000", "090950.888000", "090950.890000", "090950.893000", "090950.895000", "090950.898000", "090950.900000", "090950.903000", "090950.905000", "090950.908000", "090950.917000", "091030.846000", "091030.849000", "091030.860000", "091030.863000", "091030.866000", "091030.868000", "091030.871000", "091030.873000", "091030.884000", "091030.887000", "091030.889000", "091030.892000", "091030.894000", "091030.897000", "091030.899000", "091030.902000", "091030.905000", "091030.907000", "091030.910000", "091030.912000", "091110.845000", "091110.848000", "091110.851000", "091110.853000", "091110.856000", "091110.858000", "091110.861000", "091110.863000", "091110.866000", "091110.869000", "091110.871000", "091110.874000", "091110.876000", "091110.879000", "091110.881000", "091110.884000", "091110.887000", "091110.889000", "091110.892000", "091110.894000", "091150.847000", "091150.849000", "091150.852000", "091150.854000", "091150.857000", "091150.859000", "091150.862000", "091150.865000", "091150.867000", "091150.870000", "091150.872000", "091150.875000", "091150.877000", "091150.880000", "091150.882000", "091150.885000", "091150.888000", "091150.890000", "091150.893000", "091150.895000", "091230.846000", "091230.849000", "091230.852000", "091230.854000", "091230.857000", "091230.859000", "091230.862000", "091230.864000", "091230.867000", "091230.869000", "091230.872000", "091230.874000", "091230.877000", "091230.879000", "091230.882000", "091230.884000", "091230.887000", "091230.890000", "091230.892000", "091230.895000", "091310.847000", "091310.849000", "091310.852000", "091310.854000", "091310.857000", "091310.860000", "091310.862000", "091310.865000", "091310.867000", "091310.870000", "091310.872000", "091310.875000", "091310.878000", "091310.880000", "091310.883000", "091310.885000", "091310.888000", "091310.891000", "091310.893000", "091310.896000", "091350.846000", "091350.849000", "091350.852000", "091350.854000", "091350.857000", "091350.859000", "091350.862000", "091350.864000", "091350.867000", "091350.869000", "091350.872000", "091350.874000", "091350.877000", "091350.879000", "091350.892000", "091350.895000", "091350.897000", "091350.900000", "091350.902000", "091350.905000", "091430.846000", "091430.849000", "091430.852000", "091430.854000", "091430.857000", "091430.860000", "091430.862000", "091430.865000", "091430.867000", "091430.870000", "091430.872000", "091430.875000", "091430.878000", "091430.880000", "091430.883000", "091430.885000", "091430.888000", "091430.891000", "091430.893000", "091430.896000", "091510.846000", "091510.849000", "091510.852000", "091510.854000", "091510.857000", "091510.859000", "091510.862000", "091510.864000", "091510.867000", "091510.870000", "091510.872000", "091510.875000", "091510.877000", "091510.880000", "091510.882000", "091510.885000", "091510.887000", "091510.890000", "091510.892000", "091510.895000", "091549.541000", "091549.544000", "091549.547000", "091549.549000", "091549.552000", "091549.554000", "091549.557000", "091549.560000", "091549.562000", "091549.565000", "091549.567000", "091549.570000", "091549.574000", "091549.579000", "091549.582000", "091549.585000", "091549.590000", "091549.594000", "091549.599000", "091549.602000"],
      "InstanceCreationTime": ["090950.851000", "090950.854000", "090950.857000", "090950.860000", "090950.862000", "090950.875000", "090950.878000", "090950.880000", "090950.883000", "090950.885000", "090950.888000", "090950.890000", "090950.893000", "090950.895000", "090950.898000", "090950.900000", "090950.903000", "090950.905000", "090950.908000", "090950.917000", "091030.846000", "091030.849000", "091030.860000", "091030.863000", "091030.866000", "091030.868000", "091030.871000", "091030.873000", "091030.884000", "091030.887000", "091030.889000", "091030.892000", "091030.894000", "091030.897000", "091030.899000", "091030.902000", "091030.905000", "091030.907000", "091030.910000", "091030.912000", "091110.845000", "091110.848000", "091110.851000", "091110.853000", "091110.856000", "091110.858000", "091110.861000", "091110.863000", "091110.866000", "091110.869000", "091110.871000", "091110.874000", "091110.876000", "091110.879000", "091110.881000", "091110.884000", "091110.887000", "091110.889000", "091110.892000", "091110.894000", "091150.847000", "091150.849000", "091150.852000", "091150.854000", "091150.857000", "091150.859000", "091150.862000", "091150.865000", "091150.867000", "091150.870000", "091150.872000", "091150.875000", "091150.877000", "091150.880000", "091150.882000", "091150.885000", "091150.888000", "091150.890000", "091150.893000", "091150.895000", "091230.846000", "091230.849000", "091230.852000", "091230.854000", "091230.857000", "091230.859000", "091230.862000", "091230.864000", "091230.867000", "091230.869000", "091230.872000", "091230.874000", "091230.877000", "091230.879000", "091230.882000", "091230.884000", "091230.887000", "091230.890000", "091230.892000", "091230.895000", "091310.847000", "091310.849000", "091310.852000", "091310.854000", "091310.857000", "091310.860000", "091310.862000", "091310.865000", "091310.867000", "091310.870000", "091310.872000", "091310.875000", "091310.878000", "091310.880000", "091310.883000", "091310.885000", "091310.888000", "091310.891000", "091310.893000", "091310.896000", "091350.846000", "091350.849000", "091350.852000", "091350.854000", "091350.857000", "091350.859000", "091350.862000", "091350.864000", "091350.867000", "091350.869000", "091350.872000", "091350.874000", "091350.877000", "091350.879000", "091350.892000", "091350.895000", "091350.897000", "091350.900000", "091350.902000", "091350.905000", "091430.846000", "091430.849000", "091430.852000", "091430.854000", "091430.857000", "091430.860000", "091430.862000", "091430.865000", "091430.867000", "091430.870000", "091430.872000", "091430.875000", "091430.878000", "091430.880000", "091430.883000", "091430.885000", "091430.888000", "091430.891000", "091430.893000", "091430.896000", "091510.846000", "091510.849000", "091510.852000", "091510.854000", "091510.857000", "091510.859000", "091510.862000", "091510.864000", "091510.867000", "091510.870000", "091510.872000", "091510.875000", "091510.877000", "091510.880000", "091510.882000", "091510.885000", "091510.887000", "091510.890000", "091510.892000", "091510.895000", "091549.541000", "091549.544000", "091549.547000", "091549.549000", "091549.552000", "091549.554000", "091549.557000", "091549.560000", "091549.562000", "091549.565000", "091549.567000", "091549.570000", "091549.574000", "091549.579000", "091549.582000", "091549.585000", "091549.590000", "091549.594000", "091549.599000", "091549.602000"],
      "InstanceNumber": [1, 2, 3, 4, 5, 6, 7, 8, 9, 10, 11, 12, 13, 14, 15, 16, 17, 18, 19, 20, 21, 22, 23, 24, 25, 26, 27, 28, 29, 30, 31, 32, 33, 34, 35, 36, 37, 38, 39, 40, 41, 42, 43, 44, 45, 46, 47, 48, 49, 50, 51, 52, 53, 54, 55, 56, 57, 58, 59, 60, 61, 62, 63, 64, 65, 66, 67, 68, 69, 70, 71, 72, 73, 74, 75, 76, 77, 78, 79, 80, 81, 82, 83, 84, 85, 86, 87, 88, 89, 90, 91, 92, 93, 94, 95, 96, 97, 98, 99, 100, 101, 102, 103, 104, 105, 106, 107, 108, 109, 110, 111, 112, 113, 114, 115, 116, 117, 118, 119, 120, 121, 122, 123, 124, 125, 126, 127, 128, 129, 130, 131, 132, 133, 134, 135, 136, 137, 138, 139, 140, 141, 142, 143, 144, 145, 146, 147, 148, 149, 150, 151, 152, 153, 154, 155, 156, 157, 158, 159, 160, 161, 162, 163, 164, 165, 166, 167, 168, 169, 170, 171, 172, 173, 174, 175, 176, 177, 178, 179, 180, 181, 182, 183, 184, 185, 186, 187, 188, 189, 190, 191, 192, 193, 194, 195, 196, 197, 198, 199, 200],
      "WindowCenter": [1493.0, 1493.0, 1494.0, 1493.0, 1493.0, 1493.0, 1493.0, 1493.0, 1492.0, 1494.0, 1493.0, 1493.0, 1492.0, 1493.0, 1493.0, 1493.0, 1493.0, 1492.0, 1492.0, 1493.0, 1494.0, 1492.0, 1492.0, 1492.0, 1492.0, 1491.0, 1492.0, 1492.0, 1492.0, 1491.0, 1491.0, 1491.0, 1491.0, 1492.0, 1491.0, 1490.0, 1491.0, 1491.0, 1491.0, 1491.0, 1491.0, 1491.0, 1491.0, 1491.0, 1491.0, 1491.0, 1490.0, 1490.0, 1491.0, 1491.0, 1490.0, 1490.0, 1490.0, 1490.0, 1490.0, 1490.0, 1491.0, 1490.0, 1489.0, 1491.0, 1489.0, 1491.0, 1489.0, 1490.0, 1490.0, 1490.0, 1489.0, 1489.0, 1490.0, 1490.0, 1489.0, 1488.0, 1489.0, 1489.0, 1488.0, 1488.0, 1489.0, 1488.0, 1489.0, 1488.0, 1488.0, 1488.0, 1488.0, 1488.0, 1488.0, 1488.0, 1489.0, 1489.0, 1488.0, 1489.0, 1487.0, 1488.0, 1488.0, 1488.0, 1488.0, 1488.0, 1488.0, 1487.0, 1487.0, 1487.0, 1488.0, 1487.0, 1486.0, 1486.0, 1487.0, 1487.0, 1486.0, 1487.0, 1487.0, 1487.0, 1487.0, 1487.0, 1487.0, 1486.0, 1487.0, 1486.0, 1486.0, 1486.0, 1486.0, 1486.0, 1486.0, 1486.0, 1486.0, 1486.0, 1486.0, 1485.0, 1486.0, 1486.0, 1486.0, 1486.0, 1485.0, 1486.0, 1485.0, 1486.0, 1486.0, 1486.0, 1485.0, 1485.0, 1485.0, 1486.0, 1486.0, 1485.0, 1485.0, 1485.0, 1486.0, 1485.0, 1484.0, 1485.0, 1485.0, 1485.0, 1485.0, 1485.0, 1484.0, 1484.0, 1484.0, 1484.0, 1484.0, 1485.0, 1484.0, 1484.0, 1485.0, 1484.0, 1484.0, 1483.0, 1484.0, 1485.0, 1484.0, 1484.0, 1484.0, 1484.0, 1484.0, 1484.0, 1483.0, 1484.0, 1483.0, 1483.0, 1482.0, 1483.0, 1483.0, 1483.0, 1483.0, 1483.0, 1484.0, 1483.0, 1482.0, 1482.0, 1482.0, 1483.0, 1483.0, 1482.0, 1483.0, 1483.0, 1482.0, 1483.0, 1482.0, 1482.0, 1483.0, 1482.0, 1482.0, 1483.0],
      "WindowWidth": [3485.0, 3485.0, 3485.0, 3484.0, 3484.0, 3484.0, 3484.0, 3484.0, 3484.0, 3484.0, 3484.0, 3484.0, 3484.0, 3483.0, 3483.0, 3483.0, 3484.0, 3483.0, 3483.0, 3484.0, 3484.0, 3484.0, 3483.0, 3483.0, 3483.0, 3484.0, 3483.0, 3483.0, 3483.0, 3483.0, 3484.0, 3484.0, 3483.0, 3483.0, 3483.0, 3483.0, 3483.0, 3483.0, 3483.0, 3483.0, 3483.0, 3483.0, 3483.0, 3482.0, 3482.0, 3482.0, 3483.0, 3483.0, 3482.0, 3483.0, 3482.0, 3482.0, 3482.0, 3482.0, 3482.0, 3482.0, 3482.0, 3482.0, 3483.0, 3482.0, 3482.0, 3482.0, 3482.0, 3482.0, 3482.0, 3482.0, 3481.0, 3481.0, 3481.0, 3481.0, 3482.0, 3482.0, 3481.0, 3482.0, 3482.0, 3482.0, 3481.0, 3481.0, 3481.0, 3481.0, 3481.0, 3481.0, 3481.0, 3481.0, 3481.0, 3481.0, 3481.0, 3481.0, 3481.0, 3481.0, 3481.0, 3481.0, 3481.0, 3481.0, 3481.0, 3480.0, 3480.0, 3481.0, 3481.0, 3481.0, 3481.0, 3481.0, 3481.0, 3481.0, 3480.0, 3480.0, 3481.0, 3480.0, 3480.0, 3480.0, 3480.0, 3480.0, 3480.0, 3480.0, 3480.0, 3480.0, 3480.0, 3480.0, 3480.0, 3480.0, 3479.0, 3480.0, 3480.0, 3479.0, 3479.0, 3480.0, 3479.0, 3479.0, 3479.0, 3479.0, 3479.0, 3479.0, 3479.0, 3479.0, 3479.0, 3479.0, 3479.0, 3479.0, 3479.0, 3479.0, 3479.0, 3479.0, 3479.0, 3479.0, 3479.0, 3479.0, 3479.0, 3478.0, 3478.0, 3478.0, 3478.0, 3478.0, 3478.0, 3478.0, 3478.0, 3478.0, 3478.0, 3478.0, 3478.0, 3478.0, 3478.0, 3478.0, 3478.0, 3478.0, 3478.0, 3478.0, 3478.0, 3478.0, 3478.0, 3478.0, 3478.0, 3478.0, 3478.0, 3478.0, 3478.0, 3478.0, 3478.0, 3478.0, 3477.0, 3477.0, 3477.0, 3477.0, 3477.0, 3477.0, 3477.0, 3477.0, 3477.0, 3477.0, 3477.0, 3477.0, 3477.0, 3477.0, 3477.0, 3477.0, 3477.0, 3477.0, 3477.0, 3477.0, 3477.0, 3476.0]
    },
    "slices": {}
  }
}