{
  "AcquisitionMatrixPE": 80,
  "AcquisitionNumber": 1,
  "AcquisitionTime": "09:15:56.520000",
  "BandwidthPerPixelPhaseEncode": 25,
  "BaseResolution": 80,
  "BodyPartExamined": "BRAIN",
  "CoilCombinationMethod": "Sum of Squares",
  "ConsistencyInfo": "N4_VE11C_LATEST_20160120",
  "ConversionSoftware": "dcm2niix",
  "ConversionSoftwareVersion": "v1.0.20220720",
  "DerivedVendorReportedEchoSpacing": 0.0005,
  "DeviceSerialNumber": "66112",
  "DwellTime": 2.7e-06,
  "EchoTime": 0.03,
  "EchoTrainLength": 80,
  "EffectiveEchoSpacing": 0.0005,
  "FlipAngle": 10,
  "HeudiconvVersion": "0.13.1",
  "ImageOrientationPatientDICOM": [0.987161, 0.159589, 0.00668928, -0.153173, 0.933942, 0.322941],
  "ImageOrientationText": "Tra>Cor(18.7)>Sag(-2.6)",
  "ImageType": [
    "ORIGINAL",
    "PRIMARY",
    "M",
    "ND",
    "NORM",
    "MOSAIC"
],
  "ImagingFrequency": 123.252,
  "InPlanePhaseEncodingDirectionDICOM": "COL",
  "InstitutionAddress": "Maynard 3,Hanover,NH,US,03755",
  "InstitutionName": "Dartmouth College - PBS",
  "InstitutionalDepartmentName": "Department",
  "MRAcquisitionType": "2D",
  "MagneticFieldStrength": 3,
  "Manufacturer": "Siemens",
  "ManufacturersModelName": "Prisma",
  "MatrixCoilMode": "SENSE",
  "Modality": "MR",
  "NonlinearGradientCorrection": false,
  "PartialFourier": 1,
  "PatientPosition": "HFS",
  "PercentPhaseFOV": 100,
  "PercentSampling": 100,
  "PhaseEncodingDirection": "j-",
  "PhaseEncodingSteps": 80,
  "PhaseResolution": 1,
  "PixelBandwidth": 2315,
  "ProcedureStepDescription": "dbic^QA",
  "ProtocolName": "func-bold_fa-10",
  "PulseSequenceDetails": "%SiemensSeq%\\ep2d_bold",
  "ReceiveCoilActiveElements": "HC1-7;NC1,2",
  "ReceiveCoilName": "HeadNeck_64",
  "ReconMatrixPE": 80,
  "RepetitionTime": 2,
  "SAR": 0.00865618,
  "ScanOptions": "FS",
  "ScanningSequence": "EP",
  "SequenceName": "*epfid2d1_80",
  "SequenceVariant": "SK",
  "SeriesDescription": "func-bold_fa-10",
  "SeriesNumber": 13,
  "ShimSetting": [4139, -7705, -7515, 194, -74, -266, -128, 82],
  "SliceThickness": 3.5,
  "SliceTiming": [0.99, 0, 1.055, 0.065, 1.12, 0.13, 1.1875, 0.1975, 1.2525, 0.2625, 1.32, 0.33, 1.385, 0.395, 1.45, 0.46, 1.5175, 0.5275, 1.5825, 0.5925, 1.6475, 0.66, 1.715, 0.725, 1.78, 0.79, 1.8475, 0.8575, 1.9125, 0.9225],
  "SoftwareVersions": "syngo MR E11",
  "SpacingBetweenSlices": 3.99,
  "StationName": "AWP66112",
  "TotalReadoutTime": 0.0395,
  "TxRefAmp": 206.261,
  "dcmmeta_affine": [
    [-2.9614827632904053, -0.45952025055885315, -0.1807081401348114, 139.4195098876953],
    [-0.47876614332199097, 2.801825523376465, 1.276077389717102, -110.73665618896484],
    [0.0200678501278162, -0.9688215851783752, 3.776118516921997, -9.975570678710938],
    [0.0, 0.0, 0.0, 1.0]
],
  "dcmmeta_reorient_transform": [
    [0.0, -1.0, 0.0, 79.0],
    [1.0, 0.0, 0.0, 0.0],
    [0.0, 0.0, 1.0, 0.0],
    [0.0, 0.0, 0.0, 1.0]
],
  "dcmmeta_shape": [80, 80, 30, 200],
  "dcmmeta_slice_dim": 2,
  "dcmmeta_version": 0.6,
  "global": {
    "const": {
      "AccessionNumber": "qa64",
      "AcquisitionMatrix": [80, 0, 0, 80],
      "AngioFlag": "N",
      "BitsAllocated": 16,
      "BitsStored": 12,
      "BodyPartExamined": "BRAIN",
      "Columns": 480,
      "EchoNumbers": 1,
      "EchoTime": 30.0,
      "EchoTrainLength": 80,
      "FlipAngle": 10.0,
      "HighBit": 11,
      "ImageOrientationPatient": [0.98716092684496, 0.15958871513194, 0.00668928345404, -0.1531734205979, 0.93394182071433, 0.32294051889341],
      "ImagePositionPatient": [-603.50991750942, -766.72587596129, -284.29035542576],
      "ImageType": [
        "ORIGINAL",
        "PRIMARY",
        "M",
        "ND",
        "NORM",
        "MOSAIC"
],
      "ImagedNucleus": "1H",
      "ImagingFrequency": 123.252346,
      "InPlanePhaseEncodingDirection": "COL",
      "MRAcquisitionType": "2D",
      "MagneticFieldStrength": 3.0,
      "Manufacturer": "SIEMENS",
      "ManufacturerModelName": "Prisma",
      "Modality": "MR",
      "NumberOfAverages": 1.0,
      "NumberOfPhaseEncodingSteps": 80,
      "PercentPhaseFieldOfView": 100.0,
      "PercentSampling": 100.0,
      "PerformedProcedureStepStartTime": "085718.516000",
      "PhotometricInterpretation": "MONOCHROME2",
      "PixelBandwidth": 2315.0,
      "PixelRepresentation": 0,
      "PixelSpacing": [3.0, 3.0],
      "ProtocolName": "func-bold_fa-10",
      "RepetitionTime": 2000.0,
      "Rows": 480,
      "SAR": 0.00865617627825,
      "SamplesPerPixel": 1,
      "ScanOptions": "FS",
      "ScanningSequence": "EP",
      "SequenceName": "*epfid2d1_80",
      "SequenceVariant": "SK",
      "SeriesDescription": "func-bold_fa-10",
      "SeriesNumber": 13,
      "SeriesTime": "091650.709000",
      "SliceLocation": -51.170856848145,
      "SliceThickness": 3.5,
      "SmallestImagePixelValue": 0,
      "SoftwareVersions": "syngo MR E11",
      "SpacingBetweenSlices": 3.9900000367632,
      "SpecificCharacterSet": "ISO_IR 100",
      "StudyID": "3",
      "StudyTime": "085718.440000",
      "TransmitCoilName": "Body",
      "VariableFlipAngleFlag": "N",
      "WindowCenterWidthExplanation": "Algo1",
      "dBdt": 0.0},
    "slices": {}
  },
  "time": {
    "samples": {
      "AcquisitionNumber": [1, 2, 3, 4, 5, 6, 7, 8, 9, 10, 11, 12, 13, 14, 15, 16, 17, 18, 19, 20, 21, 22, 23, 24, 25, 26, 27, 28, 29, 30, 31, 32, 33, 34, 35, 36, 37, 38, 39, 40, 41, 42, 43, 44, 45, 46, 47, 48, 49, 50, 51, 52, 53, 54, 55, 56, 57, 58, 59, 60, 61, 62, 63, 64, 65, 66, 67, 68, 69, 70, 71, 72, 73, 74, 75, 76, 77, 78, 79, 80, 81, 82, 83, 84, 85, 86, 87, 88, 89, 90, 91, 92, 93, 94, 95, 96, 97, 98, 99, 100, 101, 102, 103, 104, 105, 106, 107, 108, 109, 110, 111, 112, 113, 114, 115, 116, 117, 118, 119, 120, 121, 122, 123, 124, 125, 126, 127, 128, 129, 130, 131, 132, 133, 134, 135, 136, 137, 138, 139, 140, 141, 142, 143, 144, 145, 146, 147, 148, 149, 150, 151, 152, 153, 154, 155, 156, 157, 158, 159, 160, 161, 162, 163, 164, 165, 166, 167, 168, 169, 170, 171, 172, 173, 174, 175, 176, 177, 178, 179, 180, 181, 182, 183, 184, 185, 186, 187, 188, 189, 190, 191, 192, 193, 194, 195, 196, 197, 198, 199, 200],
      "AcquisitionTime": ["091556.520000", "091558.520000", "091600.520000", "091602.520000", "091604.520000", "091606.520000", "091608.520000", "091610.520000", "091612.520000", "091614.520000", "091616.520000", "091618.520000", "091620.520000", "091622.520000", "091624.520000", "091626.520000", "091628.520000", "091630.520000", "091632.520000", "091634.520000", "091636.520000", "091638.520000", "091640.520000", "091642.520000", "091644.520000", "091646.520000", "091648.520000", "091650.520000", "091652.520000", "091654.520000", "091656.520000", "091658.520000", "091700.520000", "091702.520000", "091704.520000", "091706.520000", "091708.520000", "091710.520000", "091712.520000", "091714.520000", "091716.520000", "091718.520000", "091720.520000", "091722.520000", "091724.520000", "091726.520000", "091728.520000", "091730.520000", "091732.520000", "091734.520000", "091736.520000", "091738.520000", "091740.520000", "091742.520000", "091744.520000", "091746.520000", "091748.520000", "091750.520000", "091752.520000", "091754.520000", "091756.520000", "091758.520000", "091800.520000", "091802.520000", "091804.520000", "091806.520000", "091808.520000", "091810.520000", "091812.520000", "091814.520000", "091816.520000", "091818.520000", "091820.520000", "091822.520000", "091824.520000", "091826.520000", "091828.520000", "091830.520000", "091832.520000", "091834.520000", "091836.520000", "091838.520000", "091840.520000", "091842.520000", "091844.520000", "091846.520000", "091848.520000", "091850.520000", "091852.520000", "091854.520000", "091856.520000", "091858.520000", "091900.520000", "091902.520000", "091904.520000", "091906.520000", "091908.520000", "091910.520000", "091912.520000", "091914.520000", "091916.520000", "091918.520000", "091920.520000", "091922.520000", "091924.520000", "091926.520000", "091928.520000", "091930.520000", "091932.520000", "091934.520000", "091936.520000", "091938.520000", "091940.520000", "091942.520000", "091944.520000", "091946.520000", "091948.520000", "091950.520000", "091952.520000", "091954.520000", "091956.520000", "091958.520000", "092000.520000", "092002.520000", "092004.520000", "092006.520000", "092008.520000", "092010.520000", "092012.520000", "092014.520000", "092016.520000", "092018.520000", "092020.520000", "092022.520000", "092024.520000", "092026.520000", "092028.520000", "092030.520000", "092032.520000", "092034.520000", "092036.520000", "092038.520000", "092040.520000", "092042.520000", "092044.520000", "092046.520000", "092048.520000", "092050.520000", "092052.520000", "092054.520000", "092056.520000", "092058.520000", "092100.520000", "092102.520000", "092104.520000", "092106.520000", "092108.520000", "092110.520000", "092112.520000", "092114.520000", "092116.520000", "092118.520000", "092120.520000", "092122.520000", "092124.520000", "092126.520000", "092128.520000", "092130.520000", "092132.520000", "092134.520000", "092136.520000", "092138.520000", "092140.520000", "092142.520000", "092144.520000", "092146.520000", "092148.520000", "092150.520000", "092152.520000", "092154.520000", "092156.520000", "092158.520000", "092200.520000", "092202.520000", "092204.520000", "092206.520000", "092208.520000", "092210.520000", "092212.520000", "092214.520000", "092216.520000", "092218.520000", "092220.520000", "092222.520000", "092224.520000", "092226.520000", "092228.520000", "092230.520000", "092232.520000", "092234.520000"],
      "ContentTime": ["091650.712000", "091650.716000", "091650.718000", "091650.721000", "091650.723000", "091650.726000", "091650.728000", "091650.731000", "091650.734000", "091650.736000", "091650.738000", "091650.741000", "091650.744000", "091650.746000", "091650.749000", "091650.751000", "091650.754000", "091650.756000", "091650.759000", "091650.761000", "091650.764000", "091650.766000", "091650.769000", "091650.772000", "091650.774000", "091650.777000", "091650.779000", "091730.707000", "091730.710000", "091730.713000", "091730.716000", "091730.718000", "091730.721000", "091730.723000", "091730.726000", "091730.728000", "091730.731000", "091730.733000", "091730.736000", "091730.738000", "091730.741000", "091730.743000", "091730.746000", "091730.748000", "091730.751000", "091730.753000", "091730.756000", "091750.707000", "091750.710000", "091750.713000", "091750.716000", "091750.718000", "091750.721000", "091750.723000", "091750.726000", "091750.728000", "091750.731000", "091830.708000", "091830.710000", "091830.713000", "091830.716000", "091830.718000", "091830.721000", "091830.723000", "091830.726000", "091830.728000", "091830.731000", "091830.733000", "091830.736000", "091830.738000", "091830.741000", "091830.743000", "091830.746000", "091830.748000", "091830.751000", "091830.753000", "091830.756000", "091910.707000", "091910.710000", "091910.713000", "091910.715000", "091910.718000", "091910.720000", "091910.723000", "091910.725000", "091910.728000", "091910.731000", "091910.733000", "091910.736000", "091910.738000", "091910.749000", "091910.751000", "091910.754000", "091910.757000", "091910.759000", "091910.761000", "091910.764000", "091950.707000", "091950.710000", "091950.713000", "091950.716000", "091950.718000", "091950.721000", "091950.723000", "091950.726000", "091950.728000", "091950.731000", "091950.733000", "091950.736000", "091950.738000", "091950.741000", "091950.743000", "091950.746000", "091950.748000", "091950.751000", "091950.753000", "091950.756000", "092030.707000", "092030.710000", "092030.713000", "092030.715000", "092030.718000", "092030.720000", "092030.723000", "092030.725000", "092030.728000", "092030.730000", "092030.733000", "092030.735000", "092030.738000", "092030.740000", "092030.743000", "092030.745000", "092030.748000", "092030.750000", "092030.753000", "092030.755000", "092110.707000", "092110.710000", "092110.713000", "092110.715000", "092110.718000", "092110.720000", "092110.723000", "092110.725000", "092110.728000", "092110.730000", "092110.733000", "092110.735000", "092110.738000", "092110.740000", "092110.743000", "092110.745000", "092110.748000", "092110.751000", "092110.753000", "092110.756000", "092150.707000", "092150.710000", "092150.713000", "092150.716000", "092150.718000", "092150.721000", "092150.723000", "092150.726000", "092150.728000", "092150.731000", "092150.733000", "092150.736000", "092150.738000", "092150.741000", "092150.743000", "092150.746000", "092150.748000", "092150.751000", "092150.753000", "092150.756000", "092230.708000", "092230.710000", "092230.713000", "092230.715000", "092230.718000", "092230.720000", "092230.723000", "092230.726000", "092230.728000", "092230.731000", "092230.733000", "092230.736000", "092230.738000", "092230.741000", "092230.743000", "092230.746000", "092230.748000", "092230.751000", "092230.753000", "092230.756000", "092236.045000", "092236.048000", "092236.050000"],
      "InstanceCreationTime": ["091650.712000", "091650.716000", "091650.718000", "091650.721000", "091650.723000", "091650.726000", "091650.728000", "091650.731000", "091650.734000", "091650.736000", "091650.738000", "091650.741000", "091650.744000", "091650.746000", "091650.749000", "091650.751000", "091650.754000", "091650.756000", "091650.759000", "091650.761000", "091650.764000", "091650.766000", "091650.769000", "091650.772000", "091650.774000", "091650.777000", "091650.779000", "091730.707000", "091730.710000", "091730.713000", "091730.716000", "091730.718000", "091730.721000", "091730.723000", "091730.726000", "091730.728000", "091730.731000", "091730.733000", "091730.736000", "091730.738000", "091730.741000", "091730.743000", "091730.746000", "091730.748000", "091730.751000", "091730.753000", "091730.756000", "091750.707000", "091750.710000", "091750.713000", "091750.716000", "091750.718000", "091750.721000", "091750.723000", "091750.726000", "091750.728000", "091750.731000", "091830.708000", "091830.710000", "091830.713000", "091830.716000", "091830.718000", "091830.721000", "091830.723000", "091830.726000", "091830.728000", "091830.731000", "091830.733000", "091830.736000", "091830.738000", "091830.741000", "091830.743000", "091830.746000", "091830.748000", "091830.751000", "091830.753000", "091830.756000", "091910.707000", "091910.710000", "091910.713000", "091910.715000", "091910.718000", "091910.720000", "091910.723000", "091910.725000", "091910.728000", "091910.731000", "091910.733000", "091910.736000", "091910.738000", "091910.749000", "091910.751000", "091910.754000", "091910.757000", "091910.759000", "091910.761000", "091910.764000", "091950.707000", "091950.710000", "091950.713000", "091950.716000", "091950.718000", "091950.721000", "091950.723000", "091950.726000", "091950.728000", "091950.731000", "091950.733000", "091950.736000", "091950.738000", "091950.741000", "091950.743000", "091950.746000", "091950.748000", "091950.751000", "091950.753000", "091950.756000", "092030.707000", "092030.710000", "092030.713000", "092030.715000", "092030.718000", "092030.720000", "092030.723000", "092030.725000", "092030.728000", "092030.730000", "092030.733000", "092030.735000", "092030.738000", "092030.740000", "092030.743000", "092030.745000", "092030.748000", "092030.750000", "092030.753000", "092030.755000", "092110.707000", "092110.710000", "092110.713000", "092110.715000", "092110.718000", "092110.720000", "092110.723000", "092110.725000", "092110.728000", "092110.730000", "092110.733000", "092110.735000", "092110.738000", "092110.740000", "092110.743000", "092110.745000", "092110.748000", "092110.751000", "092110.753000", "092110.756000", "092150.707000", "092150.710000", "092150.713000", "092150.716000", "092150.718000", "092150.721000", "092150.723000", "092150.726000", "092150.728000", "092150.731000", "092150.733000", "092150.736000", "092150.738000", "092150.741000", "092150.743000", "092150.746000", "092150.748000", "092150.751000", "092150.753000", "092150.756000", "092230.708000", "092230.710000", "092230.713000", "092230.715000", "092230.718000", "092230.720000", "092230.723000", "092230.726000", "092230.728000", "092230.731000", "092230.733000", "092230.736000", "092230.738000", "092230.741000", "092230.743000", "092230.746000", "092230.748000", "092230.751000", "092230.753000", "092230.756000", "092236.045000", "092236.048000", "092236.050000"],
      "InstanceNumber": [1, 2, 3, 4, 5, 6, 7, 8, 9, 10, 11, 12, 13, 14, 15, 16, 17, 18, 19, 20, 21, 22, 23, 24, 25, 26, 27, 28, 29, 30, 31, 32, 33, 34, 35, 36, 37, 38, 39, 40, 41, 42, 43, 44, 45, 46, 47, 48, 49, 50, 51, 52, 53, 54, 55, 56, 57, 58, 59, 60, 61, 62, 63, 64, 65, 66, 67, 68, 69, 70, 71, 72, 73, 74, 75, 76, 77, 78, 79, 80, 81, 82, 83, 84, 85, 86, 87, 88, 89, 90, 91, 92, 93, 94, 95, 96, 97, 98, 99, 100, 101, 102, 103, 104, 105, 106, 107, 108, 109, 110, 111, 112, 113, 114, 115, 116, 117, 118, 119, 120, 121, 122, 123, 124, 125, 126, 127, 128, 129, 130, 131, 132, 133, 134, 135, 136, 137, 138, 139, 140, 141, 142, 143, 144, 145, 146, 147, 148, 149, 150, 151, 152, 153, 154, 155, 156, 157, 158, 159, 160, 161, 162, 163, 164, 165, 166, 167, 168, 169, 170, 171, 172, 173, 174, 175, 176, 177, 178, 179, 180, 181, 182, 183, 184, 185, 186, 187, 188, 189, 190, 191, 192, 193, 194, 195, 196, 197, 198, 199, 200],
      "LargestImagePixelValue": [771, 769, 770, 768, 769, 769, 766, 769, 769, 769, 767, 770, 766, 769, 766, 765, 766, 765, 763, 764, 762, 764, 765, 767, 767, 764, 767, 763, 764, 763, 763, 765, 765, 768, 766, 764, 764, 766, 765, 765, 766, 763, 767, 766, 766, 767, 768, 769, 769, 766, 767, 768, 766, 767, 766, 770, 767, 765, 768, 767, 767, 767, 766, 767, 767, 764, 766, 766, 763, 765, 767, 766, 768, 766, 768, 767, 764, 765, 765, 764, 766, 765, 768, 765, 765, 765, 766, 766, 763, 770, 763, 765, 764, 767, 767, 766, 768, 766, 764, 766, 765, 766, 763, 766, 768, 765, 765, 766, 764, 764, 765, 764, 768, 765, 766, 767, 765, 764, 765, 764, 765, 766, 766, 766, 765, 766, 768, 764, 764, 766, 765, 765, 765, 768, 765, 765, 764, 768, 764, 764, 763, 767, 764, 764, 764, 765, 764, 764, 764, 766, 763, 763, 765, 764, 763, 763, 766, 765, 766, 764, 765, 763, 765, 766, 765, 764, 763, 765, 763, 766, 764, 765, 765, 763, 765, 763, 762, 761, 765, 764, 766, 764, 765, 764, 766, 764, 764, 763, 763, 763, 764, 764, 763, 762, 764, 767, 762, 765, 765, 764],
      "WindowCenter": [484.0, 483.0, 484.0, 483.0, 483.0, 483.0, 483.0, 483.0, 483.0, 483.0, 483.0, 484.0, 483.0, 483.0, 483.0, 483.0, 483.0, 483.0, 483.0, 483.0, 483.0, 483.0, 483.0, 483.0, 483.0, 483.0, 483.0, 483.0, 483.0, 483.0, 483.0, 483.0, 483.0, 483.0, 483.0, 483.0, 483.0, 483.0, 483.0, 483.0, 482.0, 482.0, 483.0, 482.0, 482.0, 482.0, 482.0, 482.0, 482.0, 482.0, 482.0, 482.0, 482.0, 482.0, 482.0, 483.0, 482.0, 482.0, 482.0, 482.0, 482.0, 482.0, 482.0, 482.0, 482.0, 482.0, 482.0, 482.0, 482.0, 482.0, 482.0, 482.0, 482.0, 482.0, 482.0, 482.0, 482.0, 482.0, 482.0, 482.0, 482.0, 482.0, 482.0, 482.0, 482.0, 482.0, 482.0, 482.0, 482.0, 483.0, 482.0, 482.0, 482.0, 482.0, 482.0, 482.0, 482.0, 482.0, 482.0, 482.0, 482.0, 482.0, 482.0, 482.0, 482.0, 482.0, 482.0, 482.0, 482.0, 482.0, 482.0, 482.0, 482.0, 482.0, 482.0, 482.0, 482.0, 482.0, 482.0, 482.0, 482.0, 482.0, 482.0, 482.0, 482.0, 482.0, 482.0, 482.0, 482.0, 482.0, 482.0, 482.0, 482.0, 482.0, 482.0, 482.0, 482.0, 482.0, 482.0, 482.0, 482.0, 482.0, 482.0, 482.0, 482.0, 482.0, 482.0, 482.0, 482.0, 482.0, 482.0, 482.0, 482.0, 482.0, 482.0, 482.0, 482.0, 482.0, 481.0, 482.0, 482.0, 482.0, 482.0, 482.0, 481.0, 482.0, 482.0, 482.0, 482.0, 482.0, 482.0, 482.0, 482.0, 482.0, 482.0, 482.0, 482.0, 482.0, 482.0, 481.0, 482.0, 481.0, 481.0, 482.0, 481.0, 481.0, 481.0, 481.0, 481.0, 481.0, 481.0, 481.0, 481.0, 481.0, 481.0, 481.0, 481.0, 481.0, 481.0, 481.0],
      "WindowWidth": [1002.0, 1001.0, 1002.0, 1001.0, 1001.0, 1001.0, 1001.0, 1001.0, 1001.0, 1000.0, 1001.0, 1001.0, 1001.0, 1001.0, 1001.0, 1000.0, 1000.0, 1000.0, 1000.0, 1000.0, 1000.0, 1000.0, 1000.0, 1000.0, 1000.0, 1000.0, 1000.0, 1000.0, 1000.0, 1000.0, 1000.0, 1000.0, 1000.0, 1000.0, 1000.0, 1000.0, 1000.0, 1000.0, 1000.0, 1000.0, 999.0, 999.0, 1000.0, 999.0, 999.0, 999.0, 999.0, 999.0, 999.0, 999.0, 999.0, 999.0, 999.0, 999.0, 999.0, 1000.0, 999.0, 999.0, 999.0, 999.0, 999.0, 999.0, 999.0, 999.0, 999.0, 999.0, 999.0, 999.0, 999.0, 999.0, 999.0, 999.0, 999.0, 999.0, 999.0, 999.0, 999.0, 999.0, 999.0, 999.0, 999.0, 999.0, 999.0, 999.0, 998.0, 999.0, 999.0, 999.0, 999.0, 1000.0, 999.0, 999.0, 998.0, 999.0, 999.0, 999.0, 999.0, 998.0, 999.0, 998.0, 999.0, 998.0, 998.0, 999.0, 999.0, 999.0, 999.0, 998.0, 999.0, 998.0, 999.0, 999.0, 999.0, 998.0, 998.0, 998.0, 998.0, 998.0, 998.0, 998.0, 998.0, 998.0, 998.0, 999.0, 998.0, 998.0, 998.0, 998.0, 998.0, 998.0, 998.0, 998.0, 998.0, 998.0, 998.0, 998.0, 998.0, 998.0, 998.0, 998.0, 998.0, 998.0, 998.0, 998.0, 998.0, 998.0, 998.0, 998.0, 998.0, 998.0, 998.0, 998.0, 998.0, 998.0, 998.0, 998.0, 998.0, 998.0, 997.0, 998.0, 998.0, 998.0, 998.0, 998.0, 997.0, 998.0, 998.0, 998.0, 998.0, 997.0, 998.0, 997.0, 997.0, 997.0, 997.0, 997.0, 997.0, 997.0, 997.0, 997.0, 997.0, 997.0, 997.0, 997.0, 997.0, 997.0, 997.0, 997.0, 997.0, 997.0, 997.0, 997.0, 997.0, 997.0, 997.0, 997.0, 997.0, 997.0, 997.0, 997.0]
    },
    "slices": {}
  }
}