{
  "AcquisitionMatrixPE": 80,
  "AcquisitionNumber": 1,
  "AcquisitionTime": "10:17:36.482500",
  "BandwidthPerPixelPhaseEncode": 25,
  "BaseResolution": 80,
  "BodyPartExamined": "BRAIN",
  "CoilCombinationMethod": "Sum of Squares",
  "ConsistencyInfo": "N4_VE11C_LATEST_20160120",
  "ConversionSoftware": "dcm2niix",
  "ConversionSoftwareVersion": "v1.0.20220720",
  "DerivedVendorReportedEchoSpacing": 0.0005,
  "DeviceSerialNumber": "66112",
  "DwellTime": 2.7e-06,
  "EchoTime": 0.03,
  "EchoTrainLength": 80,
  "EffectiveEchoSpacing": 0.0005,
  "FlipAngle": 10,
  "HeudiconvVersion": "0.13.1",
  "ImageOrientationPatientDICOM": [0.985115, 0.17145, 0.0123575, -0.166797, 0.93605, 0.309822],
  "ImageOrientationText": "Tra>Cor(17.9)>Sag(-2.4)",
  "ImageType": [
    "ORIGINAL",
    "PRIMARY",
    "M",
    "ND",
    "NORM",
    "MOSAIC"
],
  "ImagingFrequency": 123.252,
  "InPlanePhaseEncodingDirectionDICOM": "COL",
  "InstitutionAddress": "Maynard 3,Hanover,NH,US,03755",
  "InstitutionName": "Dartmouth College - PBS",
  "InstitutionalDepartmentName": "Department",
  "MRAcquisitionType": "2D",
  "MagneticFieldStrength": 3,
  "Manufacturer": "Siemens",
  "ManufacturersModelName": "Prisma",
  "MatrixCoilMode": "SENSE",
  "Modality": "MR",
  "NonlinearGradientCorrection": false,
  "PartialFourier": 1,
  "PatientPosition": "HFS",
  "PercentPhaseFOV": 100,
  "PercentSampling": 100,
  "PhaseEncodingDirection": "j-",
  "PhaseEncodingSteps": 80,
  "PhaseResolution": 1,
  "PixelBandwidth": 2315,
  "ProcedureStepDescription": "dbic^QA",
  "ProtocolName": "func-bold_fa-10",
  "PulseSequenceDetails": "%SiemensSeq%\\ep2d_bold",
  "ReceiveCoilActiveElements": "HEA;HEP",
  "ReceiveCoilName": "Head_32",
  "ReconMatrixPE": 80,
  "RepetitionTime": 2,
  "SAR": 0.0138493,
  "ScanOptions": "FS",
  "ScanningSequence": "EP",
  "SequenceName": "*epfid2d1_80",
  "SequenceVariant": "SK",
  "SeriesDescription": "func-bold_fa-10",
  "SeriesNumber": 10,
  "ShimSetting": [4149, -7702, -7512, 278, -65, -70, -37, 64],
  "SliceThickness": 3.5,
  "SliceTiming": [0.99, 0, 1.055, 0.065, 1.1225, 0.1325, 1.1875, 0.1975, 1.2525, 0.265, 1.32, 0.33, 1.385, 0.395, 1.4525, 0.4625, 1.5175, 0.5275, 1.5825, 0.5925, 1.65, 0.66, 1.715, 0.725, 1.7825, 0.7925, 1.8475, 0.8575, 1.9125, 0.9225],
  "SoftwareVersions": "syngo MR E11",
  "SpacingBetweenSlices": 3.99,
  "StationName": "AWP66112",
  "TotalReadoutTime": 0.0395,
  "TxRefAmp": 237.779,
  "dcmmeta_affine": [
    [-2.95534610748291, -0.5003901124000549, -0.16579101979732513, 143.9860382080078],
    [-0.5143488645553589, 2.8081493377685547, 1.2260140180587769, -100.12312316894531],
    [0.037072524428367615, -0.9294663071632385, 3.7933497428894043, -0.8561679124832153],
    [0.0, 0.0, 0.0, 1.0]
],
  "dcmmeta_reorient_transform": [
    [0.0, -1.0, 0.0, 79.0],
    [1.0, 0.0, 0.0, 0.0],
    [0.0, 0.0, 1.0, 0.0],
    [0.0, 0.0, 0.0, 1.0]
],
  "dcmmeta_shape": [80, 80, 30, 200],
  "dcmmeta_slice_dim": 2,
  "dcmmeta_version": 0.6,
  "global": {
    "const": {
      "AccessionNumber": "qa",
      "AcquisitionMatrix": [80, 0, 0, 80],
      "AngioFlag": "N",
      "BitsAllocated": 16,
      "BitsStored": 12,
      "BodyPartExamined": "BRAIN",
      "Columns": 480,
      "EchoNumbers": 1,
      "EchoTime": 30.0,
      "EchoTrainLength": 80,
      "FlipAngle": 10.0,
      "HighBit": 11,
      "ImageOrientationPatient": [0.98511538426028, 0.17144961848494, 0.01235750844968, -0.1667967060852, 0.93604974742408, 0.30982209279917],
      "ImagePositionPatient": [-595.44642298319, -786.22028701529, -267.59176468139],
      "ImageType": [
        "ORIGINAL",
        "PRIMARY",
        "M",
        "ND",
        "NORM",
        "MOSAIC"
],
      "ImagedNucleus": "1H",
      "ImagingFrequency": 123.252353,
      "InPlanePhaseEncodingDirection": "COL",
      "MRAcquisitionType": "2D",
      "MagneticFieldStrength": 3.0,
      "Manufacturer": "SIEMENS",
      "ManufacturerModelName": "Prisma",
      "Modality": "MR",
      "NumberOfAverages": 1.0,
      "NumberOfPhaseEncodingSteps": 80,
      "PercentPhaseFieldOfView": 100.0,
      "PercentSampling": 100.0,
      "PerformedProcedureStepStartTime": "095546.097000",
      "PhotometricInterpretation": "MONOCHROME2",
      "PixelBandwidth": 2315.0,
      "PixelRepresentation": 0,
      "PixelSpacing": [3.0, 3.0],
      "ProtocolName": "func-bold_fa-10",
      "RepetitionTime": 2000.0,
      "Rows": 480,
      "SAR": 0.01384934707863,
      "SamplesPerPixel": 1,
      "ScanOptions": "FS",
      "ScanningSequence": "EP",
      "SequenceName": "*epfid2d1_80",
      "SequenceVariant": "SK",
      "SeriesDescription": "func-bold_fa-10",
      "SeriesNumber": 10,
      "SeriesTime": "101818.996000",
      "SliceLocation": -37.561828801361,
      "SliceThickness": 3.5,
      "SmallestImagePixelValue": 0,
      "SoftwareVersions": "syngo MR E11",
      "SpacingBetweenSlices": 3.9899998717793,
      "SpecificCharacterSet": "ISO_IR 100",
      "StudyID": "3",
      "StudyTime": "095546.048000",
      "TransmitCoilName": "Body",
      "VariableFlipAngleFlag": "N",
      "WindowCenterWidthExplanation": "Algo1",
      "dBdt": 0.0},
    "slices": {}
  },
  "time": {
    "samples": {
      "AcquisitionNumber": [1, 2, 3, 4, 5, 6, 7, 8, 9, 10, 11, 12, 13, 14, 15, 16, 17, 18, 19, 20, 21, 22, 23, 24, 25, 26, 27, 28, 29, 30, 31, 32, 33, 34, 35, 36, 37, 38, 39, 40, 41, 42, 43, 44, 45, 46, 47, 48, 49, 50, 51, 52, 53, 54, 55, 56, 57, 58, 59, 60, 61, 62, 63, 64, 65, 66, 67, 68, 69, 70, 71, 72, 73, 74, 75, 76, 77, 78, 79, 80, 81, 82, 83, 84, 85, 86, 87, 88, 89, 90, 91, 92, 93, 94, 95, 96, 97, 98, 99, 100, 101, 102, 103, 104, 105, 106, 107, 108, 109, 110, 111, 112, 113, 114, 115, 116, 117, 118, 119, 120, 121, 122, 123, 124, 125, 126, 127, 128, 129, 130, 131, 132, 133, 134, 135, 136, 137, 138, 139, 140, 141, 142, 143, 144, 145, 146, 147, 148, 149, 150, 151, 152, 153, 154, 155, 156, 157, 158, 159, 160, 161, 162, 163, 164, 165, 166, 167, 168, 169, 170, 171, 172, 173, 174, 175, 176, 177, 178, 179, 180, 181, 182, 183, 184, 185, 186, 187, 188, 189, 190, 191, 192, 193, 194, 195, 196, 197, 198, 199, 200],
      "AcquisitionTime": ["101736.482500", "101738.482500", "101740.482500", "101742.482500", "101744.482500", "101746.482500", "101748.482500", "101750.482500", "101752.482500", "101754.482500", "101756.482500", "101758.482500", "101800.482500", "101802.482500", "101804.482500", "101806.482500", "101808.482500", "101810.482500", "101812.482500", "101814.482500", "101816.482500", "101818.482500", "101820.482500", "101822.482500", "101824.482500", "101826.482500", "101828.482500", "101830.482500", "101832.482500", "101834.482500", "101836.482500", "101838.482500", "101840.482500", "101842.482500", "101844.482500", "101846.482500", "101848.482500", "101850.482500", "101852.482500", "101854.482500", "101856.482500", "101858.482500", "101900.482500", "101902.482500", "101904.482500", "101906.482500", "101908.482500", "101910.482500", "101912.482500", "101914.482500", "101916.482500", "101918.482500", "101920.482500", "101922.482500", "101924.482500", "101926.482500", "101928.482500", "101930.482500", "101932.482500", "101934.482500", "101936.482500", "101938.482500", "101940.482500", "101942.482500", "101944.482500", "101946.482500", "101948.482500", "101950.482500", "101952.482500", "101954.482500", "101956.482500", "101958.482500", "102000.482500", "102002.482500", "102004.482500", "102006.482500", "102008.482500", "102010.482500", "102012.482500", "102014.482500", "102016.482500", "102018.482500", "102020.482500", "102022.482500", "102024.482500", "102026.482500", "102028.482500", "102030.482500", "102032.482500", "102034.482500", "102036.482500", "102038.482500", "102040.482500", "102042.482500", "102044.482500", "102046.482500", "102048.482500", "102050.482500", "102052.482500", "102054.482500", "102056.482500", "102058.482500", "102100.482500", "102102.482500", "102104.482500", "102106.482500", "102108.482500", "102110.482500", "102112.482500", "102114.482500", "102116.482500", "102118.482500", "102120.482500", "102122.482500", "102124.482500", "102126.482500", "102128.482500", "102130.482500", "102132.482500", "102134.482500", "102136.482500", "102138.482500", "102140.482500", "102142.482500", "102144.482500", "102146.482500", "102148.482500", "102150.482500", "102152.482500", "102154.482500", "102156.482500", "102158.482500", "102200.482500", "102202.482500", "102204.482500", "102206.482500", "102208.482500", "102210.482500", "102212.482500", "102214.482500", "102216.482500", "102218.482500", "102220.482500", "102222.482500", "102224.482500", "102226.482500", "102228.482500", "102230.482500", "102232.482500", "102234.482500", "102236.482500", "102238.482500", "102240.482500", "102242.482500", "102244.482500", "102246.482500", "102248.482500", "102250.482500", "102252.482500", "102254.482500", "102256.482500", "102258.482500", "102300.482500", "102302.482500", "102304.482500", "102306.482500", "102308.482500", "102310.482500", "102312.482500", "102314.482500", "102316.482500", "102318.482500", "102320.482500", "102322.482500", "102324.482500", "102326.482500", "102328.482500", "102330.482500", "102332.482500", "102334.482500", "102336.482500", "102338.482500", "102340.482500", "102342.482500", "102344.482500", "102346.482500", "102348.482500", "102350.482500", "102352.482500", "102354.482500", "102356.482500", "102358.482500", "102400.482500", "102402.482500", "102404.482500", "102406.482500", "102408.482500", "102410.482500", "102412.482500", "102414.482500"],
      "ContentTime": ["101819.000000", "101819.004000", "101819.006000", "101819.009000", "101819.017000", "101819.020000", "101819.022000", "101819.025000", "101819.027000", "101819.030000", "101819.032000", "101819.035000", "101819.037000", "101819.040000", "101819.042000", "101819.045000", "101819.047000", "101819.050000", "101819.052000", "101819.055000", "101819.057000", "101858.996000", "101858.998000", "101859.002000", "101859.005000", "101859.007000", "101859.010000", "101859.012000", "101859.015000", "101859.017000", "101859.020000", "101859.022000", "101859.025000", "101859.027000", "101859.030000", "101859.032000", "101859.035000", "101859.037000", "101859.040000", "101859.042000", "101859.045000", "101938.994000", "101939.017000", "101939.020000", "101939.022000", "101939.025000", "101939.027000", "101939.030000", "101939.032000", "101939.035000", "101939.037000", "101939.040000", "101939.042000", "101939.045000", "101939.047000", "101939.050000", "101939.052000", "101939.062000", "101939.064000", "101939.067000", "101939.069000", "102018.994000", "102018.997000", "102019.001000", "102019.003000", "102019.006000", "102019.008000", "102019.011000", "102019.013000", "102019.016000", "102019.019000", "102019.021000", "102019.024000", "102019.026000", "102019.029000", "102019.031000", "102019.034000", "102019.036000", "102019.039000", "102019.041000", "102019.044000", "102058.995000", "102058.998000", "102059.002000", "102059.004000", "102059.007000", "102059.009000", "102059.012000", "102059.014000", "102059.017000", "102059.020000", "102059.022000", "102059.025000", "102059.027000", "102059.030000", "102059.032000", "102059.035000", "102059.037000", "102059.040000", "102059.042000", "102059.045000", "102138.995000", "102138.998000", "102139.002000", "102139.004000", "102139.007000", "102139.010000", "102139.012000", "102139.015000", "102139.017000", "102139.020000", "102139.022000", "102139.025000", "102139.027000", "102139.030000", "102139.032000", "102139.035000", "102139.037000", "102139.040000", "102139.042000", "102139.045000", "102218.995000", "102218.997000", "102219.001000", "102219.003000", "102219.006000", "102219.008000", "102219.011000", "102219.013000", "102219.016000", "102219.018000", "102219.021000", "102219.023000", "102219.026000", "102219.028000", "102219.031000", "102219.033000", "102219.036000", "102219.038000", "102219.041000", "102219.043000", "102258.994000", "102258.997000", "102259.001000", "102259.003000", "102259.006000", "102259.009000", "102259.011000", "102259.014000", "102259.016000", "102259.019000", "102259.021000", "102259.024000", "102259.027000", "102259.029000", "102259.032000", "102259.035000", "102259.038000", "102259.040000", "102259.042000", "102259.045000", "102338.996000", "102339.000000", "102339.006000", "102339.009000", "102339.011000", "102339.014000", "102339.016000", "102339.019000", "102339.021000", "102339.024000", "102339.035000", "102339.037000", "102339.040000", "102339.042000", "102339.045000", "102339.047000", "102339.060000", "102339.063000", "102339.065000", "102339.068000", "102415.943000", "102415.946000", "102415.949000", "102415.951000", "102415.954000", "102415.956000", "102415.959000", "102415.961000", "102415.964000", "102415.966000", "102415.969000", "102415.972000", "102415.974000", "102415.977000", "102415.988000", "102415.990000", "102415.993000", "102415.997000", "102416.000000"],
      "InstanceCreationTime": ["101819.000000", "101819.004000", "101819.006000", "101819.009000", "101819.017000", "101819.020000", "101819.022000", "101819.025000", "101819.027000", "101819.030000", "101819.032000", "101819.035000", "101819.037000", "101819.040000", "101819.042000", "101819.045000", "101819.047000", "101819.050000", "101819.052000", "101819.055000", "101819.057000", "101858.996000", "101858.998000", "101859.002000", "101859.005000", "101859.007000", "101859.010000", "101859.012000", "101859.015000", "101859.017000", "101859.020000", "101859.022000", "101859.025000", "101859.027000", "101859.030000", "101859.032000", "101859.035000", "101859.037000", "101859.040000", "101859.042000", "101859.045000", "101938.994000", "101939.017000", "101939.020000", "101939.022000", "101939.025000", "101939.027000", "101939.030000", "101939.032000", "101939.035000", "101939.037000", "101939.040000", "101939.042000", "101939.045000", "101939.047000", "101939.050000", "101939.052000", "101939.062000", "101939.064000", "101939.067000", "101939.069000", "102018.994000", "102018.997000", "102019.001000", "102019.003000", "102019.006000", "102019.008000", "102019.011000", "102019.013000", "102019.016000", "102019.019000", "102019.021000", "102019.024000", "102019.026000", "102019.029000", "102019.031000", "102019.034000", "102019.036000", "102019.039000", "102019.041000", "102019.044000", "102058.995000", "102058.998000", "102059.002000", "102059.004000", "102059.007000", "102059.009000", "102059.012000", "102059.014000", "102059.017000", "102059.020000", "102059.022000", "102059.025000", "102059.027000", "102059.030000", "102059.032000", "102059.035000", "102059.037000", "102059.040000", "102059.042000", "102059.045000", "102138.995000", "102138.998000", "102139.002000", "102139.004000", "102139.007000", "102139.010000", "102139.012000", "102139.015000", "102139.017000", "102139.020000", "102139.022000", "102139.025000", "102139.027000", "102139.030000", "102139.032000", "102139.035000", "102139.037000", "102139.040000", "102139.042000", "102139.045000", "102218.995000", "102218.997000", "102219.001000", "102219.003000", "102219.006000", "102219.008000", "102219.011000", "102219.013000", "102219.016000", "102219.018000", "102219.021000", "102219.023000", "102219.026000", "102219.028000", "102219.031000", "102219.033000", "102219.036000", "102219.038000", "102219.041000", "102219.043000", "102258.994000", "102258.997000", "102259.001000", "102259.003000", "102259.006000", "102259.009000", "102259.011000", "102259.014000", "102259.016000", "102259.019000", "102259.021000", "102259.024000", "102259.027000", "102259.029000", "102259.032000", "102259.035000", "102259.038000", "102259.040000", "102259.042000", "102259.045000", "102338.996000", "102339.000000", "102339.006000", "102339.009000", "102339.011000", "102339.014000", "102339.016000", "102339.019000", "102339.021000", "102339.024000", "102339.035000", "102339.037000", "102339.040000", "102339.042000", "102339.045000", "102339.047000", "102339.060000", "102339.063000", "102339.065000", "102339.068000", "102415.943000", "102415.946000", "102415.949000", "102415.951000", "102415.954000", "102415.956000", "102415.959000", "102415.961000", "102415.964000", "102415.966000", "102415.969000", "102415.972000", "102415.974000", "102415.977000", "102415.988000", "102415.990000", "102415.993000", "102415.997000", "102416.000000"],
      "InstanceNumber": [1, 2, 3, 4, 5, 6, 7, 8, 9, 10, 11, 12, 13, 14, 15, 16, 17, 18, 19, 20, 21, 22, 23, 24, 25, 26, 27, 28, 29, 30, 31, 32, 33, 34, 35, 36, 37, 38, 39, 40, 41, 42, 43, 44, 45, 46, 47, 48, 49, 50, 51, 52, 53, 54, 55, 56, 57, 58, 59, 60, 61, 62, 63, 64, 65, 66, 67, 68, 69, 70, 71, 72, 73, 74, 75, 76, 77, 78, 79, 80, 81, 82, 83, 84, 85, 86, 87, 88, 89, 90, 91, 92, 93, 94, 95, 96, 97, 98, 99, 100, 101, 102, 103, 104, 105, 106, 107, 108, 109, 110, 111, 112, 113, 114, 115, 116, 117, 118, 119, 120, 121, 122, 123, 124, 125, 126, 127, 128, 129, 130, 131, 132, 133, 134, 135, 136, 137, 138, 139, 140, 141, 142, 143, 144, 145, 146, 147, 148, 149, 150, 151, 152, 153, 154, 155, 156, 157, 158, 159, 160, 161, 162, 163, 164, 165, 166, 167, 168, 169, 170, 171, 172, 173, 174, 175, 176, 177, 178, 179, 180, 181, 182, 183, 184, 185, 186, 187, 188, 189, 190, 191, 192, 193, 194, 195, 196, 197, 198, 199, 200],
      "LargestImagePixelValue": [351, 350, 351, 350, 349, 350, 351, 350, 350, 350, 350, 350, 350, 352, 350, 350, 351, 352, 351, 351, 350, 350, 351, 349, 351, 350, 352, 351, 351, 351, 350, 350, 349, 350, 349, 350, 350, 350, 348, 350, 349, 350, 351, 349, 350, 349, 351, 349, 350, 351, 349, 351, 351, 350, 351, 351, 350, 350, 351, 350, 349, 351, 349, 349, 350, 349, 349, 351, 351, 349, 349, 351, 350, 350, 350, 350, 351, 350, 351, 350, 350, 350, 351, 349, 349, 349, 349, 349, 349, 350, 351, 351, 349, 350, 351, 351, 351, 350, 350, 351, 349, 349, 350, 350, 351, 351, 350, 351, 350, 350, 351, 350, 349, 350, 350, 350, 351, 350, 350, 350, 349, 350, 350, 350, 349, 350, 350, 349, 350, 352, 349, 350, 352, 350, 350, 350, 351, 349, 350, 351, 350, 349, 350, 349, 349, 349, 350, 349, 349, 348, 349, 349, 350, 350, 350, 349, 349, 349, 351, 350, 350, 350, 350, 350, 348, 349, 350, 349, 352, 349, 350, 350, 350, 350, 350, 351, 350, 350, 349, 350, 350, 350, 349, 350, 350, 350, 349, 351, 350, 350, 349, 351, 349, 350, 349, 350, 352, 349, 350, 350],
      "WindowCenter": [287.0, 287.0, 287.0, 286.0, 287.0, 287.0, 287.0, 287.0, 287.0, 287.0, 287.0, 287.0, 287.0, 287.0, 287.0, 287.0, 287.0, 287.0, 287.0, 287.0, 287.0, 287.0, 287.0, 286.0, 287.0, 287.0, 287.0, 287.0, 287.0, 287.0, 287.0, 287.0, 287.0, 287.0, 286.0, 288.0, 287.0, 287.0, 287.0, 287.0, 287.0, 287.0, 287.0, 287.0, 287.0, 287.0, 287.0, 287.0, 287.0, 287.0, 287.0, 287.0, 287.0, 287.0, 287.0, 287.0, 287.0, 287.0, 287.0, 287.0, 286.0, 288.0, 286.0, 287.0, 287.0, 286.0, 287.0, 287.0, 287.0, 286.0, 286.0, 287.0, 287.0, 287.0, 287.0, 286.0, 286.0, 287.0, 287.0, 286.0, 287.0, 287.0, 286.0, 287.0, 286.0, 286.0, 286.0, 286.0, 286.0, 286.0, 287.0, 287.0, 285.0, 286.0, 286.0, 287.0, 287.0, 286.0, 286.0, 287.0, 286.0, 286.0, 286.0, 287.0, 287.0, 286.0, 286.0, 287.0, 287.0, 287.0, 287.0, 286.0, 286.0, 286.0, 287.0, 286.0, 286.0, 286.0, 286.0, 287.0, 286.0, 286.0, 286.0, 287.0, 286.0, 287.0, 287.0, 287.0, 287.0, 286.0, 286.0, 287.0, 287.0, 286.0, 286.0, 286.0, 286.0, 285.0, 287.0, 287.0, 286.0, 286.0, 287.0, 286.0, 286.0, 286.0, 287.0, 286.0, 285.0, 286.0, 286.0, 286.0, 286.0, 286.0, 287.0, 286.0, 286.0, 286.0, 287.0, 287.0, 286.0, 286.0, 286.0, 286.0, 285.0, 286.0, 286.0, 286.0, 286.0, 286.0, 287.0, 286.0, 286.0, 286.0, 286.0, 286.0, 286.0, 287.0, 285.0, 286.0, 286.0, 286.0, 285.0, 286.0, 286.0, 286.0, 286.0, 286.0, 286.0, 286.0, 286.0, 286.0, 286.0, 286.0, 286.0, 286.0, 286.0, 286.0, 286.0, 286.0],
      "WindowWidth": [626.0, 626.0, 626.0, 625.0, 625.0, 626.0, 626.0, 626.0, 626.0, 625.0, 626.0, 626.0, 626.0, 626.0, 625.0, 626.0, 626.0, 626.0, 626.0, 625.0, 626.0, 626.0, 626.0, 625.0, 626.0, 626.0, 626.0, 626.0, 626.0, 625.0, 625.0, 626.0, 625.0, 626.0, 624.0, 626.0, 626.0, 626.0, 625.0, 625.0, 625.0, 626.0, 626.0, 625.0, 626.0, 625.0, 625.0, 625.0, 626.0, 625.0, 625.0, 625.0, 625.0, 625.0, 625.0, 626.0, 626.0, 626.0, 625.0, 626.0, 624.0, 626.0, 625.0, 625.0, 626.0, 625.0, 625.0, 625.0, 625.0, 625.0, 625.0, 626.0, 625.0, 626.0, 626.0, 625.0, 625.0, 626.0, 626.0, 625.0, 626.0, 626.0, 625.0, 625.0, 624.0, 625.0, 625.0, 624.0, 624.0, 624.0, 626.0, 625.0, 623.0, 624.0, 625.0, 625.0, 625.0, 625.0, 624.0, 625.0, 624.0, 623.0, 625.0, 625.0, 626.0, 624.0, 624.0, 625.0, 625.0, 625.0, 625.0, 624.0, 624.0, 624.0, 625.0, 625.0, 625.0, 625.0, 625.0, 625.0, 624.0, 625.0, 625.0, 625.0, 624.0, 625.0, 625.0, 625.0, 625.0, 624.0, 624.0, 625.0, 625.0, 624.0, 624.0, 624.0, 624.0, 623.0, 625.0, 625.0, 624.0, 624.0, 625.0, 624.0, 624.0, 624.0, 625.0, 624.0, 623.0, 624.0, 623.0, 623.0, 624.0, 624.0, 625.0, 624.0, 623.0, 624.0, 625.0, 625.0, 624.0, 624.0, 625.0, 624.0, 623.0, 624.0, 624.0, 624.0, 624.0, 623.0, 625.0, 624.0, 624.0, 624.0, 624.0, 624.0, 624.0, 625.0, 623.0, 624.0, 624.0, 624.0, 623.0, 624.0, 624.0, 624.0, 623.0, 624.0, 624.0, 624.0, 623.0, 624.0, 623.0, 624.0, 624.0, 624.0, 624.0, 623.0, 624.0, 624.0]
    },
    "slices": {}
  }
}