{
  "AcquisitionMatrixPE": 80,
  "AcquisitionNumber": 1,
  "AcquisitionTime": "09:57:5.495000",
  "BandwidthPerPixelPhaseEncode": 48.077,
  "BaseResolution": 80,
  "BodyPartExamined": "BRAIN",
  "CoilCombinationMethod": "Sum of Squares",
  "ConsistencyInfo": "N4_VE11C_LATEST_20160120",
  "ConversionSoftware": "dcm2niix",
  "ConversionSoftwareVersion": "v1.0.20220720",
  "DerivedVendorReportedEchoSpacing": 0.000519999,
  "DeviceSerialNumber": "66112",
  "DwellTime": 2.7e-06,
  "EchoTime": 0.035,
  "EchoTrainLength": 39,
  "EffectiveEchoSpacing": 0.00026,
  "FlipAngle": 90,
  "HeudiconvVersion": "0.13.1",
  "ImageOrientationPatientDICOM": [0.985115, 0.17145, 0.0123575, -0.166797, 0.93605, 0.309822],
  "ImageOrientationText": "Tra>Cor(17.9)>Sag(-2.4)",
  "ImageType": [
    "ORIGINAL",
    "PRIMARY",
    "M",
    "ND",
    "NORM",
    "MOSAIC"
],
  "ImagingFrequency": 123.252,
  "InPlanePhaseEncodingDirectionDICOM": "COL",
  "InstitutionAddress": "Maynard 3,Hanover,NH,US,03755",
  "InstitutionName": "Dartmouth College - PBS",
  "InstitutionalDepartmentName": "Department",
  "MRAcquisitionType": "2D",
  "MagneticFieldStrength": 3,
  "Manufacturer": "Siemens",
  "ManufacturersModelName": "Prisma",
  "MatrixCoilMode": "GRAPPA",
  "Modality": "MR",
  "NonlinearGradientCorrection": false,
  "ParallelReductionFactorInPlane": 2,
  "PartialFourier": 1,
  "PatientPosition": "HFS",
  "PercentPhaseFOV": 100,
  "PercentSampling": 100,
  "PhaseEncodingDirection": "j-",
  "PhaseEncodingSteps": 79,
  "PhaseResolution": 1,
  "PixelBandwidth": 2315,
  "ProcedureStepDescription": "dbic^QA",
  "ProtocolName": "func-bold_task-rest_acq-p2",
  "PulseSequenceDetails": "%SiemensSeq%\\ep2d_bold",
  "ReceiveCoilActiveElements": "HEA;HEP",
  "ReceiveCoilName": "Head_32",
  "ReconMatrixPE": 80,
  "RefLinesPE": 24,
  "RepetitionTime": 2,
  "SAR": 0.0656979,
  "ScanOptions": "FS",
  "ScanningSequence": "EP",
  "SequenceName": "*epfid2d1_80",
  "SequenceVariant": "SK",
  "SeriesDescription": "func-bold_task-rest_acq-p2",
  "SeriesNumber": 5,
  "ShimSetting": [4149, -7703, -7512, 285, -66, -79, -41, 69],
  "SliceThickness": 3.5,
  "SliceTiming": [0.99, 0, 1.055, 0.065, 1.12, 0.13, 1.1875, 0.1975, 1.2525, 0.2625, 1.32, 0.33, 1.385, 0.395, 1.45, 0.46, 1.5175, 0.5275, 1.5825, 0.5925, 1.65, 0.66, 1.715, 0.725, 1.78, 0.79, 1.8475, 0.8575, 1.9125, 0.9225],
  "SoftwareVersions": "syngo MR E11",
  "SpacingBetweenSlices": 3.99,
  "StationName": "AWP66112",
  "TaskName": "rest",
  "TotalReadoutTime": 0.02054,
  "TxRefAmp": 237.779,
  "dcmmeta_affine": [
    [-2.95534610748291, -0.5003901124000549, -0.16579103469848633, 144.33212280273438],
    [-0.5143488645553589, 2.8081493377685547, 1.2260141372680664, -102.49213409423828],
    [0.037072524428367615, -0.9294663071632385, 3.7933497428894043, -6.13344669342041],
    [0.0, 0.0, 0.0, 1.0]
],
  "dcmmeta_reorient_transform": [
    [0.0, -1.0, 0.0, 79.0],
    [1.0, 0.0, 0.0, 0.0],
    [0.0, 0.0, 1.0, 0.0],
    [0.0, 0.0, 0.0, 1.0]
],
  "dcmmeta_shape": [80, 80, 30, 200],
  "dcmmeta_slice_dim": 2,
  "dcmmeta_version": 0.6,
  "global": {
    "const": {
      "AccessionNumber": "qa",
      "AcquisitionMatrix": [80, 0, 0, 80],
      "AngioFlag": "N",
      "BitsAllocated": 16,
      "BitsStored": 12,
      "BodyPartExamined": "BRAIN",
      "Columns": 480,
      "EchoNumbers": 1,
      "EchoTime": 35.0,
      "EchoTrainLength": 39,
      "FlipAngle": 90.0,
      "HighBit": 11,
      "ImageOrientationPatient": [0.98511538426028, 0.17144961848494, 0.01235750844968, -0.1667967060852, 0.93604974742408, 0.30982209279917],
      "ImagePositionPatient": [-595.79251186945, -783.8512722753, -272.86904358154],
      "ImageType": [
        "ORIGINAL",
        "PRIMARY",
        "M",
        "ND",
        "NORM",
        "MOSAIC"
],
      "ImagedNucleus": "1H",
      "ImagingFrequency": 123.252354,
      "InPlanePhaseEncodingDirection": "COL",
      "MRAcquisitionType": "2D",
      "MagneticFieldStrength": 3.0,
      "Manufacturer": "SIEMENS",
      "ManufacturerModelName": "Prisma",
      "Modality": "MR",
      "NumberOfAverages": 1.0,
      "NumberOfPhaseEncodingSteps": 79,
      "PercentPhaseFieldOfView": 100.0,
      "PercentSampling": 100.0,
      "PerformedProcedureStepStartTime": "095546.097000",
      "PhotometricInterpretation": "MONOCHROME2",
      "PixelBandwidth": 2315.0,
      "PixelRepresentation": 0,
      "PixelSpacing": [3.0, 3.0],
      "ProtocolName": "func-bold_task-rest_acq-p2",
      "RepetitionTime": 2000.0,
      "Rows": 480,
      "SAR": 0.0656978885552,
      "SamplesPerPixel": 1,
      "ScanOptions": "FS",
      "ScanningSequence": "EP",
      "SequenceName": "*epfid2d1_80",
      "SequenceVariant": "SK",
      "SeriesDescription": "func-bold_task-rest_acq-p2",
      "SeriesNumber": 5,
      "SeriesTime": "095758.997000",
      "SliceLocation": -43.321324741185,
      "SliceThickness": 3.5,
      "SmallestImagePixelValue": 0,
      "SoftwareVersions": "syngo MR E11",
      "SpacingBetweenSlices": 3.9900000172177,
      "SpecificCharacterSet": "ISO_IR 100",
      "StudyID": "3",
      "StudyTime": "095546.048000",
      "TransmitCoilName": "Body",
      "VariableFlipAngleFlag": "N",
      "WindowCenterWidthExplanation": "Algo1",
      "dBdt": 0.0},
    "slices": {}
  },
  "time": {
    "samples": {
      "AcquisitionNumber": [1, 2, 3, 4, 5, 6, 7, 8, 9, 10, 11, 12, 13, 14, 15, 16, 17, 18, 19, 20, 21, 22, 23, 24, 25, 26, 27, 28, 29, 30, 31, 32, 33, 34, 35, 36, 37, 38, 39, 40, 41, 42, 43, 44, 45, 46, 47, 48, 49, 50, 51, 52, 53, 54, 55, 56, 57, 58, 59, 60, 61, 62, 63, 64, 65, 66, 67, 68, 69, 70, 71, 72, 73, 74, 75, 76, 77, 78, 79, 80, 81, 82, 83, 84, 85, 86, 87, 88, 89, 90, 91, 92, 93, 94, 95, 96, 97, 98, 99, 100, 101, 102, 103, 104, 105, 106, 107, 108, 109, 110, 111, 112, 113, 114, 115, 116, 117, 118, 119, 120, 121, 122, 123, 124, 125, 126, 127, 128, 129, 130, 131, 132, 133, 134, 135, 136, 137, 138, 139, 140, 141, 142, 143, 144, 145, 146, 147, 148, 149, 150, 151, 152, 153, 154, 155, 156, 157, 158, 159, 160, 161, 162, 163, 164, 165, 166, 167, 168, 169, 170, 171, 172, 173, 174, 175, 176, 177, 178, 179, 180, 181, 182, 183, 184, 185, 186, 187, 188, 189, 190, 191, 192, 193, 194, 195, 196, 197, 198, 199, 200],
      "AcquisitionTime": ["095705.495000", "095707.495000", "095709.495000", "095711.495000", "095713.495000", "095715.495000", "095717.495000", "095719.495000", "095721.495000", "095723.495000", "095725.495000", "095727.495000", "095729.495000", "095731.495000", "095733.495000", "095735.495000", "095737.495000", "095739.495000", "095741.495000", "095743.495000", "095745.495000", "095747.495000", "095749.495000", "095751.495000", "095753.495000", "095755.495000", "095757.495000", "095759.495000", "095801.495000", "095803.495000", "095805.495000", "095807.495000", "095809.495000", "095811.495000", "095813.495000", "095815.495000", "095817.495000", "095819.495000", "095821.495000", "095823.495000", "095825.495000", "095827.495000", "095829.495000", "095831.495000", "095833.495000", "095835.495000", "095837.495000", "095839.495000", "095841.495000", "095843.495000", "095845.495000", "095847.495000", "095849.495000", "095851.495000", "095853.495000", "095855.495000", "095857.495000", "095859.495000", "095901.495000", "095903.495000", "095905.495000", "095907.495000", "095909.495000", "095911.495000", "095913.495000", "095915.495000", "095917.495000", "095919.495000", "095921.495000", "095923.495000", "095925.495000", "095927.495000", "095929.495000", "095931.495000", "095933.495000", "095935.495000", "095937.495000", "095939.495000", "095941.495000", "095943.495000", "095945.495000", "095947.495000", "095949.495000", "095951.495000", "095953.495000", "095955.495000", "095957.495000", "095959.495000", "100001.495000", "100003.495000", "100005.495000", "100007.495000", "100009.495000", "100011.495000", "100013.495000", "100015.495000", "100017.495000", "100019.495000", "100021.495000", "100023.495000", "100025.495000", "100027.495000", "100029.495000", "100031.495000", "100033.495000", "100035.495000", "100037.495000", "100039.495000", "100041.495000", "100043.495000", "100045.495000", "100047.495000", "100049.495000", "100051.495000", "100053.495000", "100055.495000", "100057.495000", "100059.495000", "100101.495000", "100103.495000", "100105.495000", "100107.495000", "100109.495000", "100111.495000", "100113.495000", "100115.495000", "100117.495000", "100119.495000", "100121.495000", "100123.495000", "100125.495000", "100127.495000", "100129.495000", "100131.495000", "100133.495000", "100135.495000", "100137.495000", "100139.495000", "100141.495000", "100143.495000", "100145.495000", "100147.495000", "100149.495000", "100151.495000", "100153.495000", "100155.495000", "100157.495000", "100159.495000", "100201.495000", "100203.495000", "100205.495000", "100207.495000", "100209.495000", "100211.495000", "100213.495000", "100215.495000", "100217.495000", "100219.495000", "100221.495000", "100223.495000", "100225.495000", "100227.495000", "100229.495000", "100231.495000", "100233.495000", "100235.495000", "100237.495000", "100239.495000", "100241.495000", "100243.495000", "100245.495000", "100247.495000", "100249.495000", "100251.495000", "100253.495000", "100255.495000", "100257.495000", "100259.495000", "100301.495000", "100303.495000", "100305.495000", "100307.495000", "100309.495000", "100311.495000", "100313.495000", "100315.495000", "100317.495000", "100319.495000", "100321.495000", "100323.495000", "100325.495000", "100327.495000", "100329.495000", "100331.495000", "100333.495000", "100335.495000", "100337.495000", "100339.495000", "100341.495000", "100343.495000"],
      "ContentTime": ["095759.001000", "095759.005000", "095759.007000", "095759.010000", "095759.013000", "095759.015000", "095759.018000", "095759.020000", "095759.023000", "095759.025000", "095759.028000", "095759.030000", "095759.033000", "095759.035000", "095759.038000", "095759.041000", "095759.043000", "095759.046000", "095759.048000", "095759.051000", "095759.053000", "095759.056000", "095759.058000", "095759.061000", "095759.064000", "095759.066000", "095818.995000", "095818.998000", "095819.002000", "095819.005000", "095819.007000", "095819.010000", "095819.012000", "095819.015000", "095819.017000", "095819.020000", "095858.995000", "095858.997000", "095859.001000", "095859.004000", "095859.006000", "095859.009000", "095859.011000", "095859.014000", "095859.016000", "095859.019000", "095859.021000", "095859.024000", "095859.027000", "095859.029000", "095859.032000", "095859.034000", "095859.037000", "095859.039000", "095859.042000", "095859.044000", "095938.995000", "095938.997000", "095939.001000", "095939.004000", "095939.006000", "095939.009000", "095939.011000", "095939.014000", "095939.016000", "095939.019000", "095939.021000", "095939.024000", "095939.027000", "095939.029000", "095939.032000", "095939.034000", "095939.037000", "095939.039000", "095939.042000", "095939.045000", "100018.995000", "100018.998000", "100019.002000", "100019.004000", "100019.007000", "100019.010000", "100019.012000", "100019.015000", "100019.017000", "100019.020000", "100019.022000", "100019.025000", "100019.027000", "100019.030000", "100019.033000", "100019.035000", "100019.038000", "100019.040000", "100019.043000", "100019.046000", "100058.994000", "100058.997000", "100059.001000", "100059.004000", "100059.006000", "100059.009000", "100059.011000", "100059.014000", "100059.016000", "100059.019000", "100059.021000", "100059.024000", "100059.027000", "100059.029000", "100059.047000", "100059.050000", "100059.053000", "100059.055000", "100059.058000", "100059.060000", "100138.994000", "100138.997000", "100139.001000", "100139.009000", "100139.012000", "100139.014000", "100139.017000", "100139.020000", "100139.022000", "100139.025000", "100139.027000", "100139.030000", "100139.032000", "100139.035000", "100139.037000", "100139.040000", "100139.043000", "100139.045000", "100139.048000", "100139.050000", "100218.996000", "100218.998000", "100219.001000", "100219.004000", "100219.006000", "100219.009000", "100219.011000", "100219.014000", "100219.016000", "100219.019000", "100219.021000", "100219.024000", "100219.027000", "100219.029000", "100219.032000", "100219.034000", "100219.037000", "100219.039000", "100219.042000", "100219.045000", "100258.996000", "100258.998000", "100259.002000", "100259.005000", "100259.007000", "100259.010000", "100259.012000", "100259.015000", "100259.018000", "100259.020000", "100259.023000", "100259.025000", "100259.028000", "100259.030000", "100259.033000", "100259.035000", "100259.038000", "100259.041000", "100259.043000", "100259.046000", "100338.995000", "100338.997000", "100339.000000", "100339.003000", "100339.005000", "100339.008000", "100339.010000", "100339.013000", "100339.015000", "100339.018000", "100339.021000", "100339.023000", "100339.026000", "100339.028000", "100339.031000", "100339.033000", "100339.036000", "100339.039000", "100339.041000", "100339.044000", "100345.229000", "100345.232000", "100345.242000", "100345.245000"],
      "InstanceCreationTime": ["095759.001000", "095759.005000", "095759.007000", "095759.010000", "095759.013000", "095759.015000", "095759.018000", "095759.020000", "095759.023000", "095759.025000", "095759.028000", "095759.030000", "095759.033000", "095759.035000", "095759.038000", "095759.041000", "095759.043000", "095759.046000", "095759.048000", "095759.051000", "095759.053000", "095759.056000", "095759.058000", "095759.061000", "095759.064000", "095759.066000", "095818.995000", "095818.998000", "095819.002000", "095819.005000", "095819.007000", "095819.010000", "095819.012000", "095819.015000", "095819.017000", "095819.020000", "095858.995000", "095858.997000", "095859.001000", "095859.004000", "095859.006000", "095859.009000", "095859.011000", "095859.014000", "095859.016000", "095859.019000", "095859.021000", "095859.024000", "095859.027000", "095859.029000", "095859.032000", "095859.034000", "095859.037000", "095859.039000", "095859.042000", "095859.044000", "095938.995000", "095938.997000", "095939.001000", "095939.004000", "095939.006000", "095939.009000", "095939.011000", "095939.014000", "095939.016000", "095939.019000", "095939.021000", "095939.024000", "095939.027000", "095939.029000", "095939.032000", "095939.034000", "095939.037000", "095939.039000", "095939.042000", "095939.045000", "100018.995000", "100018.998000", "100019.002000", "100019.004000", "100019.007000", "100019.010000", "100019.012000", "100019.015000", "100019.017000", "100019.020000", "100019.022000", "100019.025000", "100019.027000", "100019.030000", "100019.033000", "100019.035000", "100019.038000", "100019.040000", "100019.043000", "100019.046000", "100058.994000", "100058.997000", "100059.001000", "100059.004000", "100059.006000", "100059.009000", "100059.011000", "100059.014000", "100059.016000", "100059.019000", "100059.021000", "100059.024000", "100059.027000", "100059.029000", "100059.047000", "100059.050000", "100059.053000", "100059.055000", "100059.058000", "100059.060000", "100138.994000", "100138.997000", "100139.001000", "100139.009000", "100139.012000", "100139.014000", "100139.017000", "100139.020000", "100139.022000", "100139.025000", "100139.027000", "100139.030000", "100139.032000", "100139.035000", "100139.037000", "100139.040000", "100139.043000", "100139.045000", "100139.048000", "100139.050000", "100218.996000", "100218.998000", "100219.001000", "100219.004000", "100219.006000", "100219.009000", "100219.011000", "100219.014000", "100219.016000", "100219.019000", "100219.021000", "100219.024000", "100219.027000", "100219.029000", "100219.032000", "100219.034000", "100219.037000", "100219.039000", "100219.042000", "100219.045000", "100258.996000", "100258.998000", "100259.002000", "100259.005000", "100259.007000", "100259.010000", "100259.012000", "100259.015000", "100259.018000", "100259.020000", "100259.023000", "100259.025000", "100259.028000", "100259.030000", "100259.033000", "100259.035000", "100259.038000", "100259.041000", "100259.043000", "100259.046000", "100338.995000", "100338.997000", "100339.000000", "100339.003000", "100339.005000", "100339.008000", "100339.010000", "100339.013000", "100339.015000", "100339.018000", "100339.021000", "100339.023000", "100339.026000", "100339.028000", "100339.031000", "100339.033000", "100339.036000", "100339.039000", "100339.041000", "100339.044000", "100345.229000", "100345.232000", "100345.242000", "100345.245000"],
      "InstanceNumber": [1, 2, 3, 4, 5, 6, 7, 8, 9, 10, 11, 12, 13, 14, 15, 16, 17, 18, 19, 20, 21, 22, 23, 24, 25, 26, 27, 28, 29, 30, 31, 32, 33, 34, 35, 36, 37, 38, 39, 40, 41, 42, 43, 44, 45, 46, 47, 48, 49, 50, 51, 52, 53, 54, 55, 56, 57, 58, 59, 60, 61, 62, 63, 64, 65, 66, 67, 68, 69, 70, 71, 72, 73, 74, 75, 76, 77, 78, 79, 80, 81, 82, 83, 84, 85, 86, 87, 88, 89, 90, 91, 92, 93, 94, 95, 96, 97, 98, 99, 100, 101, 102, 103, 104, 105, 106, 107, 108, 109, 110, 111, 112, 113, 114, 115, 116, 117, 118, 119, 120, 121, 122, 123, 124, 125, 126, 127, 128, 129, 130, 131, 132, 133, 134, 135, 136, 137, 138, 139, 140, 141, 142, 143, 144, 145, 146, 147, 148, 149, 150, 151, 152, 153, 154, 155, 156, 157, 158, 159, 160, 161, 162, 163, 164, 165, 166, 167, 168, 169, 170, 171, 172, 173, 174, 175, 176, 177, 178, 179, 180, 181, 182, 183, 184, 185, 186, 187, 188, 189, 190, 191, 192, 193, 194, 195, 196, 197, 198, 199, 200],
      "LargestImagePixelValue": [2092, 2095, 2092, 2096, 2100, 2096, 2095, 2094, 2089, 2088, 2093, 2086, 2092, 2080, 2093, 2090, 2088, 2094, 2091, 2091, 2088, 2089, 2089, 2087, 2094, 2078, 2087, 2092, 2081, 2084, 2084, 2082, 2089, 2089, 2089, 2090, 2084, 2081, 2081, 2080, 2077, 2083, 2082, 2078, 2081, 2075, 2080, 2078, 2082, 2079, 2086, 2078, 2084, 2081, 2073, 2077, 2085, 2083, 2081, 2079, 2078, 2086, 2077, 2083, 2073, 2079, 2072, 2079, 2080, 2080, 2075, 2079, 2075, 2075, 2080, 2074, 2076, 2072, 2075, 2077, 2079, 2079, 2076, 2074, 2073, 2073, 2078, 2075, 2079, 2076, 2074, 2076, 2073, 2071, 2071, 2076, 2071, 2076, 2074, 2076, 2080, 2071, 2071, 2073, 2078, 2070, 2079, 2075, 2072, 2076, 2077, 2077, 2079, 2079, 2077, 2077, 2074, 2074, 2075, 2078, 2072, 2077, 2072, 2074, 2072, 2072, 2073, 2078, 2077, 2074, 2074, 2073, 2068, 2071, 2073, 2073, 2071, 2068, 2078, 2071, 2075, 2074, 2070, 2073, 2076, 2071, 2077, 2072, 2077, 2074, 2076, 2078, 2073, 2070, 2076, 2070, 2076, 2074, 2071, 2076, 2077, 2068, 2067, 2073, 2073, 2072, 2079, 2075, 2072, 2075, 2073, 2078, 2072, 2078, 2075, 2071, 2075, 2072, 2070, 2076, 2075, 2069, 2069, 2070, 2075, 2075, 2077, 2076, 2079, 2076, 2073, 2076, 2071, 2076, 2073, 2069, 2072, 2073, 2081, 2080],
      "WindowCenter": [999.0, 999.0, 1000.0, 1000.0, 1000.0, 999.0, 1000.0, 999.0, 999.0, 999.0, 999.0, 1000.0, 1000.0, 1000.0, 999.0, 999.0, 999.0, 999.0, 999.0, 999.0, 999.0, 999.0, 999.0, 998.0, 999.0, 999.0, 998.0, 998.0, 998.0, 998.0, 998.0, 999.0, 999.0, 999.0, 998.0, 999.0, 999.0, 999.0, 999.0, 998.0, 999.0, 998.0, 999.0, 998.0, 998.0, 999.0, 998.0, 999.0, 999.0, 998.0, 998.0, 998.0, 999.0, 998.0, 999.0, 999.0, 999.0, 998.0, 999.0, 998.0, 999.0, 998.0, 999.0, 998.0, 999.0, 999.0, 998.0, 998.0, 998.0, 998.0, 999.0, 998.0, 998.0, 998.0, 998.0, 997.0, 998.0, 998.0, 998.0, 997.0, 997.0, 998.0, 998.0, 998.0, 998.0, 997.0, 997.0, 997.0, 997.0, 997.0, 998.0, 997.0, 997.0, 998.0, 997.0, 997.0, 997.0, 997.0, 997.0, 997.0, 997.0, 998.0, 997.0, 998.0, 998.0, 998.0, 998.0, 998.0, 998.0, 998.0, 997.0, 998.0, 997.0, 998.0, 998.0, 997.0, 998.0, 997.0, 998.0, 998.0, 998.0, 998.0, 998.0, 997.0, 997.0, 999.0, 998.0, 997.0, 997.0, 998.0, 999.0, 998.0, 998.0, 998.0, 998.0, 997.0, 997.0, 997.0, 997.0, 998.0, 998.0, 997.0, 998.0, 997.0, 997.0, 997.0, 997.0, 998.0, 998.0, 997.0, 997.0, 997.0, 997.0, 997.0, 997.0, 997.0, 997.0, 997.0, 997.0, 998.0, 997.0, 997.0, 997.0, 997.0, 997.0, 998.0, 997.0, 997.0, 997.0, 997.0, 997.0, 997.0, 996.0, 997.0, 997.0, 996.0, 997.0, 997.0, 996.0, 997.0, 996.0, 996.0, 996.0, 996.0, 997.0, 996.0, 997.0, 996.0, 996.0, 996.0, 996.0, 997.0, 996.0, 996.0, 996.0, 996.0, 996.0, 996.0, 998.0, 996.0],
      "WindowWidth": [2192.0, 2191.0, 2192.0, 2192.0, 2192.0, 2191.0, 2191.0, 2190.0, 2190.0, 2190.0, 2190.0, 2191.0, 2191.0, 2191.0, 2191.0, 2190.0, 2189.0, 2189.0, 2190.0, 2190.0, 2190.0, 2190.0, 2189.0, 2188.0, 2189.0, 2190.0, 2189.0, 2188.0, 2188.0, 2188.0, 2188.0, 2189.0, 2188.0, 2189.0, 2188.0, 2189.0, 2189.0, 2189.0, 2189.0, 2188.0, 2188.0, 2188.0, 2189.0, 2187.0, 2188.0, 2189.0, 2187.0, 2188.0, 2188.0, 2187.0, 2187.0, 2187.0, 2188.0, 2187.0, 2188.0, 2188.0, 2188.0, 2187.0, 2187.0, 2187.0, 2187.0, 2186.0, 2187.0, 2187.0, 2187.0, 2186.0, 2187.0, 2186.0, 2186.0, 2187.0, 2186.0, 2186.0, 2186.0, 2186.0, 2186.0, 2185.0, 2186.0, 2186.0, 2186.0, 2185.0, 2185.0, 2186.0, 2186.0, 2186.0, 2186.0, 2185.0, 2185.0, 2185.0, 2185.0, 2185.0, 2186.0, 2185.0, 2185.0, 2186.0, 2184.0, 2184.0, 2184.0, 2184.0, 2184.0, 2185.0, 2184.0, 2185.0, 2184.0, 2185.0, 2185.0, 2185.0, 2185.0, 2185.0, 2185.0, 2184.0, 2184.0, 2185.0, 2184.0, 2185.0, 2185.0, 2183.0, 2184.0, 2183.0, 2184.0, 2184.0, 2184.0, 2184.0, 2184.0, 2183.0, 2183.0, 2185.0, 2184.0, 2183.0, 2183.0, 2184.0, 2185.0, 2184.0, 2183.0, 2184.0, 2183.0, 2183.0, 2183.0, 2183.0, 2183.0, 2183.0, 2183.0, 2182.0, 2183.0, 2182.0, 2183.0, 2183.0, 2182.0, 2183.0, 2183.0, 2182.0, 2182.0, 2182.0, 2182.0, 2183.0, 2182.0, 2183.0, 2182.0, 2183.0, 2182.0, 2184.0, 2182.0, 2183.0, 2182.0, 2182.0, 2183.0, 2183.0, 2182.0, 2182.0, 2182.0, 2182.0, 2182.0, 2182.0, 2182.0, 2182.0, 2182.0, 2182.0, 2182.0, 2182.0, 2181.0, 2182.0, 2182.0, 2181.0, 2181.0, 2181.0, 2182.0, 2181.0, 2182.0, 2181.0, 2181.0, 2181.0, 2181.0, 2181.0, 2181.0, 2181.0, 2181.0, 2181.0, 2181.0, 2181.0, 2182.0, 2181.0]
    },
    "slices": {}
  }
}