{
  "AcquisitionMatrixPE": 80,
  "AcquisitionNumber": 1,
  "AcquisitionTime": "08:50:51.760000",
  "BandwidthPerPixelPhaseEncode": 48.077,
  "BaseResolution": 80,
  "BodyPartExamined": "BRAIN",
  "CoilCombinationMethod": "Sum of Squares",
  "ConsistencyInfo": "N4_VE11E_LATEST_20181129",
  "ConversionSoftware": "dcm2niix",
  "ConversionSoftwareVersion": "v1.0.20220720",
  "DerivedVendorReportedEchoSpacing": 0.000519999,
  "DeviceSerialNumber": "66112",
  "DwellTime": 2.7e-06,
  "EchoTime": 0.035,
  "EchoTrainLength": 39,
  "EffectiveEchoSpacing": 0.00026,
  "FlipAngle": 90,
  "HeudiconvVersion": "0.13.1",
  "ImageOrientationPatientDICOM": [0.993588, -0.11306, 3.70685e-05, 0.107587, 0.945593, 0.307049],
  "ImageOrientationText": "Tra>Cor(17.8)>Sag(2.0)",
  "ImageType": [
    "ORIGINAL",
    "PRIMARY",
    "M",
    "ND",
    "NORM",
    "MOSAIC"
],
  "ImagingFrequency": 123.259,
  "InPlanePhaseEncodingDirectionDICOM": "COL",
  "InstitutionAddress": "Maynard 3,Hanover,NH,US,03755",
  "InstitutionName": "Dartmouth College - PBS",
  "InstitutionalDepartmentName": "Department",
  "MRAcquisitionType": "2D",
  "MagneticFieldStrength": 3,
  "Manufacturer": "Siemens",
  "ManufacturersModelName": "Prisma",
  "MatrixCoilMode": "GRAPPA",
  "Modality": "MR",
  "NonlinearGradientCorrection": false,
  "ParallelReductionFactorInPlane": 2,
  "PartialFourier": 1,
  "PatientPosition": "HFS",
  "PercentPhaseFOV": 100,
  "PercentSampling": 100,
  "PhaseEncodingDirection": "j-",
  "PhaseEncodingSteps": 79,
  "PhaseResolution": 1,
  "PixelBandwidth": 2315,
  "ProcedureStepDescription": "dbic^QA",
  "ProtocolName": "func-bold_task-rest_acq-p2",
  "PulseSequenceDetails": "%SiemensSeq%\\ep2d_bold",
  "ReceiveCoilActiveElements": "HC1-7;NC1,2",
  "ReceiveCoilName": "HeadNeck_64",
  "ReconMatrixPE": 80,
  "RefLinesPE": 24,
  "RepetitionTime": 2,
  "SAR": 0.0358406,
  "ScanOptions": "FS",
  "ScanningSequence": "EP",
  "SequenceName": "*epfid2d1_80",
  "SequenceVariant": "SK",
  "SeriesDescription": "func-bold_task-rest_acq-p2",
  "SeriesNumber": 5,
  "ShimSetting": [4216, -7746, -7505, -123, -94, -161, -34, 106],
  "SliceThickness": 3.5,
  "SliceTiming": [0.99, 0, 1.055, 0.065, 1.1225, 0.1325, 1.1875, 0.1975, 1.255, 0.265, 1.32, 0.33, 1.385, 0.395, 1.4525, 0.4625, 1.5175, 0.5275, 1.585, 0.595, 1.65, 0.66, 1.715, 0.725, 1.7825, 0.7925, 1.8475, 0.8575, 1.915, 0.925],
  "SoftwareVersions": "syngo MR E11",
  "SpacingBetweenSlices": 3.99,
  "StationName": "AWP66112",
  "TaskName": "rest",
  "TotalReadoutTime": 0.02054,
  "TxRefAmp": 212.53,
  "dcmmeta_affine": [
    [-2.980764389038086, 0.3227618336677551, 0.13865280151367188, 105.66121673583984],
    [0.3391803503036499, 2.836778402328491, 1.2172553539276123, -131.2042999267578],
    [0.00011120548151666299, -0.9211478233337402, 3.797257423400879, -21.53627586364746],
    [0.0, 0.0, 0.0, 1.0]
],
  "dcmmeta_reorient_transform": [
    [0.0, -1.0, 0.0, 79.0],
    [1.0, 0.0, 0.0, 0.0],
    [0.0, 0.0, 1.0, 0.0],
    [0.0, 0.0, 0.0, 1.0]
],
  "dcmmeta_shape": [80, 80, 30, 200],
  "dcmmeta_slice_dim": 2,
  "dcmmeta_version": 0.6,
  "global": {
    "const": {
      "AccessionNumber": "qa64",
      "AcquisitionMatrix": [80, 0, 0, 80],
      "AngioFlag": "N",
      "BitsAllocated": 16,
      "BitsStored": 12,
      "BodyPartExamined": "BRAIN",
      "Columns": 480,
      "EchoNumbers": 1,
      "EchoTime": 35.0,
      "EchoTrainLength": 39,
      "FlipAngle": 90.0,
      "HighBit": 11,
      "ImageOrientationPatient": [0.99358814877337, -0.1130601134045, 3.706849434e-05, 0.10758727963812, 0.94559278813883, 0.30704927337465],
      "ImagePositionPatient": [-791.86466090521, -592.42079496231, -278.55875870549],
      "ImageType": [
        "ORIGINAL",
        "PRIMARY",
        "M",
        "ND",
        "NORM",
        "MOSAIC"
],
      "ImagedNucleus": "1H",
      "ImagingFrequency": 123.259112,
      "InPlanePhaseEncodingDirection": "COL",
      "LargestImagePixelValue": 4095,
      "MRAcquisitionType": "2D",
      "MagneticFieldStrength": 3.0,
      "Manufacturer": "SIEMENS",
      "ManufacturerModelName": "Prisma",
      "Modality": "MR",
      "NumberOfAverages": 1.0,
      "NumberOfPhaseEncodingSteps": 79,
      "PercentPhaseFieldOfView": 100.0,
      "PercentSampling": 100.0,
      "PerformedProcedureStepStartTime": "084553.317000",
      "PhotometricInterpretation": "MONOCHROME2",
      "PixelBandwidth": 2315.0,
      "PixelRepresentation": 0,
      "PixelSpacing": [3.0, 3.0],
      "ProtocolName": "func-bold_task-rest_acq-p2",
      "RepetitionTime": 2000.0,
      "Rows": 480,
      "SAR": 0.03584063490054,
      "SamplesPerPixel": 1,
      "ScanOptions": "FS",
      "ScanningSequence": "EP",
      "SequenceName": "*epfid2d1_80",
      "SequenceVariant": "SK",
      "SeriesDescription": "func-bold_task-rest_acq-p2",
      "SeriesNumber": 5,
      "SeriesTime": "085151.094000",
      "SliceLocation": -56.851553607897,
      "SliceThickness": 3.5,
      "SmallestImagePixelValue": 0,
      "SoftwareVersions": "syngo MR E11",
      "SpacingBetweenSlices": 3.989999984562,
      "SpecificCharacterSet": "ISO_IR 100",
      "StudyID": "13",
      "StudyTime": "084553.139000",
      "TransmitCoilName": "Body",
      "VariableFlipAngleFlag": "N",
      "WindowCenterWidthExplanation": "Algo1"
    },
    "slices": {}
  },
  "time": {
    "samples": {
      "AcquisitionNumber": [1, 2, 3, 4, 5, 6, 7, 8, 9, 10, 11, 12, 13, 14, 15, 16, 17, 18, 19, 20, 21, 22, 23, 24, 25, 26, 27, 28, 29, 30, 31, 32, 33, 34, 35, 36, 37, 38, 39, 40, 41, 42, 43, 44, 45, 46, 47, 48, 49, 50, 51, 52, 53, 54, 55, 56, 57, 58, 59, 60, 61, 62, 63, 64, 65, 66, 67, 68, 69, 70, 71, 72, 73, 74, 75, 76, 77, 78, 79, 80, 81, 82, 83, 84, 85, 86, 87, 88, 89, 90, 91, 92, 93, 94, 95, 96, 97, 98, 99, 100, 101, 102, 103, 104, 105, 106, 107, 108, 109, 110, 111, 112, 113, 114, 115, 116, 117, 118, 119, 120, 121, 122, 123, 124, 125, 126, 127, 128, 129, 130, 131, 132, 133, 134, 135, 136, 137, 138, 139, 140, 141, 142, 143, 144, 145, 146, 147, 148, 149, 150, 151, 152, 153, 154, 155, 156, 157, 158, 159, 160, 161, 162, 163, 164, 165, 166, 167, 168, 169, 170, 171, 172, 173, 174, 175, 176, 177, 178, 179, 180, 181, 182, 183, 184, 185, 186, 187, 188, 189, 190, 191, 192, 193, 194, 195, 196, 197, 198, 199, 200],
      "AcquisitionTime": ["085051.760000", "085053.760000", "085055.760000", "085057.760000", "085059.760000", "085101.760000", "085103.760000", "085105.760000", "085107.760000", "085109.760000", "085111.760000", "085113.760000", "085115.760000", "085117.760000", "085119.760000", "085121.760000", "085123.760000", "085125.760000", "085127.760000", "085129.760000", "085131.760000", "085133.760000", "085135.760000", "085137.760000", "085139.760000", "085141.760000", "085143.760000", "085145.760000", "085147.760000", "085149.760000", "085151.760000", "085153.760000", "085155.760000", "085157.760000", "085159.760000", "085201.760000", "085203.760000", "085205.760000", "085207.760000", "085209.760000", "085211.760000", "085213.760000", "085215.760000", "085217.760000", "085219.760000", "085221.760000", "085223.760000", "085225.760000", "085227.760000", "085229.760000", "085231.760000", "085233.760000", "085235.760000", "085237.760000", "085239.760000", "085241.760000", "085243.760000", "085245.760000", "085247.760000", "085249.760000", "085251.760000", "085253.760000", "085255.760000", "085257.760000", "085259.760000", "085301.760000", "085303.760000", "085305.760000", "085307.760000", "085309.760000", "085311.760000", "085313.760000", "085315.760000", "085317.760000", "085319.760000", "085321.760000", "085323.760000", "085325.760000", "085327.760000", "085329.760000", "085331.760000", "085333.760000", "085335.760000", "085337.760000", "085339.760000", "085341.760000", "085343.760000", "085345.760000", "085347.760000", "085349.760000", "085351.760000", "085353.760000", "085355.760000", "085357.760000", "085359.760000", "085401.760000", "085403.760000", "085405.760000", "085407.760000", "085409.760000", "085411.760000", "085413.760000", "085415.760000", "085417.760000", "085419.760000", "085421.760000", "085423.760000", "085425.760000", "085427.760000", "085429.760000", "085431.760000", "085433.760000", "085435.760000", "085437.760000", "085439.760000", "085441.760000", "085443.760000", "085445.760000", "085447.760000", "085449.760000", "085451.760000", "085453.760000", "085455.760000", "085457.760000", "085459.760000", "085501.760000", "085503.760000", "085505.760000", "085507.760000", "085509.760000", "085511.760000", "085513.760000", "085515.760000", "085517.760000", "085519.760000", "085521.760000", "085523.760000", "085525.760000", "085527.760000", "085529.760000", "085531.760000", "085533.760000", "085535.760000", "085537.760000", "085539.760000", "085541.760000", "085543.760000", "085545.760000", "085547.760000", "085549.760000", "085551.760000", "085553.760000", "085555.760000", "085557.760000", "085559.760000", "085601.760000", "085603.760000", "085605.760000", "085607.760000", "085609.760000", "085611.760000", "085613.760000", "085615.760000", "085617.760000", "085619.760000", "085621.760000", "085623.760000", "085625.760000", "085627.760000", "085629.760000", "085631.760000", "085633.760000", "085635.760000", "085637.760000", "085639.760000", "085641.760000", "085643.760000", "085645.760000", "085647.760000", "085649.760000", "085651.760000", "085653.760000", "085655.760000", "085657.760000", "085659.760000", "085701.760000", "085703.760000", "085705.760000", "085707.760000", "085709.760000", "085711.760000", "085713.760000", "085715.760000", "085717.760000", "085719.760000", "085721.760000", "085723.760000", "085725.760000", "085727.760000", "085729.760000"],
      "ContentTime": ["085151.098000", "085151.101000", "085151.103000", "085151.105000", "085151.108000", "085151.110000", "085151.113000", "085151.115000", "085151.118000", "085151.126000", "085151.129000", "085151.131000", "085151.134000", "085151.136000", "085151.139000", "085151.141000", "085151.143000", "085151.146000", "085151.148000", "085151.150000", "085151.153000", "085151.155000", "085151.158000", "085151.160000", "085151.163000", "085151.165000", "085151.168000", "085151.170000", "085151.172000", "085231.092000", "085231.095000", "085231.097000", "085231.107000", "085231.109000", "085231.112000", "085231.114000", "085231.117000", "085231.119000", "085231.122000", "085231.124000", "085231.126000", "085231.129000", "085231.131000", "085231.133000", "085231.136000", "085231.138000", "085231.157000", "085231.160000", "085231.162000", "085311.093000", "085311.096000", "085311.098000", "085311.100000", "085311.103000", "085311.105000", "085311.107000", "085311.110000", "085311.112000", "085311.115000", "085311.117000", "085311.119000", "085311.130000", "085311.132000", "085311.135000", "085311.137000", "085311.147000", "085311.149000", "085311.157000", "085311.160000", "085351.092000", "085351.095000", "085351.097000", "085351.099000", "085351.102000", "085351.104000", "085351.107000", "085351.109000", "085351.112000", "085351.114000", "085351.116000", "085351.119000", "085351.121000", "085351.123000", "085351.126000", "085351.128000", "085351.130000", "085351.140000", "085351.142000", "085351.144000", "085431.092000", "085431.095000", "085431.097000", "085431.100000", "085431.102000", "085431.104000", "085431.107000", "085431.109000", "085431.112000", "085431.114000", "085431.116000", "085431.119000", "085431.121000", "085431.123000", "085431.126000", "085431.136000", "085431.139000", "085431.152000", "085431.154000", "085431.157000", "085511.093000", "085511.096000", "085511.098000", "085511.101000", "085511.103000", "085511.106000", "085511.108000", "085511.110000", "085511.113000", "085511.115000", "085511.117000", "085511.120000", "085511.122000", "085511.124000", "085511.127000", "085511.129000", "085511.132000", "085511.134000", "085511.136000", "085511.139000", "085551.092000", "085551.095000", "085551.097000", "085551.100000", "085551.102000", "085551.104000", "085551.107000", "085551.109000", "085551.111000", "085551.114000", "085551.116000", "085551.124000", "085551.126000", "085551.128000", "085551.131000", "085551.133000", "085551.136000", "085551.138000", "085551.141000", "085551.143000", "085631.092000", "085631.095000", "085631.097000", "085631.099000", "085631.102000", "085631.104000", "085631.107000", "085631.112000", "085631.117000", "085631.119000", "085631.122000", "085631.124000", "085631.126000", "085631.129000", "085631.131000", "085631.133000", "085631.136000", "085631.138000", "085631.141000", "085631.143000", "085711.092000", "085711.095000", "085711.098000", "085711.100000", "085711.102000", "085711.105000", "085711.107000", "085711.110000", "085711.112000", "085711.114000", "085711.121000", "085711.124000", "085711.126000", "085711.128000", "085711.131000", "085711.133000", "085711.136000", "085711.138000", "085711.140000", "085711.143000", "085731.450000", "085731.453000", "085731.456000", "085731.458000", "085731.461000", "085731.463000", "085731.466000", "085731.468000", "085731.471000", "085731.473000", "085731.475000"],
      "InstanceCreationTime": ["085151.098000", "085151.101000", "085151.103000", "085151.105000", "085151.108000", "085151.110000", "085151.113000", "085151.115000", "085151.118000", "085151.126000", "085151.129000", "085151.131000", "085151.134000", "085151.136000", "085151.139000", "085151.141000", "085151.143000", "085151.146000", "085151.148000", "085151.150000", "085151.153000", "085151.155000", "085151.158000", "085151.160000", "085151.163000", "085151.165000", "085151.168000", "085151.170000", "085151.172000", "085231.092000", "085231.095000", "085231.097000", "085231.107000", "085231.109000", "085231.112000", "085231.114000", "085231.117000", "085231.119000", "085231.122000", "085231.124000", "085231.126000", "085231.129000", "085231.131000", "085231.133000", "085231.136000", "085231.138000", "085231.157000", "085231.160000", "085231.162000", "085311.093000", "085311.096000", "085311.098000", "085311.100000", "085311.103000", "085311.105000", "085311.107000", "085311.110000", "085311.112000", "085311.115000", "085311.117000", "085311.119000", "085311.130000", "085311.132000", "085311.135000", "085311.137000", "085311.147000", "085311.149000", "085311.157000", "085311.160000", "085351.092000", "085351.095000", "085351.097000", "085351.099000", "085351.102000", "085351.104000", "085351.107000", "085351.109000", "085351.112000", "085351.114000", "085351.116000", "085351.119000", "085351.121000", "085351.123000", "085351.126000", "085351.128000", "085351.130000", "085351.140000", "085351.142000", "085351.144000", "085431.092000", "085431.095000", "085431.097000", "085431.100000", "085431.102000", "085431.104000", "085431.107000", "085431.109000", "085431.112000", "085431.114000", "085431.116000", "085431.119000", "085431.121000", "085431.123000", "085431.126000", "085431.136000", "085431.139000", "085431.152000", "085431.154000", "085431.157000", "085511.093000", "085511.096000", "085511.098000", "085511.101000", "085511.103000", "085511.106000", "085511.108000", "085511.110000", "085511.113000", "085511.115000", "085511.117000", "085511.120000", "085511.122000", "085511.124000", "085511.127000", "085511.129000", "085511.132000", "085511.134000", "085511.136000", "085511.139000", "085551.092000", "085551.095000", "085551.097000", "085551.100000", "085551.102000", "085551.104000", "085551.107000", "085551.109000", "085551.111000", "085551.114000", "085551.116000", "085551.124000", "085551.126000", "085551.128000", "085551.131000", "085551.133000", "085551.136000", "085551.138000", "085551.141000", "085551.143000", "085631.092000", "085631.095000", "085631.097000", "085631.099000", "085631.102000", "085631.104000", "085631.107000", "085631.112000", "085631.117000", "085631.119000", "085631.122000", "085631.124000", "085631.126000", "085631.129000", "085631.131000", "085631.133000", "085631.136000", "085631.138000", "085631.141000", "085631.143000", "085711.092000", "085711.095000", "085711.098000", "085711.100000", "085711.102000", "085711.105000", "085711.107000", "085711.110000", "085711.112000", "085711.114000", "085711.121000", "085711.124000", "085711.126000", "085711.128000", "085711.131000", "085711.133000", "085711.136000", "085711.138000", "085711.140000", "085711.143000", "085731.450000", "085731.453000", "085731.456000", "085731.458000", "085731.461000", "085731.463000", "085731.466000", "085731.468000", "085731.471000", "085731.473000", "085731.475000"],
      "InstanceNumber": [1, 2, 3, 4, 5, 6, 7, 8, 9, 10, 11, 12, 13, 14, 15, 16, 17, 18, 19, 20, 21, 22, 23, 24, 25, 26, 27, 28, 29, 30, 31, 32, 33, 34, 35, 36, 37, 38, 39, 40, 41, 42, 43, 44, 45, 46, 47, 48, 49, 50, 51, 52, 53, 54, 55, 56, 57, 58, 59, 60, 61, 62, 63, 64, 65, 66, 67, 68, 69, 70, 71, 72, 73, 74, 75, 76, 77, 78, 79, 80, 81, 82, 83, 84, 85, 86, 87, 88, 89, 90, 91, 92, 93, 94, 95, 96, 97, 98, 99, 100, 101, 102, 103, 104, 105, 106, 107, 108, 109, 110, 111, 112, 113, 114, 115, 116, 117, 118, 119, 120, 121, 122, 123, 124, 125, 126, 127, 128, 129, 130, 131, 132, 133, 134, 135, 136, 137, 138, 139, 140, 141, 142, 143, 144, 145, 146, 147, 148, 149, 150, 151, 152, 153, 154, 155, 156, 157, 158, 159, 160, 161, 162, 163, 164, 165, 166, 167, 168, 169, 170, 171, 172, 173, 174, 175, 176, 177, 178, 179, 180, 181, 182, 183, 184, 185, 186, 187, 188, 189, 190, 191, 192, 193, 194, 195, 196, 197, 198, 199, 200],
      "WindowCenter": [1589.0, 1589.0, 1588.0, 1587.0, 1588.0, 1588.0, 1588.0, 1587.0, 1588.0, 1588.0, 1587.0, 1586.0, 1587.0, 1587.0, 1587.0, 1587.0, 1586.0, 1585.0, 1586.0, 1586.0, 1586.0, 1585.0, 1586.0, 1586.0, 1585.0, 1586.0, 1586.0, 1585.0, 1586.0, 1585.0, 1586.0, 1586.0, 1584.0, 1585.0, 1585.0, 1585.0, 1584.0, 1585.0, 1585.0, 1585.0, 1584.0, 1585.0, 1585.0, 1583.0, 1584.0, 1585.0, 1584.0, 1584.0, 1584.0, 1584.0, 1584.0, 1584.0, 1584.0, 1583.0, 1584.0, 1583.0, 1584.0, 1584.0, 1583.0, 1584.0, 1583.0, 1583.0, 1583.0, 1583.0, 1583.0, 1584.0, 1583.0, 1583.0, 1584.0, 1583.0, 1584.0, 1582.0, 1582.0, 1582.0, 1582.0, 1583.0, 1582.0, 1582.0, 1582.0, 1583.0, 1582.0, 1581.0, 1581.0, 1581.0, 1582.0, 1581.0, 1582.0, 1582.0, 1581.0, 1581.0, 1581.0, 1580.0, 1581.0, 1581.0, 1580.0, 1581.0, 1580.0, 1581.0, 1580.0, 1581.0, 1580.0, 1581.0, 1581.0, 1579.0, 1580.0, 1580.0, 1580.0, 1580.0, 1580.0, 1580.0, 1580.0, 1580.0, 1579.0, 1580.0, 1580.0, 1580.0, 1580.0, 1579.0, 1579.0, 1579.0, 1579.0, 1579.0, 1579.0, 1579.0, 1579.0, 1579.0, 1579.0, 1579.0, 1579.0, 1579.0, 1579.0, 1579.0, 1579.0, 1579.0, 1579.0, 1579.0, 1578.0, 1579.0, 1578.0, 1577.0, 1579.0, 1578.0, 1577.0, 1577.0, 1578.0, 1578.0, 1578.0, 1578.0, 1579.0, 1578.0, 1578.0, 1577.0, 1577.0, 1578.0, 1577.0, 1577.0, 1578.0, 1577.0, 1578.0, 1578.0, 1577.0, 1577.0, 1577.0, 1577.0, 1577.0, 1577.0, 1577.0, 1577.0, 1577.0, 1577.0, 1577.0, 1577.0, 1576.0, 1577.0, 1576.0, 1576.0, 1576.0, 1577.0, 1577.0, 1576.0, 1576.0, 1577.0, 1575.0, 1577.0, 1576.0, 1576.0, 1576.0, 1576.0, 1577.0, 1575.0, 1576.0, 1576.0, 1576.0, 1576.0, 1576.0, 1576.0, 1576.0, 1575.0, 1576.0, 1576.0],
      "WindowWidth": [3487.0, 3485.0, 3485.0, 3486.0, 3485.0, 3485.0, 3485.0, 3485.0, 3485.0, 3485.0, 3484.0, 3485.0, 3484.0, 3484.0, 3484.0, 3484.0, 3484.0, 3484.0, 3484.0, 3484.0, 3484.0, 3485.0, 3484.0, 3484.0, 3484.0, 3483.0, 3483.0, 3484.0, 3483.0, 3484.0, 3483.0, 3483.0, 3484.0, 3484.0, 3483.0, 3483.0, 3484.0, 3483.0, 3483.0, 3483.0, 3484.0, 3483.0, 3483.0, 3483.0, 3483.0, 3483.0, 3483.0, 3483.0, 3483.0, 3482.0, 3482.0, 3482.0, 3482.0, 3483.0, 3482.0, 3483.0, 3482.0, 3482.0, 3483.0, 3482.0, 3483.0, 3482.0, 3482.0, 3482.0, 3482.0, 3482.0, 3482.0, 3482.0, 3482.0, 3482.0, 3482.0, 3482.0, 3482.0, 3482.0, 3482.0, 3481.0, 3481.0, 3481.0, 3481.0, 3481.0, 3481.0, 3481.0, 3481.0, 3481.0, 3481.0, 3481.0, 3481.0, 3481.0, 3481.0, 3481.0, 3480.0, 3481.0, 3480.0, 3480.0, 3480.0, 3480.0, 3480.0, 3480.0, 3480.0, 3480.0, 3480.0, 3480.0, 3480.0, 3480.0, 3480.0, 3480.0, 3480.0, 3480.0, 3480.0, 3480.0, 3479.0, 3479.0, 3479.0, 3479.0, 3479.0, 3479.0, 3479.0, 3479.0, 3479.0, 3479.0, 3479.0, 3479.0, 3479.0, 3479.0, 3479.0, 3478.0, 3478.0, 3478.0, 3478.0, 3478.0, 3478.0, 3478.0, 3478.0, 3478.0, 3478.0, 3478.0, 3478.0, 3478.0, 3478.0, 3478.0, 3478.0, 3478.0, 3478.0, 3478.0, 3478.0, 3478.0, 3478.0, 3478.0, 3478.0, 3478.0, 3478.0, 3478.0, 3478.0, 3477.0, 3478.0, 3478.0, 3477.0, 3478.0, 3477.0, 3477.0, 3478.0, 3478.0, 3477.0, 3477.0, 3477.0, 3477.0, 3477.0, 3477.0, 3477.0, 3477.0, 3477.0, 3477.0, 3477.0, 3477.0, 3477.0, 3477.0, 3477.0, 3476.0, 3476.0, 3477.0, 3477.0, 3476.0, 3477.0, 3476.0, 3476.0, 3476.0, 3476.0, 3476.0, 3476.0, 3476.0, 3476.0, 3476.0, 3476.0, 3476.0, 3476.0, 3476.0, 3476.0, 3476.0, 3476.0, 3476.0]
    },
    "slices": {}
  }
}