{
  "AcquisitionMatrixPE": 80,
  "AcquisitionNumber": 1,
  "AcquisitionTime": "08:57:43.447500",
  "BandwidthPerPixelPhaseEncode": 25,
  "BaseResolution": 80,
  "BodyPartExamined": "BRAIN",
  "CoilCombinationMethod": "Sum of Squares",
  "ConsistencyInfo": "N4_VE11E_LATEST_20181129",
  "ConversionSoftware": "dcm2niix",
  "ConversionSoftwareVersion": "v1.0.20220720",
  "DerivedVendorReportedEchoSpacing": 0.0005,
  "DeviceSerialNumber": "66112",
  "DwellTime": 2.7e-06,
  "EchoTime": 0.03,
  "EchoTrainLength": 80,
  "EffectiveEchoSpacing": 0.0005,
  "FlipAngle": 77,
  "HeudiconvVersion": "0.13.1",
  "ImageOrientationPatientDICOM": [0.993588, -0.11306, 3.70685e-05, 0.107587, 0.945593, 0.307049],
  "ImageOrientationText": "Tra>Cor(17.8)>Sag(2.0)",
  "ImageType": [
    "ORIGINAL",
    "PRIMARY",
    "M",
    "ND",
    "NORM",
    "MOSAIC"
],
  "ImagingFrequency": 123.259,
  "InPlanePhaseEncodingDirectionDICOM": "COL",
  "InstitutionAddress": "Maynard 3,Hanover,NH,US,03755",
  "InstitutionName": "Dartmouth College - PBS",
  "InstitutionalDepartmentName": "Department",
  "MRAcquisitionType": "2D",
  "MagneticFieldStrength": 3,
  "Manufacturer": "Siemens",
  "ManufacturersModelName": "Prisma",
  "MatrixCoilMode": "SENSE",
  "Modality": "MR",
  "NonlinearGradientCorrection": false,
  "PartialFourier": 1,
  "PatientPosition": "HFS",
  "PercentPhaseFOV": 100,
  "PercentSampling": 100,
  "PhaseEncodingDirection": "j-",
  "PhaseEncodingSteps": 80,
  "PhaseResolution": 1,
  "PixelBandwidth": 2315,
  "ProcedureStepDescription": "dbic^QA",
  "ProtocolName": "func-bold_fa-77",
  "PulseSequenceDetails": "%SiemensSeq%\\ep2d_bold",
  "ReceiveCoilActiveElements": "HC1-7;NC1,2",
  "ReceiveCoilName": "HeadNeck_64",
  "ReconMatrixPE": 80,
  "RepetitionTime": 2,
  "SAR": 0.0281654,
  "ScanOptions": "FS",
  "ScanningSequence": "EP",
  "SequenceName": "*epfid2d1_80",
  "SequenceVariant": "SK",
  "SeriesDescription": "func-bold_fa-77",
  "SeriesNumber": 6,
  "ShimSetting": [4216, -7746, -7505, -120, -95, -163, -33, 106],
  "SliceThickness": 3.5,
  "SliceTiming": [0.99, 0, 1.055, 0.065, 1.1225, 0.1325, 1.1875, 0.1975, 1.255, 0.265, 1.32, 0.33, 1.385, 0.395, 1.4525, 0.4625, 1.5175, 0.5275, 1.585, 0.595, 1.65, 0.66, 1.715, 0.725, 1.7825, 0.7925, 1.8475, 0.8575, 1.915, 0.925],
  "SoftwareVersions": "syngo MR E11",
  "SpacingBetweenSlices": 3.99,
  "StationName": "AWP66112",
  "TotalReadoutTime": 0.0395,
  "TxRefAmp": 212.53,
  "dcmmeta_affine": [
    [-2.980764389038086, 0.3227618336677551, 0.13865280151367188, 104.00450134277344],
    [0.3391803503036499, 2.836778402328491, 1.2172553539276123, -128.7805938720703],
    [0.00011120548151666299, -0.9211478233337402, 3.797257423400879, -20.90935707092285],
    [0.0, 0.0, 0.0, 1.0]
],
  "dcmmeta_reorient_transform": [
    [0.0, -1.0, 0.0, 79.0],
    [1.0, 0.0, 0.0, 0.0],
    [0.0, 0.0, 1.0, 0.0],
    [0.0, 0.0, 0.0, 1.0]
],
  "dcmmeta_shape": [80, 80, 30, 200],
  "dcmmeta_slice_dim": 2,
  "dcmmeta_version": 0.6,
  "global": {
    "const": {
      "AccessionNumber": "qa64",
      "AcquisitionMatrix": [80, 0, 0, 80],
      "AngioFlag": "N",
      "BitsAllocated": 16,
      "BitsStored": 12,
      "BodyPartExamined": "BRAIN",
      "Columns": 480,
      "EchoNumbers": 1,
      "EchoTime": 30.0,
      "EchoTrainLength": 80,
      "FlipAngle": 77.0,
      "HighBit": 11,
      "ImageOrientationPatient": [0.99358814877337, -0.1130601134045, 3.706849434e-05, 0.10758727963812, 0.94559278813883, 0.30704927337465],
      "ImagePositionPatient": [-790.20794294915, -594.84449815598, -277.93183991276],
      "ImageType": [
        "ORIGINAL",
        "PRIMARY",
        "M",
        "ND",
        "NORM",
        "MOSAIC"
],
      "ImagedNucleus": "1H",
      "ImagingFrequency": 123.259109,
      "InPlanePhaseEncodingDirection": "COL",
      "LargestImagePixelValue": 4095,
      "MRAcquisitionType": "2D",
      "MagneticFieldStrength": 3.0,
      "Manufacturer": "SIEMENS",
      "ManufacturerModelName": "Prisma",
      "Modality": "MR",
      "NumberOfAverages": 1.0,
      "NumberOfPhaseEncodingSteps": 80,
      "PercentPhaseFieldOfView": 100.0,
      "PercentSampling": 100.0,
      "PerformedProcedureStepStartTime": "084553.317000",
      "PhotometricInterpretation": "MONOCHROME2",
      "PixelBandwidth": 2315.0,
      "PixelRepresentation": 0,
      "PixelSpacing": [3.0, 3.0],
      "ProtocolName": "func-bold_fa-77",
      "RepetitionTime": 2000.0,
      "Rows": 480,
      "SAR": 0.02816535904824,
      "SamplesPerPixel": 1,
      "ScanOptions": "FS",
      "ScanningSequence": "EP",
      "SequenceName": "*epfid2d1_80",
      "SequenceVariant": "SK",
      "SeriesDescription": "func-bold_fa-77",
      "SeriesNumber": 6,
      "SeriesTime": "085830.924000",
      "SliceLocation": -55.573075108538,
      "SliceThickness": 3.5,
      "SmallestImagePixelValue": 0,
      "SoftwareVersions": "syngo MR E11",
      "SpacingBetweenSlices": 3.9899999948088,
      "SpecificCharacterSet": "ISO_IR 100",
      "StudyID": "13",
      "StudyTime": "084553.139000",
      "TransmitCoilName": "Body",
      "VariableFlipAngleFlag": "N",
      "WindowCenterWidthExplanation": "Algo1"
    },
    "slices": {}
  },
  "time": {
    "samples": {
      "AcquisitionNumber": [1, 2, 3, 4, 5, 6, 7, 8, 9, 10, 11, 12, 13, 14, 15, 16, 17, 18, 19, 20, 21, 22, 23, 24, 25, 26, 27, 28, 29, 30, 31, 32, 33, 34, 35, 36, 37, 38, 39, 40, 41, 42, 43, 44, 45, 46, 47, 48, 49, 50, 51, 52, 53, 54, 55, 56, 57, 58, 59, 60, 61, 62, 63, 64, 65, 66, 67, 68, 69, 70, 71, 72, 73, 74, 75, 76, 77, 78, 79, 80, 81, 82, 83, 84, 85, 86, 87, 88, 89, 90, 91, 92, 93, 94, 95, 96, 97, 98, 99, 100, 101, 102, 103, 104, 105, 106, 107, 108, 109, 110, 111, 112, 113, 114, 115, 116, 117, 118, 119, 120, 121, 122, 123, 124, 125, 126, 127, 128, 129, 130, 131, 132, 133, 134, 135, 136, 137, 138, 139, 140, 141, 142, 143, 144, 145, 146, 147, 148, 149, 150, 151, 152, 153, 154, 155, 156, 157, 158, 159, 160, 161, 162, 163, 164, 165, 166, 167, 168, 169, 170, 171, 172, 173, 174, 175, 176, 177, 178, 179, 180, 181, 182, 183, 184, 185, 186, 187, 188, 189, 190, 191, 192, 193, 194, 195, 196, 197, 198, 199, 200],
      "AcquisitionTime": ["085743.447500", "085745.447500", "085747.447500", "085749.447500", "085751.447500", "085753.447500", "085755.447500", "085757.447500", "085759.447500", "085801.447500", "085803.447500", "085805.447500", "085807.447500", "085809.447500", "085811.447500", "085813.447500", "085815.447500", "085817.447500", "085819.447500", "085821.447500", "085823.447500", "085825.447500", "085827.447500", "085829.447500", "085831.447500", "085833.447500", "085835.447500", "085837.447500", "085839.447500", "085841.447500", "085843.447500", "085845.447500", "085847.447500", "085849.447500", "085851.447500", "085853.447500", "085855.447500", "085857.447500", "085859.447500", "085901.447500", "085903.447500", "085905.447500", "085907.447500", "085909.447500", "085911.447500", "085913.447500", "085915.447500", "085917.447500", "085919.447500", "085921.447500", "085923.447500", "085925.447500", "085927.447500", "085929.447500", "085931.447500", "085933.447500", "085935.447500", "085937.447500", "085939.447500", "085941.447500", "085943.447500", "085945.447500", "085947.447500", "085949.447500", "085951.447500", "085953.447500", "085955.447500", "085957.447500", "085959.447500", "090001.447500", "090003.447500", "090005.447500", "090007.447500", "090009.447500", "090011.447500", "090013.447500", "090015.447500", "090017.447500", "090019.447500", "090021.447500", "090023.447500", "090025.447500", "090027.447500", "090029.447500", "090031.447500", "090033.447500", "090035.447500", "090037.447500", "090039.447500", "090041.447500", "090043.447500", "090045.447500", "090047.447500", "090049.447500", "090051.447500", "090053.447500", "090055.447500", "090057.447500", "090059.447500", "090101.447500", "090103.447500", "090105.447500", "090107.447500", "090109.447500", "090111.447500", "090113.447500", "090115.447500", "090117.447500", "090119.447500", "090121.447500", "090123.447500", "090125.447500", "090127.447500", "090129.447500", "090131.447500", "090133.447500", "090135.447500", "090137.447500", "090139.447500", "090141.447500", "090143.447500", "090145.447500", "090147.447500", "090149.447500", "090151.447500", "090153.447500", "090155.447500", "090157.447500", "090159.447500", "090201.447500", "090203.447500", "090205.447500", "090207.447500", "090209.447500", "090211.447500", "090213.447500", "090215.447500", "090217.447500", "090219.447500", "090221.447500", "090223.447500", "090225.447500", "090227.447500", "090229.447500", "090231.447500", "090233.447500", "090235.447500", "090237.447500", "090239.447500", "090241.447500", "090243.447500", "090245.447500", "090247.447500", "090249.447500", "090251.447500", "090253.447500", "090255.447500", "090257.447500", "090259.447500", "090301.447500", "090303.447500", "090305.447500", "090307.447500", "090309.447500", "090311.447500", "090313.447500", "090315.447500", "090317.447500", "090319.447500", "090321.447500", "090323.447500", "090325.447500", "090327.447500", "090329.447500", "090331.447500", "090333.447500", "090335.447500", "090337.447500", "090339.447500", "090341.447500", "090343.447500", "090345.447500", "090347.447500", "090349.447500", "090351.447500", "090353.447500", "090355.447500", "090357.447500", "090359.447500", "090401.447500", "090403.447500", "090405.447500", "090407.447500", "090409.447500", "090411.447500", "090413.447500", "090415.447500", "090417.447500", "090419.447500", "090421.447500"],
      "ContentTime": ["085830.927000", "085830.930000", "085830.933000", "085830.935000", "085830.938000", "085830.940000", "085830.942000", "085830.945000", "085830.947000", "085830.949000", "085830.952000", "085830.954000", "085830.963000", "085830.965000", "085830.967000", "085830.970000", "085830.972000", "085830.975000", "085830.977000", "085830.979000", "085830.982000", "085830.986000", "085830.988000", "085830.991000", "085850.922000", "085850.925000", "085850.927000", "085850.930000", "085850.932000", "085850.934000", "085850.937000", "085850.939000", "085850.942000", "085850.953000", "085930.922000", "085930.925000", "085930.927000", "085930.930000", "085930.932000", "085930.934000", "085930.937000", "085930.939000", "085930.941000", "085930.944000", "085930.946000", "085930.948000", "085930.951000", "085930.953000", "085930.955000", "085930.958000", "085930.960000", "085930.962000", "085930.965000", "085930.967000", "090010.923000", "090010.926000", "090010.928000", "090010.930000", "090010.942000", "090010.945000", "090010.947000", "090010.949000", "090010.951000", "090010.954000", "090010.956000", "090010.959000", "090010.961000", "090010.963000", "090010.966000", "090010.968000", "090010.970000", "090010.973000", "090010.975000", "090010.987000", "090050.922000", "090050.925000", "090050.927000", "090050.929000", "090050.932000", "090050.934000", "090050.937000", "090050.939000", "090050.941000", "090050.944000", "090050.946000", "090050.954000", "090050.956000", "090050.959000", "090050.961000", "090050.964000", "090050.966000", "090050.968000", "090050.971000", "090050.973000", "090130.922000", "090130.925000", "090130.927000", "090130.929000", "090130.932000", "090130.934000", "090130.936000", "090130.939000", "090130.941000", "090130.943000", "090130.946000", "090130.948000", "090130.950000", "090130.953000", "090130.962000", "090130.964000", "090130.966000", "090130.969000", "090130.971000", "090130.973000", "090210.923000", "090210.926000", "090210.928000", "090210.931000", "090210.933000", "090210.935000", "090210.938000", "090210.940000", "090210.942000", "090210.945000", "090210.947000", "090210.949000", "090210.952000", "090210.972000", "090210.974000", "090210.977000", "090210.979000", "090210.981000", "090210.984000", "090210.986000", "090250.922000", "090250.925000", "090250.927000", "090250.929000", "090250.932000", "090250.934000", "090250.936000", "090250.944000", "090250.947000", "090250.949000", "090250.951000", "090250.954000", "090250.956000", "090250.959000", "090250.961000", "090250.963000", "090250.966000", "090250.968000", "090250.971000", "090250.973000", "090330.922000", "090330.925000", "090330.927000", "090330.930000", "090330.932000", "090330.934000", "090330.937000", "090330.939000", "090330.941000", "090330.944000", "090330.946000", "090330.948000", "090330.951000", "090330.953000", "090330.955000", "090330.958000", "090330.960000", "090330.962000", "090330.965000", "090330.967000", "090410.922000", "090410.925000", "090410.927000", "090410.930000", "090410.932000", "090410.934000", "090410.937000", "090410.939000", "090410.941000", "090410.944000", "090410.946000", "090410.948000", "090410.951000", "090410.953000", "090410.956000", "090410.958000", "090410.960000", "090410.963000", "090410.965000", "090410.968000", "090422.837000", "090422.840000", "090422.842000", "090422.845000", "090422.847000", "090422.850000"],
      "InstanceCreationTime": ["085830.927000", "085830.930000", "085830.933000", "085830.935000", "085830.938000", "085830.940000", "085830.942000", "085830.945000", "085830.947000", "085830.949000", "085830.952000", "085830.954000", "085830.963000", "085830.965000", "085830.967000", "085830.970000", "085830.972000", "085830.975000", "085830.977000", "085830.979000", "085830.982000", "085830.986000", "085830.988000", "085830.991000", "085850.922000", "085850.925000", "085850.927000", "085850.930000", "085850.932000", "085850.934000", "085850.937000", "085850.939000", "085850.942000", "085850.953000", "085930.922000", "085930.925000", "085930.927000", "085930.930000", "085930.932000", "085930.934000", "085930.937000", "085930.939000", "085930.941000", "085930.944000", "085930.946000", "085930.948000", "085930.951000", "085930.953000", "085930.955000", "085930.958000", "085930.960000", "085930.962000", "085930.965000", "085930.967000", "090010.923000", "090010.926000", "090010.928000", "090010.930000", "090010.942000", "090010.945000", "090010.947000", "090010.949000", "090010.951000", "090010.954000", "090010.956000", "090010.959000", "090010.961000", "090010.963000", "090010.966000", "090010.968000", "090010.970000", "090010.973000", "090010.975000", "090010.987000", "090050.922000", "090050.925000", "090050.927000", "090050.929000", "090050.932000", "090050.934000", "090050.937000", "090050.939000", "090050.941000", "090050.944000", "090050.946000", "090050.954000", "090050.956000", "090050.959000", "090050.961000", "090050.964000", "090050.966000", "090050.968000", "090050.971000", "090050.973000", "090130.922000", "090130.925000", "090130.927000", "090130.929000", "090130.932000", "090130.934000", "090130.936000", "090130.939000", "090130.941000", "090130.943000", "090130.946000", "090130.948000", "090130.950000", "090130.953000", "090130.962000", "090130.964000", "090130.966000", "090130.969000", "090130.971000", "090130.973000", "090210.923000", "090210.926000", "090210.928000", "090210.931000", "090210.933000", "090210.935000", "090210.938000", "090210.940000", "090210.942000", "090210.945000", "090210.947000", "090210.949000", "090210.952000", "090210.972000", "090210.974000", "090210.977000", "090210.979000", "090210.981000", "090210.984000", "090210.986000", "090250.922000", "090250.925000", "090250.927000", "090250.929000", "090250.932000", "090250.934000", "090250.936000", "090250.944000", "090250.947000", "090250.949000", "090250.951000", "090250.954000", "090250.956000", "090250.959000", "090250.961000", "090250.963000", "090250.966000", "090250.968000", "090250.971000", "090250.973000", "090330.922000", "090330.925000", "090330.927000", "090330.930000", "090330.932000", "090330.934000", "090330.937000", "090330.939000", "090330.941000", "090330.944000", "090330.946000", "090330.948000", "090330.951000", "090330.953000", "090330.955000", "090330.958000", "090330.960000", "090330.962000", "090330.965000", "090330.967000", "090410.922000", "090410.925000", "090410.927000", "090410.930000", "090410.932000", "090410.934000", "090410.937000", "090410.939000", "090410.941000", "090410.944000", "090410.946000", "090410.948000", "090410.951000", "090410.953000", "090410.956000", "090410.958000", "090410.960000", "090410.963000", "090410.965000", "090410.968000", "090422.837000", "090422.840000", "090422.842000", "090422.845000", "090422.847000", "090422.850000"],
      "InstanceNumber": [1, 2, 3, 4, 5, 6, 7, 8, 9, 10, 11, 12, 13, 14, 15, 16, 17, 18, 19, 20, 21, 22, 23, 24, 25, 26, 27, 28, 29, 30, 31, 32, 33, 34, 35, 36, 37, 38, 39, 40, 41, 42, 43, 44, 45, 46, 47, 48, 49, 50, 51, 52, 53, 54, 55, 56, 57, 58, 59, 60, 61, 62, 63, 64, 65, 66, 67, 68, 69, 70, 71, 72, 73, 74, 75, 76, 77, 78, 79, 80, 81, 82, 83, 84, 85, 86, 87, 88, 89, 90, 91, 92, 93, 94, 95, 96, 97, 98, 99, 100, 101, 102, 103, 104, 105, 106, 107, 108, 109, 110, 111, 112, 113, 114, 115, 116, 117, 118, 119, 120, 121, 122, 123, 124, 125, 126, 127, 128, 129, 130, 131, 132, 133, 134, 135, 136, 137, 138, 139, 140, 141, 142, 143, 144, 145, 146, 147, 148, 149, 150, 151, 152, 153, 154, 155, 156, 157, 158, 159, 160, 161, 162, 163, 164, 165, 166, 167, 168, 169, 170, 171, 172, 173, 174, 175, 176, 177, 178, 179, 180, 181, 182, 183, 184, 185, 186, 187, 188, 189, 190, 191, 192, 193, 194, 195, 196, 197, 198, 199, 200],
      "WindowCenter": [1481.0, 1481.0, 1481.0, 1481.0, 1482.0, 1481.0, 1480.0, 1480.0, 1480.0, 1481.0, 1481.0, 1481.0, 1480.0, 1481.0, 1480.0, 1480.0, 1481.0, 1480.0, 1480.0, 1480.0, 1480.0, 1481.0, 1480.0, 1480.0, 1480.0, 1479.0, 1480.0, 1480.0, 1480.0, 1480.0, 1480.0, 1480.0, 1480.0, 1479.0, 1479.0, 1479.0, 1479.0, 1478.0, 1480.0, 1479.0, 1479.0, 1479.0, 1479.0, 1479.0, 1479.0, 1479.0, 1478.0, 1478.0, 1479.0, 1478.0, 1479.0, 1479.0, 1478.0, 1478.0, 1479.0, 1479.0, 1478.0, 1478.0, 1478.0, 1478.0, 1478.0, 1478.0, 1477.0, 1478.0, 1478.0, 1478.0, 1478.0, 1478.0, 1478.0, 1478.0, 1478.0, 1478.0, 1477.0, 1478.0, 1478.0, 1477.0, 1478.0, 1478.0, 1477.0, 1478.0, 1478.0, 1477.0, 1478.0, 1477.0, 1477.0, 1477.0, 1477.0, 1476.0, 1477.0, 1477.0, 1477.0, 1477.0, 1477.0, 1477.0, 1477.0, 1476.0, 1477.0, 1476.0, 1476.0, 1476.0, 1476.0, 1476.0, 1476.0, 1476.0, 1476.0, 1477.0, 1477.0, 1477.0, 1476.0, 1477.0, 1476.0, 1476.0, 1476.0, 1476.0, 1476.0, 1476.0, 1475.0, 1476.0, 1475.0, 1475.0, 1475.0, 1476.0, 1476.0, 1476.0, 1476.0, 1476.0, 1476.0, 1476.0, 1476.0, 1475.0, 1475.0, 1475.0, 1475.0, 1475.0, 1475.0, 1475.0, 1475.0, 1475.0, 1475.0, 1475.0, 1475.0, 1475.0, 1475.0, 1475.0, 1474.0, 1474.0, 1474.0, 1474.0, 1475.0, 1475.0, 1475.0, 1475.0, 1475.0, 1475.0, 1475.0, 1474.0, 1475.0, 1474.0, 1474.0, 1474.0, 1474.0, 1474.0, 1474.0, 1474.0, 1474.0, 1474.0, 1474.0, 1474.0, 1474.0, 1473.0, 1474.0, 1474.0, 1474.0, 1474.0, 1474.0, 1473.0, 1473.0, 1474.0, 1474.0, 1474.0, 1473.0, 1474.0, 1473.0, 1474.0, 1474.0, 1474.0, 1473.0, 1473.0, 1473.0, 1473.0, 1473.0, 1473.0, 1473.0, 1473.0, 1474.0, 1473.0, 1473.0, 1473.0, 1473.0, 1472.0],
      "WindowWidth": [3437.0, 3437.0, 3437.0, 3436.0, 3436.0, 3436.0, 3437.0, 3437.0, 3437.0, 3436.0, 3436.0, 3436.0, 3436.0, 3436.0, 3436.0, 3436.0, 3436.0, 3436.0, 3436.0, 3436.0, 3436.0, 3435.0, 3436.0, 3436.0, 3435.0, 3436.0, 3435.0, 3435.0, 3435.0, 3435.0, 3435.0, 3435.0, 3435.0, 3435.0, 3435.0, 3435.0, 3435.0, 3435.0, 3435.0, 3435.0, 3435.0, 3435.0, 3435.0, 3435.0, 3435.0, 3435.0, 3435.0, 3435.0, 3434.0, 3435.0, 3434.0, 3434.0, 3434.0, 3434.0, 3434.0, 3434.0, 3434.0, 3434.0, 3434.0, 3434.0, 3434.0, 3434.0, 3435.0, 3434.0, 3434.0, 3434.0, 3434.0, 3434.0, 3434.0, 3434.0, 3434.0, 3434.0, 3434.0, 3434.0, 3434.0, 3434.0, 3434.0, 3434.0, 3434.0, 3433.0, 3433.0, 3434.0, 3433.0, 3434.0, 3433.0, 3433.0, 3433.0, 3434.0, 3433.0, 3433.0, 3433.0, 3433.0, 3433.0, 3433.0, 3433.0, 3434.0, 3433.0, 3433.0, 3433.0, 3433.0, 3433.0, 3433.0, 3433.0, 3433.0, 3433.0, 3433.0, 3433.0, 3433.0, 3433.0, 3433.0, 3432.0, 3432.0, 3432.0, 3432.0, 3432.0, 3432.0, 3432.0, 3432.0, 3432.0, 3432.0, 3432.0, 3432.0, 3432.0, 3432.0, 3432.0, 3432.0, 3432.0, 3432.0, 3432.0, 3432.0, 3432.0, 3432.0, 3432.0, 3432.0, 3432.0, 3432.0, 3431.0, 3431.0, 3432.0, 3431.0, 3432.0, 3432.0, 3431.0, 3431.0, 3431.0, 3431.0, 3431.0, 3431.0, 3431.0, 3431.0, 3431.0, 3431.0, 3431.0, 3431.0, 3431.0, 3431.0, 3431.0, 3431.0, 3431.0, 3431.0, 3431.0, 3431.0, 3431.0, 3431.0, 3431.0, 3431.0, 3431.0, 3431.0, 3431.0, 3430.0, 3431.0, 3431.0, 3431.0, 3431.0, 3430.0, 3430.0, 3430.0, 3430.0, 3430.0, 3430.0, 3430.0, 3430.0, 3430.0, 3430.0, 3430.0, 3430.0, 3430.0, 3430.0, 3430.0, 3430.0, 3430.0, 3430.0, 3430.0, 3430.0, 3429.0, 3429.0, 3430.0, 3430.0, 3430.0, 3430.0]
    },
    "slices": {}
  }
}