{
  "AcquisitionMatrixPE": 80,
  "AcquisitionNumber": 1,
  "AcquisitionTime": "09:34:27.852500",
  "BandwidthPerPixelPhaseEncode": 48.077,
  "BaseResolution": 80,
  "BodyPartExamined": "BRAIN",
  "CoilCombinationMethod": "Sum of Squares",
  "ConsistencyInfo": "N4_VE11E_LATEST_20181129",
  "ConversionSoftware": "dcm2niix",
  "ConversionSoftwareVersion": "v1.0.20220720",
  "DerivedVendorReportedEchoSpacing": 0.000519999,
  "DeviceSerialNumber": "66112",
  "DwellTime": 2.7e-06,
  "EchoTime": 0.035,
  "EchoTrainLength": 39,
  "EffectiveEchoSpacing": 0.00026,
  "FlipAngle": 90,
  "HeudiconvVersion": "0.13.1",
  "ImageOrientationPatientDICOM": [0.990807, -0.13523, 0.00371121, 0.12798, 0.945875, 0.29823],
  "ImageOrientationText": "Tra>Cor(17.2)>Sag(2.5)",
  "ImageType": [
    "ORIGINAL",
    "PRIMARY",
    "M",
    "ND",
    "NORM",
    "MOSAIC"
],
  "ImagingFrequency": 123.259,
  "InPlanePhaseEncodingDirectionDICOM": "COL",
  "InstitutionAddress": "Maynard 3,Hanover,NH,US,03755",
  "InstitutionName": "Dartmouth College - PBS",
  "InstitutionalDepartmentName": "Department",
  "MRAcquisitionType": "2D",
  "MagneticFieldStrength": 3,
  "Manufacturer": "Siemens",
  "ManufacturersModelName": "Prisma",
  "MatrixCoilMode": "GRAPPA",
  "Modality": "MR",
  "NonlinearGradientCorrection": false,
  "ParallelReductionFactorInPlane": 2,
  "PartialFourier": 1,
  "PatientPosition": "HFS",
  "PercentPhaseFOV": 100,
  "PercentSampling": 100,
  "PhaseEncodingDirection": "j-",
  "PhaseEncodingSteps": 79,
  "PhaseResolution": 1,
  "PixelBandwidth": 2315,
  "ProcedureStepDescription": "dbic^QA",
  "ProtocolName": "func-bold_task-rest_acq-p2",
  "PulseSequenceDetails": "%SiemensSeq%\\ep2d_bold",
  "ReceiveCoilActiveElements": "HEA;HEP",
  "ReceiveCoilName": "Head_32",
  "ReconMatrixPE": 80,
  "RefLinesPE": 24,
  "RepetitionTime": 2,
  "SAR": 0.0470344,
  "ScanOptions": "FS",
  "ScanningSequence": "EP",
  "SequenceName": "*epfid2d1_80",
  "SequenceVariant": "SK",
  "SeriesDescription": "func-bold_task-rest_acq-p2",
  "SeriesNumber": 5,
  "ShimSetting": [4215, -7747, -7504, -49, -147, 13, 23, 62],
  "SliceThickness": 3.5,
  "SliceTiming": [0.99, 0, 1.055, 0.065, 1.12, 0.13, 1.1875, 0.1975, 1.2525, 0.2625, 1.3175, 0.33, 1.385, 0.395, 1.45, 0.46, 1.5175, 0.5275, 1.5825, 0.5925, 1.6475, 0.66, 1.715, 0.725, 1.78, 0.79, 1.8475, 0.8575, 1.9125, 0.9225],
  "SoftwareVersions": "syngo MR E11",
  "SpacingBetweenSlices": 3.99,
  "StationName": "AWP66112",
  "TaskName": "rest",
  "TotalReadoutTime": 0.02054,
  "TxRefAmp": 224.508,
  "dcmmeta_affine": [
    [-2.972421884536743, 0.38394036889076233, 0.17492100596427917, 101.37088775634766],
    [0.4056891202926636, 2.8376259803771973, 1.1771026849746704, -143.39830017089844],
    [0.011133624240756035, -0.8946890830993652, 3.8084027767181396, -23.976638793945312],
    [0.0, 0.0, 0.0, 1.0]
],
  "dcmmeta_reorient_transform": [
    [0.0, -1.0, 0.0, 79.0],
    [1.0, 0.0, 0.0, 0.0],
    [0.0, 0.0, 1.0, 0.0],
    [0.0, 0.0, 0.0, 1.0]
],
  "dcmmeta_shape": [80, 80, 30, 200],
  "dcmmeta_slice_dim": 2,
  "dcmmeta_version": 0.6,
  "global": {
    "const": {
      "AccessionNumber": "qa",
      "AcquisitionMatrix": [80, 0, 0, 80],
      "AngioFlag": "N",
      "BitsAllocated": 16,
      "BitsStored": 12,
      "BodyPartExamined": "BRAIN",
      "Columns": 480,
      "EchoNumbers": 1,
      "EchoTime": 35.0,
      "EchoTrainLength": 39,
      "FlipAngle": 90.0,
      "HighBit": 11,
      "ImageOrientationPatient": [0.99080732459356, -0.1352297026036, 0.00371120809258, 0.12798012668357, 0.94587532849652, 0.29822969355124],
      "ImagePositionPatient": [-802.97464515444, -567.16152994895, -275.8216168166],
      "ImageType": [
        "ORIGINAL",
        "PRIMARY",
        "M",
        "ND",
        "NORM",
        "MOSAIC"
],
      "ImagedNucleus": "1H",
      "ImagingFrequency": 123.259104,
      "InPlanePhaseEncodingDirection": "COL",
      "MRAcquisitionType": "2D",
      "MagneticFieldStrength": 3.0,
      "Manufacturer": "SIEMENS",
      "ManufacturerModelName": "Prisma",
      "Modality": "MR",
      "NumberOfAverages": 1.0,
      "NumberOfPhaseEncodingSteps": 79,
      "PercentPhaseFieldOfView": 100.0,
      "PercentSampling": 100.0,
      "PerformedProcedureStepStartTime": "092641.239000",
      "PhotometricInterpretation": "MONOCHROME2",
      "PixelBandwidth": 2315.0,
      "PixelRepresentation": 0,
      "PixelSpacing": [3.0, 3.0],
      "ProtocolName": "func-bold_task-rest_acq-p2",
      "RepetitionTime": 2000.0,
      "Rows": 480,
      "SAR": 0.04703435511017,
      "SamplesPerPixel": 1,
      "ScanOptions": "FS",
      "ScanningSequence": "EP",
      "SequenceName": "*epfid2d1_80",
      "SequenceVariant": "SK",
      "SeriesDescription": "func-bold_task-rest_acq-p2",
      "SeriesNumber": 5,
      "SeriesTime": "093509.637000",
      "SliceLocation": -60.74569454255,
      "SliceThickness": 3.5,
      "SmallestImagePixelValue": 0,
      "SoftwareVersions": "syngo MR E11",
      "SpacingBetweenSlices": 3.9899999589056,
      "SpecificCharacterSet": "ISO_IR 100",
      "StudyID": "27",
      "StudyTime": "092641.177000",
      "TransmitCoilName": "Body",
      "VariableFlipAngleFlag": "N",
      "WindowCenterWidthExplanation": "Algo1"
    },
    "slices": {}
  },
  "time": {
    "samples": {
      "AcquisitionNumber": [1, 2, 3, 4, 5, 6, 7, 8, 9, 10, 11, 12, 13, 14, 15, 16, 17, 18, 19, 20, 21, 22, 23, 24, 25, 26, 27, 28, 29, 30, 31, 32, 33, 34, 35, 36, 37, 38, 39, 40, 41, 42, 43, 44, 45, 46, 47, 48, 49, 50, 51, 52, 53, 54, 55, 56, 57, 58, 59, 60, 61, 62, 63, 64, 65, 66, 67, 68, 69, 70, 71, 72, 73, 74, 75, 76, 77, 78, 79, 80, 81, 82, 83, 84, 85, 86, 87, 88, 89, 90, 91, 92, 93, 94, 95, 96, 97, 98, 99, 100, 101, 102, 103, 104, 105, 106, 107, 108, 109, 110, 111, 112, 113, 114, 115, 116, 117, 118, 119, 120, 121, 122, 123, 124, 125, 126, 127, 128, 129, 130, 131, 132, 133, 134, 135, 136, 137, 138, 139, 140, 141, 142, 143, 144, 145, 146, 147, 148, 149, 150, 151, 152, 153, 154, 155, 156, 157, 158, 159, 160, 161, 162, 163, 164, 165, 166, 167, 168, 169, 170, 171, 172, 173, 174, 175, 176, 177, 178, 179, 180, 181, 182, 183, 184, 185, 186, 187, 188, 189, 190, 191, 192, 193, 194, 195, 196, 197, 198, 199, 200],
      "AcquisitionTime": ["093427.852500", "093429.852500", "093431.852500", "093433.852500", "093435.852500", "093437.852500", "093439.852500", "093441.852500", "093443.852500", "093445.852500", "093447.852500", "093449.852500", "093451.852500", "093453.852500", "093455.852500", "093457.852500", "093459.852500", "093501.852500", "093503.852500", "093505.852500", "093507.852500", "093509.852500", "093511.852500", "093513.852500", "093515.852500", "093517.852500", "093519.852500", "093521.852500", "093523.852500", "093525.852500", "093527.852500", "093529.852500", "093531.852500", "093533.852500", "093535.852500", "093537.852500", "093539.852500", "093541.852500", "093543.852500", "093545.852500", "093547.852500", "093549.852500", "093551.852500", "093553.852500", "093555.852500", "093557.852500", "093559.852500", "093601.852500", "093603.852500", "093605.852500", "093607.852500", "093609.852500", "093611.852500", "093613.852500", "093615.852500", "093617.852500", "093619.852500", "093621.852500", "093623.852500", "093625.852500", "093627.852500", "093629.852500", "093631.852500", "093633.852500", "093635.852500", "093637.852500", "093639.852500", "093641.852500", "093643.852500", "093645.852500", "093647.852500", "093649.852500", "093651.852500", "093653.852500", "093655.852500", "093657.852500", "093659.852500", "093701.852500", "093703.852500", "093705.852500", "093707.852500", "093709.852500", "093711.852500", "093713.852500", "093715.852500", "093717.852500", "093719.852500", "093721.852500", "093723.852500", "093725.852500", "093727.852500", "093729.852500", "093731.852500", "093733.852500", "093735.852500", "093737.852500", "093739.852500", "093741.852500", "093743.852500", "093745.852500", "093747.852500", "093749.852500", "093751.852500", "093753.852500", "093755.852500", "093757.852500", "093759.852500", "093801.852500", "093803.852500", "093805.852500", "093807.852500", "093809.852500", "093811.852500", "093813.852500", "093815.852500", "093817.852500", "093819.852500", "093821.852500", "093823.852500", "093825.852500", "093827.852500", "093829.852500", "093831.852500", "093833.852500", "093835.852500", "093837.852500", "093839.852500", "093841.852500", "093843.852500", "093845.852500", "093847.852500", "093849.852500", "093851.852500", "093853.852500", "093855.852500", "093857.852500", "093859.852500", "093901.852500", "093903.852500", "093905.852500", "093907.852500", "093909.852500", "093911.852500", "093913.852500", "093915.852500", "093917.852500", "093919.852500", "093921.852500", "093923.852500", "093925.852500", "093927.852500", "093929.852500", "093931.852500", "093933.852500", "093935.852500", "093937.852500", "093939.852500", "093941.852500", "093943.852500", "093945.852500", "093947.852500", "093949.852500", "093951.852500", "093953.852500", "093955.852500", "093957.852500", "093959.852500", "094001.852500", "094003.852500", "094005.852500", "094007.852500", "094009.852500", "094011.852500", "094013.852500", "094015.852500", "094017.852500", "094019.852500", "094021.852500", "094023.852500", "094025.852500", "094027.852500", "094029.852500", "094031.852500", "094033.852500", "094035.852500", "094037.852500", "094039.852500", "094041.852500", "094043.852500", "094045.852500", "094047.852500", "094049.852500", "094051.852500", "094053.852500", "094055.852500", "094057.852500", "094059.852500", "094101.852500", "094103.852500", "094105.852500"],
      "ContentTime": ["093509.640000", "093509.643000", "093509.646000", "093509.648000", "093509.650000", "093509.653000", "093509.655000", "093509.657000", "093509.659000", "093509.662000", "093509.664000", "093509.666000", "093509.669000", "093509.671000", "093509.673000", "093509.676000", "093509.678000", "093509.680000", "093509.683000", "093509.685000", "093549.636000", "093549.639000", "093549.641000", "093549.643000", "093549.646000", "093549.648000", "093549.650000", "093549.653000", "093549.655000", "093549.657000", "093549.660000", "093549.662000", "093549.664000", "093549.667000", "093549.669000", "093549.671000", "093549.674000", "093549.676000", "093549.678000", "093549.680000", "093629.636000", "093629.639000", "093629.641000", "093629.643000", "093629.646000", "093629.648000", "093629.650000", "093629.653000", "093629.655000", "093629.657000", "093629.660000", "093629.662000", "093629.664000", "093629.667000", "093629.669000", "093629.671000", "093629.674000", "093629.676000", "093629.679000", "093629.681000", "093709.636000", "093709.639000", "093709.641000", "093709.644000", "093709.646000", "093709.648000", "093709.650000", "093709.653000", "093709.655000", "093709.657000", "093709.660000", "093709.662000", "093709.664000", "093709.666000", "093709.669000", "093709.671000", "093709.673000", "093709.676000", "093709.678000", "093709.680000", "093749.636000", "093749.639000", "093749.641000", "093749.643000", "093749.646000", "093749.648000", "093749.651000", "093749.653000", "093749.655000", "093749.658000", "093749.660000", "093749.662000", "093749.665000", "093749.667000", "093749.669000", "093749.672000", "093749.674000", "093749.676000", "093749.678000", "093749.681000", "093829.636000", "093829.639000", "093829.641000", "093829.644000", "093829.646000", "093829.648000", "093829.651000", "093829.653000", "093829.656000", "093829.658000", "093829.660000", "093829.662000", "093829.665000", "093829.667000", "093829.669000", "093829.672000", "093829.674000", "093829.676000", "093829.679000", "093829.681000", "093909.636000", "093909.639000", "093909.641000", "093909.643000", "093909.646000", "093909.648000", "093909.650000", "093909.653000", "093909.655000", "093909.657000", "093909.660000", "093909.662000", "093909.664000", "093909.667000", "093909.669000", "093909.671000", "093909.674000", "093909.676000", "093909.678000", "093909.680000", "093949.635000", "093949.638000", "093949.640000", "093949.643000", "093949.645000", "093949.647000", "093949.650000", "093949.652000", "093949.687000", "093949.689000", "093949.691000", "093949.694000", "093949.696000", "093949.698000", "093949.700000", "093949.703000", "093949.705000", "093949.707000", "093949.710000", "093949.712000", "094029.636000", "094029.639000", "094029.641000", "094029.643000", "094029.646000", "094029.648000", "094029.650000", "094029.653000", "094029.655000", "094029.657000", "094029.660000", "094029.662000", "094029.664000", "094029.667000", "094029.669000", "094029.671000", "094029.674000", "094029.676000", "094029.678000", "094029.680000", "094107.816000", "094107.818000", "094107.821000", "094107.823000", "094107.825000", "094107.828000", "094107.830000", "094107.832000", "094107.835000", "094107.837000", "094107.840000", "094107.842000", "094107.844000", "094107.847000", "094107.849000", "094107.851000", "094107.854000", "094107.860000", "094107.868000", "094107.873000"],
      "InstanceCreationTime": ["093509.640000", "093509.643000", "093509.646000", "093509.648000", "093509.650000", "093509.653000", "093509.655000", "093509.657000", "093509.659000", "093509.662000", "093509.664000", "093509.666000", "093509.669000", "093509.671000", "093509.673000", "093509.676000", "093509.678000", "093509.680000", "093509.683000", "093509.685000", "093549.636000", "093549.639000", "093549.641000", "093549.643000", "093549.646000", "093549.648000", "093549.650000", "093549.653000", "093549.655000", "093549.657000", "093549.660000", "093549.662000", "093549.664000", "093549.667000", "093549.669000", "093549.671000", "093549.674000", "093549.676000", "093549.678000", "093549.680000", "093629.636000", "093629.639000", "093629.641000", "093629.643000", "093629.646000", "093629.648000", "093629.650000", "093629.653000", "093629.655000", "093629.657000", "093629.660000", "093629.662000", "093629.664000", "093629.667000", "093629.669000", "093629.671000", "093629.674000", "093629.676000", "093629.679000", "093629.681000", "093709.636000", "093709.639000", "093709.641000", "093709.644000", "093709.646000", "093709.648000", "093709.650000", "093709.653000", "093709.655000", "093709.657000", "093709.660000", "093709.662000", "093709.664000", "093709.666000", "093709.669000", "093709.671000", "093709.673000", "093709.676000", "093709.678000", "093709.680000", "093749.636000", "093749.639000", "093749.641000", "093749.643000", "093749.646000", "093749.648000", "093749.651000", "093749.653000", "093749.655000", "093749.658000", "093749.660000", "093749.662000", "093749.665000", "093749.667000", "093749.669000", "093749.672000", "093749.674000", "093749.676000", "093749.678000", "093749.681000", "093829.636000", "093829.639000", "093829.641000", "093829.644000", "093829.646000", "093829.648000", "093829.651000", "093829.653000", "093829.656000", "093829.658000", "093829.660000", "093829.662000", "093829.665000", "093829.667000", "093829.669000", "093829.672000", "093829.674000", "093829.676000", "093829.679000", "093829.681000", "093909.636000", "093909.639000", "093909.641000", "093909.643000", "093909.646000", "093909.648000", "093909.650000", "093909.653000", "093909.655000", "093909.657000", "093909.660000", "093909.662000", "093909.664000", "093909.667000", "093909.669000", "093909.671000", "093909.674000", "093909.676000", "093909.678000", "093909.680000", "093949.635000", "093949.638000", "093949.640000", "093949.643000", "093949.645000", "093949.647000", "093949.650000", "093949.652000", "093949.687000", "093949.689000", "093949.691000", "093949.694000", "093949.696000", "093949.698000", "093949.700000", "093949.703000", "093949.705000", "093949.707000", "093949.710000", "093949.712000", "094029.636000", "094029.639000", "094029.641000", "094029.643000", "094029.646000", "094029.648000", "094029.650000", "094029.653000", "094029.655000", "094029.657000", "094029.660000", "094029.662000", "094029.664000", "094029.667000", "094029.669000", "094029.671000", "094029.674000", "094029.676000", "094029.678000", "094029.680000", "094107.816000", "094107.818000", "094107.821000", "094107.823000", "094107.825000", "094107.828000", "094107.830000", "094107.832000", "094107.835000", "094107.837000", "094107.840000", "094107.842000", "094107.844000", "094107.847000", "094107.849000", "094107.851000", "094107.854000", "094107.860000", "094107.868000", "094107.873000"],
      "InstanceNumber": [1, 2, 3, 4, 5, 6, 7, 8, 9, 10, 11, 12, 13, 14, 15, 16, 17, 18, 19, 20, 21, 22, 23, 24, 25, 26, 27, 28, 29, 30, 31, 32, 33, 34, 35, 36, 37, 38, 39, 40, 41, 42, 43, 44, 45, 46, 47, 48, 49, 50, 51, 52, 53, 54, 55, 56, 57, 58, 59, 60, 61, 62, 63, 64, 65, 66, 67, 68, 69, 70, 71, 72, 73, 74, 75, 76, 77, 78, 79, 80, 81, 82, 83, 84, 85, 86, 87, 88, 89, 90, 91, 92, 93, 94, 95, 96, 97, 98, 99, 100, 101, 102, 103, 104, 105, 106, 107, 108, 109, 110, 111, 112, 113, 114, 115, 116, 117, 118, 119, 120, 121, 122, 123, 124, 125, 126, 127, 128, 129, 130, 131, 132, 133, 134, 135, 136, 137, 138, 139, 140, 141, 142, 143, 144, 145, 146, 147, 148, 149, 150, 151, 152, 153, 154, 155, 156, 157, 158, 159, 160, 161, 162, 163, 164, 165, 166, 167, 168, 169, 170, 171, 172, 173, 174, 175, 176, 177, 178, 179, 180, 181, 182, 183, 184, 185, 186, 187, 188, 189, 190, 191, 192, 193, 194, 195, 196, 197, 198, 199, 200],
      "LargestImagePixelValue": [2291, 2290, 2292, 2297, 2294, 2289, 2293, 2295, 2289, 2292, 2294, 2292, 2291, 2293, 2292, 2292, 2293, 2293, 2293, 2296, 2295, 2291, 2290, 2291, 2292, 2291, 2292, 2291, 2295, 2291, 2291, 2289, 2294, 2293, 2293, 2295, 2293, 2295, 2297, 2292, 2297, 2296, 2300, 2298, 2298, 2290, 2293, 2295, 2298, 2300, 2294, 2293, 2295, 2296, 2291, 2290, 2294, 2297, 2293, 2296, 2291, 2293, 2294, 2301, 2293, 2302, 2295, 2297, 2294, 2296, 2292, 2294, 2294, 2295, 2301, 2292, 2295, 2294, 2292, 2295, 2295, 2298, 2293, 2301, 2293, 2292, 2296, 2293, 2297, 2297, 2295, 2297, 2300, 2296, 2295, 2296, 2298, 2295, 2297, 2292, 2296, 2292, 2295, 2297, 2295, 2295, 2292, 2292, 2298, 2293, 2296, 2293, 2297, 2297, 2298, 2296, 2297, 2295, 2289, 2293, 2292, 2293, 2298, 2293, 2302, 2292, 2303, 2292, 2294, 2297, 2296, 2300, 2299, 2296, 2298, 2292, 2294, 2298, 2293, 2295, 2293, 2299, 2297, 2294, 2297, 2293, 2298, 2295, 2293, 2291, 2299, 2303, 2295, 2294, 2299, 2291, 2298, 2295, 2296, 2293, 2300, 2299, 2299, 2297, 2297, 2292, 2294, 2297, 2299, 2294, 2300, 2295, 2297, 2296, 2296, 2295, 2290, 2296, 2295, 2298, 2300, 2303, 2295, 2300, 2300, 2298, 2292, 2295, 2295, 2297, 2297, 2296, 2301, 2293, 2299, 2302, 2296, 2291, 2297, 2297],
      "WindowCenter": [1063.0, 1063.0, 1063.0, 1062.0, 1063.0, 1063.0, 1062.0, 1062.0, 1062.0, 1062.0, 1062.0, 1062.0, 1062.0, 1062.0, 1062.0, 1062.0, 1062.0, 1062.0, 1062.0, 1062.0, 1062.0, 1062.0, 1062.0, 1062.0, 1062.0, 1062.0, 1062.0, 1062.0, 1062.0, 1062.0, 1062.0, 1062.0, 1062.0, 1062.0, 1062.0, 1062.0, 1062.0, 1062.0, 1062.0, 1062.0, 1062.0, 1062.0, 1062.0, 1062.0, 1062.0, 1062.0, 1062.0, 1062.0, 1062.0, 1062.0, 1062.0, 1062.0, 1062.0, 1062.0, 1062.0, 1062.0, 1062.0, 1062.0, 1062.0, 1062.0, 1062.0, 1062.0, 1062.0, 1062.0, 1062.0, 1062.0, 1062.0, 1062.0, 1062.0, 1062.0, 1062.0, 1062.0, 1062.0, 1062.0, 1062.0, 1062.0, 1062.0, 1062.0, 1062.0, 1062.0, 1062.0, 1062.0, 1062.0, 1062.0, 1062.0, 1062.0, 1062.0, 1062.0, 1062.0, 1062.0, 1062.0, 1062.0, 1062.0, 1062.0, 1062.0, 1062.0, 1062.0, 1062.0, 1062.0, 1062.0, 1062.0, 1062.0, 1062.0, 1062.0, 1062.0, 1062.0, 1062.0, 1062.0, 1062.0, 1062.0, 1062.0, 1062.0, 1062.0, 1062.0, 1062.0, 1062.0, 1062.0, 1062.0, 1062.0, 1062.0, 1062.0, 1062.0, 1062.0, 1062.0, 1062.0, 1062.0, 1062.0, 1062.0, 1062.0, 1062.0, 1062.0, 1062.0, 1062.0, 1062.0, 1062.0, 1062.0, 1062.0, 1062.0, 1062.0, 1062.0, 1062.0, 1062.0, 1062.0, 1062.0, 1062.0, 1062.0, 1062.0, 1062.0, 1062.0, 1062.0, 1062.0, 1061.0, 1062.0, 1062.0, 1062.0, 1062.0, 1062.0, 1062.0, 1062.0, 1062.0, 1062.0, 1061.0, 1061.0, 1062.0, 1062.0, 1062.0, 1062.0, 1062.0, 1062.0, 1061.0, 1062.0, 1062.0, 1062.0, 1062.0, 1062.0, 1062.0, 1062.0, 1061.0, 1061.0, 1062.0, 1061.0, 1062.0, 1061.0, 1062.0, 1062.0, 1061.0, 1062.0, 1061.0, 1061.0, 1061.0, 1062.0, 1061.0, 1061.0, 1061.0, 1061.0, 1061.0, 1061.0, 1061.0, 1061.0, 1061.0],
      "WindowWidth": [2395.0, 2395.0, 2395.0, 2395.0, 2395.0, 2395.0, 2395.0, 2395.0, 2395.0, 2395.0, 2395.0, 2395.0, 2395.0, 2395.0, 2395.0, 2394.0, 2395.0, 2395.0, 2395.0, 2395.0, 2395.0, 2394.0, 2394.0, 2394.0, 2394.0, 2394.0, 2394.0, 2394.0, 2394.0, 2394.0, 2394.0, 2394.0, 2394.0, 2394.0, 2394.0, 2394.0, 2394.0, 2394.0, 2394.0, 2394.0, 2394.0, 2394.0, 2394.0, 2394.0, 2394.0, 2394.0, 2394.0, 2394.0, 2394.0, 2394.0, 2394.0, 2394.0, 2394.0, 2394.0, 2394.0, 2394.0, 2394.0, 2394.0, 2394.0, 2394.0, 2394.0, 2394.0, 2394.0, 2394.0, 2394.0, 2394.0, 2394.0, 2394.0, 2394.0, 2394.0, 2394.0, 2394.0, 2394.0, 2394.0, 2394.0, 2394.0, 2394.0, 2394.0, 2394.0, 2394.0, 2394.0, 2394.0, 2394.0, 2394.0, 2394.0, 2394.0, 2394.0, 2394.0, 2394.0, 2394.0, 2394.0, 2394.0, 2394.0, 2394.0, 2393.0, 2394.0, 2394.0, 2394.0, 2394.0, 2394.0, 2394.0, 2394.0, 2394.0, 2394.0, 2394.0, 2394.0, 2394.0, 2393.0, 2394.0, 2394.0, 2394.0, 2393.0, 2393.0, 2393.0, 2393.0, 2393.0, 2393.0, 2393.0, 2393.0, 2393.0, 2393.0, 2393.0, 2393.0, 2393.0, 2393.0, 2393.0, 2393.0, 2393.0, 2393.0, 2393.0, 2393.0, 2393.0, 2393.0, 2393.0, 2393.0, 2393.0, 2393.0, 2394.0, 2393.0, 2393.0, 2393.0, 2393.0, 2393.0, 2393.0, 2393.0, 2393.0, 2393.0, 2393.0, 2393.0, 2393.0, 2393.0, 2393.0, 2393.0, 2393.0, 2393.0, 2393.0, 2393.0, 2393.0, 2393.0, 2393.0, 2393.0, 2393.0, 2393.0, 2393.0, 2393.0, 2393.0, 2393.0, 2393.0, 2393.0, 2393.0, 2393.0, 2393.0, 2393.0, 2393.0, 2393.0, 2393.0, 2393.0, 2393.0, 2393.0, 2393.0, 2393.0, 2393.0, 2393.0, 2393.0, 2393.0, 2393.0, 2393.0, 2393.0, 2393.0, 2393.0, 2393.0, 2393.0, 2393.0, 2393.0, 2393.0, 2393.0, 2393.0, 2393.0, 2393.0, 2393.0]
    },
    "slices": {}
  }
}