{
  "AcquisitionMatrixPE": 80,
  "AcquisitionNumber": 1,
  "AcquisitionTime": "09:48:12.432500",
  "BandwidthPerPixelPhaseEncode": 25,
  "BaseResolution": 80,
  "BodyPartExamined": "BRAIN",
  "CoilCombinationMethod": "Sum of Squares",
  "ConsistencyInfo": "N4_VE11E_LATEST_20181129",
  "ConversionSoftware": "dcm2niix",
  "ConversionSoftwareVersion": "v1.0.20220720",
  "DerivedVendorReportedEchoSpacing": 0.0005,
  "DeviceSerialNumber": "66112",
  "DwellTime": 2.7e-06,
  "EchoTime": 0.03,
  "EchoTrainLength": 80,
  "EffectiveEchoSpacing": 0.0005,
  "FlipAngle": 77,
  "HeudiconvVersion": "0.13.1",
  "ImageOrientationPatientDICOM": [0.990807, -0.13523, 0.00371121, 0.12798, 0.945875, 0.29823],
  "ImageOrientationText": "Tra>Cor(17.2)>Sag(2.5)",
  "ImageType": [
    "ORIGINAL",
    "PRIMARY",
    "M",
    "ND",
    "NORM",
    "MOSAIC"
],
  "ImagingFrequency": 123.259,
  "InPlanePhaseEncodingDirectionDICOM": "COL",
  "InstitutionAddress": "Maynard 3,Hanover,NH,US,03755",
  "InstitutionName": "Dartmouth College - PBS",
  "InstitutionalDepartmentName": "Department",
  "MRAcquisitionType": "2D",
  "MagneticFieldStrength": 3,
  "Manufacturer": "Siemens",
  "ManufacturersModelName": "Prisma",
  "MatrixCoilMode": "SENSE",
  "Modality": "MR",
  "NonlinearGradientCorrection": false,
  "PartialFourier": 1,
  "PatientPosition": "HFS",
  "PercentPhaseFOV": 100,
  "PercentSampling": 100,
  "PhaseEncodingDirection": "j-",
  "PhaseEncodingSteps": 80,
  "PhaseResolution": 1,
  "PixelBandwidth": 2315,
  "ProcedureStepDescription": "dbic^QA",
  "ProtocolName": "func-bold_fa-77",
  "PulseSequenceDetails": "%SiemensSeq%\\ep2d_bold",
  "ReceiveCoilActiveElements": "HEA;HEP",
  "ReceiveCoilName": "Head_32",
  "ReconMatrixPE": 80,
  "RepetitionTime": 2,
  "SAR": 0.0369619,
  "ScanOptions": "FS",
  "ScanningSequence": "EP",
  "SequenceName": "*epfid2d1_80",
  "SequenceVariant": "SK",
  "SeriesDescription": "func-bold_fa-77",
  "SeriesNumber": 7,
  "ShimSetting": [4215, -7747, -7504, -44, -149, 16, 24, 62],
  "SliceThickness": 3.5,
  "SliceTiming": [0.99, 0, 1.0575, 0.0675, 1.1225, 0.1325, 1.1875, 0.1975, 1.255, 0.265, 1.32, 0.33, 1.3875, 0.3975, 1.4525, 0.4625, 1.5175, 0.5275, 1.585, 0.595, 1.65, 0.66, 1.715, 0.7275, 1.7825, 0.7925, 1.8475, 0.8575, 1.915, 0.925],
  "SoftwareVersions": "syngo MR E11",
  "SpacingBetweenSlices": 3.99,
  "StationName": "AWP66112",
  "TotalReadoutTime": 0.0395,
  "TxRefAmp": 224.508,
  "dcmmeta_affine": [
    [-2.972421884536743, 0.38394036889076233, 0.17492100596427917, 101.29557037353516],
    [0.4056891202926636, 2.8376259803771973, 1.1771026849746704, -144.1212921142578],
    [0.011133624240756035, -0.8946890830993652, 3.8084027767181396, -17.708065032958984],
    [0.0, 0.0, 0.0, 1.0]
],
  "dcmmeta_reorient_transform": [
    [0.0, -1.0, 0.0, 79.0],
    [1.0, 0.0, 0.0, 0.0],
    [0.0, 0.0, 1.0, 0.0],
    [0.0, 0.0, 0.0, 1.0]
],
  "dcmmeta_shape": [80, 80, 30, 200],
  "dcmmeta_slice_dim": 2,
  "dcmmeta_version": 0.6,
  "global": {
    "const": {
      "AccessionNumber": "qa",
      "AcquisitionMatrix": [80, 0, 0, 80],
      "AngioFlag": "N",
      "BitsAllocated": 16,
      "BitsStored": 12,
      "BodyPartExamined": "BRAIN",
      "Columns": 480,
      "EchoNumbers": 1,
      "EchoTime": 30.0,
      "EchoTrainLength": 80,
      "FlipAngle": 77.0,
      "HighBit": 11,
      "ImageOrientationPatient": [0.99080732459356, -0.1352297026036, 0.00371120809258, 0.12798012668357, 0.94587532849652, 0.29822969355124],
      "ImagePositionPatient": [-802.89933063265, -566.43854372763, -269.55304305562],
      "ImageType": [
        "ORIGINAL",
        "PRIMARY",
        "M",
        "ND",
        "NORM",
        "MOSAIC"
],
      "ImagedNucleus": "1H",
      "ImagingFrequency": 123.259105,
      "InPlanePhaseEncodingDirection": "COL",
      "MRAcquisitionType": "2D",
      "MagneticFieldStrength": 3.0,
      "Manufacturer": "SIEMENS",
      "ManufacturerModelName": "Prisma",
      "Modality": "MR",
      "NumberOfAverages": 1.0,
      "NumberOfPhaseEncodingSteps": 80,
      "PercentPhaseFieldOfView": 100.0,
      "PercentSampling": 100.0,
      "PerformedProcedureStepStartTime": "092641.239000",
      "PhotometricInterpretation": "MONOCHROME2",
      "PixelBandwidth": 2315.0,
      "PixelRepresentation": 0,
      "PixelSpacing": [3.0, 3.0],
      "ProtocolName": "func-bold_fa-77",
      "RepetitionTime": 2000.0,
      "Rows": 480,
      "SAR": 0.03696194277637,
      "SamplesPerPixel": 1,
      "ScanOptions": "FS",
      "ScanningSequence": "EP",
      "SequenceName": "*epfid2d1_80",
      "SequenceVariant": "SK",
      "SeriesDescription": "func-bold_fa-77",
      "SeriesNumber": 7,
      "SeriesTime": "094909.808000",
      "SliceLocation": -54.979015151646,
      "SliceThickness": 3.5,
      "SmallestImagePixelValue": 0,
      "SoftwareVersions": "syngo MR E11",
      "SpacingBetweenSlices": 3.9899999585451,
      "SpecificCharacterSet": "ISO_IR 100",
      "StudyID": "27",
      "StudyTime": "092641.177000",
      "TransmitCoilName": "Body",
      "VariableFlipAngleFlag": "N",
      "WindowCenterWidthExplanation": "Algo1"
    },
    "slices": {}
  },
  "time": {
    "samples": {
      "AcquisitionNumber": [1, 2, 3, 4, 5, 6, 7, 8, 9, 10, 11, 12, 13, 14, 15, 16, 17, 18, 19, 20, 21, 22, 23, 24, 25, 26, 27, 28, 29, 30, 31, 32, 33, 34, 35, 36, 37, 38, 39, 40, 41, 42, 43, 44, 45, 46, 47, 48, 49, 50, 51, 52, 53, 54, 55, 56, 57, 58, 59, 60, 61, 62, 63, 64, 65, 66, 67, 68, 69, 70, 71, 72, 73, 74, 75, 76, 77, 78, 79, 80, 81, 82, 83, 84, 85, 86, 87, 88, 89, 90, 91, 92, 93, 94, 95, 96, 97, 98, 99, 100, 101, 102, 103, 104, 105, 106, 107, 108, 109, 110, 111, 112, 113, 114, 115, 116, 117, 118, 119, 120, 121, 122, 123, 124, 125, 126, 127, 128, 129, 130, 131, 132, 133, 134, 135, 136, 137, 138, 139, 140, 141, 142, 143, 144, 145, 146, 147, 148, 149, 150, 151, 152, 153, 154, 155, 156, 157, 158, 159, 160, 161, 162, 163, 164, 165, 166, 167, 168, 169, 170, 171, 172, 173, 174, 175, 176, 177, 178, 179, 180, 181, 182, 183, 184, 185, 186, 187, 188, 189, 190, 191, 192, 193, 194, 195, 196, 197, 198, 199, 200],
      "AcquisitionTime": ["094812.432500", "094814.432500", "094816.432500", "094818.432500", "094820.432500", "094822.432500", "094824.432500", "094826.432500", "094828.432500", "094830.432500", "094832.432500", "094834.432500", "094836.432500", "094838.432500", "094840.432500", "094842.432500", "094844.432500", "094846.432500", "094848.432500", "094850.432500", "094852.432500", "094854.432500", "094856.432500", "094858.432500", "094900.432500", "094902.432500", "094904.432500", "094906.432500", "094908.432500", "094910.432500", "094912.432500", "094914.432500", "094916.432500", "094918.432500", "094920.432500", "094922.432500", "094924.432500", "094926.432500", "094928.432500", "094930.432500", "094932.432500", "094934.432500", "094936.432500", "094938.432500", "094940.432500", "094942.432500", "094944.432500", "094946.432500", "094948.432500", "094950.432500", "094952.432500", "094954.432500", "094956.432500", "094958.432500", "095000.432500", "095002.432500", "095004.432500", "095006.432500", "095008.432500", "095010.432500", "095012.432500", "095014.432500", "095016.432500", "095018.432500", "095020.432500", "095022.432500", "095024.432500", "095026.432500", "095028.432500", "095030.432500", "095032.432500", "095034.432500", "095036.432500", "095038.432500", "095040.432500", "095042.432500", "095044.432500", "095046.432500", "095048.432500", "095050.432500", "095052.432500", "095054.432500", "095056.432500", "095058.432500", "095100.432500", "095102.432500", "095104.432500", "095106.432500", "095108.432500", "095110.432500", "095112.432500", "095114.432500", "095116.432500", "095118.432500", "095120.432500", "095122.432500", "095124.432500", "095126.432500", "095128.432500", "095130.432500", "095132.432500", "095134.432500", "095136.432500", "095138.432500", "095140.432500", "095142.432500", "095144.432500", "095146.432500", "095148.432500", "095150.432500", "095152.432500", "095154.432500", "095156.432500", "095158.432500", "095200.432500", "095202.432500", "095204.432500", "095206.432500", "095208.432500", "095210.432500", "095212.432500", "095214.432500", "095216.432500", "095218.432500", "095220.432500", "095222.432500", "095224.432500", "095226.432500", "095228.432500", "095230.432500", "095232.432500", "095234.432500", "095236.432500", "095238.432500", "095240.432500", "095242.432500", "095244.432500", "095246.432500", "095248.432500", "095250.432500", "095252.432500", "095254.432500", "095256.432500", "095258.432500", "095300.432500", "095302.432500", "095304.432500", "095306.432500", "095308.432500", "095310.432500", "095312.432500", "095314.432500", "095316.432500", "095318.432500", "095320.432500", "095322.432500", "095324.432500", "095326.432500", "095328.432500", "095330.432500", "095332.432500", "095334.432500", "095336.432500", "095338.432500", "095340.432500", "095342.432500", "095344.432500", "095346.432500", "095348.432500", "095350.432500", "095352.432500", "095354.432500", "095356.432500", "095358.432500", "095400.432500", "095402.432500", "095404.432500", "095406.432500", "095408.432500", "095410.432500", "095412.432500", "095414.432500", "095416.432500", "095418.432500", "095420.432500", "095422.432500", "095424.432500", "095426.432500", "095428.432500", "095430.432500", "095432.432500", "095434.432500", "095436.432500", "095438.432500", "095440.432500", "095442.432500", "095444.432500", "095446.432500", "095448.432500", "095450.432500"],
      "ContentTime": ["094909.812000", "094909.815000", "094909.817000", "094909.819000", "094909.822000", "094909.824000", "094909.826000", "094909.829000", "094909.831000", "094909.833000", "094909.835000", "094909.838000", "094909.840000", "094909.842000", "094909.844000", "094909.847000", "094909.849000", "094909.851000", "094909.853000", "094909.856000", "094909.858000", "094909.860000", "094909.863000", "094909.865000", "094909.867000", "094909.869000", "094909.872000", "094909.874000", "094909.876000", "094949.806000", "094949.809000", "094949.811000", "094949.814000", "094949.816000", "094949.818000", "094949.820000", "094949.823000", "094949.825000", "094949.827000", "094949.829000", "094949.832000", "094949.834000", "094949.836000", "094949.839000", "094949.841000", "094949.843000", "094949.845000", "094949.848000", "094949.850000", "095029.806000", "095029.809000", "095029.811000", "095029.813000", "095029.816000", "095029.818000", "095029.820000", "095029.822000", "095029.825000", "095029.827000", "095029.829000", "095029.831000", "095029.834000", "095029.836000", "095029.838000", "095029.840000", "095029.843000", "095029.845000", "095029.847000", "095029.850000", "095109.806000", "095109.809000", "095109.811000", "095109.814000", "095109.816000", "095109.818000", "095109.821000", "095109.823000", "095109.825000", "095109.828000", "095109.830000", "095109.832000", "095109.834000", "095109.837000", "095109.839000", "095109.841000", "095109.844000", "095109.846000", "095109.848000", "095109.850000", "095149.806000", "095149.809000", "095149.811000", "095149.813000", "095149.816000", "095149.818000", "095149.820000", "095149.823000", "095149.833000", "095149.835000", "095149.837000", "095149.839000", "095149.842000", "095149.844000", "095149.846000", "095149.849000", "095149.851000", "095149.853000", "095149.855000", "095149.858000", "095229.806000", "095229.809000", "095229.811000", "095229.813000", "095229.816000", "095229.818000", "095229.820000", "095229.822000", "095229.825000", "095229.827000", "095229.829000", "095229.832000", "095229.834000", "095229.836000", "095229.838000", "095229.841000", "095229.843000", "095229.845000", "095229.848000", "095229.850000", "095309.806000", "095309.809000", "095309.811000", "095309.813000", "095309.816000", "095309.818000", "095309.820000", "095309.822000", "095309.825000", "095309.827000", "095309.829000", "095309.831000", "095309.834000", "095309.836000", "095309.838000", "095309.840000", "095309.843000", "095309.845000", "095309.847000", "095309.850000", "095329.805000", "095329.808000", "095329.810000", "095329.813000", "095329.815000", "095329.817000", "095329.820000", "095329.822000", "095329.824000", "095329.826000", "095409.806000", "095409.809000", "095409.811000", "095409.813000", "095409.815000", "095409.818000", "095409.820000", "095409.822000", "095409.825000", "095409.827000", "095409.829000", "095409.832000", "095409.834000", "095409.836000", "095409.838000", "095409.841000", "095409.843000", "095409.845000", "095409.848000", "095409.850000", "095449.806000", "095449.809000", "095449.811000", "095449.813000", "095449.816000", "095449.818000", "095449.820000", "095449.822000", "095449.825000", "095449.827000", "095449.829000", "095449.832000", "095449.843000", "095449.845000", "095449.847000", "095449.850000", "095449.852000", "095449.854000", "095449.856000", "095449.859000", "095451.603000"],
      "InstanceCreationTime": ["094909.812000", "094909.815000", "094909.817000", "094909.819000", "094909.822000", "094909.824000", "094909.826000", "094909.829000", "094909.831000", "094909.833000", "094909.835000", "094909.838000", "094909.840000", "094909.842000", "094909.844000", "094909.847000", "094909.849000", "094909.851000", "094909.853000", "094909.856000", "094909.858000", "094909.860000", "094909.863000", "094909.865000", "094909.867000", "094909.869000", "094909.872000", "094909.874000", "094909.876000", "094949.806000", "094949.809000", "094949.811000", "094949.814000", "094949.816000", "094949.818000", "094949.820000", "094949.823000", "094949.825000", "094949.827000", "094949.829000", "094949.832000", "094949.834000", "094949.836000", "094949.839000", "094949.841000", "094949.843000", "094949.845000", "094949.848000", "094949.850000", "095029.806000", "095029.809000", "095029.811000", "095029.813000", "095029.816000", "095029.818000", "095029.820000", "095029.822000", "095029.825000", "095029.827000", "095029.829000", "095029.831000", "095029.834000", "095029.836000", "095029.838000", "095029.840000", "095029.843000", "095029.845000", "095029.847000", "095029.850000", "095109.806000", "095109.809000", "095109.811000", "095109.814000", "095109.816000", "095109.818000", "095109.821000", "095109.823000", "095109.825000", "095109.828000", "095109.830000", "095109.832000", "095109.834000", "095109.837000", "095109.839000", "095109.841000", "095109.844000", "095109.846000", "095109.848000", "095109.850000", "095149.806000", "095149.809000", "095149.811000", "095149.813000", "095149.816000", "095149.818000", "095149.820000", "095149.823000", "095149.833000", "095149.835000", "095149.837000", "095149.839000", "095149.842000", "095149.844000", "095149.846000", "095149.849000", "095149.851000", "095149.853000", "095149.855000", "095149.858000", "095229.806000", "095229.809000", "095229.811000", "095229.813000", "095229.816000", "095229.818000", "095229.820000", "095229.822000", "095229.825000", "095229.827000", "095229.829000", "095229.832000", "095229.834000", "095229.836000", "095229.838000", "095229.841000", "095229.843000", "095229.845000", "095229.848000", "095229.850000", "095309.806000", "095309.809000", "095309.811000", "095309.813000", "095309.816000", "095309.818000", "095309.820000", "095309.822000", "095309.825000", "095309.827000", "095309.829000", "095309.831000", "095309.834000", "095309.836000", "095309.838000", "095309.840000", "095309.843000", "095309.845000", "095309.847000", "095309.850000", "095329.805000", "095329.808000", "095329.810000", "095329.813000", "095329.815000", "095329.817000", "095329.820000", "095329.822000", "095329.824000", "095329.826000", "095409.806000", "095409.809000", "095409.811000", "095409.813000", "095409.815000", "095409.818000", "095409.820000", "095409.822000", "095409.825000", "095409.827000", "095409.829000", "095409.832000", "095409.834000", "095409.836000", "095409.838000", "095409.841000", "095409.843000", "095409.845000", "095409.848000", "095409.850000", "095449.806000", "095449.809000", "095449.811000", "095449.813000", "095449.816000", "095449.818000", "095449.820000", "095449.822000", "095449.825000", "095449.827000", "095449.829000", "095449.832000", "095449.843000", "095449.845000", "095449.847000", "095449.850000", "095449.852000", "095449.854000", "095449.856000", "095449.859000", "095451.603000"],
      "InstanceNumber": [1, 2, 3, 4, 5, 6, 7, 8, 9, 10, 11, 12, 13, 14, 15, 16, 17, 18, 19, 20, 21, 22, 23, 24, 25, 26, 27, 28, 29, 30, 31, 32, 33, 34, 35, 36, 37, 38, 39, 40, 41, 42, 43, 44, 45, 46, 47, 48, 49, 50, 51, 52, 53, 54, 55, 56, 57, 58, 59, 60, 61, 62, 63, 64, 65, 66, 67, 68, 69, 70, 71, 72, 73, 74, 75, 76, 77, 78, 79, 80, 81, 82, 83, 84, 85, 86, 87, 88, 89, 90, 91, 92, 93, 94, 95, 96, 97, 98, 99, 100, 101, 102, 103, 104, 105, 106, 107, 108, 109, 110, 111, 112, 113, 114, 115, 116, 117, 118, 119, 120, 121, 122, 123, 124, 125, 126, 127, 128, 129, 130, 131, 132, 133, 134, 135, 136, 137, 138, 139, 140, 141, 142, 143, 144, 145, 146, 147, 148, 149, 150, 151, 152, 153, 154, 155, 156, 157, 158, 159, 160, 161, 162, 163, 164, 165, 166, 167, 168, 169, 170, 171, 172, 173, 174, 175, 176, 177, 178, 179, 180, 181, 182, 183, 184, 185, 186, 187, 188, 189, 190, 191, 192, 193, 194, 195, 196, 197, 198, 199, 200],
      "LargestImagePixelValue": [2280, 2282, 2281, 2278, 2279, 2280, 2275, 2277, 2276, 2274, 2276, 2276, 2276, 2277, 2279, 2278, 2278, 2280, 2278, 2281, 2281, 2279, 2278, 2283, 2279, 2282, 2284, 2284, 2283, 2286, 2286, 2284, 2280, 2281, 2280, 2277, 2279, 2282, 2279, 2281, 2278, 2281, 2280, 2280, 2281, 2279, 2278, 2280, 2281, 2281, 2282, 2280, 2281, 2280, 2282, 2283, 2280, 2277, 2279, 2284, 2283, 2277, 2278, 2281, 2278, 2282, 2277, 2274, 2275, 2271, 2272, 2275, 2274, 2274, 2276, 2281, 2276, 2281, 2283, 2283, 2279, 2276, 2278, 2274, 2275, 2279, 2281, 2277, 2278, 2284, 2284, 2287, 2282, 2280, 2278, 2276, 2283, 2282, 2277, 2289, 2289, 2282, 2285, 2280, 2284, 2282, 2287, 2284, 2278, 2287, 2283, 2282, 2289, 2283, 2283, 2291, 2278, 2284, 2284, 2281, 2288, 2284, 2288, 2284, 2274, 2287, 2285, 2279, 2281, 2280, 2285, 2286, 2287, 2281, 2279, 2286, 2291, 2287, 2279, 2282, 2288, 2285, 2279, 2285, 2285, 2281, 2284, 2281, 2286, 2286, 2278, 2286, 2285, 2281, 2282, 2286, 2285, 2284, 2287, 2283, 2287, 2285, 2286, 2289, 2282, 2284, 2287, 2282, 2282, 2282, 2284, 2283, 2283, 2283, 2288, 2286, 2282, 2287, 2287, 2285, 2285, 2286, 2286, 2284, 2285, 2284, 2284, 2289, 2285, 2284, 2287, 2285, 2288, 2283, 2285, 2288, 2285, 2283, 2289, 2287],
      "WindowCenter": [1048.0, 1049.0, 1048.0, 1049.0, 1048.0, 1048.0, 1048.0, 1048.0, 1049.0, 1048.0, 1048.0, 1050.0, 1048.0, 1048.0, 1048.0, 1049.0, 1048.0, 1048.0, 1049.0, 1049.0, 1049.0, 1048.0, 1048.0, 1048.0, 1050.0, 1050.0, 1048.0, 1049.0, 1049.0, 1048.0, 1048.0, 1048.0, 1048.0, 1049.0, 1048.0, 1048.0, 1049.0, 1048.0, 1049.0, 1049.0, 1048.0, 1048.0, 1048.0, 1049.0, 1048.0, 1049.0, 1048.0, 1048.0, 1048.0, 1048.0, 1048.0, 1048.0, 1049.0, 1049.0, 1048.0, 1048.0, 1048.0, 1048.0, 1048.0, 1049.0, 1048.0, 1048.0, 1048.0, 1048.0, 1050.0, 1049.0, 1048.0, 1048.0, 1049.0, 1049.0, 1048.0, 1049.0, 1048.0, 1049.0, 1048.0, 1049.0, 1048.0, 1048.0, 1048.0, 1048.0, 1048.0, 1047.0, 1048.0, 1048.0, 1049.0, 1047.0, 1048.0, 1047.0, 1047.0, 1047.0, 1048.0, 1047.0, 1047.0, 1047.0, 1048.0, 1047.0, 1048.0, 1048.0, 1047.0, 1047.0, 1047.0, 1048.0, 1047.0, 1048.0, 1049.0, 1047.0, 1048.0, 1049.0, 1047.0, 1048.0, 1047.0, 1047.0, 1047.0, 1048.0, 1047.0, 1048.0, 1047.0, 1047.0, 1048.0, 1049.0, 1048.0, 1047.0, 1047.0, 1047.0, 1048.0, 1047.0, 1047.0, 1047.0, 1047.0, 1048.0, 1048.0, 1047.0, 1047.0, 1049.0, 1047.0, 1047.0, 1047.0, 1047.0, 1048.0, 1048.0, 1047.0, 1047.0, 1048.0, 1048.0, 1048.0, 1047.0, 1047.0, 1049.0, 1047.0, 1047.0, 1047.0, 1048.0, 1048.0, 1047.0, 1048.0, 1047.0, 1047.0, 1048.0, 1047.0, 1048.0, 1047.0, 1048.0, 1047.0, 1047.0, 1048.0, 1048.0, 1047.0, 1048.0, 1048.0, 1047.0, 1047.0, 1047.0, 1047.0, 1048.0, 1048.0, 1048.0, 1047.0, 1047.0, 1048.0, 1047.0, 1048.0, 1048.0, 1047.0, 1047.0, 1047.0, 1047.0, 1047.0, 1047.0, 1047.0, 1047.0, 1048.0, 1047.0, 1047.0, 1048.0, 1048.0, 1048.0, 1047.0, 1047.0, 1048.0, 1047.0],
      "WindowWidth": [2372.0, 2372.0, 2372.0, 2373.0, 2372.0, 2372.0, 2372.0, 2372.0, 2373.0, 2372.0, 2372.0, 2373.0, 2372.0, 2372.0, 2372.0, 2373.0, 2372.0, 2372.0, 2373.0, 2373.0, 2373.0, 2372.0, 2372.0, 2372.0, 2373.0, 2373.0, 2372.0, 2372.0, 2372.0, 2372.0, 2371.0, 2372.0, 2372.0, 2372.0, 2371.0, 2372.0, 2372.0, 2372.0, 2372.0, 2372.0, 2371.0, 2371.0, 2371.0, 2372.0, 2371.0, 2372.0, 2371.0, 2371.0, 2371.0, 2371.0, 2371.0, 2371.0, 2372.0, 2372.0, 2371.0, 2371.0, 2371.0, 2371.0, 2371.0, 2371.0, 2371.0, 2371.0, 2371.0, 2371.0, 2372.0, 2371.0, 2371.0, 2371.0, 2371.0, 2371.0, 2371.0, 2371.0, 2371.0, 2371.0, 2371.0, 2371.0, 2371.0, 2370.0, 2371.0, 2371.0, 2370.0, 2370.0, 2371.0, 2370.0, 2371.0, 2370.0, 2371.0, 2370.0, 2370.0, 2370.0, 2371.0, 2370.0, 2370.0, 2370.0, 2371.0, 2370.0, 2371.0, 2371.0, 2370.0, 2370.0, 2370.0, 2371.0, 2370.0, 2371.0, 2371.0, 2370.0, 2371.0, 2372.0, 2370.0, 2371.0, 2370.0, 2370.0, 2370.0, 2371.0, 2370.0, 2370.0, 2370.0, 2370.0, 2371.0, 2372.0, 2370.0, 2370.0, 2370.0, 2370.0, 2370.0, 2370.0, 2370.0, 2370.0, 2370.0, 2371.0, 2370.0, 2370.0, 2370.0, 2371.0, 2370.0, 2370.0, 2369.0, 2370.0, 2371.0, 2370.0, 2369.0, 2370.0, 2370.0, 2371.0, 2371.0, 2369.0, 2369.0, 2371.0, 2369.0, 2369.0, 2369.0, 2370.0, 2370.0, 2369.0, 2370.0, 2369.0, 2369.0, 2370.0, 2369.0, 2370.0, 2369.0, 2370.0, 2369.0, 2369.0, 2370.0, 2370.0, 2369.0, 2370.0, 2370.0, 2369.0, 2369.0, 2369.0, 2369.0, 2370.0, 2370.0, 2370.0, 2369.0, 2369.0, 2370.0, 2369.0, 2369.0, 2370.0, 2369.0, 2369.0, 2369.0, 2369.0, 2369.0, 2369.0, 2369.0, 2369.0, 2370.0, 2369.0, 2369.0, 2369.0, 2369.0, 2369.0, 2369.0, 2369.0, 2369.0, 2369.0]
    },
    "slices": {}
  }
}