{
  "AcquisitionMatrixPE": 80,
  "AcquisitionNumber": 1,
  "AcquisitionTime": "09:41:23.072500",
  "BandwidthPerPixelPhaseEncode": 46.296,
  "BaseResolution": 80,
  "BodyPartExamined": "BRAIN",
  "CoilCombinationMethod": "Sum of Squares",
  "ConsistencyInfo": "N4_VE11E_LATEST_20181129",
  "ConversionSoftware": "dcm2niix",
  "ConversionSoftwareVersion": "v1.0.20220720",
  "DerivedVendorReportedEchoSpacing": 0.000540003,
  "DeviceSerialNumber": "66112",
  "DwellTime": 2.7e-06,
  "EchoTime": 0.035,
  "EchoTrainLength": 39,
  "EffectiveEchoSpacing": 0.000270002,
  "FlipAngle": 90,
  "HeudiconvVersion": "0.13.1",
  "ImageOrientationPatientDICOM": [0.990807, -0.13523, 0.00371121, 0.12798, 0.945875, 0.29823],
  "ImageOrientationText": "Tra>Cor(17.2)>Sag(2.5)",
  "ImageType": [
    "ORIGINAL",
    "PRIMARY",
    "M",
    "ND",
    "NORM",
    "MOSAIC"
],
  "ImagingFrequency": 123.259,
  "InPlanePhaseEncodingDirectionDICOM": "COL",
  "InstitutionAddress": "Maynard 3,Hanover,NH,US,03755",
  "InstitutionName": "Dartmouth College - PBS",
  "InstitutionalDepartmentName": "Department",
  "MRAcquisitionType": "2D",
  "MagneticFieldStrength": 3,
  "Manufacturer": "Siemens",
  "ManufacturersModelName": "Prisma",
  "Modality": "MR",
  "MultibandAccelerationFactor": 4,
  "NonlinearGradientCorrection": false,
  "ParallelReductionFactorInPlane": 2,
  "PartialFourier": 1,
  "PatientPosition": "HFS",
  "PercentPhaseFOV": 100,
  "PercentSampling": 100,
  "PhaseEncodingDirection": "j-",
  "PhaseEncodingSteps": 79,
  "PhaseResolution": 1,
  "PixelBandwidth": 2315,
  "ProcedureStepDescription": "dbic^QA",
  "ProtocolName": "func-bold_task-rest_acq-p2-s4-3.5mm",
  "PulseSequenceDetails": "%SiemensSeq%\\ep2d_bold",
  "ReceiveCoilActiveElements": "HEA;HEP",
  "ReceiveCoilName": "Head_32",
  "ReconMatrixPE": 80,
  "RefLinesPE": 24,
  "RepetitionTime": 2,
  "SAR": 0.0176874,
  "ScanOptions": "FS",
  "ScanningSequence": "EP",
  "SequenceName": "*epfid2d1_80",
  "SequenceVariant": "SK",
  "SeriesDescription": "func-bold_task-rest_acq-p2-s4-3.5mm",
  "SeriesNumber": 6,
  "ShimSetting": [4215, -7747, -7504, -43, -148, 12, 23, 62],
  "SliceThickness": 3.5,
  "SliceTiming": [1.485, 0, 0.99, 0.2475, 1.2375, 0.7425, 1.7325, 0.495, 1.485, 0, 0.99, 0.2475, 1.2375, 0.7425, 1.7325, 0.495, 1.485, 0, 0.99, 0.2475, 1.2375, 0.7425, 1.7325, 0.495, 1.485, 0, 0.99, 0.2475, 1.2375, 0.7425, 1.7325, 0.495],
  "SoftwareVersions": "syngo MR E11",
  "SpacingBetweenSlices": 3.99,
  "StationName": "AWP66112",
  "TaskName": "rest",
  "TotalReadoutTime": 0.0213301,
  "TxRefAmp": 224.508,
  "dcmmeta_affine": [
    [-2.972421884536743, 0.38394036889076233, 0.17492100596427917, 101.19596099853516],
    [0.4056891202926636, 2.8376259803771973, 1.1771026849746704, -144.57540893554688],
    [0.011133624240756035, -0.8946890830993652, 3.8084027767181396, -27.78504180908203],
    [0.0, 0.0, 0.0, 1.0]
],
  "dcmmeta_reorient_transform": [
    [0.0, -1.0, 0.0, 79.0],
    [1.0, 0.0, 0.0, 0.0],
    [0.0, 0.0, 1.0, 0.0],
    [0.0, 0.0, 0.0, 1.0]
],
  "dcmmeta_shape": [80, 80, 32, 200],
  "dcmmeta_slice_dim": 2,
  "dcmmeta_version": 0.6,
  "global": {
    "const": {
      "AccessionNumber": "qa",
      "AcquisitionMatrix": [80, 0, 0, 80],
      "AngioFlag": "N",
      "BitsAllocated": 16,
      "BitsStored": 12,
      "BodyPartExamined": "BRAIN",
      "Columns": 480,
      "EchoNumbers": 1,
      "EchoTime": 35.0,
      "EchoTrainLength": 39,
      "FlipAngle": 90.0,
      "HighBit": 11,
      "ImageOrientationPatient": [0.99080732459356, -0.1352297026036, 0.00371120809258, 0.12798012668357, 0.94587532849652, 0.29822969355124],
      "ImagePositionPatient": [-802.79972435709, -565.98442690634, -279.63001983174],
      "ImageType": [
        "ORIGINAL",
        "PRIMARY",
        "M",
        "ND",
        "NORM",
        "MOSAIC"
],
      "ImagedNucleus": "1H",
      "ImagingFrequency": 123.259105,
      "InPlanePhaseEncodingDirection": "COL",
      "MRAcquisitionType": "2D",
      "MagneticFieldStrength": 3.0,
      "Manufacturer": "SIEMENS",
      "ManufacturerModelName": "Prisma",
      "Modality": "MR",
      "NumberOfAverages": 1.0,
      "NumberOfPhaseEncodingSteps": 79,
      "PercentPhaseFieldOfView": 100.0,
      "PercentSampling": 100.0,
      "PerformedProcedureStepStartTime": "092641.239000",
      "PhotometricInterpretation": "MONOCHROME2",
      "PixelBandwidth": 2315.0,
      "PixelRepresentation": 0,
      "PixelSpacing": [3.0, 3.0],
      "ProtocolName": "func-bold_task-rest_acq-p2-s4-3.5mm",
      "RepetitionTime": 2000.0,
      "Rows": 480,
      "SAR": 0.01768742598786,
      "SamplesPerPixel": 1,
      "ScanOptions": "FS",
      "ScanningSequence": "EP",
      "SequenceName": "*epfid2d1_80",
      "SequenceVariant": "SK",
      "SeriesDescription": "func-bold_task-rest_acq-p2-s4-3.5mm",
      "SeriesNumber": 6,
      "SeriesTime": "094209.721000",
      "SliceLocation": -64.735694841291,
      "SliceThickness": 3.5,
      "SmallestImagePixelValue": 0,
      "SoftwareVersions": "syngo MR E11",
      "SpacingBetweenSlices": 3.9899999811676,
      "SpecificCharacterSet": "ISO_IR 100",
      "StudyID": "27",
      "StudyTime": "092641.177000",
      "TransmitCoilName": "Body",
      "VariableFlipAngleFlag": "N",
      "WindowCenterWidthExplanation": "Algo1"
    },
    "slices": {}
  },
  "time": {
    "samples": {
      "AcquisitionNumber": [1, 2, 3, 4, 5, 6, 7, 8, 9, 10, 11, 12, 13, 14, 15, 16, 17, 18, 19, 20, 21, 22, 23, 24, 25, 26, 27, 28, 29, 30, 31, 32, 33, 34, 35, 36, 37, 38, 39, 40, 41, 42, 43, 44, 45, 46, 47, 48, 49, 50, 51, 52, 53, 54, 55, 56, 57, 58, 59, 60, 61, 62, 63, 64, 65, 66, 67, 68, 69, 70, 71, 72, 73, 74, 75, 76, 77, 78, 79, 80, 81, 82, 83, 84, 85, 86, 87, 88, 89, 90, 91, 92, 93, 94, 95, 96, 97, 98, 99, 100, 101, 102, 103, 104, 105, 106, 107, 108, 109, 110, 111, 112, 113, 114, 115, 116, 117, 118, 119, 120, 121, 122, 123, 124, 125, 126, 127, 128, 129, 130, 131, 132, 133, 134, 135, 136, 137, 138, 139, 140, 141, 142, 143, 144, 145, 146, 147, 148, 149, 150, 151, 152, 153, 154, 155, 156, 157, 158, 159, 160, 161, 162, 163, 164, 165, 166, 167, 168, 169, 170, 171, 172, 173, 174, 175, 176, 177, 178, 179, 180, 181, 182, 183, 184, 185, 186, 187, 188, 189, 190, 191, 192, 193, 194, 195, 196, 197, 198, 199, 200],
      "AcquisitionTime": ["094123.072500", "094125.072500", "094127.072500", "094129.072500", "094131.072500", "094133.072500", "094135.072500", "094137.072500", "094139.072500", "094141.072500", "094143.072500", "094145.072500", "094147.072500", "094149.072500", "094151.072500", "094153.072500", "094155.072500", "094157.072500", "094159.072500", "094201.072500", "094203.072500", "094205.072500", "094207.072500", "094209.072500", "094211.072500", "094213.072500", "094215.072500", "094217.072500", "094219.072500", "094221.072500", "094223.072500", "094225.072500", "094227.072500", "094229.072500", "094231.072500", "094233.072500", "094235.072500", "094237.072500", "094239.072500", "094241.072500", "094243.072500", "094245.072500", "094247.072500", "094249.072500", "094251.072500", "094253.072500", "094255.072500", "094257.072500", "094259.072500", "094301.072500", "094303.072500", "094305.072500", "094307.072500", "094309.072500", "094311.072500", "094313.072500", "094315.072500", "094317.072500", "094319.072500", "094321.072500", "094323.072500", "094325.072500", "094327.072500", "094329.072500", "094331.072500", "094333.072500", "094335.072500", "094337.072500", "094339.072500", "094341.072500", "094343.072500", "094345.072500", "094347.072500", "094349.072500", "094351.072500", "094353.072500", "094355.072500", "094357.072500", "094359.072500", "094401.072500", "094403.072500", "094405.072500", "094407.072500", "094409.072500", "094411.072500", "094413.072500", "094415.072500", "094417.072500", "094419.072500", "094421.072500", "094423.072500", "094425.072500", "094427.072500", "094429.072500", "094431.072500", "094433.072500", "094435.072500", "094437.072500", "094439.072500", "094441.072500", "094443.072500", "094445.072500", "094447.072500", "094449.072500", "094451.072500", "094453.072500", "094455.072500", "094457.072500", "094459.072500", "094501.072500", "094503.072500", "094505.072500", "094507.072500", "094509.072500", "094511.072500", "094513.072500", "094515.072500", "094517.072500", "094519.072500", "094521.072500", "094523.072500", "094525.072500", "094527.072500", "094529.072500", "094531.072500", "094533.072500", "094535.072500", "094537.072500", "094539.072500", "094541.072500", "094543.072500", "094545.072500", "094547.072500", "094549.072500", "094551.072500", "094553.072500", "094555.072500", "094557.072500", "094559.072500", "094601.072500", "094603.072500", "094605.072500", "094607.072500", "094609.072500", "094611.072500", "094613.072500", "094615.072500", "094617.072500", "094619.072500", "094621.072500", "094623.072500", "094625.072500", "094627.072500", "094629.072500", "094631.072500", "094633.072500", "094635.072500", "094637.072500", "094639.072500", "094641.072500", "094643.072500", "094645.072500", "094647.072500", "094649.072500", "094651.072500", "094653.072500", "094655.072500", "094657.072500", "094659.072500", "094701.072500", "094703.072500", "094705.072500", "094707.072500", "094709.072500", "094711.072500", "094713.072500", "094715.072500", "094717.072500", "094719.072500", "094721.072500", "094723.072500", "094725.072500", "094727.072500", "094729.072500", "094731.072500", "094733.072500", "094735.072500", "094737.072500", "094739.072500", "094741.072500", "094743.072500", "094745.072500", "094747.072500", "094749.072500", "094751.072500", "094753.072500", "094755.072500", "094757.072500", "094759.072500", "094801.072500"],
      "ContentTime": ["094209.725000", "094209.728000", "094209.730000", "094209.732000", "094209.735000", "094209.737000", "094209.739000", "094209.742000", "094209.744000", "094209.746000", "094209.748000", "094209.751000", "094209.753000", "094209.755000", "094209.758000", "094209.760000", "094209.762000", "094209.764000", "094209.767000", "094209.769000", "094209.771000", "094209.774000", "094209.776000", "094249.721000", "094249.724000", "094249.727000", "094249.729000", "094249.731000", "094249.734000", "094249.736000", "094249.738000", "094249.741000", "094249.743000", "094249.752000", "094249.754000", "094249.757000", "094249.759000", "094249.761000", "094249.764000", "094249.766000", "094249.768000", "094249.771000", "094249.773000", "094329.721000", "094329.724000", "094329.726000", "094329.729000", "094329.731000", "094329.733000", "094329.736000", "094329.738000", "094329.740000", "094329.742000", "094329.745000", "094329.747000", "094329.749000", "094329.752000", "094329.754000", "094329.756000", "094329.759000", "094329.761000", "094329.763000", "094329.765000", "094409.721000", "094409.724000", "094409.726000", "094409.728000", "094409.731000", "094409.733000", "094409.735000", "094409.738000", "094409.740000", "094409.742000", "094409.744000", "094409.747000", "094409.749000", "094409.751000", "094409.754000", "094409.756000", "094409.758000", "094409.761000", "094409.763000", "094409.765000", "094449.721000", "094449.724000", "094449.726000", "094449.728000", "094449.731000", "094449.733000", "094449.735000", "094449.738000", "094449.740000", "094449.742000", "094449.744000", "094449.747000", "094449.749000", "094449.751000", "094449.754000", "094449.756000", "094449.758000", "094449.760000", "094449.763000", "094449.765000", "094529.721000", "094529.724000", "094529.726000", "094529.728000", "094529.731000", "094529.733000", "094529.735000", "094529.738000", "094529.740000", "094529.749000", "094529.756000", "094529.758000", "094529.761000", "094529.763000", "094529.766000", "094529.768000", "094529.770000", "094529.773000", "094529.775000", "094529.777000", "094609.721000", "094609.724000", "094609.726000", "094609.729000", "094609.731000", "094609.733000", "094609.736000", "094609.738000", "094609.741000", "094609.743000", "094609.745000", "094609.748000", "094609.750000", "094609.752000", "094609.755000", "094609.757000", "094609.759000", "094609.761000", "094609.764000", "094609.766000", "094649.721000", "094649.724000", "094649.726000", "094649.728000", "094649.731000", "094649.733000", "094649.735000", "094649.738000", "094649.740000", "094649.742000", "094649.745000", "094649.747000", "094649.749000", "094649.752000", "094649.754000", "094649.756000", "094649.759000", "094649.761000", "094649.763000", "094649.766000", "094729.721000", "094729.724000", "094729.726000", "094729.728000", "094729.731000", "094729.734000", "094729.736000", "094729.781000", "094729.783000", "094729.785000", "094729.788000", "094729.790000", "094729.792000", "094729.794000", "094729.797000", "094729.799000", "094729.802000", "094729.804000", "094729.806000", "094729.809000", "094801.780000", "094801.783000", "094801.785000", "094801.787000", "094801.790000", "094801.792000", "094801.795000", "094801.797000", "094801.800000", "094801.802000", "094801.804000", "094801.807000", "094801.809000", "094801.812000", "094801.814000", "094801.826000", "094801.829000"],
      "InstanceCreationTime": ["094209.725000", "094209.728000", "094209.730000", "094209.732000", "094209.735000", "094209.737000", "094209.739000", "094209.742000", "094209.744000", "094209.746000", "094209.748000", "094209.751000", "094209.753000", "094209.755000", "094209.758000", "094209.760000", "094209.762000", "094209.764000", "094209.767000", "094209.769000", "094209.771000", "094209.774000", "094209.776000", "094249.721000", "094249.724000", "094249.727000", "094249.729000", "094249.731000", "094249.734000", "094249.736000", "094249.738000", "094249.741000", "094249.743000", "094249.752000", "094249.754000", "094249.757000", "094249.759000", "094249.761000", "094249.764000", "094249.766000", "094249.768000", "094249.771000", "094249.773000", "094329.721000", "094329.724000", "094329.726000", "094329.729000", "094329.731000", "094329.733000", "094329.736000", "094329.738000", "094329.740000", "094329.742000", "094329.745000", "094329.747000", "094329.749000", "094329.752000", "094329.754000", "094329.756000", "094329.759000", "094329.761000", "094329.763000", "094329.765000", "094409.721000", "094409.724000", "094409.726000", "094409.728000", "094409.731000", "094409.733000", "094409.735000", "094409.738000", "094409.740000", "094409.742000", "094409.744000", "094409.747000", "094409.749000", "094409.751000", "094409.754000", "094409.756000", "094409.758000", "094409.761000", "094409.763000", "094409.765000", "094449.721000", "094449.724000", "094449.726000", "094449.728000", "094449.731000", "094449.733000", "094449.735000", "094449.738000", "094449.740000", "094449.742000", "094449.744000", "094449.747000", "094449.749000", "094449.751000", "094449.754000", "094449.756000", "094449.758000", "094449.760000", "094449.763000", "094449.765000", "094529.721000", "094529.724000", "094529.726000", "094529.728000", "094529.731000", "094529.733000", "094529.735000", "094529.738000", "094529.740000", "094529.749000", "094529.756000", "094529.758000", "094529.761000", "094529.763000", "094529.766000", "094529.768000", "094529.770000", "094529.773000", "094529.775000", "094529.777000", "094609.721000", "094609.724000", "094609.726000", "094609.729000", "094609.731000", "094609.733000", "094609.736000", "094609.738000", "094609.741000", "094609.743000", "094609.745000", "094609.748000", "094609.750000", "094609.752000", "094609.755000", "094609.757000", "094609.759000", "094609.761000", "094609.764000", "094609.766000", "094649.721000", "094649.724000", "094649.726000", "094649.728000", "094649.731000", "094649.733000", "094649.735000", "094649.738000", "094649.740000", "094649.742000", "094649.745000", "094649.747000", "094649.749000", "094649.752000", "094649.754000", "094649.756000", "094649.759000", "094649.761000", "094649.763000", "094649.766000", "094729.721000", "094729.724000", "094729.726000", "094729.728000", "094729.731000", "094729.734000", "094729.736000", "094729.781000", "094729.783000", "094729.785000", "094729.788000", "094729.790000", "094729.792000", "094729.794000", "094729.797000", "094729.799000", "094729.802000", "094729.804000", "094729.806000", "094729.809000", "094801.780000", "094801.783000", "094801.785000", "094801.787000", "094801.790000", "094801.792000", "094801.795000", "094801.797000", "094801.800000", "094801.802000", "094801.804000", "094801.807000", "094801.809000", "094801.812000", "094801.814000", "094801.826000", "094801.829000"],
      "InstanceNumber": [1, 2, 3, 4, 5, 6, 7, 8, 9, 10, 11, 12, 13, 14, 15, 16, 17, 18, 19, 20, 21, 22, 23, 24, 25, 26, 27, 28, 29, 30, 31, 32, 33, 34, 35, 36, 37, 38, 39, 40, 41, 42, 43, 44, 45, 46, 47, 48, 49, 50, 51, 52, 53, 54, 55, 56, 57, 58, 59, 60, 61, 62, 63, 64, 65, 66, 67, 68, 69, 70, 71, 72, 73, 74, 75, 76, 77, 78, 79, 80, 81, 82, 83, 84, 85, 86, 87, 88, 89, 90, 91, 92, 93, 94, 95, 96, 97, 98, 99, 100, 101, 102, 103, 104, 105, 106, 107, 108, 109, 110, 111, 112, 113, 114, 115, 116, 117, 118, 119, 120, 121, 122, 123, 124, 125, 126, 127, 128, 129, 130, 131, 132, 133, 134, 135, 136, 137, 138, 139, 140, 141, 142, 143, 144, 145, 146, 147, 148, 149, 150, 151, 152, 153, 154, 155, 156, 157, 158, 159, 160, 161, 162, 163, 164, 165, 166, 167, 168, 169, 170, 171, 172, 173, 174, 175, 176, 177, 178, 179, 180, 181, 182, 183, 184, 185, 186, 187, 188, 189, 190, 191, 192, 193, 194, 195, 196, 197, 198, 199, 200],
      "LargestImagePixelValue": [2329, 2331, 2333, 2337, 2334, 2330, 2330, 2328, 2334, 2330, 2330, 2330, 2328, 2331, 2330, 2328, 2328, 2332, 2330, 2332, 2330, 2330, 2330, 2332, 2338, 2331, 2333, 2334, 2332, 2332, 2331, 2335, 2336, 2332, 2332, 2334, 2333, 2333, 2333, 2335, 2333, 2334, 2335, 2334, 2338, 2336, 2336, 2333, 2333, 2334, 2335, 2330, 2334, 2331, 2333, 2332, 2331, 2335, 2334, 2334, 2333, 2329, 2330, 2331, 2329, 2330, 2328, 2329, 2333, 2329, 2331, 2329, 2331, 2332, 2332, 2332, 2334, 2331, 2335, 2335, 2331, 2331, 2333, 2335, 2333, 2331, 2333, 2329, 2335, 2333, 2335, 2334, 2334, 2337, 2335, 2335, 2335, 2336, 2337, 2337, 2333, 2333, 2335, 2333, 2335, 2333, 2336, 2336, 2333, 2333, 2332, 2332, 2330, 2331, 2331, 2331, 2331, 2325, 2333, 2334, 2327, 2330, 2332, 2332, 2331, 2328, 2335, 2330, 2332, 2330, 2330, 2333, 2332, 2328, 2331, 2326, 2331, 2329, 2330, 2333, 2332, 2330, 2335, 2334, 2333, 2332, 2335, 2333, 2331, 2335, 2331, 2330, 2332, 2329, 2325, 2330, 2334, 2329, 2326, 2332, 2327, 2331, 2331, 2328, 2332, 2331, 2329, 2328, 2328, 2328, 2328, 2330, 2329, 2328, 2329, 2328, 2329, 2326, 2326, 2326, 2327, 2330, 2330, 2330, 2332, 2326, 2330, 2336, 2333, 2331, 2335, 2329, 2327, 2328, 2330, 2327, 2331, 2330, 2331, 2328],
      "WindowCenter": [986.0, 987.0, 986.0, 986.0, 986.0, 986.0, 985.0, 987.0, 985.0, 986.0, 987.0, 985.0, 987.0, 987.0, 985.0, 986.0, 987.0, 986.0, 987.0, 986.0, 985.0, 985.0, 986.0, 986.0, 986.0, 986.0, 986.0, 986.0, 987.0, 986.0, 986.0, 986.0, 986.0, 985.0, 986.0, 986.0, 986.0, 985.0, 986.0, 986.0, 986.0, 985.0, 986.0, 985.0, 987.0, 986.0, 986.0, 986.0, 985.0, 986.0, 986.0, 985.0, 986.0, 987.0, 985.0, 985.0, 985.0, 986.0, 986.0, 986.0, 986.0, 986.0, 986.0, 985.0, 985.0, 985.0, 987.0, 985.0, 987.0, 986.0, 985.0, 987.0, 985.0, 986.0, 986.0, 985.0, 986.0, 985.0, 985.0, 985.0, 985.0, 985.0, 985.0, 987.0, 986.0, 985.0, 985.0, 986.0, 985.0, 986.0, 985.0, 986.0, 985.0, 986.0, 985.0, 986.0, 985.0, 985.0, 985.0, 985.0, 986.0, 985.0, 985.0, 985.0, 985.0, 985.0, 986.0, 987.0, 987.0, 985.0, 986.0, 985.0, 985.0, 985.0, 985.0, 987.0, 986.0, 986.0, 985.0, 985.0, 986.0, 985.0, 985.0, 986.0, 985.0, 985.0, 987.0, 985.0, 986.0, 985.0, 985.0, 985.0, 985.0, 985.0, 985.0, 985.0, 985.0, 985.0, 987.0, 985.0, 985.0, 985.0, 985.0, 985.0, 985.0, 985.0, 985.0, 986.0, 986.0, 986.0, 985.0, 985.0, 985.0, 985.0, 985.0, 986.0, 985.0, 985.0, 985.0, 985.0, 985.0, 987.0, 985.0, 985.0, 986.0, 985.0, 985.0, 985.0, 985.0, 986.0, 985.0, 985.0, 986.0, 986.0, 985.0, 985.0, 987.0, 987.0, 985.0, 985.0, 987.0, 986.0, 987.0, 986.0, 985.0, 985.0, 985.0, 987.0, 985.0, 985.0, 985.0, 985.0, 985.0, 985.0, 986.0, 985.0, 986.0, 985.0, 986.0, 985.0],
      "WindowWidth": [2371.0, 2372.0, 2371.0, 2371.0, 2370.0, 2370.0, 2371.0, 2372.0, 2371.0, 2370.0, 2371.0, 2371.0, 2371.0, 2371.0, 2371.0, 2371.0, 2371.0, 2371.0, 2372.0, 2371.0, 2371.0, 2371.0, 2372.0, 2371.0, 2371.0, 2371.0, 2372.0, 2372.0, 2373.0, 2372.0, 2371.0, 2372.0, 2371.0, 2371.0, 2371.0, 2371.0, 2370.0, 2371.0, 2372.0, 2372.0, 2372.0, 2371.0, 2370.0, 2371.0, 2373.0, 2371.0, 2372.0, 2372.0, 2371.0, 2370.0, 2371.0, 2371.0, 2371.0, 2373.0, 2371.0, 2371.0, 2370.0, 2372.0, 2370.0, 2372.0, 2371.0, 2372.0, 2371.0, 2371.0, 2371.0, 2371.0, 2373.0, 2371.0, 2373.0, 2370.0, 2371.0, 2371.0, 2371.0, 2372.0, 2371.0, 2371.0, 2371.0, 2370.0, 2371.0, 2371.0, 2371.0, 2371.0, 2371.0, 2373.0, 2371.0, 2371.0, 2371.0, 2372.0, 2371.0, 2372.0, 2371.0, 2372.0, 2371.0, 2370.0, 2370.0, 2372.0, 2371.0, 2370.0, 2371.0, 2371.0, 2372.0, 2370.0, 2371.0, 2370.0, 2371.0, 2371.0, 2372.0, 2372.0, 2373.0, 2371.0, 2371.0, 2371.0, 2371.0, 2370.0, 2371.0, 2373.0, 2371.0, 2371.0, 2371.0, 2370.0, 2372.0, 2370.0, 2370.0, 2372.0, 2370.0, 2370.0, 2372.0, 2371.0, 2372.0, 2370.0, 2371.0, 2370.0, 2370.0, 2370.0, 2370.0, 2370.0, 2371.0, 2370.0, 2372.0, 2371.0, 2370.0, 2370.0, 2370.0, 2371.0, 2370.0, 2370.0, 2370.0, 2371.0, 2371.0, 2371.0, 2370.0, 2370.0, 2370.0, 2370.0, 2370.0, 2371.0, 2370.0, 2370.0, 2370.0, 2370.0, 2370.0, 2372.0, 2370.0, 2370.0, 2371.0, 2370.0, 2370.0, 2370.0, 2370.0, 2371.0, 2370.0, 2370.0, 2371.0, 2371.0, 2370.0, 2370.0, 2372.0, 2372.0, 2370.0, 2370.0, 2372.0, 2371.0, 2372.0, 2371.0, 2370.0, 2370.0, 2370.0, 2372.0, 2370.0, 2370.0, 2370.0, 2370.0, 2370.0, 2370.0, 2371.0, 2370.0, 2371.0, 2370.0, 2371.0, 2369.0]
    },
    "slices": {}
  }
}