{
  "AcquisitionMatrixPE": 80,
  "AcquisitionNumber": 1,
  "AcquisitionTime": "09:54:58.452500",
  "BandwidthPerPixelPhaseEncode": 25,
  "BaseResolution": 80,
  "BodyPartExamined": "BRAIN",
  "CoilCombinationMethod": "Sum of Squares",
  "ConsistencyInfo": "N4_VE11E_LATEST_20181129",
  "ConversionSoftware": "dcm2niix",
  "ConversionSoftwareVersion": "v1.0.20220720",
  "DerivedVendorReportedEchoSpacing": 0.0005,
  "DeviceSerialNumber": "66112",
  "DwellTime": 2.7e-06,
  "EchoTime": 0.03,
  "EchoTrainLength": 80,
  "EffectiveEchoSpacing": 0.0005,
  "FlipAngle": 10,
  "HeudiconvVersion": "0.13.1",
  "ImageOrientationPatientDICOM": [0.990807, -0.13523, 0.00371121, 0.12798, 0.945875, 0.29823],
  "ImageOrientationText": "Tra>Cor(17.2)>Sag(2.5)",
  "ImageType": [
    "ORIGINAL",
    "PRIMARY",
    "M",
    "ND",
    "NORM",
    "MOSAIC"
],
  "ImagingFrequency": 123.259,
  "InPlanePhaseEncodingDirectionDICOM": "COL",
  "InstitutionAddress": "Maynard 3,Hanover,NH,US,03755",
  "InstitutionName": "Dartmouth College - PBS",
  "InstitutionalDepartmentName": "Department",
  "MRAcquisitionType": "2D",
  "MagneticFieldStrength": 3,
  "Manufacturer": "Siemens",
  "ManufacturersModelName": "Prisma",
  "MatrixCoilMode": "SENSE",
  "Modality": "MR",
  "NonlinearGradientCorrection": false,
  "PartialFourier": 1,
  "PatientPosition": "HFS",
  "PercentPhaseFOV": 100,
  "PercentSampling": 100,
  "PhaseEncodingDirection": "j-",
  "PhaseEncodingSteps": 80,
  "PhaseResolution": 1,
  "PixelBandwidth": 2315,
  "ProcedureStepDescription": "dbic^QA",
  "ProtocolName": "func-bold_fa-10",
  "PulseSequenceDetails": "%SiemensSeq%\\ep2d_bold",
  "ReceiveCoilActiveElements": "HEA;HEP",
  "ReceiveCoilName": "Head_32",
  "ReconMatrixPE": 80,
  "RepetitionTime": 2,
  "SAR": 0.00991501,
  "ScanOptions": "FS",
  "ScanningSequence": "EP",
  "SequenceName": "*epfid2d1_80",
  "SequenceVariant": "SK",
  "SeriesDescription": "func-bold_fa-10",
  "SeriesNumber": 8,
  "ShimSetting": [4215, -7747, -7504, -44, -149, 16, 24, 62],
  "SliceThickness": 3.5,
  "SliceTiming": [0.99, 0, 1.055, 0.065, 1.1225, 0.1325, 1.1875, 0.1975, 1.2525, 0.265, 1.32, 0.33, 1.385, 0.395, 1.4525, 0.4625, 1.5175, 0.5275, 1.5825, 0.5925, 1.65, 0.66, 1.715, 0.725, 1.7825, 0.7925, 1.8475, 0.8575, 1.9125, 0.9225],
  "SoftwareVersions": "syngo MR E11",
  "SpacingBetweenSlices": 3.99,
  "StationName": "AWP66112",
  "TotalReadoutTime": 0.0395,
  "TxRefAmp": 224.508,
  "dcmmeta_affine": [
    [-2.972421884536743, 0.38394036889076233, 0.17492100596427917, 101.29557037353516],
    [0.4056891202926636, 2.8376259803771973, 1.1771026849746704, -144.1212921142578],
    [0.011133624240756035, -0.8946890830993652, 3.8084027767181396, -17.708065032958984],
    [0.0, 0.0, 0.0, 1.0]
],
  "dcmmeta_reorient_transform": [
    [0.0, -1.0, 0.0, 79.0],
    [1.0, 0.0, 0.0, 0.0],
    [0.0, 0.0, 1.0, 0.0],
    [0.0, 0.0, 0.0, 1.0]
],
  "dcmmeta_shape": [80, 80, 30, 200],
  "dcmmeta_slice_dim": 2,
  "dcmmeta_version": 0.6,
  "global": {
    "const": {
      "AccessionNumber": "qa",
      "AcquisitionMatrix": [80, 0, 0, 80],
      "AngioFlag": "N",
      "BitsAllocated": 16,
      "BitsStored": 12,
      "BodyPartExamined": "BRAIN",
      "Columns": 480,
      "EchoNumbers": 1,
      "EchoTime": 30.0,
      "EchoTrainLength": 80,
      "FlipAngle": 10.0,
      "HighBit": 11,
      "ImageOrientationPatient": [0.99080732459356, -0.1352297026036, 0.00371120809258, 0.12798012668357, 0.94587532849652, 0.29822969355124],
      "ImagePositionPatient": [-802.89933063265, -566.43854372763, -269.55304305562],
      "ImageType": [
        "ORIGINAL",
        "PRIMARY",
        "M",
        "ND",
        "NORM",
        "MOSAIC"
],
      "ImagedNucleus": "1H",
      "ImagingFrequency": 123.259108,
      "InPlanePhaseEncodingDirection": "COL",
      "MRAcquisitionType": "2D",
      "MagneticFieldStrength": 3.0,
      "Manufacturer": "SIEMENS",
      "ManufacturerModelName": "Prisma",
      "Modality": "MR",
      "NumberOfAverages": 1.0,
      "NumberOfPhaseEncodingSteps": 80,
      "PercentPhaseFieldOfView": 100.0,
      "PercentSampling": 100.0,
      "PerformedProcedureStepStartTime": "092641.239000",
      "PhotometricInterpretation": "MONOCHROME2",
      "PixelBandwidth": 2315.0,
      "PixelRepresentation": 0,
      "PixelSpacing": [3.0, 3.0],
      "ProtocolName": "func-bold_fa-10",
      "RepetitionTime": 2000.0,
      "Rows": 480,
      "SAR": 0.00991500838298,
      "SamplesPerPixel": 1,
      "ScanOptions": "FS",
      "ScanningSequence": "EP",
      "SequenceName": "*epfid2d1_80",
      "SequenceVariant": "SK",
      "SeriesDescription": "func-bold_fa-10",
      "SeriesNumber": 8,
      "SeriesTime": "095549.637000",
      "SliceLocation": -54.979015151646,
      "SliceThickness": 3.5,
      "SmallestImagePixelValue": 0,
      "SoftwareVersions": "syngo MR E11",
      "SpacingBetweenSlices": 3.9899999585451,
      "SpecificCharacterSet": "ISO_IR 100",
      "StudyID": "27",
      "StudyTime": "092641.177000",
      "TransmitCoilName": "Body",
      "VariableFlipAngleFlag": "N",
      "WindowCenterWidthExplanation": "Algo1"
    },
    "slices": {}
  },
  "time": {
    "samples": {
      "AcquisitionNumber": [1, 2, 3, 4, 5, 6, 7, 8, 9, 10, 11, 12, 13, 14, 15, 16, 17, 18, 19, 20, 21, 22, 23, 24, 25, 26, 27, 28, 29, 30, 31, 32, 33, 34, 35, 36, 37, 38, 39, 40, 41, 42, 43, 44, 45, 46, 47, 48, 49, 50, 51, 52, 53, 54, 55, 56, 57, 58, 59, 60, 61, 62, 63, 64, 65, 66, 67, 68, 69, 70, 71, 72, 73, 74, 75, 76, 77, 78, 79, 80, 81, 82, 83, 84, 85, 86, 87, 88, 89, 90, 91, 92, 93, 94, 95, 96, 97, 98, 99, 100, 101, 102, 103, 104, 105, 106, 107, 108, 109, 110, 111, 112, 113, 114, 115, 116, 117, 118, 119, 120, 121, 122, 123, 124, 125, 126, 127, 128, 129, 130, 131, 132, 133, 134, 135, 136, 137, 138, 139, 140, 141, 142, 143, 144, 145, 146, 147, 148, 149, 150, 151, 152, 153, 154, 155, 156, 157, 158, 159, 160, 161, 162, 163, 164, 165, 166, 167, 168, 169, 170, 171, 172, 173, 174, 175, 176, 177, 178, 179, 180, 181, 182, 183, 184, 185, 186, 187, 188, 189, 190, 191, 192, 193, 194, 195, 196, 197, 198, 199, 200],
      "AcquisitionTime": ["095458.452500", "095500.452500", "095502.452500", "095504.452500", "095506.452500", "095508.452500", "095510.452500", "095512.452500", "095514.452500", "095516.452500", "095518.452500", "095520.452500", "095522.452500", "095524.452500", "095526.452500", "095528.452500", "095530.452500", "095532.452500", "095534.452500", "095536.452500", "095538.452500", "095540.452500", "095542.452500", "095544.452500", "095546.452500", "095548.452500", "095550.452500", "095552.452500", "095554.452500", "095556.452500", "095558.452500", "095600.452500", "095602.452500", "095604.452500", "095606.452500", "095608.452500", "095610.452500", "095612.452500", "095614.452500", "095616.452500", "095618.452500", "095620.452500", "095622.452500", "095624.452500", "095626.452500", "095628.452500", "095630.452500", "095632.452500", "095634.452500", "095636.452500", "095638.452500", "095640.452500", "095642.452500", "095644.452500", "095646.452500", "095648.452500", "095650.452500", "095652.452500", "095654.452500", "095656.452500", "095658.452500", "095700.452500", "095702.452500", "095704.452500", "095706.452500", "095708.452500", "095710.452500", "095712.452500", "095714.452500", "095716.452500", "095718.452500", "095720.452500", "095722.452500", "095724.452500", "095726.452500", "095728.452500", "095730.452500", "095732.452500", "095734.452500", "095736.452500", "095738.452500", "095740.452500", "095742.452500", "095744.452500", "095746.452500", "095748.452500", "095750.452500", "095752.452500", "095754.452500", "095756.452500", "095758.452500", "095800.452500", "095802.452500", "095804.452500", "095806.452500", "095808.452500", "095810.452500", "095812.452500", "095814.452500", "095816.452500", "095818.452500", "095820.452500", "095822.452500", "095824.452500", "095826.452500", "095828.452500", "095830.452500", "095832.452500", "095834.452500", "095836.452500", "095838.452500", "095840.452500", "095842.452500", "095844.452500", "095846.452500", "095848.452500", "095850.452500", "095852.452500", "095854.452500", "095856.452500", "095858.452500", "095900.452500", "095902.452500", "095904.452500", "095906.452500", "095908.452500", "095910.452500", "095912.452500", "095914.452500", "095916.452500", "095918.452500", "095920.452500", "095922.452500", "095924.452500", "095926.452500", "095928.452500", "095930.452500", "095932.452500", "095934.452500", "095936.452500", "095938.452500", "095940.452500", "095942.452500", "095944.452500", "095946.452500", "095948.452500", "095950.452500", "095952.452500", "095954.452500", "095956.452500", "095958.452500", "100000.452500", "100002.452500", "100004.452500", "100006.452500", "100008.452500", "100010.452500", "100012.452500", "100014.452500", "100016.452500", "100018.452500", "100020.452500", "100022.452500", "100024.452500", "100026.452500", "100028.452500", "100030.452500", "100032.452500", "100034.452500", "100036.452500", "100038.452500", "100040.452500", "100042.452500", "100044.452500", "100046.452500", "100048.452500", "100050.452500", "100052.452500", "100054.452500", "100056.452500", "100058.452500", "100100.452500", "100102.452500", "100104.452500", "100106.452500", "100108.452500", "100110.452500", "100112.452500", "100114.452500", "100116.452500", "100118.452500", "100120.452500", "100122.452500", "100124.452500", "100126.452500", "100128.452500", "100130.452500", "100132.452500", "100134.452500", "100136.452500"],
      "ContentTime": ["095549.640000", "095549.643000", "095549.646000", "095549.648000", "095549.650000", "095549.652000", "095549.655000", "095549.657000", "095549.659000", "095549.662000", "095549.664000", "095549.666000", "095549.668000", "095549.671000", "095549.673000", "095549.675000", "095549.677000", "095549.680000", "095549.682000", "095549.684000", "095549.686000", "095549.689000", "095549.691000", "095549.693000", "095549.695000", "095629.636000", "095629.642000", "095629.644000", "095629.647000", "095629.649000", "095629.651000", "095629.653000", "095629.656000", "095629.658000", "095629.661000", "095629.663000", "095629.665000", "095629.667000", "095629.670000", "095629.672000", "095629.675000", "095629.677000", "095629.679000", "095629.681000", "095629.684000", "095709.636000", "095709.639000", "095709.641000", "095709.643000", "095709.645000", "095709.648000", "095709.650000", "095709.652000", "095709.654000", "095709.657000", "095709.659000", "095709.661000", "095709.663000", "095709.666000", "095709.668000", "095709.670000", "095709.673000", "095709.675000", "095709.677000", "095709.679000", "095749.636000", "095749.639000", "095749.641000", "095749.643000", "095749.646000", "095749.648000", "095749.650000", "095749.652000", "095749.655000", "095749.657000", "095749.659000", "095749.662000", "095749.664000", "095749.666000", "095749.668000", "095749.671000", "095749.673000", "095749.675000", "095749.678000", "095749.680000", "095829.636000", "095829.639000", "095829.641000", "095829.643000", "095829.646000", "095829.648000", "095829.650000", "095829.653000", "095829.655000", "095829.657000", "095829.659000", "095829.662000", "095829.664000", "095829.666000", "095829.668000", "095829.671000", "095829.673000", "095829.675000", "095829.678000", "095829.680000", "095909.636000", "095909.639000", "095909.641000", "095909.643000", "095909.645000", "095909.648000", "095909.650000", "095909.652000", "095909.654000", "095909.657000", "095909.659000", "095909.661000", "095909.663000", "095909.666000", "095909.668000", "095909.670000", "095909.672000", "095909.675000", "095909.677000", "095909.679000", "095949.636000", "095949.639000", "095949.641000", "095949.643000", "095949.645000", "095949.648000", "095949.650000", "095949.652000", "095949.655000", "095949.657000", "095949.659000", "095949.661000", "095949.664000", "095949.666000", "095949.668000", "095949.671000", "095949.673000", "095949.675000", "095949.677000", "095949.680000", "100029.635000", "100029.638000", "100029.640000", "100029.642000", "100029.645000", "100029.647000", "100029.649000", "100029.651000", "100029.654000", "100029.656000", "100029.658000", "100029.661000", "100029.663000", "100029.665000", "100029.668000", "100029.670000", "100029.672000", "100029.674000", "100029.677000", "100029.679000", "100109.636000", "100109.639000", "100109.641000", "100109.643000", "100109.646000", "100109.648000", "100109.650000", "100109.653000", "100109.655000", "100109.657000", "100109.659000", "100109.662000", "100109.664000", "100109.666000", "100109.668000", "100109.671000", "100109.673000", "100109.675000", "100109.678000", "100109.680000", "100138.044000", "100138.047000", "100138.049000", "100138.051000", "100138.054000", "100138.056000", "100138.058000", "100138.061000", "100138.063000", "100138.065000", "100138.067000", "100138.070000", "100138.072000", "100138.077000", "100138.098000"],
      "InstanceCreationTime": ["095549.640000", "095549.643000", "095549.646000", "095549.648000", "095549.650000", "095549.652000", "095549.655000", "095549.657000", "095549.659000", "095549.662000", "095549.664000", "095549.666000", "095549.668000", "095549.671000", "095549.673000", "095549.675000", "095549.677000", "095549.680000", "095549.682000", "095549.684000", "095549.686000", "095549.689000", "095549.691000", "095549.693000", "095549.695000", "095629.636000", "095629.642000", "095629.644000", "095629.647000", "095629.649000", "095629.651000", "095629.653000", "095629.656000", "095629.658000", "095629.661000", "095629.663000", "095629.665000", "095629.667000", "095629.670000", "095629.672000", "095629.675000", "095629.677000", "095629.679000", "095629.681000", "095629.684000", "095709.636000", "095709.639000", "095709.641000", "095709.643000", "095709.645000", "095709.648000", "095709.650000", "095709.652000", "095709.654000", "095709.657000", "095709.659000", "095709.661000", "095709.663000", "095709.666000", "095709.668000", "095709.670000", "095709.673000", "095709.675000", "095709.677000", "095709.679000", "095749.636000", "095749.639000", "095749.641000", "095749.643000", "095749.646000", "095749.648000", "095749.650000", "095749.652000", "095749.655000", "095749.657000", "095749.659000", "095749.662000", "095749.664000", "095749.666000", "095749.668000", "095749.671000", "095749.673000", "095749.675000", "095749.678000", "095749.680000", "095829.636000", "095829.639000", "095829.641000", "095829.643000", "095829.646000", "095829.648000", "095829.650000", "095829.653000", "095829.655000", "095829.657000", "095829.659000", "095829.662000", "095829.664000", "095829.666000", "095829.668000", "095829.671000", "095829.673000", "095829.675000", "095829.678000", "095829.680000", "095909.636000", "095909.639000", "095909.641000", "095909.643000", "095909.645000", "095909.648000", "095909.650000", "095909.652000", "095909.654000", "095909.657000", "095909.659000", "095909.661000", "095909.663000", "095909.666000", "095909.668000", "095909.670000", "095909.672000", "095909.675000", "095909.677000", "095909.679000", "095949.636000", "095949.639000", "095949.641000", "095949.643000", "095949.645000", "095949.648000", "095949.650000", "095949.652000", "095949.655000", "095949.657000", "095949.659000", "095949.661000", "095949.664000", "095949.666000", "095949.668000", "095949.671000", "095949.673000", "095949.675000", "095949.677000", "095949.680000", "100029.635000", "100029.638000", "100029.640000", "100029.642000", "100029.645000", "100029.647000", "100029.649000", "100029.651000", "100029.654000", "100029.656000", "100029.658000", "100029.661000", "100029.663000", "100029.665000", "100029.668000", "100029.670000", "100029.672000", "100029.674000", "100029.677000", "100029.679000", "100109.636000", "100109.639000", "100109.641000", "100109.643000", "100109.646000", "100109.648000", "100109.650000", "100109.653000", "100109.655000", "100109.657000", "100109.659000", "100109.662000", "100109.664000", "100109.666000", "100109.668000", "100109.671000", "100109.673000", "100109.675000", "100109.678000", "100109.680000", "100138.044000", "100138.047000", "100138.049000", "100138.051000", "100138.054000", "100138.056000", "100138.058000", "100138.061000", "100138.063000", "100138.065000", "100138.067000", "100138.070000", "100138.072000", "100138.077000", "100138.098000"],
      "InstanceNumber": [1, 2, 3, 4, 5, 6, 7, 8, 9, 10, 11, 12, 13, 14, 15, 16, 17, 18, 19, 20, 21, 22, 23, 24, 25, 26, 27, 28, 29, 30, 31, 32, 33, 34, 35, 36, 37, 38, 39, 40, 41, 42, 43, 44, 45, 46, 47, 48, 49, 50, 51, 52, 53, 54, 55, 56, 57, 58, 59, 60, 61, 62, 63, 64, 65, 66, 67, 68, 69, 70, 71, 72, 73, 74, 75, 76, 77, 78, 79, 80, 81, 82, 83, 84, 85, 86, 87, 88, 89, 90, 91, 92, 93, 94, 95, 96, 97, 98, 99, 100, 101, 102, 103, 104, 105, 106, 107, 108, 109, 110, 111, 112, 113, 114, 115, 116, 117, 118, 119, 120, 121, 122, 123, 124, 125, 126, 127, 128, 129, 130, 131, 132, 133, 134, 135, 136, 137, 138, 139, 140, 141, 142, 143, 144, 145, 146, 147, 148, 149, 150, 151, 152, 153, 154, 155, 156, 157, 158, 159, 160, 161, 162, 163, 164, 165, 166, 167, 168, 169, 170, 171, 172, 173, 174, 175, 176, 177, 178, 179, 180, 181, 182, 183, 184, 185, 186, 187, 188, 189, 190, 191, 192, 193, 194, 195, 196, 197, 198, 199, 200],
      "LargestImagePixelValue": [389, 388, 390, 388, 390, 391, 389, 390, 391, 390, 390, 389, 390, 391, 389, 391, 389, 390, 390, 391, 387, 389, 389, 390, 391, 388, 392, 390, 389, 390, 390, 389, 389, 390, 391, 390, 391, 393, 390, 390, 390, 390, 390, 389, 391, 390, 389, 391, 391, 390, 391, 388, 389, 390, 390, 391, 389, 388, 389, 390, 390, 390, 389, 390, 391, 390, 389, 389, 389, 389, 390, 389, 391, 390, 389, 390, 389, 390, 390, 391, 389, 389, 391, 390, 391, 390, 389, 389, 389, 388, 390, 390, 391, 390, 389, 390, 390, 389, 391, 389, 390, 393, 390, 390, 391, 390, 391, 389, 390, 390, 390, 390, 388, 390, 392, 389, 391, 389, 390, 392, 391, 390, 390, 389, 390, 391, 390, 391, 391, 390, 390, 390, 390, 391, 390, 392, 390, 389, 392, 390, 392, 389, 388, 390, 389, 389, 392, 389, 390, 389, 389, 391, 390, 389, 390, 389, 389, 390, 389, 392, 390, 389, 392, 389, 389, 390, 388, 389, 389, 389, 391, 391, 390, 390, 388, 391, 390, 390, 390, 389, 390, 392, 390, 392, 390, 390, 390, 389, 390, 390, 389, 390, 389, 389, 392, 390, 389, 388, 390, 390],
      "WindowCenter": [317.0, 317.0, 318.0, 317.0, 318.0, 317.0, 317.0, 318.0, 317.0, 317.0, 317.0, 317.0, 317.0, 318.0, 317.0, 318.0, 317.0, 317.0, 317.0, 317.0, 317.0, 317.0, 317.0, 318.0, 317.0, 317.0, 317.0, 317.0, 317.0, 317.0, 318.0, 317.0, 317.0, 317.0, 317.0, 318.0, 317.0, 317.0, 317.0, 317.0, 318.0, 317.0, 317.0, 317.0, 317.0, 317.0, 317.0, 317.0, 318.0, 317.0, 318.0, 317.0, 317.0, 318.0, 317.0, 317.0, 317.0, 317.0, 316.0, 317.0, 317.0, 317.0, 317.0, 317.0, 317.0, 317.0, 317.0, 316.0, 317.0, 317.0, 317.0, 317.0, 317.0, 317.0, 317.0, 317.0, 317.0, 318.0, 317.0, 317.0, 317.0, 317.0, 317.0, 317.0, 318.0, 317.0, 317.0, 317.0, 317.0, 317.0, 318.0, 317.0, 317.0, 317.0, 317.0, 318.0, 317.0, 317.0, 317.0, 317.0, 318.0, 317.0, 317.0, 317.0, 317.0, 317.0, 317.0, 317.0, 317.0, 317.0, 317.0, 317.0, 317.0, 317.0, 317.0, 317.0, 317.0, 317.0, 317.0, 317.0, 317.0, 317.0, 317.0, 316.0, 317.0, 317.0, 317.0, 317.0, 317.0, 317.0, 317.0, 317.0, 317.0, 317.0, 317.0, 317.0, 317.0, 317.0, 317.0, 317.0, 317.0, 317.0, 317.0, 317.0, 317.0, 317.0, 317.0, 317.0, 317.0, 317.0, 317.0, 317.0, 317.0, 317.0, 317.0, 317.0, 317.0, 317.0, 317.0, 317.0, 316.0, 316.0, 317.0, 316.0, 317.0, 317.0, 317.0, 317.0, 317.0, 317.0, 317.0, 317.0, 317.0, 317.0, 316.0, 317.0, 317.0, 317.0, 317.0, 317.0, 317.0, 317.0, 317.0, 317.0, 317.0, 317.0, 317.0, 317.0, 317.0, 317.0, 316.0, 317.0, 316.0, 317.0, 317.0, 317.0, 317.0, 316.0, 317.0, 317.0],
      "WindowWidth": [682.0, 682.0, 683.0, 682.0, 683.0, 683.0, 682.0, 683.0, 683.0, 683.0, 683.0, 682.0, 683.0, 683.0, 682.0, 683.0, 682.0, 683.0, 683.0, 683.0, 682.0, 682.0, 682.0, 683.0, 683.0, 682.0, 683.0, 683.0, 682.0, 683.0, 683.0, 682.0, 682.0, 683.0, 683.0, 683.0, 683.0, 683.0, 683.0, 683.0, 683.0, 683.0, 683.0, 682.0, 682.0, 683.0, 682.0, 683.0, 683.0, 682.0, 683.0, 682.0, 682.0, 683.0, 683.0, 683.0, 682.0, 682.0, 681.0, 683.0, 682.0, 683.0, 682.0, 683.0, 683.0, 683.0, 682.0, 681.0, 682.0, 682.0, 683.0, 682.0, 683.0, 683.0, 682.0, 683.0, 682.0, 683.0, 683.0, 683.0, 682.0, 682.0, 683.0, 682.0, 683.0, 683.0, 682.0, 682.0, 682.0, 682.0, 683.0, 683.0, 682.0, 683.0, 682.0, 683.0, 683.0, 682.0, 682.0, 682.0, 683.0, 682.0, 682.0, 683.0, 682.0, 683.0, 683.0, 682.0, 683.0, 683.0, 682.0, 683.0, 682.0, 683.0, 682.0, 682.0, 682.0, 681.0, 682.0, 682.0, 682.0, 682.0, 683.0, 681.0, 682.0, 682.0, 682.0, 683.0, 682.0, 682.0, 683.0, 682.0, 683.0, 682.0, 682.0, 682.0, 682.0, 682.0, 682.0, 682.0, 682.0, 682.0, 682.0, 683.0, 681.0, 682.0, 682.0, 681.0, 682.0, 682.0, 682.0, 683.0, 682.0, 681.0, 682.0, 681.0, 682.0, 682.0, 682.0, 682.0, 681.0, 681.0, 682.0, 680.0, 682.0, 682.0, 682.0, 682.0, 682.0, 681.0, 682.0, 682.0, 682.0, 682.0, 681.0, 682.0, 681.0, 682.0, 681.0, 681.0, 681.0, 682.0, 682.0, 682.0, 682.0, 682.0, 682.0, 681.0, 682.0, 682.0, 681.0, 682.0, 681.0, 681.0, 682.0, 682.0, 681.0, 680.0, 681.0, 681.0]
    },
    "slices": {}
  }
}