{
  "AcquisitionDateTime": "2017-03-29T83:42:3.218750", 
  "ConversionSoftware": "dcm2niix", 
  "ConversionSoftwareVersion": "v1.0.20170130", 
  "EchoTime": 0.035, 
  "EffectiveEchoSpacing": 0.00026, 
  "FlipAngle": 90, 
  "ImageType": [
    "ORIGINAL", 
    "PRIMARY", 
    "M", 
    "ND", 
    "NORM", 
    "MOSAIC"
], 
  "MagneticFieldStrength": 3, 
  "Manufacturer": "Siemens", 
  "ManufacturersModelName": "Prisma", 
  "PhaseEncodingDirection": "j-", 
  "ProcedureStepDescription": "dbic_QA", 
  "ProtocolName": "func-bold_task-rest_acq-p2", 
  "RepetitionTime": 2, 
  "SliceTiming": [0.99, 0, 1.055, 0.065, 1.1225, 0.1325, 1.1875, 0.1975, 1.255, 0.265, 1.32, 0.33, 1.385, 0.395, 1.4525, 0.4625, 1.5175, 0.5275, 1.585, 0.595, 1.65, 0.66, 1.715, 0.725, 1.7825, 0.7925, 1.8475, 0.8575, 1.915, 0.925], 
  "dcmmeta_affine": [
    [-2.9973807334899902, 0.018833234906196594, -0.1648036688566208, 120.4578857421875], 
    [-0.018495725467801094, 2.86700177192688, 1.1745926141738892, -119.14423370361328], 
    [-0.123963363468647, -0.883145272731781, 3.80962872505188, -4.505683422088623], 
    [0.0, 0.0, 0.0, 1.0]
], 
  "dcmmeta_reorient_transform": [
    [0.0, -1.0, 0.0, 79.0], 
    [1.0, 0.0, 0.0, 0.0], 
    [0.0, 0.0, 1.0, 0.0], 
    [0.0, 0.0, 0.0, 1.0]
], 
  "dcmmeta_shape": [80, 80, 30, 200], 
  "dcmmeta_slice_dim": 2, 
  "dcmmeta_version": 0.6, 
  "global": {
    "const": {
      "AccessionNumber": "qa", 
      "AcquisitionMatrix": [80, 0, 0, 80], 
      "AngioFlag": "N", 
      "BitsAllocated": 16, 
      "BitsStored": 12, 
      "BodyPartExamined": "BRAIN", 
      "Columns": 480, 
      "EchoNumbers": 1, 
      "EchoTime": 35.0, 
      "EchoTrainLength": 39, 
      "FlipAngle": 90.0, 
      "HighBit": 11, 
      "ImageOrientationPatient": [0.99912689620116, 0.00616524208301, -0.0413211214453, 0.00627774515858, 0.95566729167851, 0.29438175475321], 
      "ImagePositionPatient": [-725.18849334457, -684.44843374586, -226.11053922141], 
      "ImageType": [
        "ORIGINAL", 
        "PRIMARY", 
        "M", 
        "ND", 
        "NORM", 
        "MOSAIC"
], 
      "ImagedNucleus": "1H", 
      "ImagingFrequency": 123.252554, 
      "InPlanePhaseEncodingDirection": "COL", 
      "MRAcquisitionType": "2D", 
      "MagneticFieldStrength": 3.0, 
      "Manufacturer": "SIEMENS", 
      "ManufacturerModelName": "Prisma", 
      "Modality": "MR", 
      "NumberOfAverages": 1.0, 
      "NumberOfPhaseEncodingSteps": 79, 
      "PercentPhaseFieldOfView": 100.0, 
      "PercentSampling": 100.0, 
      "PerformedProcedureStepStartTime": "082943.581000", 
      "PhotometricInterpretation": "MONOCHROME2", 
      "PixelBandwidth": 2315.0, 
      "PixelRepresentation": 0, 
      "PixelSpacing": [3.0, 3.0], 
      "PositionReferenceIndicator": "", 
      "ProtocolName": "func-bold_task-rest_acq-p2", 
      "RepetitionTime": 2000.0, 
      "Rows": 480, 
      "SAR": 0.05581190003385, 
      "SamplesPerPixel": 1, 
      "ScanOptions": "FS", 
      "ScanningSequence": "EP", 
      "SequenceName": "*epfid2d1_80", 
      "SequenceVariant": "SK", 
      "SeriesDescription": "func-bold_task-rest_acq-p2", 
      "SeriesNumber": 5, 
      "SeriesTime": "083519.235000", 
      "SliceLocation": -44.351586402115, 
      "SliceThickness": 3.5, 
      "SmallestImagePixelValue": 0, 
      "SoftwareVersions": "syngo MR E11", 
      "SpacingBetweenSlices": 3.9899999138782, 
      "SpecificCharacterSet": "ISO_IR 100", 
      "StudyID": "44", 
      "StudyTime": "082943.467000", 
      "TransmitCoilName": "Body", 
      "VariableFlipAngleFlag": "N", 
      "WindowCenterWidthExplanation": "Algo1", 
      "dBdt": 0.0}, 
    "slices": {}
  }, 
  "time": {
    "samples": {
      "AcquisitionNumber": [1, 2, 3, 4, 5, 6, 7, 8, 9, 10, 11, 12, 13, 14, 15, 16, 17, 18, 19, 20, 21, 22, 23, 24, 25, 26, 27, 28, 29, 30, 31, 32, 33, 34, 35, 36, 37, 38, 39, 40, 41, 42, 43, 44, 45, 46, 47, 48, 49, 50, 51, 52, 53, 54, 55, 56, 57, 58, 59, 60, 61, 62, 63, 64, 65, 66, 67, 68, 69, 70, 71, 72, 73, 74, 75, 76, 77, 78, 79, 80, 81, 82, 83, 84, 85, 86, 87, 88, 89, 90, 91, 92, 93, 94, 95, 96, 97, 98, 99, 100, 101, 102, 103, 104, 105, 106, 107, 108, 109, 110, 111, 112, 113, 114, 115, 116, 117, 118, 119, 120, 121, 122, 123, 124, 125, 126, 127, 128, 129, 130, 131, 132, 133, 134, 135, 136, 137, 138, 139, 140, 141, 142, 143, 144, 145, 146, 147, 148, 149, 150, 151, 152, 153, 154, 155, 156, 157, 158, 159, 160, 161, 162, 163, 164, 165, 166, 167, 168, 169, 170, 171, 172, 173, 174, 175, 176, 177, 178, 179, 180, 181, 182, 183, 184, 185, 186, 187, 188, 189, 190, 191, 192, 193, 194, 195, 196, 197, 198, 199, 200], 
      "AcquisitionTime": ["083423.220000", "083425.220000", "083427.220000", "083429.220000", "083431.220000", "083433.220000", "083435.220000", "083437.220000", "083439.220000", "083441.220000", "083443.220000", "083445.220000", "083447.220000", "083449.220000", "083451.220000", "083453.220000", "083455.220000", "083457.220000", "083459.220000", "083501.220000", "083503.220000", "083505.220000", "083507.220000", "083509.220000", "083511.220000", "083513.220000", "083515.220000", "083517.220000", "083519.220000", "083521.220000", "083523.220000", "083525.220000", "083527.220000", "083529.220000", "083531.220000", "083533.220000", "083535.220000", "083537.220000", "083539.220000", "083541.220000", "083543.220000", "083545.220000", "083547.220000", "083549.220000", "083551.220000", "083553.220000", "083555.220000", "083557.220000", "083559.220000", "083601.220000", "083603.220000", "083605.220000", "083607.220000", "083609.220000", "083611.220000", "083613.220000", "083615.220000", "083617.220000", "083619.220000", "083621.220000", "083623.220000", "083625.220000", "083627.220000", "083629.220000", "083631.220000", "083633.220000", "083635.220000", "083637.220000", "083639.220000", "083641.220000", "083643.220000", "083645.220000", "083647.220000", "083649.220000", "083651.220000", "083653.220000", "083655.220000", "083657.220000", "083659.220000", "083701.220000", "083703.220000", "083705.220000", "083707.220000", "083709.220000", "083711.220000", "083713.220000", "083715.220000", "083717.220000", "083719.220000", "083721.220000", "083723.220000", "083725.220000", "083727.220000", "083729.220000", "083731.220000", "083733.220000", "083735.220000", "083737.220000", "083739.220000", "083741.220000", "083743.220000", "083745.220000", "083747.220000", "083749.220000", "083751.220000", "083753.220000", "083755.220000", "083757.220000", "083759.220000", "083801.220000", "083803.220000", "083805.220000", "083807.220000", "083809.220000", "083811.220000", "083813.220000", "083815.220000", "083817.220000", "083819.220000", "083821.220000", "083823.220000", "083825.220000", "083827.220000", "083829.220000", "083831.220000", "083833.220000", "083835.220000", "083837.220000", "083839.220000", "083841.220000", "083843.220000", "083845.220000", "083847.220000", "083849.220000", "083851.220000", "083853.220000", "083855.220000", "083857.220000", "083859.220000", "083901.220000", "083903.220000", "083905.220000", "083907.220000", "083909.220000", "083911.220000", "083913.220000", "083915.220000", "083917.220000", "083919.220000", "083921.220000", "083923.220000", "083925.220000", "083927.220000", "083929.220000", "083931.220000", "083933.220000", "083935.220000", "083937.220000", "083939.220000", "083941.220000", "083943.220000", "083945.220000", "083947.220000", "083949.220000", "083951.220000", "083953.220000", "083955.220000", "083957.220000", "083959.220000", "084001.220000", "084003.220000", "084005.220000", "084007.220000", "084009.220000", "084011.220000", "084013.220000", "084015.220000", "084017.220000", "084019.220000", "084021.220000", "084023.220000", "084025.220000", "084027.220000", "084029.220000", "084031.220000", "084033.220000", "084035.220000", "084037.220000", "084039.220000", "084041.220000", "084043.220000", "084045.220000", "084047.220000", "084049.220000", "084051.220000", "084053.220000", "084055.220000", "084057.220000", "084059.220000", "084101.220000"], 
      "ContentTime": ["083519.240000", "083519.244000", "083519.247000", "083519.249000", "083519.252000", "083519.254000", "083519.257000", "083519.259000", "083519.262000", "083519.264000", "083519.267000", "083519.269000", "083519.277000", "083519.280000", "083519.282000", "083519.285000", "083519.287000", "083519.290000", "083519.292000", "083519.300000", "083519.302000", "083519.305000", "083519.312000", "083519.314000", "083519.317000", "083519.319000", "083519.322000", "083519.324000", "083559.233000", "083559.236000", "083559.238000", "083559.241000", "083559.243000", "083559.246000", "083559.249000", "083559.251000", "083559.254000", "083559.256000", "083559.259000", "083559.261000", "083559.264000", "083559.266000", "083559.269000", "083559.271000", "083559.274000", "083559.276000", "083559.279000", "083559.281000", "083639.236000", "083639.238000", "083639.241000", "083639.243000", "083639.246000", "083639.249000", "083639.251000", "083639.253000", "083639.256000", "083639.258000", "083639.261000", "083639.264000", "083639.266000", "083639.269000", "083639.271000", "083639.274000", "083639.281000", "083639.283000", "083639.286000", "083639.288000", "083719.233000", "083719.236000", "083719.239000", "083719.241000", "083719.244000", "083719.246000", "083719.249000", "083719.251000", "083719.254000", "083719.256000", "083719.259000", "083719.261000", "083719.264000", "083719.267000", "083719.269000", "083719.272000", "083719.274000", "083719.277000", "083719.279000", "083719.282000", "083759.235000", "083759.238000", "083759.240000", "083759.243000", "083759.245000", "083759.248000", "083759.250000", "083759.253000", "083759.255000", "083759.258000", "083759.260000", "083759.263000", "083759.266000", "083759.268000", "083759.270000", "083759.273000", "083759.276000", "083759.278000", "083759.281000", "083759.283000", "083839.233000", "083839.236000", "083839.239000", "083839.241000", "083839.244000", "083839.246000", "083839.249000", "083839.251000", "083839.254000", "083839.256000", "083839.259000", "083839.261000", "083839.264000", "083839.266000", "083839.269000", "083839.271000", "083839.274000", "083839.277000", "083839.279000", "083839.282000", "083919.234000", "083919.237000", "083919.240000", "083919.243000", "083919.245000", "083919.248000", "083919.250000", "083919.253000", "083919.255000", "083919.258000", "083919.260000", "083919.263000", "083919.265000", "083919.268000", "083919.270000", "083919.273000", "083919.275000", "083919.278000", "083919.280000", "083919.283000", "083959.233000", "083959.236000", "083959.239000", "083959.241000", "083959.244000", "083959.246000", "083959.249000", "083959.251000", "083959.254000", "083959.256000", "083959.259000", "083959.261000", "083959.264000", "083959.266000", "083959.269000", "083959.271000", "083959.274000", "083959.276000", "083959.279000", "083959.281000", "084039.233000", "084039.236000", "084039.239000", "084039.241000", "084039.244000", "084039.246000", "084039.249000", "084039.251000", "084039.254000", "084039.256000", "084039.259000", "084039.261000", "084039.264000", "084039.266000", "084039.269000", "084039.271000", "084039.274000", "084039.276000", "084039.279000", "084039.281000", "084102.351000", "084102.354000", "084102.357000", "084102.360000", "084102.362000", "084102.365000", "084102.368000", "084102.371000", "084102.373000", "084102.376000", "084102.379000", "084102.382000"], 
      "InstanceCreationTime": ["083519.240000", "083519.244000", "083519.247000", "083519.249000", "083519.252000", "083519.254000", "083519.257000", "083519.259000", "083519.262000", "083519.264000", "083519.267000", "083519.269000", "083519.277000", "083519.280000", "083519.282000", "083519.285000", "083519.287000", "083519.290000", "083519.292000", "083519.300000", "083519.302000", "083519.305000", "083519.312000", "083519.314000", "083519.317000", "083519.319000", "083519.322000", "083519.324000", "083559.233000", "083559.236000", "083559.238000", "083559.241000", "083559.243000", "083559.246000", "083559.249000", "083559.251000", "083559.254000", "083559.256000", "083559.259000", "083559.261000", "083559.264000", "083559.266000", "083559.269000", "083559.271000", "083559.274000", "083559.276000", "083559.279000", "083559.281000", "083639.236000", "083639.238000", "083639.241000", "083639.243000", "083639.246000", "083639.249000", "083639.251000", "083639.253000", "083639.256000", "083639.258000", "083639.261000", "083639.264000", "083639.266000", "083639.269000", "083639.271000", "083639.274000", "083639.281000", "083639.283000", "083639.286000", "083639.288000", "083719.233000", "083719.236000", "083719.239000", "083719.241000", "083719.244000", "083719.246000", "083719.249000", "083719.251000", "083719.254000", "083719.256000", "083719.259000", "083719.261000", "083719.264000", "083719.267000", "083719.269000", "083719.272000", "083719.274000", "083719.277000", "083719.279000", "083719.282000", "083759.235000", "083759.238000", "083759.240000", "083759.243000", "083759.245000", "083759.248000", "083759.250000", "083759.253000", "083759.255000", "083759.258000", "083759.260000", "083759.263000", "083759.266000", "083759.268000", "083759.270000", "083759.273000", "083759.276000", "083759.278000", "083759.281000", "083759.283000", "083839.233000", "083839.236000", "083839.239000", "083839.241000", "083839.244000", "083839.246000", "083839.249000", "083839.251000", "083839.254000", "083839.256000", "083839.259000", "083839.261000", "083839.264000", "083839.266000", "083839.269000", "083839.271000", "083839.274000", "083839.277000", "083839.279000", "083839.282000", "083919.234000", "083919.237000", "083919.240000", "083919.243000", "083919.245000", "083919.248000", "083919.250000", "083919.253000", "083919.255000", "083919.258000", "083919.260000", "083919.263000", "083919.265000", "083919.268000", "083919.270000", "083919.273000", "083919.275000", "083919.278000", "083919.280000", "083919.283000", "083959.233000", "083959.236000", "083959.239000", "083959.241000", "083959.244000", "083959.246000", "083959.249000", "083959.251000", "083959.254000", "083959.256000", "083959.259000", "083959.261000", "083959.264000", "083959.266000", "083959.269000", "083959.271000", "083959.274000", "083959.276000", "083959.279000", "083959.281000", "084039.233000", "084039.236000", "084039.239000", "084039.241000", "084039.244000", "084039.246000", "084039.249000", "084039.251000", "084039.254000", "084039.256000", "084039.259000", "084039.261000", "084039.264000", "084039.266000", "084039.269000", "084039.271000", "084039.274000", "084039.276000", "084039.279000", "084039.281000", "084102.351000", "084102.354000", "084102.357000", "084102.360000", "084102.362000", "084102.365000", "084102.368000", "084102.371000", "084102.373000", "084102.376000", "084102.379000", "084102.382000"], 
      "InstanceNumber": [1, 2, 3, 4, 5, 6, 7, 8, 9, 10, 11, 12, 13, 14, 15, 16, 17, 18, 19, 20, 21, 22, 23, 24, 25, 26, 27, 28, 29, 30, 31, 32, 33, 34, 35, 36, 37, 38, 39, 40, 41, 42, 43, 44, 45, 46, 47, 48, 49, 50, 51, 52, 53, 54, 55, 56, 57, 58, 59, 60, 61, 62, 63, 64, 65, 66, 67, 68, 69, 70, 71, 72, 73, 74, 75, 76, 77, 78, 79, 80, 81, 82, 83, 84, 85, 86, 87, 88, 89, 90, 91, 92, 93, 94, 95, 96, 97, 98, 99, 100, 101, 102, 103, 104, 105, 106, 107, 108, 109, 110, 111, 112, 113, 114, 115, 116, 117, 118, 119, 120, 121, 122, 123, 124, 125, 126, 127, 128, 129, 130, 131, 132, 133, 134, 135, 136, 137, 138, 139, 140, 141, 142, 143, 144, 145, 146, 147, 148, 149, 150, 151, 152, 153, 154, 155, 156, 157, 158, 159, 160, 161, 162, 163, 164, 165, 166, 167, 168, 169, 170, 171, 172, 173, 174, 175, 176, 177, 178, 179, 180, 181, 182, 183, 184, 185, 186, 187, 188, 189, 190, 191, 192, 193, 194, 195, 196, 197, 198, 199, 200], 
      "LargestImagePixelValue": [2157, 2159, 2160, 2160, 2157, 2162, 2156, 2167, 2158, 2168, 2159, 2157, 2149, 2161, 2158, 2160, 2159, 2170, 2163, 2159, 2156, 2154, 2156, 2162, 2162, 2156, 2159, 2159, 2170, 2162, 2165, 2163, 2162, 2161, 2159, 2167, 2165, 2165, 2162, 2162, 2164, 2155, 2155, 2162, 2155, 2163, 2158, 2156, 2165, 2165, 2165, 2154, 2168, 2164, 2162, 2160, 2156, 2157, 2164, 2162, 2164, 2159, 2158, 2164, 2158, 2163, 2165, 2155, 2165, 2163, 2161, 2161, 2167, 2158, 2155, 2161, 2162, 2165, 2165, 2162, 2161, 2163, 2164, 2164, 2158, 2167, 2152, 2165, 2158, 2161, 2156, 2165, 2155, 2163, 2160, 2154, 2158, 2161, 2164, 2169, 2165, 2171, 2157, 2168, 2158, 2162, 2159, 2152, 2152, 2166, 2166, 2168, 2166, 2161, 2157, 2160, 2163, 2163, 2161, 2164, 2165, 2160, 2163, 2161, 2161, 2162, 2159, 2157, 2154, 2160, 2155, 2163, 2159, 2166, 2155, 2161, 2163, 2148, 2170, 2159, 2164, 2163, 2165, 2159, 2156, 2160, 2164, 2166, 2161, 2158, 2159, 2162, 2162, 2154, 2163, 2164, 2153, 2160, 2153, 2162, 2160, 2151, 2160, 2152, 2155, 2159, 2151, 2159, 2166, 2158, 2158, 2159, 2158, 2158, 2151, 2161, 2160, 2162, 2161, 2166, 2156, 2161, 2158, 2164, 2164, 2157, 2164, 2165, 2156, 2157, 2160, 2164, 2164, 2155, 2155, 2157, 2160, 2163, 2160, 2153], 
      "WindowCenter": [1023.0, 1023.0, 1024.0, 1024.0, 1023.0, 1023.0, 1024.0, 1024.0, 1024.0, 1023.0, 1024.0, 1024.0, 1023.0, 1023.0, 1023.0, 1024.0, 1023.0, 1024.0, 1023.0, 1023.0, 1023.0, 1023.0, 1024.0, 1023.0, 1024.0, 1024.0, 1023.0, 1023.0, 1025.0, 1023.0, 1024.0, 1023.0, 1024.0, 1023.0, 1024.0, 1023.0, 1023.0, 1024.0, 1023.0, 1024.0, 1023.0, 1023.0, 1024.0, 1023.0, 1023.0, 1023.0, 1023.0, 1024.0, 1024.0, 1024.0, 1023.0, 1023.0, 1024.0, 1023.0, 1023.0, 1024.0, 1024.0, 1024.0, 1023.0, 1023.0, 1024.0, 1023.0, 1024.0, 1023.0, 1024.0, 1023.0, 1024.0, 1023.0, 1024.0, 1023.0, 1024.0, 1024.0, 1023.0, 1024.0, 1023.0, 1023.0, 1024.0, 1023.0, 1024.0, 1024.0, 1023.0, 1023.0, 1024.0, 1024.0, 1024.0, 1023.0, 1024.0, 1023.0, 1024.0, 1023.0, 1024.0, 1024.0, 1024.0, 1023.0, 1024.0, 1024.0, 1024.0, 1024.0, 1024.0, 1023.0, 1024.0, 1024.0, 1024.0, 1023.0, 1024.0, 1024.0, 1023.0, 1024.0, 1024.0, 1024.0, 1023.0, 1024.0, 1023.0, 1023.0, 1023.0, 1024.0, 1024.0, 1024.0, 1023.0, 1024.0, 1024.0, 1024.0, 1024.0, 1024.0, 1023.0, 1023.0, 1024.0, 1023.0, 1024.0, 1023.0, 1023.0, 1024.0, 1023.0, 1024.0, 1023.0, 1023.0, 1023.0, 1023.0, 1023.0, 1023.0, 1024.0, 1024.0, 1024.0, 1023.0, 1024.0, 1023.0, 1024.0, 1024.0, 1024.0, 1025.0, 1024.0, 1024.0, 1023.0, 1023.0, 1024.0, 1023.0, 1023.0, 1023.0, 1024.0, 1024.0, 1024.0, 1024.0, 1024.0, 1024.0, 1023.0, 1023.0, 1023.0, 1024.0, 1024.0, 1023.0, 1023.0, 1023.0, 1023.0, 1024.0, 1024.0, 1024.0, 1024.0, 1024.0, 1023.0, 1024.0, 1023.0, 1023.0, 1023.0, 1024.0, 1023.0, 1023.0, 1023.0, 1023.0, 1023.0, 1024.0, 1024.0, 1024.0, 1024.0, 1023.0, 1024.0, 1024.0, 1023.0, 1024.0, 1023.0, 1024.0], 
      "WindowWidth": [2261.0, 2260.0, 2261.0, 2261.0, 2260.0, 2260.0, 2261.0, 2261.0, 2262.0, 2260.0, 2262.0, 2262.0, 2261.0, 2261.0, 2261.0, 2262.0, 2261.0, 2262.0, 2261.0, 2261.0, 2261.0, 2261.0, 2262.0, 2261.0, 2262.0, 2262.0, 2261.0, 2261.0, 2263.0, 2262.0, 2262.0, 2261.0, 2263.0, 2262.0, 2263.0, 2262.0, 2262.0, 2263.0, 2262.0, 2263.0, 2262.0, 2262.0, 2263.0, 2262.0, 2262.0, 2262.0, 2262.0, 2263.0, 2263.0, 2263.0, 2262.0, 2262.0, 2263.0, 2262.0, 2262.0, 2263.0, 2263.0, 2263.0, 2262.0, 2262.0, 2263.0, 2262.0, 2263.0, 2262.0, 2263.0, 2262.0, 2263.0, 2263.0, 2263.0, 2262.0, 2263.0, 2263.0, 2262.0, 2263.0, 2262.0, 2262.0, 2263.0, 2262.0, 2263.0, 2263.0, 2262.0, 2262.0, 2263.0, 2263.0, 2263.0, 2262.0, 2263.0, 2262.0, 2263.0, 2262.0, 2263.0, 2263.0, 2263.0, 2262.0, 2263.0, 2263.0, 2263.0, 2263.0, 2263.0, 2262.0, 2263.0, 2263.0, 2263.0, 2262.0, 2263.0, 2263.0, 2262.0, 2263.0, 2263.0, 2263.0, 2262.0, 2263.0, 2262.0, 2262.0, 2262.0, 2263.0, 2263.0, 2263.0, 2262.0, 2263.0, 2263.0, 2263.0, 2263.0, 2263.0, 2262.0, 2262.0, 2263.0, 2262.0, 2263.0, 2262.0, 2262.0, 2263.0, 2262.0, 2263.0, 2262.0, 2262.0, 2262.0, 2262.0, 2262.0, 2262.0, 2263.0, 2263.0, 2263.0, 2262.0, 2263.0, 2262.0, 2263.0, 2263.0, 2263.0, 2263.0, 2263.0, 2263.0, 2262.0, 2262.0, 2263.0, 2262.0, 2262.0, 2262.0, 2263.0, 2263.0, 2263.0, 2263.0, 2263.0, 2263.0, 2261.0, 2262.0, 2262.0, 2263.0, 2263.0, 2262.0, 2262.0, 2262.0, 2262.0, 2263.0, 2263.0, 2262.0, 2263.0, 2263.0, 2262.0, 2263.0, 2262.0, 2262.0, 2262.0, 2263.0, 2262.0, 2262.0, 2262.0, 2262.0, 2262.0, 2263.0, 2262.0, 2262.0, 2263.0, 2262.0, 2263.0, 2263.0, 2262.0, 2263.0, 2262.0, 2263.0]
    }, 
    "slices": {}
  }
}