{
  "AcquisitionMatrixPE": 80,
  "AcquisitionNumber": 1,
  "AcquisitionTime": "08:41:17.177500",
  "BandwidthPerPixelPhaseEncode": 44.643,
  "BaseResolution": 80,
  "BodyPartExamined": "BRAIN",
  "CoilCombinationMethod": "Sum of Squares",
  "ConsistencyInfo": "N4_VE11C_LATEST_20160120",
  "ConversionSoftware": "dcm2niix",
  "ConversionSoftwareVersion": "v1.0.20220720",
  "DerivedVendorReportedEchoSpacing": 0.000559998,
  "DeviceSerialNumber": "66112",
  "DwellTime": 2.7e-06,
  "EchoTime": 0.035,
  "EchoTrainLength": 39,
  "EffectiveEchoSpacing": 0.000279999,
  "FlipAngle": 90,
  "HeudiconvVersion": "0.13.1",
  "ImageOrientationPatientDICOM": [0.999127, 0.00616524, -0.0413211, 0.00627775, 0.955667, 0.294382],
  "ImageOrientationText": "Tra>Cor(17.1)>Sag(-2.4)",
  "ImageType": [
    "ORIGINAL",
    "PRIMARY",
    "M",
    "ND",
    "NORM",
    "MOSAIC"
],
  "ImagingFrequency": 123.253,
  "InPlanePhaseEncodingDirectionDICOM": "COL",
  "InstitutionAddress": "Maynard 3,Hanover,NH,US,03755",
  "InstitutionName": "Dartmouth College - PBS",
  "InstitutionalDepartmentName": "Department",
  "MRAcquisitionType": "2D",
  "MagneticFieldStrength": 3,
  "Manufacturer": "Siemens",
  "ManufacturersModelName": "Prisma",
  "Modality": "MR",
  "MultibandAccelerationFactor": 4,
  "NonlinearGradientCorrection": false,
  "ParallelReductionFactorInPlane": 2,
  "PartialFourier": 1,
  "PatientPosition": "HFS",
  "PercentPhaseFOV": 100,
  "PercentSampling": 100,
  "PhaseEncodingDirection": "j-",
  "PhaseEncodingSteps": 79,
  "PhaseResolution": 1,
  "PixelBandwidth": 2315,
  "ProcedureStepDescription": "dbic^QA",
  "ProtocolName": "func-bold_task-rest_acq-p2-s4-3.5mm",
  "PulseSequenceDetails": "%SiemensSeq%\\ep2d_bold",
  "ReceiveCoilActiveElements": "HEA;HEP",
  "ReceiveCoilName": "Head_32",
  "ReconMatrixPE": 80,
  "RefLinesPE": 24,
  "RepetitionTime": 2,
  "SAR": 0.0209869,
  "ScanOptions": "FS",
  "ScanningSequence": "EP",
  "SequenceName": "*epfid2d1_80",
  "SequenceVariant": "SK",
  "SeriesDescription": "func-bold_task-rest_acq-p2-s4-3.5mm",
  "SeriesNumber": 7,
  "ShimSetting": [4146, -7704, -7510, 306, -65, -131, 16, 56],
  "SliceThickness": 3.5,
  "SliceTiming": [1.485, 0, 0.99, 0.2475, 1.2375, 0.7425, 1.7325, 0.495, 1.485, 0, 0.99, 0.2475, 1.2375, 0.7425, 1.7325, 0.495, 1.485, 0, 0.99, 0.2475, 1.2375, 0.7425, 1.7325, 0.495, 1.485, 0, 0.99, 0.2475, 1.2375, 0.7425, 1.7325, 0.495],
  "SoftwareVersions": "syngo MR E11",
  "SpacingBetweenSlices": 3.99,
  "StationName": "AWP66112",
  "TaskName": "rest",
  "TotalReadoutTime": 0.0221199,
  "TxRefAmp": 232.233,
  "dcmmeta_affine": [
    [-2.9973807334899902, 0.018833234906196594, -0.16480368375778198, 120.62268829345703],
    [-0.018495725467801094, 2.86700177192688, 1.1745927333831787, -120.3188247680664],
    [-0.123963363468647, -0.883145272731781, 3.809628963470459, -8.315314292907715],
    [0.0, 0.0, 0.0, 1.0]
],
  "dcmmeta_reorient_transform": [
    [0.0, -1.0, 0.0, 79.0],
    [1.0, 0.0, 0.0, 0.0],
    [0.0, 0.0, 1.0, 0.0],
    [0.0, 0.0, 0.0, 1.0]
],
  "dcmmeta_shape": [80, 80, 32, 200],
  "dcmmeta_slice_dim": 2,
  "dcmmeta_version": 0.6,
  "global": {
    "const": {
      "AccessionNumber": "qa",
      "AcquisitionMatrix": [80, 0, 0, 80],
      "AngioFlag": "N",
      "BitsAllocated": 16,
      "BitsStored": 12,
      "BodyPartExamined": "BRAIN",
      "Columns": 480,
      "EchoNumbers": 1,
      "EchoTime": 35.0,
      "EchoTrainLength": 39,
      "FlipAngle": 90.0,
      "HighBit": 11,
      "ImageOrientationPatient": [0.99912689620116, 0.00616524208301, -0.0413211214453, 0.00627774515858, 0.95566729167851, 0.29438175475321],
      "ImagePositionPatient": [-725.35329696872, -683.27384077406, -229.92017056906],
      "ImageType": [
        "ORIGINAL",
        "PRIMARY",
        "M",
        "ND",
        "NORM",
        "MOSAIC"
],
      "ImagedNucleus": "1H",
      "ImagingFrequency": 123.252551,
      "InPlanePhaseEncodingDirection": "COL",
      "MRAcquisitionType": "2D",
      "MagneticFieldStrength": 3.0,
      "Manufacturer": "SIEMENS",
      "ManufacturerModelName": "Prisma",
      "Modality": "MR",
      "NumberOfAverages": 1.0,
      "NumberOfPhaseEncodingSteps": 79,
      "PercentPhaseFieldOfView": 100.0,
      "PercentSampling": 100.0,
      "PerformedProcedureStepStartTime": "082943.581000",
      "PhotometricInterpretation": "MONOCHROME2",
      "PixelBandwidth": 2315.0,
      "PixelRepresentation": 0,
      "PixelSpacing": [3.0, 3.0],
      "ProtocolName": "func-bold_task-rest_acq-p2-s4-3.5mm",
      "RepetitionTime": 2000.0,
      "Rows": 480,
      "SAR": 0.0209869002184,
      "SamplesPerPixel": 1,
      "ScanOptions": "FS",
      "ScanningSequence": "EP",
      "SequenceName": "*epfid2d1_80",
      "SequenceVariant": "SK",
      "SeriesDescription": "func-bold_task-rest_acq-p2-s4-3.5mm",
      "SeriesNumber": 7,
      "SeriesTime": "084159.306000",
      "SliceLocation": -48.341588894468,
      "SliceThickness": 3.5,
      "SmallestImagePixelValue": 0,
      "SoftwareVersions": "syngo MR E11",
      "SpacingBetweenSlices": 3.9900000619599,
      "SpecificCharacterSet": "ISO_IR 100",
      "StudyID": "44",
      "StudyTime": "082943.467000",
      "TransmitCoilName": "Body",
      "VariableFlipAngleFlag": "N",
      "WindowCenterWidthExplanation": "Algo1",
      "dBdt": 0.0},
    "slices": {}
  },
  "time": {
    "samples": {
      "AcquisitionNumber": [1, 2, 3, 4, 5, 6, 7, 8, 9, 10, 11, 12, 13, 14, 15, 16, 17, 18, 19, 20, 21, 22, 23, 24, 25, 26, 27, 28, 29, 30, 31, 32, 33, 34, 35, 36, 37, 38, 39, 40, 41, 42, 43, 44, 45, 46, 47, 48, 49, 50, 51, 52, 53, 54, 55, 56, 57, 58, 59, 60, 61, 62, 63, 64, 65, 66, 67, 68, 69, 70, 71, 72, 73, 74, 75, 76, 77, 78, 79, 80, 81, 82, 83, 84, 85, 86, 87, 88, 89, 90, 91, 92, 93, 94, 95, 96, 97, 98, 99, 100, 101, 102, 103, 104, 105, 106, 107, 108, 109, 110, 111, 112, 113, 114, 115, 116, 117, 118, 119, 120, 121, 122, 123, 124, 125, 126, 127, 128, 129, 130, 131, 132, 133, 134, 135, 136, 137, 138, 139, 140, 141, 142, 143, 144, 145, 146, 147, 148, 149, 150, 151, 152, 153, 154, 155, 156, 157, 158, 159, 160, 161, 162, 163, 164, 165, 166, 167, 168, 169, 170, 171, 172, 173, 174, 175, 176, 177, 178, 179, 180, 181, 182, 183, 184, 185, 186, 187, 188, 189, 190, 191, 192, 193, 194, 195, 196, 197, 198, 199, 200],
      "AcquisitionTime": ["084117.177500", "084119.177500", "084121.177500", "084123.177500", "084125.177500", "084127.177500", "084129.177500", "084131.177500", "084133.177500", "084135.177500", "084137.177500", "084139.177500", "084141.177500", "084143.177500", "084145.177500", "084147.177500", "084149.177500", "084151.177500", "084153.177500", "084155.177500", "084157.177500", "084159.177500", "084201.177500", "084203.177500", "084205.177500", "084207.177500", "084209.177500", "084211.177500", "084213.177500", "084215.177500", "084217.177500", "084219.177500", "084221.177500", "084223.177500", "084225.177500", "084227.177500", "084229.177500", "084231.177500", "084233.177500", "084235.177500", "084237.177500", "084239.177500", "084241.177500", "084243.177500", "084245.177500", "084247.177500", "084249.177500", "084251.177500", "084253.177500", "084255.177500", "084257.177500", "084259.177500", "084301.177500", "084303.177500", "084305.177500", "084307.177500", "084309.177500", "084311.177500", "084313.177500", "084315.177500", "084317.177500", "084319.177500", "084321.177500", "084323.177500", "084325.177500", "084327.177500", "084329.177500", "084331.177500", "084333.177500", "084335.177500", "084337.177500", "084339.177500", "084341.177500", "084343.177500", "084345.177500", "084347.177500", "084349.177500", "084351.177500", "084353.177500", "084355.177500", "084357.177500", "084359.177500", "084401.177500", "084403.177500", "084405.177500", "084407.177500", "084409.177500", "084411.177500", "084413.177500", "084415.177500", "084417.177500", "084419.177500", "084421.177500", "084423.177500", "084425.177500", "084427.177500", "084429.177500", "084431.177500", "084433.177500", "084435.177500", "084437.177500", "084439.177500", "084441.177500", "084443.177500", "084445.177500", "084447.177500", "084449.177500", "084451.177500", "084453.177500", "084455.177500", "084457.177500", "084459.177500", "084501.177500", "084503.177500", "084505.177500", "084507.177500", "084509.177500", "084511.177500", "084513.177500", "084515.177500", "084517.177500", "084519.177500", "084521.177500", "084523.177500", "084525.177500", "084527.177500", "084529.177500", "084531.177500", "084533.177500", "084535.177500", "084537.177500", "084539.177500", "084541.177500", "084543.177500", "084545.177500", "084547.177500", "084549.177500", "084551.177500", "084553.177500", "084555.177500", "084557.177500", "084559.177500", "084601.177500", "084603.177500", "084605.177500", "084607.177500", "084609.177500", "084611.177500", "084613.177500", "084615.177500", "084617.177500", "084619.177500", "084621.177500", "084623.177500", "084625.177500", "084627.177500", "084629.177500", "084631.177500", "084633.177500", "084635.177500", "084637.177500", "084639.177500", "084641.177500", "084643.177500", "084645.177500", "084647.177500", "084649.177500", "084651.177500", "084653.177500", "084655.177500", "084657.177500", "084659.177500", "084701.177500", "084703.177500", "084705.177500", "084707.177500", "084709.177500", "084711.177500", "084713.177500", "084715.177500", "084717.177500", "084719.177500", "084721.177500", "084723.177500", "084725.177500", "084727.177500", "084729.177500", "084731.177500", "084733.177500", "084735.177500", "084737.177500", "084739.177500", "084741.177500", "084743.177500", "084745.177500", "084747.177500", "084749.177500", "084751.177500", "084753.177500", "084755.177500"],
      "ContentTime": ["084159.311000", "084159.315000", "084159.317000", "084159.320000", "084159.322000", "084159.334000", "084159.337000", "084159.339000", "084159.342000", "084159.344000", "084159.347000", "084159.349000", "084159.352000", "084159.354000", "084159.357000", "084159.359000", "084159.362000", "084159.365000", "084159.367000", "084159.370000", "084159.372000", "084239.331000", "084239.347000", "084239.349000", "084239.352000", "084239.354000", "084239.357000", "084239.359000", "084239.362000", "084239.364000", "084239.367000", "084239.369000", "084239.372000", "084239.375000", "084239.377000", "084239.379000", "084239.382000", "084239.384000", "084239.387000", "084239.390000", "084239.392000", "084319.303000", "084319.306000", "084319.309000", "084319.311000", "084319.314000", "084319.316000", "084319.319000", "084319.321000", "084319.324000", "084319.326000", "084319.329000", "084319.331000", "084319.334000", "084319.336000", "084319.339000", "084319.341000", "084319.344000", "084319.346000", "084319.349000", "084319.351000", "084359.304000", "084359.307000", "084359.310000", "084359.312000", "084359.315000", "084359.317000", "084359.320000", "084359.322000", "084359.325000", "084359.327000", "084359.330000", "084359.332000", "084359.334000", "084359.337000", "084359.339000", "084359.342000", "084359.344000", "084359.347000", "084359.349000", "084359.352000", "084439.303000", "084439.315000", "084439.317000", "084439.320000", "084439.323000", "084439.325000", "084439.328000", "084439.330000", "084439.333000", "084439.335000", "084439.338000", "084439.340000", "084439.343000", "084439.345000", "084439.348000", "084439.350000", "084439.353000", "084439.355000", "084439.358000", "084439.360000", "084519.303000", "084519.306000", "084519.308000", "084519.311000", "084519.313000", "084519.326000", "084519.329000", "084519.332000", "084519.334000", "084519.337000", "084519.339000", "084519.342000", "084519.344000", "084519.347000", "084519.349000", "084519.352000", "084519.354000", "084519.357000", "084519.359000", "084519.362000", "084559.304000", "084559.307000", "084559.310000", "084559.312000", "084559.314000", "084559.317000", "084559.320000", "084559.322000", "084559.325000", "084559.327000", "084559.330000", "084559.332000", "084559.334000", "084559.337000", "084559.339000", "084559.342000", "084559.344000", "084559.347000", "084559.349000", "084559.352000", "084639.303000", "084639.306000", "084639.308000", "084639.311000", "084639.313000", "084639.316000", "084639.318000", "084639.336000", "084639.339000", "084639.341000", "084639.344000", "084639.346000", "084639.349000", "084639.351000", "084639.354000", "084639.356000", "084639.359000", "084639.361000", "084639.364000", "084639.366000", "084719.303000", "084719.306000", "084719.317000", "084719.320000", "084719.322000", "084719.324000", "084719.327000", "084719.329000", "084719.332000", "084719.335000", "084719.337000", "084719.340000", "084719.342000", "084719.345000", "084719.347000", "084719.350000", "084719.352000", "084719.355000", "084719.357000", "084719.359000", "084756.392000", "084756.395000", "084756.397000", "084756.400000", "084756.403000", "084756.405000", "084756.408000", "084756.410000", "084756.413000", "084756.415000", "084756.418000", "084756.421000", "084756.426000", "084756.430000", "084756.433000", "084756.435000", "084756.439000", "084756.442000", "084756.445000"],
      "InstanceCreationTime": ["084159.311000", "084159.315000", "084159.317000", "084159.320000", "084159.322000", "084159.334000", "084159.337000", "084159.339000", "084159.342000", "084159.344000", "084159.347000", "084159.349000", "084159.352000", "084159.354000", "084159.357000", "084159.359000", "084159.362000", "084159.365000", "084159.367000", "084159.370000", "084159.372000", "084239.331000", "084239.347000", "084239.349000", "084239.352000", "084239.354000", "084239.357000", "084239.359000", "084239.362000", "084239.364000", "084239.367000", "084239.369000", "084239.372000", "084239.375000", "084239.377000", "084239.379000", "084239.382000", "084239.384000", "084239.387000", "084239.390000", "084239.392000", "084319.303000", "084319.306000", "084319.309000", "084319.311000", "084319.314000", "084319.316000", "084319.319000", "084319.321000", "084319.324000", "084319.326000", "084319.329000", "084319.331000", "084319.334000", "084319.336000", "084319.339000", "084319.341000", "084319.344000", "084319.346000", "084319.349000", "084319.351000", "084359.304000", "084359.307000", "084359.310000", "084359.312000", "084359.315000", "084359.317000", "084359.320000", "084359.322000", "084359.325000", "084359.327000", "084359.330000", "084359.332000", "084359.334000", "084359.337000", "084359.339000", "084359.342000", "084359.344000", "084359.347000", "084359.349000", "084359.352000", "084439.303000", "084439.315000", "084439.317000", "084439.320000", "084439.323000", "084439.325000", "084439.328000", "084439.330000", "084439.333000", "084439.335000", "084439.338000", "084439.340000", "084439.343000", "084439.345000", "084439.348000", "084439.350000", "084439.353000", "084439.355000", "084439.358000", "084439.360000", "084519.303000", "084519.306000", "084519.308000", "084519.311000", "084519.313000", "084519.326000", "084519.329000", "084519.332000", "084519.334000", "084519.337000", "084519.339000", "084519.342000", "084519.344000", "084519.347000", "084519.349000", "084519.352000", "084519.354000", "084519.357000", "084519.359000", "084519.362000", "084559.304000", "084559.307000", "084559.310000", "084559.312000", "084559.314000", "084559.317000", "084559.320000", "084559.322000", "084559.325000", "084559.327000", "084559.330000", "084559.332000", "084559.334000", "084559.337000", "084559.339000", "084559.342000", "084559.344000", "084559.347000", "084559.349000", "084559.352000", "084639.303000", "084639.306000", "084639.308000", "084639.311000", "084639.313000", "084639.316000", "084639.318000", "084639.336000", "084639.339000", "084639.341000", "084639.344000", "084639.346000", "084639.349000", "084639.351000", "084639.354000", "084639.356000", "084639.359000", "084639.361000", "084639.364000", "084639.366000", "084719.303000", "084719.306000", "084719.317000", "084719.320000", "084719.322000", "084719.324000", "084719.327000", "084719.329000", "084719.332000", "084719.335000", "084719.337000", "084719.340000", "084719.342000", "084719.345000", "084719.347000", "084719.350000", "084719.352000", "084719.355000", "084719.357000", "084719.359000", "084756.392000", "084756.395000", "084756.397000", "084756.400000", "084756.403000", "084756.405000", "084756.408000", "084756.410000", "084756.413000", "084756.415000", "084756.418000", "084756.421000", "084756.426000", "084756.430000", "084756.433000", "084756.435000", "084756.439000", "084756.442000", "084756.445000"],
      "InstanceNumber": [1, 2, 3, 4, 5, 6, 7, 8, 9, 10, 11, 12, 13, 14, 15, 16, 17, 18, 19, 20, 21, 22, 23, 24, 25, 26, 27, 28, 29, 30, 31, 32, 33, 34, 35, 36, 37, 38, 39, 40, 41, 42, 43, 44, 45, 46, 47, 48, 49, 50, 51, 52, 53, 54, 55, 56, 57, 58, 59, 60, 61, 62, 63, 64, 65, 66, 67, 68, 69, 70, 71, 72, 73, 74, 75, 76, 77, 78, 79, 80, 81, 82, 83, 84, 85, 86, 87, 88, 89, 90, 91, 92, 93, 94, 95, 96, 97, 98, 99, 100, 101, 102, 103, 104, 105, 106, 107, 108, 109, 110, 111, 112, 113, 114, 115, 116, 117, 118, 119, 120, 121, 122, 123, 124, 125, 126, 127, 128, 129, 130, 131, 132, 133, 134, 135, 136, 137, 138, 139, 140, 141, 142, 143, 144, 145, 146, 147, 148, 149, 150, 151, 152, 153, 154, 155, 156, 157, 158, 159, 160, 161, 162, 163, 164, 165, 166, 167, 168, 169, 170, 171, 172, 173, 174, 175, 176, 177, 178, 179, 180, 181, 182, 183, 184, 185, 186, 187, 188, 189, 190, 191, 192, 193, 194, 195, 196, 197, 198, 199, 200],
      "LargestImagePixelValue": [2163, 2157, 2156, 2160, 2163, 2156, 2160, 2159, 2159, 2160, 2162, 2162, 2158, 2155, 2158, 2158, 2156, 2154, 2161, 2162, 2159, 2161, 2156, 2162, 2163, 2159, 2159, 2159, 2158, 2162, 2157, 2156, 2161, 2160, 2162, 2162, 2163, 2167, 2157, 2158, 2160, 2156, 2159, 2160, 2151, 2156, 2156, 2167, 2159, 2160, 2161, 2163, 2155, 2161, 2163, 2161, 2160, 2156, 2162, 2154, 2158, 2166, 2163, 2156, 2158, 2164, 2158, 2160, 2161, 2158, 2156, 2161, 2160, 2164, 2159, 2161, 2160, 2157, 2161, 2162, 2165, 2161, 2157, 2157, 2157, 2156, 2158, 2156, 2162, 2160, 2154, 2163, 2159, 2157, 2163, 2161, 2161, 2159, 2160, 2161, 2163, 2161, 2164, 2162, 2161, 2163, 2161, 2163, 2160, 2159, 2162, 2161, 2157, 2153, 2159, 2162, 2162, 2159, 2157, 2157, 2152, 2160, 2161, 2159, 2157, 2156, 2161, 2164, 2161, 2155, 2157, 2159, 2158, 2159, 2154, 2163, 2163, 2158, 2161, 2163, 2160, 2159, 2162, 2156, 2155, 2153, 2165, 2154, 2156, 2162, 2165, 2156, 2160, 2161, 2152, 2154, 2157, 2157, 2154, 2157, 2157, 2155, 2159, 2163, 2159, 2164, 2161, 2156, 2163, 2160, 2159, 2158, 2160, 2156, 2161, 2155, 2163, 2162, 2159, 2164, 2154, 2161, 2158, 2159, 2162, 2159, 2166, 2160, 2165, 2160, 2155, 2156, 2156, 2157, 2159, 2158, 2160, 2161, 2163, 2156],
      "WindowCenter": [950.0, 950.0, 950.0, 950.0, 950.0, 950.0, 950.0, 950.0, 950.0, 950.0, 950.0, 951.0, 951.0, 951.0, 950.0, 950.0, 950.0, 951.0, 951.0, 951.0, 950.0, 951.0, 951.0, 950.0, 951.0, 951.0, 951.0, 951.0, 951.0, 951.0, 951.0, 951.0, 951.0, 951.0, 951.0, 951.0, 951.0, 951.0, 951.0, 951.0, 951.0, 951.0, 951.0, 951.0, 951.0, 951.0, 951.0, 951.0, 951.0, 951.0, 951.0, 951.0, 951.0, 951.0, 951.0, 951.0, 951.0, 951.0, 951.0, 951.0, 951.0, 951.0, 951.0, 951.0, 951.0, 951.0, 951.0, 951.0, 951.0, 951.0, 951.0, 951.0, 951.0, 951.0, 951.0, 951.0, 951.0, 951.0, 951.0, 951.0, 951.0, 951.0, 951.0, 951.0, 951.0, 951.0, 951.0, 951.0, 951.0, 951.0, 951.0, 951.0, 951.0, 951.0, 951.0, 951.0, 951.0, 951.0, 951.0, 951.0, 951.0, 951.0, 951.0, 951.0, 951.0, 951.0, 951.0, 951.0, 951.0, 951.0, 951.0, 951.0, 951.0, 951.0, 951.0, 951.0, 951.0, 951.0, 951.0, 951.0, 951.0, 951.0, 951.0, 951.0, 951.0, 951.0, 951.0, 951.0, 951.0, 951.0, 951.0, 951.0, 951.0, 951.0, 951.0, 951.0, 951.0, 951.0, 951.0, 951.0, 951.0, 951.0, 951.0, 951.0, 951.0, 951.0, 951.0, 951.0, 951.0, 951.0, 951.0, 951.0, 951.0, 951.0, 951.0, 951.0, 951.0, 951.0, 951.0, 951.0, 951.0, 951.0, 951.0, 951.0, 951.0, 951.0, 951.0, 951.0, 951.0, 951.0, 951.0, 951.0, 951.0, 951.0, 951.0, 951.0, 951.0, 951.0, 951.0, 951.0, 951.0, 951.0, 951.0, 951.0, 951.0, 951.0, 951.0, 951.0, 951.0, 951.0, 951.0, 951.0, 951.0, 951.0, 951.0, 951.0, 951.0, 951.0, 951.0, 951.0],
      "WindowWidth": [2196.0, 2196.0, 2196.0, 2197.0, 2196.0, 2196.0, 2197.0, 2196.0, 2196.0, 2196.0, 2196.0, 2196.0, 2196.0, 2196.0, 2197.0, 2197.0, 2197.0, 2196.0, 2196.0, 2196.0, 2197.0, 2196.0, 2197.0, 2197.0, 2197.0, 2196.0, 2196.0, 2196.0, 2196.0, 2196.0, 2196.0, 2196.0, 2196.0, 2196.0, 2196.0, 2196.0, 2196.0, 2196.0, 2196.0, 2196.0, 2196.0, 2196.0, 2196.0, 2196.0, 2196.0, 2196.0, 2196.0, 2196.0, 2196.0, 2196.0, 2196.0, 2196.0, 2196.0, 2196.0, 2196.0, 2196.0, 2196.0, 2196.0, 2196.0, 2196.0, 2196.0, 2196.0, 2196.0, 2196.0, 2196.0, 2196.0, 2196.0, 2196.0, 2196.0, 2196.0, 2196.0, 2196.0, 2196.0, 2196.0, 2196.0, 2196.0, 2196.0, 2196.0, 2196.0, 2196.0, 2196.0, 2196.0, 2196.0, 2196.0, 2196.0, 2196.0, 2196.0, 2196.0, 2196.0, 2196.0, 2196.0, 2196.0, 2196.0, 2196.0, 2196.0, 2196.0, 2196.0, 2196.0, 2196.0, 2196.0, 2196.0, 2196.0, 2196.0, 2196.0, 2196.0, 2196.0, 2196.0, 2196.0, 2196.0, 2196.0, 2196.0, 2196.0, 2196.0, 2196.0, 2196.0, 2196.0, 2196.0, 2196.0, 2196.0, 2196.0, 2196.0, 2196.0, 2196.0, 2196.0, 2196.0, 2196.0, 2196.0, 2196.0, 2196.0, 2196.0, 2196.0, 2196.0, 2196.0, 2196.0, 2196.0, 2196.0, 2196.0, 2196.0, 2196.0, 2196.0, 2196.0, 2196.0, 2196.0, 2196.0, 2196.0, 2196.0, 2196.0, 2196.0, 2196.0, 2196.0, 2196.0, 2196.0, 2196.0, 2196.0, 2196.0, 2195.0, 2196.0, 2196.0, 2196.0, 2196.0, 2196.0, 2196.0, 2196.0, 2196.0, 2196.0, 2196.0, 2195.0, 2196.0, 2196.0, 2196.0, 2196.0, 2196.0, 2196.0, 2195.0, 2196.0, 2196.0, 2196.0, 2196.0, 2196.0, 2196.0, 2196.0, 2196.0, 2196.0, 2196.0, 2196.0, 2196.0, 2196.0, 2195.0, 2196.0, 2196.0, 2195.0, 2195.0, 2195.0, 2196.0, 2196.0, 2196.0, 2196.0, 2196.0, 2196.0, 2195.0]
    },
    "slices": {}
  }
}