{
  "AcquisitionMatrixPE": 80,
  "AcquisitionNumber": 1,
  "AcquisitionTime": "10:48:10.402500",
  "BandwidthPerPixelPhaseEncode": 25,
  "BaseResolution": 80,
  "BodyPartExamined": "BRAIN",
  "CoilCombinationMethod": "Sum of Squares",
  "ConsistencyInfo": "N4_VE11E_LATEST_20181129",
  "ConversionSoftware": "dcm2niix",
  "ConversionSoftwareVersion": "v1.0.20220720",
  "DerivedVendorReportedEchoSpacing": 0.0005,
  "DeviceSerialNumber": "66112",
  "DwellTime": 2.7e-06,
  "EchoTime": 0.03,
  "EchoTrainLength": 80,
  "EffectiveEchoSpacing": 0.0005,
  "FlipAngle": 77,
  "HeudiconvVersion": "0.13.1",
  "ImageOrientationPatientDICOM": [0.984522, 0.174979, 0.00996316, -0.168111, 0.926744, 0.335983],
  "ImageOrientationText": "Tra>Cor(19.4)>Sag(-2.8)",
  "ImageType": [
    "ORIGINAL",
    "PRIMARY",
    "M",
    "ND",
    "NORM",
    "MOSAIC"
],
  "ImagingFrequency": 123.259,
  "InPlanePhaseEncodingDirectionDICOM": "COL",
  "InstitutionAddress": "Maynard 3,Hanover,NH,US,03755",
  "InstitutionName": "Dartmouth College - PBS",
  "InstitutionalDepartmentName": "Department",
  "MRAcquisitionType": "2D",
  "MagneticFieldStrength": 3,
  "Manufacturer": "Siemens",
  "ManufacturersModelName": "Prisma",
  "MatrixCoilMode": "SENSE",
  "Modality": "MR",
  "NonlinearGradientCorrection": false,
  "PartialFourier": 1,
  "PatientPosition": "HFS",
  "PercentPhaseFOV": 100,
  "PercentSampling": 100,
  "PhaseEncodingDirection": "j-",
  "PhaseEncodingSteps": 80,
  "PhaseResolution": 1,
  "PixelBandwidth": 2315,
  "ProcedureStepDescription": "dbic^QA",
  "ProtocolName": "func-bold_fa-77",
  "PulseSequenceDetails": "%SiemensSeq%\\ep2d_bold",
  "ReceiveCoilActiveElements": "HEA;HEP",
  "ReceiveCoilName": "Head_32",
  "ReconMatrixPE": 80,
  "RepetitionTime": 2,
  "SAR": 0.0432564,
  "ScanOptions": "FS",
  "ScanningSequence": "EP",
  "SequenceName": "*epfid2d1_80",
  "SequenceVariant": "SK",
  "SeriesDescription": "func-bold_fa-77",
  "SeriesNumber": 8,
  "ShimSetting": [4219, -7736, -7479, -23, -145, -19, 4, 70],
  "SliceThickness": 3.5,
  "SliceTiming": [0.99, 0, 1.0575, 0.0675, 1.1225, 0.1325, 1.1875, 0.1975, 1.255, 0.265, 1.32, 0.33, 1.3875, 0.3975, 1.4525, 0.4625, 1.5175, 0.5275, 1.585, 0.595, 1.65, 0.66, 1.7175, 0.7275, 1.7825, 0.7925, 1.8475, 0.8575, 1.915, 0.925],
  "SoftwareVersions": "syngo MR E11",
  "SpacingBetweenSlices": 3.99,
  "StationName": "AWP66112",
  "TotalReadoutTime": 0.0395,
  "TxRefAmp": 230.015,
  "dcmmeta_affine": [
    [-2.9535651206970215, -0.5043315887451172, -0.19773127138614655, 142.07586669921875],
    [-0.5249378681182861, 2.7802321910858154, 1.3265039920806885, -103.4929428100586],
    [0.029889486730098724, -1.0079480409622192, 3.7578437328338623, -10.5018892288208],
    [0.0, 0.0, 0.0, 1.0]
],
  "dcmmeta_reorient_transform": [
    [0.0, -1.0, 0.0, 79.0],
    [1.0, 0.0, 0.0, 0.0],
    [0.0, 0.0, 1.0, 0.0],
    [0.0, 0.0, 0.0, 1.0]
],
  "dcmmeta_shape": [80, 80, 30, 200],
  "dcmmeta_slice_dim": 2,
  "dcmmeta_version": 0.6,
  "global": {
    "const": {
      "AccessionNumber": "qa",
      "AcquisitionMatrix": [80, 0, 0, 80],
      "AngioFlag": "N",
      "BitsAllocated": 16,
      "BitsStored": 12,
      "BodyPartExamined": "BRAIN",
      "Columns": 480,
      "EchoNumbers": 1,
      "EchoTime": 30.0,
      "EchoTrainLength": 80,
      "FlipAngle": 77.0,
      "HighBit": 11,
      "ImageOrientationPatient": [0.98452170371578, 0.17497928536396, 0.00996316245492, -0.1681105218672, 0.92674402581069, 0.3359826826813],
      "ImagePositionPatient": [-592.08037750337, -777.17937504917, -297.69729191483],
      "ImageType": [
        "ORIGINAL",
        "PRIMARY",
        "M",
        "ND",
        "NORM",
        "MOSAIC"
],
      "ImagedNucleus": "1H",
      "ImagingFrequency": 123.25927,
      "InPlanePhaseEncodingDirection": "COL",
      "MRAcquisitionType": "2D",
      "MagneticFieldStrength": 3.0,
      "Manufacturer": "SIEMENS",
      "ManufacturerModelName": "Prisma",
      "Modality": "MR",
      "NumberOfAverages": 1.0,
      "NumberOfPhaseEncodingSteps": 80,
      "PercentPhaseFieldOfView": 100.0,
      "PercentSampling": 100.0,
      "PerformedProcedureStepStartTime": "102802.171000",
      "PhotometricInterpretation": "MONOCHROME2",
      "PixelBandwidth": 2315.0,
      "PixelRepresentation": 0,
      "PixelSpacing": [3.0, 3.0],
      "ProtocolName": "func-bold_fa-77",
      "RepetitionTime": 2000.0,
      "Rows": 480,
      "SAR": 0.04325640072123,
      "SamplesPerPixel": 1,
      "ScanOptions": "FS",
      "ScanningSequence": "EP",
      "SequenceName": "*epfid2d1_80",
      "SequenceVariant": "SK",
      "SeriesDescription": "func-bold_fa-77",
      "SeriesNumber": 8,
      "SeriesTime": "104901.120000",
      "SliceLocation": -51.338623968702,
      "SliceThickness": 3.5,
      "SmallestImagePixelValue": 0,
      "SoftwareVersions": "syngo MR E11",
      "SpacingBetweenSlices": 3.9899999774715,
      "SpecificCharacterSet": "ISO_IR 100",
      "StudyID": "27",
      "StudyTime": "102802.116000",
      "TransmitCoilName": "Body",
      "VariableFlipAngleFlag": "N",
      "WindowCenterWidthExplanation": "Algo1"
    },
    "slices": {}
  },
  "time": {
    "samples": {
      "AcquisitionNumber": [1, 2, 3, 4, 5, 6, 7, 8, 9, 10, 11, 12, 13, 14, 15, 16, 17, 18, 19, 20, 21, 22, 23, 24, 25, 26, 27, 28, 29, 30, 31, 32, 33, 34, 35, 36, 37, 38, 39, 40, 41, 42, 43, 44, 45, 46, 47, 48, 49, 50, 51, 52, 53, 54, 55, 56, 57, 58, 59, 60, 61, 62, 63, 64, 65, 66, 67, 68, 69, 70, 71, 72, 73, 74, 75, 76, 77, 78, 79, 80, 81, 82, 83, 84, 85, 86, 87, 88, 89, 90, 91, 92, 93, 94, 95, 96, 97, 98, 99, 100, 101, 102, 103, 104, 105, 106, 107, 108, 109, 110, 111, 112, 113, 114, 115, 116, 117, 118, 119, 120, 121, 122, 123, 124, 125, 126, 127, 128, 129, 130, 131, 132, 133, 134, 135, 136, 137, 138, 139, 140, 141, 142, 143, 144, 145, 146, 147, 148, 149, 150, 151, 152, 153, 154, 155, 156, 157, 158, 159, 160, 161, 162, 163, 164, 165, 166, 167, 168, 169, 170, 171, 172, 173, 174, 175, 176, 177, 178, 179, 180, 181, 182, 183, 184, 185, 186, 187, 188, 189, 190, 191, 192, 193, 194, 195, 196, 197, 198, 199, 200],
      "AcquisitionTime": ["104810.402500", "104812.402500", "104814.402500", "104816.402500", "104818.402500", "104820.402500", "104822.402500", "104824.402500", "104826.402500", "104828.402500", "104830.402500", "104832.402500", "104834.402500", "104836.402500", "104838.402500", "104840.402500", "104842.402500", "104844.402500", "104846.402500", "104848.402500", "104850.402500", "104852.402500", "104854.402500", "104856.402500", "104858.402500", "104900.402500", "104902.402500", "104904.402500", "104906.402500", "104908.402500", "104910.402500", "104912.402500", "104914.402500", "104916.402500", "104918.402500", "104920.402500", "104922.402500", "104924.402500", "104926.402500", "104928.402500", "104930.402500", "104932.402500", "104934.402500", "104936.402500", "104938.402500", "104940.402500", "104942.402500", "104944.402500", "104946.402500", "104948.402500", "104950.402500", "104952.402500", "104954.402500", "104956.402500", "104958.402500", "105000.402500", "105002.402500", "105004.402500", "105006.402500", "105008.402500", "105010.402500", "105012.402500", "105014.402500", "105016.402500", "105018.402500", "105020.402500", "105022.402500", "105024.402500", "105026.402500", "105028.402500", "105030.402500", "105032.402500", "105034.402500", "105036.402500", "105038.402500", "105040.402500", "105042.402500", "105044.402500", "105046.402500", "105048.402500", "105050.402500", "105052.402500", "105054.402500", "105056.402500", "105058.402500", "105100.402500", "105102.402500", "105104.402500", "105106.402500", "105108.402500", "105110.402500", "105112.402500", "105114.402500", "105116.402500", "105118.402500", "105120.402500", "105122.402500", "105124.402500", "105126.402500", "105128.402500", "105130.402500", "105132.402500", "105134.402500", "105136.402500", "105138.402500", "105140.402500", "105142.402500", "105144.402500", "105146.402500", "105148.402500", "105150.402500", "105152.402500", "105154.402500", "105156.402500", "105158.402500", "105200.402500", "105202.402500", "105204.402500", "105206.402500", "105208.402500", "105210.402500", "105212.402500", "105214.402500", "105216.402500", "105218.402500", "105220.402500", "105222.402500", "105224.402500", "105226.402500", "105228.402500", "105230.402500", "105232.402500", "105234.402500", "105236.402500", "105238.402500", "105240.402500", "105242.402500", "105244.402500", "105246.402500", "105248.402500", "105250.402500", "105252.402500", "105254.402500", "105256.402500", "105258.402500", "105300.402500", "105302.402500", "105304.402500", "105306.402500", "105308.402500", "105310.402500", "105312.402500", "105314.402500", "105316.402500", "105318.402500", "105320.402500", "105322.402500", "105324.402500", "105326.402500", "105328.402500", "105330.402500", "105332.402500", "105334.402500", "105336.402500", "105338.402500", "105340.402500", "105342.402500", "105344.402500", "105346.402500", "105348.402500", "105350.402500", "105352.402500", "105354.402500", "105356.402500", "105358.402500", "105400.402500", "105402.402500", "105404.402500", "105406.402500", "105408.402500", "105410.402500", "105412.402500", "105414.402500", "105416.402500", "105418.402500", "105420.402500", "105422.402500", "105424.402500", "105426.402500", "105428.402500", "105430.402500", "105432.402500", "105434.402500", "105436.402500", "105438.402500", "105440.402500", "105442.402500", "105444.402500", "105446.402500", "105448.402500"],
      "ContentTime": ["104901.123000", "104901.126000", "104901.129000", "104901.131000", "104901.133000", "104901.136000", "104901.138000", "104901.140000", "104901.143000", "104901.145000", "104901.147000", "104901.158000", "104901.160000", "104901.163000", "104901.165000", "104901.167000", "104901.169000", "104901.172000", "104901.174000", "104901.176000", "104901.179000", "104901.181000", "104901.183000", "104901.185000", "104901.188000", "104941.117000", "104941.120000", "104941.122000", "104941.124000", "104941.127000", "104941.139000", "104941.141000", "104941.144000", "104941.146000", "104941.148000", "104941.150000", "104941.153000", "104941.155000", "104941.157000", "104941.160000", "104941.162000", "104941.164000", "104941.167000", "104941.169000", "104941.171000", "105021.118000", "105021.121000", "105021.123000", "105021.125000", "105021.128000", "105021.130000", "105021.132000", "105021.134000", "105021.137000", "105021.139000", "105021.141000", "105021.144000", "105021.146000", "105021.148000", "105021.151000", "105021.153000", "105021.155000", "105021.157000", "105021.160000", "105021.162000", "105101.118000", "105101.121000", "105101.123000", "105101.126000", "105101.128000", "105101.130000", "105101.132000", "105101.135000", "105101.137000", "105101.139000", "105101.142000", "105101.144000", "105101.146000", "105101.148000", "105101.151000", "105101.153000", "105101.155000", "105101.158000", "105101.160000", "105101.162000", "105141.118000", "105141.121000", "105141.123000", "105141.126000", "105141.128000", "105141.130000", "105141.132000", "105141.135000", "105141.137000", "105141.140000", "105141.142000", "105141.144000", "105141.146000", "105141.149000", "105141.151000", "105141.153000", "105141.156000", "105141.158000", "105141.160000", "105141.163000", "105221.118000", "105221.121000", "105221.123000", "105221.126000", "105221.128000", "105221.130000", "105221.133000", "105221.135000", "105221.137000", "105221.140000", "105221.142000", "105221.144000", "105221.147000", "105221.149000", "105221.151000", "105221.154000", "105221.156000", "105221.158000", "105221.161000", "105221.163000", "105301.118000", "105301.121000", "105301.123000", "105301.125000", "105301.133000", "105301.135000", "105301.138000", "105301.140000", "105301.142000", "105301.145000", "105301.147000", "105301.149000", "105301.152000", "105301.154000", "105301.156000", "105301.159000", "105301.161000", "105301.163000", "105301.166000", "105301.168000", "105341.118000", "105341.121000", "105341.123000", "105341.125000", "105341.128000", "105341.130000", "105341.132000", "105341.135000", "105341.137000", "105341.139000", "105341.142000", "105341.144000", "105341.146000", "105341.149000", "105341.151000", "105341.154000", "105341.156000", "105341.158000", "105341.161000", "105341.163000", "105421.117000", "105421.120000", "105421.122000", "105421.124000", "105421.126000", "105421.129000", "105421.131000", "105421.133000", "105421.136000", "105421.138000", "105421.140000", "105421.143000", "105421.145000", "105421.147000", "105421.150000", "105421.152000", "105421.154000", "105421.157000", "105421.159000", "105421.161000", "105449.875000", "105449.878000", "105449.880000", "105449.882000", "105449.885000", "105449.887000", "105449.889000", "105449.892000", "105449.896000", "105449.900000", "105449.902000", "105449.905000", "105449.908000", "105449.910000", "105449.912000"],
      "InstanceCreationTime": ["104901.123000", "104901.126000", "104901.129000", "104901.131000", "104901.133000", "104901.136000", "104901.138000", "104901.140000", "104901.143000", "104901.145000", "104901.147000", "104901.158000", "104901.160000", "104901.163000", "104901.165000", "104901.167000", "104901.169000", "104901.172000", "104901.174000", "104901.176000", "104901.179000", "104901.181000", "104901.183000", "104901.185000", "104901.188000", "104941.117000", "104941.120000", "104941.122000", "104941.124000", "104941.127000", "104941.139000", "104941.141000", "104941.144000", "104941.146000", "104941.148000", "104941.150000", "104941.153000", "104941.155000", "104941.157000", "104941.160000", "104941.162000", "104941.164000", "104941.167000", "104941.169000", "104941.171000", "105021.118000", "105021.121000", "105021.123000", "105021.125000", "105021.128000", "105021.130000", "105021.132000", "105021.134000", "105021.137000", "105021.139000", "105021.141000", "105021.144000", "105021.146000", "105021.148000", "105021.151000", "105021.153000", "105021.155000", "105021.157000", "105021.160000", "105021.162000", "105101.118000", "105101.121000", "105101.123000", "105101.126000", "105101.128000", "105101.130000", "105101.132000", "105101.135000", "105101.137000", "105101.139000", "105101.142000", "105101.144000", "105101.146000", "105101.148000", "105101.151000", "105101.153000", "105101.155000", "105101.158000", "105101.160000", "105101.162000", "105141.118000", "105141.121000", "105141.123000", "105141.126000", "105141.128000", "105141.130000", "105141.132000", "105141.135000", "105141.137000", "105141.140000", "105141.142000", "105141.144000", "105141.146000", "105141.149000", "105141.151000", "105141.153000", "105141.156000", "105141.158000", "105141.160000", "105141.163000", "105221.118000", "105221.121000", "105221.123000", "105221.126000", "105221.128000", "105221.130000", "105221.133000", "105221.135000", "105221.137000", "105221.140000", "105221.142000", "105221.144000", "105221.147000", "105221.149000", "105221.151000", "105221.154000", "105221.156000", "105221.158000", "105221.161000", "105221.163000", "105301.118000", "105301.121000", "105301.123000", "105301.125000", "105301.133000", "105301.135000", "105301.138000", "105301.140000", "105301.142000", "105301.145000", "105301.147000", "105301.149000", "105301.152000", "105301.154000", "105301.156000", "105301.159000", "105301.161000", "105301.163000", "105301.166000", "105301.168000", "105341.118000", "105341.121000", "105341.123000", "105341.125000", "105341.128000", "105341.130000", "105341.132000", "105341.135000", "105341.137000", "105341.139000", "105341.142000", "105341.144000", "105341.146000", "105341.149000", "105341.151000", "105341.154000", "105341.156000", "105341.158000", "105341.161000", "105341.163000", "105421.117000", "105421.120000", "105421.122000", "105421.124000", "105421.126000", "105421.129000", "105421.131000", "105421.133000", "105421.136000", "105421.138000", "105421.140000", "105421.143000", "105421.145000", "105421.147000", "105421.150000", "105421.152000", "105421.154000", "105421.157000", "105421.159000", "105421.161000", "105449.875000", "105449.878000", "105449.880000", "105449.882000", "105449.885000", "105449.887000", "105449.889000", "105449.892000", "105449.896000", "105449.900000", "105449.902000", "105449.905000", "105449.908000", "105449.910000", "105449.912000"],
      "InstanceNumber": [1, 2, 3, 4, 5, 6, 7, 8, 9, 10, 11, 12, 13, 14, 15, 16, 17, 18, 19, 20, 21, 22, 23, 24, 25, 26, 27, 28, 29, 30, 31, 32, 33, 34, 35, 36, 37, 38, 39, 40, 41, 42, 43, 44, 45, 46, 47, 48, 49, 50, 51, 52, 53, 54, 55, 56, 57, 58, 59, 60, 61, 62, 63, 64, 65, 66, 67, 68, 69, 70, 71, 72, 73, 74, 75, 76, 77, 78, 79, 80, 81, 82, 83, 84, 85, 86, 87, 88, 89, 90, 91, 92, 93, 94, 95, 96, 97, 98, 99, 100, 101, 102, 103, 104, 105, 106, 107, 108, 109, 110, 111, 112, 113, 114, 115, 116, 117, 118, 119, 120, 121, 122, 123, 124, 125, 126, 127, 128, 129, 130, 131, 132, 133, 134, 135, 136, 137, 138, 139, 140, 141, 142, 143, 144, 145, 146, 147, 148, 149, 150, 151, 152, 153, 154, 155, 156, 157, 158, 159, 160, 161, 162, 163, 164, 165, 166, 167, 168, 169, 170, 171, 172, 173, 174, 175, 176, 177, 178, 179, 180, 181, 182, 183, 184, 185, 186, 187, 188, 189, 190, 191, 192, 193, 194, 195, 196, 197, 198, 199, 200],
      "LargestImagePixelValue": [2133, 2132, 2132, 2131, 2133, 2131, 2132, 2132, 2134, 2134, 2130, 2132, 2131, 2131, 2130, 2133, 2132, 2131, 2131, 2131, 2130, 2129, 2129, 2128, 2128, 2130, 2129, 2129, 2129, 2131, 2128, 2132, 2130, 2129, 2131, 2134, 2130, 2131, 2131, 2130, 2133, 2131, 2133, 2132, 2131, 2132, 2130, 2129, 2128, 2127, 2127, 2129, 2129, 2128, 2128, 2128, 2128, 2127, 2127, 2127, 2128, 2127, 2130, 2127, 2126, 2130, 2128, 2126, 2126, 2128, 2127, 2131, 2128, 2128, 2127, 2128, 2127, 2126, 2126, 2126, 2127, 2128, 2126, 2128, 2126, 2124, 2128, 2124, 2126, 2127, 2125, 2125, 2127, 2126, 2126, 2128, 2126, 2127, 2125, 2128, 2126, 2126, 2126, 2127, 2130, 2127, 2127, 2127, 2127, 2126, 2129, 2126, 2125, 2126, 2127, 2126, 2127, 2128, 2128, 2124, 2126, 2128, 2125, 2126, 2124, 2123, 2124, 2122, 2124, 2126, 2125, 2122, 2123, 2124, 2123, 2124, 2125, 2123, 2123, 2125, 2126, 2125, 2124, 2122, 2123, 2124, 2125, 2124, 2127, 2124, 2128, 2125, 2123, 2124, 2126, 2127, 2124, 2126, 2122, 2125, 2126, 2124, 2123, 2125, 2122, 2125, 2125, 2122, 2122, 2122, 2122, 2124, 2123, 2126, 2123, 2122, 2124, 2124, 2120, 2123, 2120, 2122, 2121, 2124, 2122, 2121, 2124, 2123, 2125, 2124, 2125, 2124, 2124, 2124, 2126, 2124, 2124, 2124, 2126, 2125],
      "WindowCenter": [1007.0, 1007.0, 1007.0, 1006.0, 1006.0, 1007.0, 1007.0, 1007.0, 1007.0, 1005.0, 1006.0, 1008.0, 1007.0, 1007.0, 1007.0, 1008.0, 1007.0, 1005.0, 1007.0, 1005.0, 1006.0, 1007.0, 1007.0, 1007.0, 1007.0, 1006.0, 1007.0, 1008.0, 1007.0, 1008.0, 1007.0, 1006.0, 1006.0, 1006.0, 1007.0, 1007.0, 1007.0, 1008.0, 1007.0, 1007.0, 1008.0, 1006.0, 1006.0, 1005.0, 1008.0, 1007.0, 1007.0, 1007.0, 1007.0, 1006.0, 1007.0, 1007.0, 1007.0, 1007.0, 1008.0, 1006.0, 1006.0, 1007.0, 1007.0, 1006.0, 1005.0, 1006.0, 1006.0, 1006.0, 1006.0, 1006.0, 1006.0, 1006.0, 1006.0, 1007.0, 1006.0, 1008.0, 1005.0, 1006.0, 1005.0, 1005.0, 1006.0, 1006.0, 1007.0, 1005.0, 1006.0, 1006.0, 1005.0, 1006.0, 1005.0, 1005.0, 1006.0, 1006.0, 1007.0, 1006.0, 1006.0, 1007.0, 1006.0, 1006.0, 1005.0, 1006.0, 1006.0, 1007.0, 1007.0, 1007.0, 1006.0, 1005.0, 1005.0, 1006.0, 1005.0, 1004.0, 1005.0, 1006.0, 1004.0, 1006.0, 1006.0, 1006.0, 1005.0, 1007.0, 1006.0, 1005.0, 1006.0, 1005.0, 1007.0, 1006.0, 1007.0, 1006.0, 1007.0, 1006.0, 1006.0, 1006.0, 1006.0, 1007.0, 1004.0, 1005.0, 1005.0, 1006.0, 1004.0, 1007.0, 1006.0, 1005.0, 1006.0, 1005.0, 1007.0, 1006.0, 1007.0, 1005.0, 1006.0, 1006.0, 1005.0, 1006.0, 1006.0, 1006.0, 1006.0, 1004.0, 1006.0, 1007.0, 1007.0, 1007.0, 1006.0, 1006.0, 1005.0, 1006.0, 1006.0, 1006.0, 1005.0, 1006.0, 1006.0, 1005.0, 1005.0, 1006.0, 1005.0, 1005.0, 1006.0, 1006.0, 1005.0, 1006.0, 1006.0, 1006.0, 1005.0, 1004.0, 1005.0, 1005.0, 1005.0, 1005.0, 1005.0, 1005.0, 1005.0, 1005.0, 1004.0, 1004.0, 1005.0, 1005.0, 1005.0, 1006.0, 1006.0, 1006.0, 1004.0, 1005.0, 1005.0, 1005.0, 1004.0, 1005.0, 1005.0, 1005.0],
      "WindowWidth": [2234.0, 2234.0, 2234.0, 2233.0, 2233.0, 2234.0, 2234.0, 2234.0, 2234.0, 2233.0, 2233.0, 2235.0, 2234.0, 2234.0, 2234.0, 2235.0, 2234.0, 2232.0, 2234.0, 2232.0, 2233.0, 2234.0, 2234.0, 2234.0, 2234.0, 2233.0, 2234.0, 2234.0, 2233.0, 2234.0, 2233.0, 2232.0, 2233.0, 2233.0, 2233.0, 2234.0, 2234.0, 2234.0, 2233.0, 2233.0, 2234.0, 2232.0, 2232.0, 2231.0, 2234.0, 2233.0, 2233.0, 2233.0, 2234.0, 2232.0, 2233.0, 2233.0, 2233.0, 2233.0, 2233.0, 2233.0, 2233.0, 2232.0, 2233.0, 2233.0, 2231.0, 2232.0, 2232.0, 2233.0, 2231.0, 2233.0, 2233.0, 2233.0, 2232.0, 2233.0, 2232.0, 2234.0, 2231.0, 2232.0, 2231.0, 2231.0, 2232.0, 2232.0, 2233.0, 2231.0, 2232.0, 2232.0, 2231.0, 2232.0, 2231.0, 2231.0, 2232.0, 2232.0, 2232.0, 2232.0, 2232.0, 2232.0, 2232.0, 2232.0, 2231.0, 2232.0, 2232.0, 2232.0, 2232.0, 2232.0, 2232.0, 2231.0, 2231.0, 2232.0, 2231.0, 2230.0, 2231.0, 2232.0, 2230.0, 2231.0, 2231.0, 2231.0, 2231.0, 2232.0, 2231.0, 2230.0, 2231.0, 2231.0, 2232.0, 2231.0, 2232.0, 2231.0, 2232.0, 2231.0, 2231.0, 2231.0, 2231.0, 2232.0, 2229.0, 2231.0, 2230.0, 2231.0, 2229.0, 2231.0, 2231.0, 2230.0, 2231.0, 2230.0, 2231.0, 2231.0, 2231.0, 2230.0, 2231.0, 2231.0, 2230.0, 2231.0, 2231.0, 2231.0, 2231.0, 2229.0, 2231.0, 2231.0, 2231.0, 2231.0, 2231.0, 2230.0, 2230.0, 2231.0, 2230.0, 2230.0, 2230.0, 2230.0, 2231.0, 2230.0, 2230.0, 2231.0, 2230.0, 2230.0, 2230.0, 2230.0, 2230.0, 2230.0, 2230.0, 2230.0, 2230.0, 2229.0, 2230.0, 2230.0, 2230.0, 2230.0, 2230.0, 2230.0, 2230.0, 2230.0, 2230.0, 2229.0, 2230.0, 2230.0, 2230.0, 2231.0, 2231.0, 2231.0, 2230.0, 2230.0, 2230.0, 2230.0, 2229.0, 2230.0, 2230.0, 2230.0]
    },
    "slices": {}
  }
}