{
  "AcquisitionMatrixPE": 80,
  "AcquisitionNumber": 1,
  "AcquisitionTime": "10:41:23.097500",
  "BandwidthPerPixelPhaseEncode": 46.296,
  "BaseResolution": 80,
  "BodyPartExamined": "BRAIN",
  "CoilCombinationMethod": "Sum of Squares",
  "ConsistencyInfo": "N4_VE11E_LATEST_20181129",
  "ConversionSoftware": "dcm2niix",
  "ConversionSoftwareVersion": "v1.0.20220720",
  "DerivedVendorReportedEchoSpacing": 0.000540003,
  "DeviceSerialNumber": "66112",
  "DwellTime": 2.7e-06,
  "EchoTime": 0.035,
  "EchoTrainLength": 39,
  "EffectiveEchoSpacing": 0.000270002,
  "FlipAngle": 90,
  "HeudiconvVersion": "0.13.1",
  "ImageOrientationPatientDICOM": [0.984522, 0.174979, 0.00996316, -0.168111, 0.926744, 0.335983],
  "ImageOrientationText": "Tra>Cor(19.4)>Sag(-2.8)",
  "ImageType": [
    "ORIGINAL",
    "PRIMARY",
    "M",
    "ND",
    "NORM",
    "MOSAIC"
],
  "ImagingFrequency": 123.259,
  "InPlanePhaseEncodingDirectionDICOM": "COL",
  "InstitutionAddress": "Maynard 3,Hanover,NH,US,03755",
  "InstitutionName": "Dartmouth College - PBS",
  "InstitutionalDepartmentName": "Department",
  "MRAcquisitionType": "2D",
  "MagneticFieldStrength": 3,
  "Manufacturer": "Siemens",
  "ManufacturersModelName": "Prisma",
  "Modality": "MR",
  "MultibandAccelerationFactor": 4,
  "NonlinearGradientCorrection": false,
  "ParallelReductionFactorInPlane": 2,
  "PartialFourier": 1,
  "PatientPosition": "HFS",
  "PercentPhaseFOV": 100,
  "PercentSampling": 100,
  "PhaseEncodingDirection": "j-",
  "PhaseEncodingSteps": 79,
  "PhaseResolution": 1,
  "PixelBandwidth": 2315,
  "ProcedureStepDescription": "dbic^QA",
  "ProtocolName": "func-bold_task-rest_acq-p2-s4-3.5mm",
  "PulseSequenceDetails": "%SiemensSeq%\\ep2d_bold",
  "ReceiveCoilActiveElements": "HEA;HEP",
  "ReceiveCoilName": "Head_32",
  "ReconMatrixPE": 80,
  "RefLinesPE": 24,
  "RepetitionTime": 2,
  "SAR": 0.0206995,
  "ScanOptions": "FS",
  "ScanningSequence": "EP",
  "SequenceName": "*epfid2d1_80",
  "SequenceVariant": "SK",
  "SeriesDescription": "func-bold_task-rest_acq-p2-s4-3.5mm",
  "SeriesNumber": 7,
  "ShimSetting": [4219, -7737, -7479, -22, -144, -20, 4, 69],
  "SliceThickness": 3.5,
  "SliceTiming": [1.485, 0, 0.99, 0.2475, 1.2375, 0.7425, 1.7325, 0.495, 1.485, 0, 0.99, 0.2475, 1.2375, 0.7425, 1.7325, 0.495, 1.485, 0, 0.99, 0.2475, 1.2375, 0.7425, 1.7325, 0.495, 1.485, 0, 0.99, 0.2475, 1.2375, 0.7425, 1.7325, 0.495],
  "SoftwareVersions": "syngo MR E11",
  "SpacingBetweenSlices": 3.99,
  "StationName": "AWP66112",
  "TaskName": "rest",
  "TotalReadoutTime": 0.0213301,
  "TxRefAmp": 230.015,
  "dcmmeta_affine": [
    [-2.9535651206970215, -0.5043315887451172, -0.19773127138614655, 142.62815856933594],
    [-0.5249378681182861, 2.7802321910858154, 1.326504111289978, -106.81147003173828],
    [0.029889486730098724, -1.0079480409622192, 3.7578437328338623, -14.21859073638916],
    [0.0, 0.0, 0.0, 1.0]
],
  "dcmmeta_reorient_transform": [
    [0.0, -1.0, 0.0, 79.0],
    [1.0, 0.0, 0.0, 0.0],
    [0.0, 0.0, 1.0, 0.0],
    [0.0, 0.0, 0.0, 1.0]
],
  "dcmmeta_shape": [80, 80, 32, 200],
  "dcmmeta_slice_dim": 2,
  "dcmmeta_version": 0.6,
  "global": {
    "const": {
      "AccessionNumber": "qa",
      "AcquisitionMatrix": [80, 0, 0, 80],
      "AngioFlag": "N",
      "BitsAllocated": 16,
      "BitsStored": 12,
      "BodyPartExamined": "BRAIN",
      "Columns": 480,
      "EchoNumbers": 1,
      "EchoTime": 35.0,
      "EchoTrainLength": 39,
      "FlipAngle": 90.0,
      "HighBit": 11,
      "ImageOrientationPatient": [0.98452170371578, 0.17497928536396, 0.00996316245492, -0.1681105218672, 0.92674402581069, 0.3359826826813],
      "ImagePositionPatient": [-592.63266746614, -773.86085354953, -301.4139934224],
      "ImageType": [
        "ORIGINAL",
        "PRIMARY",
        "M",
        "ND",
        "NORM",
        "MOSAIC"
],
      "ImagedNucleus": "1H",
      "ImagingFrequency": 123.259272,
      "InPlanePhaseEncodingDirection": "COL",
      "MRAcquisitionType": "2D",
      "MagneticFieldStrength": 3.0,
      "Manufacturer": "SIEMENS",
      "ManufacturerModelName": "Prisma",
      "Modality": "MR",
      "NumberOfAverages": 1.0,
      "NumberOfPhaseEncodingSteps": 79,
      "PercentPhaseFieldOfView": 100.0,
      "PercentSampling": 100.0,
      "PerformedProcedureStepStartTime": "102802.171000",
      "PhotometricInterpretation": "MONOCHROME2",
      "PixelBandwidth": 2315.0,
      "PixelRepresentation": 0,
      "PixelSpacing": [3.0, 3.0],
      "ProtocolName": "func-bold_task-rest_acq-p2-s4-3.5mm",
      "RepetitionTime": 2000.0,
      "Rows": 480,
      "SAR": 0.02069951800905,
      "SamplesPerPixel": 1,
      "ScanOptions": "FS",
      "ScanningSequence": "EP",
      "SequenceName": "*epfid2d1_80",
      "SequenceVariant": "SK",
      "SeriesDescription": "func-bold_task-rest_acq-p2-s4-3.5mm",
      "SeriesNumber": 7,
      "SeriesTime": "104221.034000",
      "SliceLocation": -55.969706822955,
      "SliceThickness": 3.5,
      "SmallestImagePixelValue": 0,
      "SoftwareVersions": "syngo MR E11",
      "SpacingBetweenSlices": 3.9900000465265,
      "SpecificCharacterSet": "ISO_IR 100",
      "StudyID": "27",
      "StudyTime": "102802.116000",
      "TransmitCoilName": "Body",
      "VariableFlipAngleFlag": "N",
      "WindowCenterWidthExplanation": "Algo1"
    },
    "slices": {}
  },
  "time": {
    "samples": {
      "AcquisitionNumber": [1, 2, 3, 4, 5, 6, 7, 8, 9, 10, 11, 12, 13, 14, 15, 16, 17, 18, 19, 20, 21, 22, 23, 24, 25, 26, 27, 28, 29, 30, 31, 32, 33, 34, 35, 36, 37, 38, 39, 40, 41, 42, 43, 44, 45, 46, 47, 48, 49, 50, 51, 52, 53, 54, 55, 56, 57, 58, 59, 60, 61, 62, 63, 64, 65, 66, 67, 68, 69, 70, 71, 72, 73, 74, 75, 76, 77, 78, 79, 80, 81, 82, 83, 84, 85, 86, 87, 88, 89, 90, 91, 92, 93, 94, 95, 96, 97, 98, 99, 100, 101, 102, 103, 104, 105, 106, 107, 108, 109, 110, 111, 112, 113, 114, 115, 116, 117, 118, 119, 120, 121, 122, 123, 124, 125, 126, 127, 128, 129, 130, 131, 132, 133, 134, 135, 136, 137, 138, 139, 140, 141, 142, 143, 144, 145, 146, 147, 148, 149, 150, 151, 152, 153, 154, 155, 156, 157, 158, 159, 160, 161, 162, 163, 164, 165, 166, 167, 168, 169, 170, 171, 172, 173, 174, 175, 176, 177, 178, 179, 180, 181, 182, 183, 184, 185, 186, 187, 188, 189, 190, 191, 192, 193, 194, 195, 196, 197, 198, 199, 200],
      "AcquisitionTime": ["104123.097500", "104125.097500", "104127.097500", "104129.097500", "104131.097500", "104133.097500", "104135.097500", "104137.097500", "104139.097500", "104141.097500", "104143.097500", "104145.097500", "104147.097500", "104149.097500", "104151.097500", "104153.097500", "104155.097500", "104157.097500", "104159.097500", "104201.097500", "104203.097500", "104205.097500", "104207.097500", "104209.097500", "104211.097500", "104213.097500", "104215.097500", "104217.097500", "104219.097500", "104221.097500", "104223.097500", "104225.097500", "104227.097500", "104229.097500", "104231.097500", "104233.097500", "104235.097500", "104237.097500", "104239.097500", "104241.097500", "104243.097500", "104245.097500", "104247.097500", "104249.097500", "104251.097500", "104253.097500", "104255.097500", "104257.097500", "104259.097500", "104301.097500", "104303.097500", "104305.097500", "104307.097500", "104309.097500", "104311.097500", "104313.097500", "104315.097500", "104317.097500", "104319.097500", "104321.097500", "104323.097500", "104325.097500", "104327.097500", "104329.097500", "104331.097500", "104333.097500", "104335.097500", "104337.097500", "104339.097500", "104341.097500", "104343.097500", "104345.097500", "104347.097500", "104349.097500", "104351.097500", "104353.097500", "104355.097500", "104357.097500", "104359.097500", "104401.097500", "104403.097500", "104405.097500", "104407.097500", "104409.097500", "104411.097500", "104413.097500", "104415.097500", "104417.097500", "104419.097500", "104421.097500", "104423.097500", "104425.097500", "104427.097500", "104429.097500", "104431.097500", "104433.097500", "104435.097500", "104437.097500", "104439.097500", "104441.097500", "104443.097500", "104445.097500", "104447.097500", "104449.097500", "104451.097500", "104453.097500", "104455.097500", "104457.097500", "104459.097500", "104501.097500", "104503.097500", "104505.097500", "104507.097500", "104509.097500", "104511.097500", "104513.097500", "104515.097500", "104517.097500", "104519.097500", "104521.097500", "104523.097500", "104525.097500", "104527.097500", "104529.097500", "104531.097500", "104533.097500", "104535.097500", "104537.097500", "104539.097500", "104541.097500", "104543.097500", "104545.097500", "104547.097500", "104549.097500", "104551.097500", "104553.097500", "104555.097500", "104557.097500", "104559.097500", "104601.097500", "104603.097500", "104605.097500", "104607.097500", "104609.097500", "104611.097500", "104613.097500", "104615.097500", "104617.097500", "104619.097500", "104621.097500", "104623.097500", "104625.097500", "104627.097500", "104629.097500", "104631.097500", "104633.097500", "104635.097500", "104637.097500", "104639.097500", "104641.097500", "104643.097500", "104645.097500", "104647.097500", "104649.097500", "104651.097500", "104653.097500", "104655.097500", "104657.097500", "104659.097500", "104701.097500", "104703.097500", "104705.097500", "104707.097500", "104709.097500", "104711.097500", "104713.097500", "104715.097500", "104717.097500", "104719.097500", "104721.097500", "104723.097500", "104725.097500", "104727.097500", "104729.097500", "104731.097500", "104733.097500", "104735.097500", "104737.097500", "104739.097500", "104741.097500", "104743.097500", "104745.097500", "104747.097500", "104749.097500", "104751.097500", "104753.097500", "104755.097500", "104757.097500", "104759.097500", "104801.097500"],
      "ContentTime": ["104221.037000", "104221.040000", "104221.043000", "104221.045000", "104221.047000", "104221.055000", "104221.066000", "104221.068000", "104221.070000", "104221.073000", "104221.075000", "104221.077000", "104221.080000", "104221.082000", "104221.084000", "104221.087000", "104221.089000", "104221.091000", "104221.094000", "104221.096000", "104221.098000", "104221.101000", "104221.106000", "104221.108000", "104221.110000", "104221.113000", "104221.115000", "104221.117000", "104221.120000", "104301.032000", "104301.035000", "104301.037000", "104301.040000", "104301.042000", "104301.044000", "104301.047000", "104301.049000", "104301.051000", "104301.053000", "104301.056000", "104301.058000", "104301.060000", "104301.063000", "104301.065000", "104301.067000", "104301.070000", "104301.072000", "104301.074000", "104301.077000", "104341.032000", "104341.035000", "104341.037000", "104341.039000", "104341.042000", "104341.044000", "104341.046000", "104341.049000", "104341.051000", "104341.053000", "104341.066000", "104341.068000", "104341.070000", "104341.073000", "104341.075000", "104341.077000", "104341.080000", "104341.082000", "104341.084000", "104341.087000", "104421.032000", "104421.035000", "104421.038000", "104421.040000", "104421.042000", "104421.045000", "104421.047000", "104421.049000", "104421.052000", "104421.054000", "104421.056000", "104421.059000", "104421.061000", "104421.063000", "104421.066000", "104421.068000", "104421.070000", "104421.073000", "104421.075000", "104421.077000", "104501.031000", "104501.034000", "104501.036000", "104501.038000", "104501.041000", "104501.043000", "104501.045000", "104501.048000", "104501.050000", "104501.052000", "104501.055000", "104501.057000", "104501.059000", "104501.062000", "104501.064000", "104501.066000", "104501.069000", "104501.071000", "104501.073000", "104501.076000", "104541.032000", "104541.035000", "104541.037000", "104541.040000", "104541.042000", "104541.044000", "104541.047000", "104541.049000", "104541.051000", "104541.054000", "104541.056000", "104541.058000", "104541.061000", "104541.063000", "104541.065000", "104541.068000", "104541.070000", "104541.072000", "104541.075000", "104541.077000", "104621.032000", "104621.035000", "104621.037000", "104621.040000", "104621.042000", "104621.044000", "104621.047000", "104621.049000", "104621.051000", "104621.054000", "104621.056000", "104621.058000", "104621.061000", "104621.063000", "104621.065000", "104621.068000", "104621.070000", "104621.072000", "104621.075000", "104621.077000", "104701.032000", "104701.035000", "104701.037000", "104701.039000", "104701.042000", "104701.044000", "104701.046000", "104701.049000", "104701.051000", "104701.054000", "104701.056000", "104701.058000", "104701.061000", "104701.063000", "104701.065000", "104701.068000", "104701.070000", "104701.072000", "104701.075000", "104701.077000", "104741.032000", "104741.035000", "104741.037000", "104741.040000", "104741.042000", "104741.044000", "104741.047000", "104741.049000", "104741.051000", "104741.053000", "104741.056000", "104741.058000", "104741.060000", "104741.063000", "104741.065000", "104741.067000", "104741.070000", "104741.072000", "104741.074000", "104741.077000", "104802.682000", "104802.685000", "104802.687000", "104802.690000", "104802.692000", "104802.694000", "104802.697000", "104802.699000", "104802.701000", "104802.704000", "104802.706000"],
      "InstanceCreationTime": ["104221.037000", "104221.040000", "104221.043000", "104221.045000", "104221.047000", "104221.055000", "104221.066000", "104221.068000", "104221.070000", "104221.073000", "104221.075000", "104221.077000", "104221.080000", "104221.082000", "104221.084000", "104221.087000", "104221.089000", "104221.091000", "104221.094000", "104221.096000", "104221.098000", "104221.101000", "104221.106000", "104221.108000", "104221.110000", "104221.113000", "104221.115000", "104221.117000", "104221.120000", "104301.032000", "104301.035000", "104301.037000", "104301.040000", "104301.042000", "104301.044000", "104301.047000", "104301.049000", "104301.051000", "104301.053000", "104301.056000", "104301.058000", "104301.060000", "104301.063000", "104301.065000", "104301.067000", "104301.070000", "104301.072000", "104301.074000", "104301.077000", "104341.032000", "104341.035000", "104341.037000", "104341.039000", "104341.042000", "104341.044000", "104341.046000", "104341.049000", "104341.051000", "104341.053000", "104341.066000", "104341.068000", "104341.070000", "104341.073000", "104341.075000", "104341.077000", "104341.080000", "104341.082000", "104341.084000", "104341.087000", "104421.032000", "104421.035000", "104421.038000", "104421.040000", "104421.042000", "104421.045000", "104421.047000", "104421.049000", "104421.052000", "104421.054000", "104421.056000", "104421.059000", "104421.061000", "104421.063000", "104421.066000", "104421.068000", "104421.070000", "104421.073000", "104421.075000", "104421.077000", "104501.031000", "104501.034000", "104501.036000", "104501.038000", "104501.041000", "104501.043000", "104501.045000", "104501.048000", "104501.050000", "104501.052000", "104501.055000", "104501.057000", "104501.059000", "104501.062000", "104501.064000", "104501.066000", "104501.069000", "104501.071000", "104501.073000", "104501.076000", "104541.032000", "104541.035000", "104541.037000", "104541.040000", "104541.042000", "104541.044000", "104541.047000", "104541.049000", "104541.051000", "104541.054000", "104541.056000", "104541.058000", "104541.061000", "104541.063000", "104541.065000", "104541.068000", "104541.070000", "104541.072000", "104541.075000", "104541.077000", "104621.032000", "104621.035000", "104621.037000", "104621.040000", "104621.042000", "104621.044000", "104621.047000", "104621.049000", "104621.051000", "104621.054000", "104621.056000", "104621.058000", "104621.061000", "104621.063000", "104621.065000", "104621.068000", "104621.070000", "104621.072000", "104621.075000", "104621.077000", "104701.032000", "104701.035000", "104701.037000", "104701.039000", "104701.042000", "104701.044000", "104701.046000", "104701.049000", "104701.051000", "104701.054000", "104701.056000", "104701.058000", "104701.061000", "104701.063000", "104701.065000", "104701.068000", "104701.070000", "104701.072000", "104701.075000", "104701.077000", "104741.032000", "104741.035000", "104741.037000", "104741.040000", "104741.042000", "104741.044000", "104741.047000", "104741.049000", "104741.051000", "104741.053000", "104741.056000", "104741.058000", "104741.060000", "104741.063000", "104741.065000", "104741.067000", "104741.070000", "104741.072000", "104741.074000", "104741.077000", "104802.682000", "104802.685000", "104802.687000", "104802.690000", "104802.692000", "104802.694000", "104802.697000", "104802.699000", "104802.701000", "104802.704000", "104802.706000"],
      "InstanceNumber": [1, 2, 3, 4, 5, 6, 7, 8, 9, 10, 11, 12, 13, 14, 15, 16, 17, 18, 19, 20, 21, 22, 23, 24, 25, 26, 27, 28, 29, 30, 31, 32, 33, 34, 35, 36, 37, 38, 39, 40, 41, 42, 43, 44, 45, 46, 47, 48, 49, 50, 51, 52, 53, 54, 55, 56, 57, 58, 59, 60, 61, 62, 63, 64, 65, 66, 67, 68, 69, 70, 71, 72, 73, 74, 75, 76, 77, 78, 79, 80, 81, 82, 83, 84, 85, 86, 87, 88, 89, 90, 91, 92, 93, 94, 95, 96, 97, 98, 99, 100, 101, 102, 103, 104, 105, 106, 107, 108, 109, 110, 111, 112, 113, 114, 115, 116, 117, 118, 119, 120, 121, 122, 123, 124, 125, 126, 127, 128, 129, 130, 131, 132, 133, 134, 135, 136, 137, 138, 139, 140, 141, 142, 143, 144, 145, 146, 147, 148, 149, 150, 151, 152, 153, 154, 155, 156, 157, 158, 159, 160, 161, 162, 163, 164, 165, 166, 167, 168, 169, 170, 171, 172, 173, 174, 175, 176, 177, 178, 179, 180, 181, 182, 183, 184, 185, 186, 187, 188, 189, 190, 191, 192, 193, 194, 195, 196, 197, 198, 199, 200],
      "LargestImagePixelValue": [2173, 2173, 2175, 2176, 2172, 2173, 2173, 2180, 2173, 2172, 2170, 2171, 2172, 2175, 2177, 2172, 2175, 2175, 2174, 2175, 2174, 2172, 2176, 2176, 2176, 2174, 2174, 2170, 2169, 2174, 2175, 2175, 2178, 2173, 2176, 2175, 2178, 2173, 2170, 2177, 2174, 2177, 2177, 2177, 2175, 2176, 2172, 2175, 2176, 2178, 2176, 2174, 2176, 2177, 2178, 2179, 2176, 2173, 2173, 2177, 2175, 2175, 2175, 2173, 2171, 2177, 2175, 2175, 2176, 2175, 2175, 2181, 2176, 2173, 2176, 2170, 2174, 2176, 2175, 2174, 2176, 2173, 2178, 2177, 2173, 2178, 2172, 2175, 2180, 2175, 2176, 2179, 2175, 2175, 2177, 2178, 2175, 2171, 2172, 2174, 2175, 2178, 2178, 2173, 2173, 2172, 2170, 2175, 2173, 2177, 2169, 2168, 2169, 2176, 2170, 2167, 2169, 2175, 2176, 2182, 2171, 2172, 2174, 2178, 2178, 2179, 2176, 2178, 2177, 2176, 2175, 2176, 2177, 2175, 2174, 2179, 2174, 2177, 2176, 2173, 2177, 2174, 2174, 2175, 2175, 2174, 2178, 2178, 2177, 2173, 2175, 2178, 2176, 2181, 2180, 2179, 2173, 2178, 2181, 2176, 2178, 2179, 2178, 2176, 2178, 2181, 2180, 2176, 2177, 2180, 2177, 2176, 2181, 2176, 2175, 2179, 2180, 2178, 2180, 2177, 2177, 2179, 2178, 2178, 2181, 2177, 2171, 2175, 2176, 2175, 2178, 2177, 2181, 2178, 2181, 2177, 2174, 2177, 2176, 2175],
      "WindowCenter": [956.0, 956.0, 956.0, 956.0, 958.0, 956.0, 957.0, 957.0, 957.0, 957.0, 956.0, 956.0, 957.0, 958.0, 957.0, 957.0, 958.0, 958.0, 956.0, 958.0, 956.0, 956.0, 958.0, 956.0, 956.0, 956.0, 957.0, 958.0, 957.0, 957.0, 958.0, 957.0, 957.0, 957.0, 956.0, 957.0, 957.0, 956.0, 956.0, 956.0, 956.0, 956.0, 957.0, 956.0, 956.0, 957.0, 957.0, 958.0, 958.0, 957.0, 956.0, 958.0, 957.0, 956.0, 956.0, 957.0, 958.0, 956.0, 957.0, 957.0, 958.0, 958.0, 956.0, 957.0, 957.0, 958.0, 957.0, 956.0, 956.0, 957.0, 957.0, 957.0, 958.0, 956.0, 957.0, 957.0, 956.0, 958.0, 956.0, 957.0, 957.0, 958.0, 956.0, 957.0, 957.0, 957.0, 957.0, 957.0, 957.0, 957.0, 957.0, 956.0, 957.0, 957.0, 957.0, 956.0, 956.0, 958.0, 956.0, 957.0, 957.0, 958.0, 957.0, 957.0, 957.0, 956.0, 957.0, 958.0, 958.0, 957.0, 957.0, 957.0, 957.0, 957.0, 956.0, 958.0, 956.0, 957.0, 957.0, 958.0, 956.0, 957.0, 957.0, 958.0, 957.0, 957.0, 957.0, 957.0, 957.0, 957.0, 957.0, 958.0, 956.0, 957.0, 956.0, 957.0, 958.0, 958.0, 957.0, 958.0, 957.0, 957.0, 956.0, 957.0, 958.0, 957.0, 957.0, 957.0, 958.0, 957.0, 957.0, 957.0, 957.0, 957.0, 957.0, 957.0, 958.0, 956.0, 958.0, 957.0, 957.0, 957.0, 958.0, 956.0, 958.0, 957.0, 956.0, 957.0, 958.0, 957.0, 957.0, 957.0, 957.0, 957.0, 957.0, 957.0, 956.0, 957.0, 958.0, 957.0, 957.0, 957.0, 958.0, 956.0, 958.0, 957.0, 958.0, 956.0, 957.0, 957.0, 956.0, 958.0, 957.0, 956.0, 957.0, 957.0, 957.0, 957.0, 957.0, 956.0],
      "WindowWidth": [2236.0, 2236.0, 2237.0, 2236.0, 2238.0, 2237.0, 2238.0, 2237.0, 2238.0, 2237.0, 2236.0, 2236.0, 2237.0, 2239.0, 2238.0, 2238.0, 2238.0, 2238.0, 2237.0, 2238.0, 2237.0, 2237.0, 2238.0, 2236.0, 2237.0, 2237.0, 2237.0, 2238.0, 2237.0, 2237.0, 2238.0, 2237.0, 2238.0, 2238.0, 2236.0, 2237.0, 2237.0, 2237.0, 2237.0, 2237.0, 2236.0, 2236.0, 2237.0, 2237.0, 2236.0, 2238.0, 2237.0, 2238.0, 2239.0, 2238.0, 2236.0, 2239.0, 2238.0, 2237.0, 2236.0, 2238.0, 2238.0, 2237.0, 2237.0, 2237.0, 2239.0, 2239.0, 2237.0, 2237.0, 2237.0, 2238.0, 2238.0, 2237.0, 2237.0, 2238.0, 2237.0, 2237.0, 2239.0, 2237.0, 2237.0, 2238.0, 2237.0, 2239.0, 2237.0, 2237.0, 2237.0, 2239.0, 2237.0, 2237.0, 2238.0, 2238.0, 2237.0, 2236.0, 2238.0, 2237.0, 2237.0, 2236.0, 2237.0, 2237.0, 2238.0, 2236.0, 2237.0, 2238.0, 2236.0, 2237.0, 2237.0, 2239.0, 2238.0, 2237.0, 2237.0, 2236.0, 2237.0, 2238.0, 2239.0, 2238.0, 2236.0, 2237.0, 2237.0, 2237.0, 2236.0, 2238.0, 2236.0, 2237.0, 2237.0, 2238.0, 2236.0, 2238.0, 2237.0, 2238.0, 2237.0, 2237.0, 2237.0, 2237.0, 2237.0, 2237.0, 2237.0, 2239.0, 2237.0, 2238.0, 2236.0, 2237.0, 2238.0, 2238.0, 2237.0, 2238.0, 2237.0, 2237.0, 2236.0, 2238.0, 2238.0, 2237.0, 2237.0, 2237.0, 2238.0, 2237.0, 2237.0, 2237.0, 2237.0, 2237.0, 2237.0, 2237.0, 2238.0, 2236.0, 2238.0, 2237.0, 2237.0, 2237.0, 2238.0, 2236.0, 2238.0, 2237.0, 2236.0, 2237.0, 2238.0, 2237.0, 2237.0, 2237.0, 2237.0, 2237.0, 2237.0, 2237.0, 2236.0, 2237.0, 2238.0, 2237.0, 2237.0, 2237.0, 2238.0, 2236.0, 2238.0, 2237.0, 2237.0, 2236.0, 2237.0, 2237.0, 2236.0, 2238.0, 2237.0, 2236.0, 2237.0, 2237.0, 2237.0, 2237.0, 2237.0, 2236.0]
    },
    "slices": {}
  }
}