{
  "AcquisitionMatrixPE": 80,
  "AcquisitionNumber": 1,
  "AcquisitionTime": "09:57:8.145000",
  "BandwidthPerPixelPhaseEncode": 44.643,
  "BaseResolution": 80,
  "BodyPartExamined": "BRAIN",
  "CoilCombinationMethod": "Sum of Squares",
  "ConsistencyInfo": "N4_VE11C_LATEST_20160120",
  "ConversionSoftware": "dcm2niix",
  "ConversionSoftwareVersion": "v1.0.20220720",
  "DerivedVendorReportedEchoSpacing": 0.000559998,
  "DeviceSerialNumber": "66112",
  "DwellTime": 2.7e-06,
  "EchoTime": 0.035,
  "EchoTrainLength": 39,
  "EffectiveEchoSpacing": 0.000279999,
  "FlipAngle": 90,
  "HeudiconvVersion": "0.13.1",
  "ImageOrientationPatientDICOM": [0.983702, 0.179186, 0.014909, -0.175047, 0.935426, 0.307143],
  "ImageOrientationText": "Tra>Cor(17.8)>Sag(-2.4)",
  "ImageType": [
    "ORIGINAL",
    "PRIMARY",
    "M",
    "ND",
    "NORM",
    "MOSAIC"
],
  "ImagingFrequency": 123.252,
  "InPlanePhaseEncodingDirectionDICOM": "COL",
  "InstitutionAddress": "Maynard 3,Hanover,NH,US,03755",
  "InstitutionName": "Dartmouth College - PBS",
  "InstitutionalDepartmentName": "Department",
  "MRAcquisitionType": "2D",
  "MagneticFieldStrength": 3,
  "Manufacturer": "Siemens",
  "ManufacturersModelName": "Prisma",
  "Modality": "MR",
  "MultibandAccelerationFactor": 4,
  "NonlinearGradientCorrection": false,
  "ParallelReductionFactorInPlane": 2,
  "PartialFourier": 1,
  "PatientPosition": "HFS",
  "PercentPhaseFOV": 100,
  "PercentSampling": 100,
  "PhaseEncodingDirection": "j-",
  "PhaseEncodingSteps": 79,
  "PhaseResolution": 1,
  "PixelBandwidth": 2315,
  "ProcedureStepDescription": "dbic^QA",
  "ProtocolName": "func-bold_task-rest_acq-p2-s4-3.5mm",
  "PulseSequenceDetails": "%SiemensSeq%\\ep2d_bold",
  "ReceiveCoilActiveElements": "HEA;HEP",
  "ReceiveCoilName": "Head_32",
  "ReconMatrixPE": 80,
  "RefLinesPE": 24,
  "RepetitionTime": 2,
  "SAR": 0.0208934,
  "ScanOptions": "FS",
  "ScanningSequence": "EP",
  "SequenceName": "*epfid2d1_80",
  "SequenceVariant": "SK",
  "SeriesDescription": "func-bold_task-rest_acq-p2-s4-3.5mm",
  "SeriesNumber": 7,
  "ShimSetting": [4143, -7698, -7516, 261, -10, -169, -44, 40],
  "SliceThickness": 3.5,
  "SliceTiming": [1.485, 0, 0.99, 0.2475, 1.2375, 0.7425, 1.7325, 0.495, 1.485, 0, 0.99, 0.2475, 1.2375, 0.7425, 1.7325, 0.495, 1.485, 0, 0.99, 0.2475, 1.2375, 0.7425, 1.7325, 0.495, 1.485, 0, 0.99, 0.2475, 1.2375, 0.7425, 1.7325, 0.495],
  "SoftwareVersions": "syngo MR E11",
  "SpacingBetweenSlices": 3.99,
  "StationName": "AWP66112",
  "TaskName": "rest",
  "TotalReadoutTime": 0.0221199,
  "TxRefAmp": 235.352,
  "dcmmeta_affine": [
    [-2.9511070251464844, -0.5251407623291016, -0.16394665837287903, 146.24940490722656],
    [-0.5375568866729736, 2.8062779903411865, 1.2159409523010254, -98.85009765625],
    [0.044726885855197906, -0.9214291572570801, 3.796670913696289, -15.130785942077637],
    [0.0, 0.0, 0.0, 1.0]
],
  "dcmmeta_reorient_transform": [
    [0.0, -1.0, 0.0, 79.0],
    [1.0, 0.0, 0.0, 0.0],
    [0.0, 0.0, 1.0, 0.0],
    [0.0, 0.0, 0.0, 1.0]
],
  "dcmmeta_shape": [80, 80, 32, 200],
  "dcmmeta_slice_dim": 2,
  "dcmmeta_version": 0.6,
  "global": {
    "const": {
      "AccessionNumber": "qa",
      "AcquisitionMatrix": [80, 0, 0, 80],
      "AngioFlag": "N",
      "BitsAllocated": 16,
      "BitsStored": 12,
      "BodyPartExamined": "BRAIN",
      "Columns": 480,
      "EchoNumbers": 1,
      "EchoTime": 35.0,
      "EchoTrainLength": 39,
      "FlipAngle": 90.0,
      "HighBit": 11,
      "ImageOrientationPatient": [0.98370230998302, 0.17918562491482, 0.01490896233661, -0.175046929499, 0.93542595785469, 0.30714304459749],
      "ImagePositionPatient": [-589.95650478117, -791.61280499474, -281.15489173938],
      "ImageType": [
        "ORIGINAL",
        "PRIMARY",
        "M",
        "ND",
        "NORM",
        "MOSAIC"
],
      "ImagedNucleus": "1H",
      "ImagingFrequency": 123.252444,
      "InPlanePhaseEncodingDirection": "COL",
      "MRAcquisitionType": "2D",
      "MagneticFieldStrength": 3.0,
      "Manufacturer": "SIEMENS",
      "ManufacturerModelName": "Prisma",
      "Modality": "MR",
      "NumberOfAverages": 1.0,
      "NumberOfPhaseEncodingSteps": 79,
      "PercentPhaseFieldOfView": 100.0,
      "PercentSampling": 100.0,
      "PerformedProcedureStepStartTime": "093747.500000",
      "PhotometricInterpretation": "MONOCHROME2",
      "PixelBandwidth": 2315.0,
      "PixelRepresentation": 0,
      "PixelSpacing": [3.0, 3.0],
      "ProtocolName": "func-bold_task-rest_acq-p2-s4-3.5mm",
      "RepetitionTime": 2000.0,
      "Rows": 480,
      "SAR": 0.02089336430143,
      "SamplesPerPixel": 1,
      "ScanOptions": "FS",
      "ScanningSequence": "EP",
      "SequenceName": "*epfid2d1_80",
      "SequenceVariant": "SK",
      "SeriesDescription": "func-bold_task-rest_acq-p2-s4-3.5mm",
      "SeriesNumber": 7,
      "SeriesTime": "095801.849000",
      "SliceLocation": -50.531225169259,
      "SliceThickness": 3.5,
      "SmallestImagePixelValue": 0,
      "SoftwareVersions": "syngo MR E11",
      "SpacingBetweenSlices": 3.9900000540619,
      "SpecificCharacterSet": "ISO_IR 100",
      "StudyID": "75",
      "StudyTime": "093747.441000",
      "TransmitCoilName": "Body",
      "VariableFlipAngleFlag": "N",
      "WindowCenter": 930.0,
      "WindowCenterWidthExplanation": "Algo1",
      "dBdt": 0.0},
    "slices": {}
  },
  "time": {
    "samples": {
      "AcquisitionNumber": [1, 2, 3, 4, 5, 6, 7, 8, 9, 10, 11, 12, 13, 14, 15, 16, 17, 18, 19, 20, 21, 22, 23, 24, 25, 26, 27, 28, 29, 30, 31, 32, 33, 34, 35, 36, 37, 38, 39, 40, 41, 42, 43, 44, 45, 46, 47, 48, 49, 50, 51, 52, 53, 54, 55, 56, 57, 58, 59, 60, 61, 62, 63, 64, 65, 66, 67, 68, 69, 70, 71, 72, 73, 74, 75, 76, 77, 78, 79, 80, 81, 82, 83, 84, 85, 86, 87, 88, 89, 90, 91, 92, 93, 94, 95, 96, 97, 98, 99, 100, 101, 102, 103, 104, 105, 106, 107, 108, 109, 110, 111, 112, 113, 114, 115, 116, 117, 118, 119, 120, 121, 122, 123, 124, 125, 126, 127, 128, 129, 130, 131, 132, 133, 134, 135, 136, 137, 138, 139, 140, 141, 142, 143, 144, 145, 146, 147, 148, 149, 150, 151, 152, 153, 154, 155, 156, 157, 158, 159, 160, 161, 162, 163, 164, 165, 166, 167, 168, 169, 170, 171, 172, 173, 174, 175, 176, 177, 178, 179, 180, 181, 182, 183, 184, 185, 186, 187, 188, 189, 190, 191, 192, 193, 194, 195, 196, 197, 198, 199, 200],
      "AcquisitionTime": ["095708.145000", "095710.145000", "095712.145000", "095714.145000", "095716.145000", "095718.145000", "095720.145000", "095722.145000", "095724.145000", "095726.145000", "095728.145000", "095730.145000", "095732.145000", "095734.145000", "095736.145000", "095738.145000", "095740.145000", "095742.145000", "095744.145000", "095746.145000", "095748.145000", "095750.145000", "095752.145000", "095754.145000", "095756.145000", "095758.145000", "095800.145000", "095802.145000", "095804.145000", "095806.145000", "095808.145000", "095810.145000", "095812.145000", "095814.145000", "095816.145000", "095818.145000", "095820.145000", "095822.145000", "095824.145000", "095826.145000", "095828.145000", "095830.145000", "095832.145000", "095834.145000", "095836.145000", "095838.145000", "095840.145000", "095842.145000", "095844.145000", "095846.145000", "095848.145000", "095850.145000", "095852.145000", "095854.145000", "095856.145000", "095858.145000", "095900.145000", "095902.145000", "095904.145000", "095906.145000", "095908.145000", "095910.145000", "095912.145000", "095914.145000", "095916.145000", "095918.145000", "095920.145000", "095922.145000", "095924.145000", "095926.145000", "095928.145000", "095930.145000", "095932.145000", "095934.145000", "095936.145000", "095938.145000", "095940.145000", "095942.145000", "095944.145000", "095946.145000", "095948.145000", "095950.145000", "095952.145000", "095954.145000", "095956.145000", "095958.145000", "100000.145000", "100002.145000", "100004.145000", "100006.145000", "100008.145000", "100010.145000", "100012.145000", "100014.145000", "100016.145000", "100018.145000", "100020.145000", "100022.145000", "100024.145000", "100026.145000", "100028.145000", "100030.145000", "100032.145000", "100034.145000", "100036.145000", "100038.145000", "100040.145000", "100042.145000", "100044.145000", "100046.145000", "100048.145000", "100050.145000", "100052.145000", "100054.145000", "100056.145000", "100058.145000", "100100.145000", "100102.145000", "100104.145000", "100106.145000", "100108.145000", "100110.145000", "100112.145000", "100114.145000", "100116.145000", "100118.145000", "100120.145000", "100122.145000", "100124.145000", "100126.145000", "100128.145000", "100130.145000", "100132.145000", "100134.145000", "100136.145000", "100138.145000", "100140.145000", "100142.145000", "100144.145000", "100146.145000", "100148.145000", "100150.145000", "100152.145000", "100154.145000", "100156.145000", "100158.145000", "100200.145000", "100202.145000", "100204.145000", "100206.145000", "100208.145000", "100210.145000", "100212.145000", "100214.145000", "100216.145000", "100218.145000", "100220.145000", "100222.145000", "100224.145000", "100226.145000", "100228.145000", "100230.145000", "100232.145000", "100234.145000", "100236.145000", "100238.145000", "100240.145000", "100242.145000", "100244.145000", "100246.145000", "100248.145000", "100250.145000", "100252.145000", "100254.145000", "100256.145000", "100258.145000", "100300.145000", "100302.145000", "100304.145000", "100306.145000", "100308.145000", "100310.145000", "100312.145000", "100314.145000", "100316.145000", "100318.145000", "100320.145000", "100322.145000", "100324.145000", "100326.145000", "100328.145000", "100330.145000", "100332.145000", "100334.145000", "100336.145000", "100338.145000", "100340.145000", "100342.145000", "100344.145000", "100346.145000"],
      "ContentTime": ["095801.852000", "095801.856000", "095801.859000", "095801.861000", "095801.864000", "095801.874000", "095801.883000", "095801.886000", "095801.889000", "095801.891000", "095801.894000", "095801.896000", "095801.899000", "095801.904000", "095801.907000", "095801.909000", "095801.912000", "095801.915000", "095801.917000", "095801.920000", "095801.922000", "095801.927000", "095801.930000", "095801.932000", "095801.935000", "095801.938000", "095801.940000", "095841.848000", "095841.851000", "095841.854000", "095841.856000", "095841.859000", "095841.862000", "095841.865000", "095841.868000", "095841.871000", "095841.873000", "095841.876000", "095841.879000", "095841.891000", "095841.893000", "095841.896000", "095841.899000", "095841.902000", "095841.904000", "095841.907000", "095841.910000", "095921.849000", "095921.852000", "095921.854000", "095921.857000", "095921.860000", "095921.863000", "095921.866000", "095921.868000", "095921.871000", "095921.874000", "095921.876000", "095921.879000", "095921.882000", "095921.884000", "095921.887000", "095921.890000", "095921.893000", "095921.895000", "095921.898000", "095921.901000", "100001.848000", "100001.851000", "100001.853000", "100001.856000", "100001.859000", "100001.861000", "100001.864000", "100001.867000", "100001.869000", "100001.872000", "100001.875000", "100001.877000", "100001.880000", "100001.883000", "100001.886000", "100001.888000", "100001.891000", "100001.893000", "100001.896000", "100001.899000", "100041.847000", "100041.850000", "100041.853000", "100041.855000", "100041.858000", "100041.860000", "100041.863000", "100041.866000", "100041.868000", "100041.871000", "100041.873000", "100041.876000", "100041.878000", "100041.881000", "100041.883000", "100041.886000", "100041.889000", "100041.891000", "100041.894000", "100041.896000", "100121.849000", "100121.851000", "100121.854000", "100121.857000", "100121.859000", "100121.862000", "100121.864000", "100121.867000", "100121.869000", "100121.872000", "100121.874000", "100121.877000", "100121.879000", "100121.882000", "100121.885000", "100121.887000", "100121.890000", "100121.892000", "100121.895000", "100121.897000", "100201.848000", "100201.850000", "100201.853000", "100201.856000", "100201.858000", "100201.861000", "100201.864000", "100201.867000", "100201.870000", "100201.873000", "100201.875000", "100201.878000", "100201.881000", "100201.883000", "100201.886000", "100201.889000", "100201.891000", "100201.894000", "100201.896000", "100201.899000", "100221.847000", "100221.850000", "100221.853000", "100221.856000", "100221.858000", "100221.861000", "100221.863000", "100221.866000", "100221.869000", "100221.871000", "100301.848000", "100301.851000", "100301.853000", "100301.856000", "100301.859000", "100301.861000", "100301.864000", "100301.866000", "100301.869000", "100301.871000", "100301.874000", "100301.877000", "100301.884000", "100301.887000", "100301.889000", "100301.892000", "100301.895000", "100301.897000", "100301.900000", "100301.902000", "100341.849000", "100341.851000", "100341.854000", "100341.856000", "100341.859000", "100341.862000", "100341.864000", "100341.867000", "100341.869000", "100341.872000", "100341.874000", "100341.877000", "100341.880000", "100341.882000", "100341.885000", "100341.887000", "100341.890000", "100341.892000", "100341.895000", "100341.898000", "100347.265000", "100347.268000", "100347.270000"],
      "InstanceCreationTime": ["095801.852000", "095801.856000", "095801.859000", "095801.861000", "095801.864000", "095801.874000", "095801.883000", "095801.886000", "095801.889000", "095801.891000", "095801.894000", "095801.896000", "095801.899000", "095801.904000", "095801.907000", "095801.909000", "095801.912000", "095801.915000", "095801.917000", "095801.920000", "095801.922000", "095801.927000", "095801.930000", "095801.932000", "095801.935000", "095801.938000", "095801.940000", "095841.848000", "095841.851000", "095841.854000", "095841.856000", "095841.859000", "095841.862000", "095841.865000", "095841.868000", "095841.871000", "095841.873000", "095841.876000", "095841.879000", "095841.891000", "095841.893000", "095841.896000", "095841.899000", "095841.902000", "095841.904000", "095841.907000", "095841.910000", "095921.849000", "095921.852000", "095921.854000", "095921.857000", "095921.860000", "095921.863000", "095921.866000", "095921.868000", "095921.871000", "095921.874000", "095921.876000", "095921.879000", "095921.882000", "095921.884000", "095921.887000", "095921.890000", "095921.893000", "095921.895000", "095921.898000", "095921.901000", "100001.848000", "100001.851000", "100001.853000", "100001.856000", "100001.859000", "100001.861000", "100001.864000", "100001.867000", "100001.869000", "100001.872000", "100001.875000", "100001.877000", "100001.880000", "100001.883000", "100001.886000", "100001.888000", "100001.891000", "100001.893000", "100001.896000", "100001.899000", "100041.847000", "100041.850000", "100041.853000", "100041.855000", "100041.858000", "100041.860000", "100041.863000", "100041.866000", "100041.868000", "100041.871000", "100041.873000", "100041.876000", "100041.878000", "100041.881000", "100041.883000", "100041.886000", "100041.889000", "100041.891000", "100041.894000", "100041.896000", "100121.849000", "100121.851000", "100121.854000", "100121.857000", "100121.859000", "100121.862000", "100121.864000", "100121.867000", "100121.869000", "100121.872000", "100121.874000", "100121.877000", "100121.879000", "100121.882000", "100121.885000", "100121.887000", "100121.890000", "100121.892000", "100121.895000", "100121.897000", "100201.848000", "100201.850000", "100201.853000", "100201.856000", "100201.858000", "100201.861000", "100201.864000", "100201.867000", "100201.870000", "100201.873000", "100201.875000", "100201.878000", "100201.881000", "100201.883000", "100201.886000", "100201.889000", "100201.891000", "100201.894000", "100201.896000", "100201.899000", "100221.847000", "100221.850000", "100221.853000", "100221.856000", "100221.858000", "100221.861000", "100221.863000", "100221.866000", "100221.869000", "100221.871000", "100301.848000", "100301.851000", "100301.853000", "100301.856000", "100301.859000", "100301.861000", "100301.864000", "100301.866000", "100301.869000", "100301.871000", "100301.874000", "100301.877000", "100301.884000", "100301.887000", "100301.889000", "100301.892000", "100301.895000", "100301.897000", "100301.900000", "100301.902000", "100341.849000", "100341.851000", "100341.854000", "100341.856000", "100341.859000", "100341.862000", "100341.864000", "100341.867000", "100341.869000", "100341.872000", "100341.874000", "100341.877000", "100341.880000", "100341.882000", "100341.885000", "100341.887000", "100341.890000", "100341.892000", "100341.895000", "100341.898000", "100347.265000", "100347.268000", "100347.270000"],
      "InstanceNumber": [1, 2, 3, 4, 5, 6, 7, 8, 9, 10, 11, 12, 13, 14, 15, 16, 17, 18, 19, 20, 21, 22, 23, 24, 25, 26, 27, 28, 29, 30, 31, 32, 33, 34, 35, 36, 37, 38, 39, 40, 41, 42, 43, 44, 45, 46, 47, 48, 49, 50, 51, 52, 53, 54, 55, 56, 57, 58, 59, 60, 61, 62, 63, 64, 65, 66, 67, 68, 69, 70, 71, 72, 73, 74, 75, 76, 77, 78, 79, 80, 81, 82, 83, 84, 85, 86, 87, 88, 89, 90, 91, 92, 93, 94, 95, 96, 97, 98, 99, 100, 101, 102, 103, 104, 105, 106, 107, 108, 109, 110, 111, 112, 113, 114, 115, 116, 117, 118, 119, 120, 121, 122, 123, 124, 125, 126, 127, 128, 129, 130, 131, 132, 133, 134, 135, 136, 137, 138, 139, 140, 141, 142, 143, 144, 145, 146, 147, 148, 149, 150, 151, 152, 153, 154, 155, 156, 157, 158, 159, 160, 161, 162, 163, 164, 165, 166, 167, 168, 169, 170, 171, 172, 173, 174, 175, 176, 177, 178, 179, 180, 181, 182, 183, 184, 185, 186, 187, 188, 189, 190, 191, 192, 193, 194, 195, 196, 197, 198, 199, 200],
      "LargestImagePixelValue": [2161, 2161, 2160, 2158, 2165, 2156, 2157, 2160, 2165, 2158, 2157, 2162, 2161, 2159, 2157, 2159, 2164, 2160, 2161, 2159, 2167, 2161, 2167, 2166, 2161, 2160, 2158, 2157, 2158, 2158, 2164, 2161, 2162, 2161, 2158, 2161, 2161, 2162, 2160, 2162, 2162, 2161, 2162, 2163, 2161, 2167, 2164, 2159, 2159, 2160, 2161, 2160, 2158, 2162, 2156, 2158, 2161, 2162, 2160, 2158, 2161, 2164, 2160, 2161, 2162, 2163, 2164, 2157, 2156, 2160, 2156, 2160, 2163, 2163, 2165, 2161, 2160, 2160, 2163, 2162, 2163, 2163, 2163, 2161, 2163, 2166, 2163, 2162, 2160, 2162, 2162, 2158, 2162, 2165, 2169, 2162, 2159, 2161, 2155, 2155, 2163, 2161, 2166, 2160, 2165, 2170, 2163, 2158, 2167, 2162, 2159, 2164, 2160, 2162, 2164, 2162, 2163, 2164, 2165, 2163, 2161, 2165, 2163, 2163, 2166, 2164, 2158, 2162, 2162, 2164, 2170, 2158, 2161, 2166, 2162, 2165, 2168, 2161, 2164, 2162, 2161, 2163, 2166, 2163, 2162, 2165, 2159, 2159, 2165, 2166, 2161, 2159, 2163, 2166, 2157, 2160, 2162, 2162, 2161, 2160, 2167, 2159, 2163, 2164, 2161, 2160, 2165, 2161, 2164, 2166, 2165, 2158, 2166, 2163, 2164, 2162, 2161, 2158, 2160, 2164, 2163, 2162, 2164, 2158, 2159, 2163, 2160, 2167, 2164, 2164, 2163, 2162, 2163, 2162, 2161, 2166, 2164, 2168, 2165, 2164],
      "WindowWidth": [2127.0, 2127.0, 2127.0, 2126.0, 2126.0, 2127.0, 2127.0, 2127.0, 2127.0, 2127.0, 2127.0, 2127.0, 2126.0, 2127.0, 2127.0, 2126.0, 2127.0, 2127.0, 2127.0, 2127.0, 2128.0, 2127.0, 2127.0, 2127.0, 2127.0, 2127.0, 2127.0, 2127.0, 2127.0, 2127.0, 2127.0, 2128.0, 2127.0, 2127.0, 2127.0, 2127.0, 2127.0, 2127.0, 2127.0, 2127.0, 2127.0, 2127.0, 2127.0, 2127.0, 2127.0, 2128.0, 2127.0, 2127.0, 2127.0, 2127.0, 2127.0, 2127.0, 2127.0, 2127.0, 2127.0, 2127.0, 2127.0, 2127.0, 2127.0, 2127.0, 2128.0, 2127.0, 2127.0, 2127.0, 2127.0, 2127.0, 2127.0, 2127.0, 2128.0, 2127.0, 2127.0, 2127.0, 2127.0, 2127.0, 2127.0, 2127.0, 2127.0, 2127.0, 2127.0, 2127.0, 2127.0, 2127.0, 2128.0, 2127.0, 2127.0, 2127.0, 2127.0, 2127.0, 2127.0, 2127.0, 2127.0, 2127.0, 2127.0, 2127.0, 2128.0, 2127.0, 2128.0, 2128.0, 2127.0, 2127.0, 2127.0, 2128.0, 2128.0, 2127.0, 2127.0, 2127.0, 2128.0, 2128.0, 2127.0, 2127.0, 2128.0, 2128.0, 2128.0, 2128.0, 2127.0, 2128.0, 2128.0, 2128.0, 2128.0, 2128.0, 2127.0, 2128.0, 2128.0, 2127.0, 2127.0, 2127.0, 2127.0, 2127.0, 2127.0, 2127.0, 2127.0, 2127.0, 2128.0, 2127.0, 2127.0, 2127.0, 2128.0, 2127.0, 2127.0, 2127.0, 2127.0, 2127.0, 2127.0, 2127.0, 2127.0, 2128.0, 2128.0, 2128.0, 2127.0, 2127.0, 2127.0, 2127.0, 2127.0, 2128.0, 2128.0, 2127.0, 2128.0, 2127.0, 2127.0, 2127.0, 2127.0, 2127.0, 2127.0, 2127.0, 2127.0, 2127.0, 2127.0, 2127.0, 2127.0, 2127.0, 2128.0, 2127.0, 2128.0, 2127.0, 2128.0, 2127.0, 2128.0, 2127.0, 2127.0, 2127.0, 2127.0, 2127.0, 2128.0, 2127.0, 2127.0, 2127.0, 2127.0, 2127.0, 2127.0, 2127.0, 2127.0, 2127.0, 2127.0, 2128.0, 2128.0, 2128.0, 2128.0, 2128.0, 2128.0, 2128.0]
    },
    "slices": {}
  }
}