{
  "AcquisitionMatrixPE": 80,
  "AcquisitionNumber": 1,
  "AcquisitionTime": "09:50:13.207500",
  "BandwidthPerPixelPhaseEncode": 48.077,
  "BaseResolution": 80,
  "BodyPartExamined": "BRAIN",
  "CoilCombinationMethod": "Sum of Squares",
  "ConsistencyInfo": "N4_VE11C_LATEST_20160120",
  "ConversionSoftware": "dcm2niix",
  "ConversionSoftwareVersion": "v1.0.20220720",
  "DerivedVendorReportedEchoSpacing": 0.000519999,
  "DeviceSerialNumber": "66112",
  "DwellTime": 2.7e-06,
  "EchoTime": 0.035,
  "EchoTrainLength": 39,
  "EffectiveEchoSpacing": 0.00026,
  "FlipAngle": 90,
  "HeudiconvVersion": "0.13.1",
  "ImageOrientationPatientDICOM": [0.983702, 0.179186, 0.014909, -0.175047, 0.935426, 0.307143],
  "ImageOrientationText": "Tra>Cor(17.8)>Sag(-2.4)",
  "ImageType": [
    "ORIGINAL",
    "PRIMARY",
    "M",
    "ND",
    "NORM",
    "MOSAIC"
],
  "ImagingFrequency": 123.252,
  "InPlanePhaseEncodingDirectionDICOM": "COL",
  "InstitutionAddress": "Maynard 3,Hanover,NH,US,03755",
  "InstitutionName": "Dartmouth College - PBS",
  "InstitutionalDepartmentName": "Department",
  "MRAcquisitionType": "2D",
  "MagneticFieldStrength": 3,
  "Manufacturer": "Siemens",
  "ManufacturersModelName": "Prisma",
  "MatrixCoilMode": "GRAPPA",
  "Modality": "MR",
  "NonlinearGradientCorrection": false,
  "ParallelReductionFactorInPlane": 2,
  "PartialFourier": 1,
  "PatientPosition": "HFS",
  "PercentPhaseFOV": 100,
  "PercentSampling": 100,
  "PhaseEncodingDirection": "j-",
  "PhaseEncodingSteps": 79,
  "PhaseResolution": 1,
  "PixelBandwidth": 2315,
  "ProcedureStepDescription": "dbic^QA",
  "ProtocolName": "func-bold_task-rest_acq-p2",
  "PulseSequenceDetails": "%SiemensSeq%\\ep2d_bold",
  "ReceiveCoilActiveElements": "HEA;HEP",
  "ReceiveCoilName": "Head_32",
  "ReconMatrixPE": 80,
  "RefLinesPE": 24,
  "RepetitionTime": 2,
  "SAR": 0.0555632,
  "ScanOptions": "FS",
  "ScanningSequence": "EP",
  "SequenceName": "*epfid2d1_80",
  "SequenceVariant": "SK",
  "SeriesDescription": "func-bold_task-rest_acq-p2",
  "SeriesNumber": 5,
  "ShimSetting": [4142, -7698, -7516, 266, -6, -164, -45, 39],
  "SliceThickness": 3.5,
  "SliceTiming": [0.99, 0, 1.055, 0.065, 1.1225, 0.1325, 1.1875, 0.1975, 1.255, 0.265, 1.32, 0.33, 1.385, 0.395, 1.4525, 0.4625, 1.5175, 0.5275, 1.585, 0.595, 1.65, 0.66, 1.715, 0.725, 1.7825, 0.7925, 1.8475, 0.8575, 1.915, 0.925],
  "SoftwareVersions": "syngo MR E11",
  "SpacingBetweenSlices": 3.99,
  "StationName": "AWP66112",
  "TaskName": "rest",
  "TotalReadoutTime": 0.02054,
  "TxRefAmp": 235.352,
  "dcmmeta_affine": [
    [-2.9511070251464844, -0.5251407623291016, -0.16394665837287903, 146.08544921875],
    [-0.5375568866729736, 2.8062779903411865, 1.2159409523010254, -97.6341552734375],
    [0.044726885855197906, -0.9214291572570801, 3.796670913696289, -11.334113121032715],
    [0.0, 0.0, 0.0, 1.0]
],
  "dcmmeta_reorient_transform": [
    [0.0, -1.0, 0.0, 79.0],
    [1.0, 0.0, 0.0, 0.0],
    [0.0, 0.0, 1.0, 0.0],
    [0.0, 0.0, 0.0, 1.0]
],
  "dcmmeta_shape": [80, 80, 30, 200],
  "dcmmeta_slice_dim": 2,
  "dcmmeta_version": 0.6,
  "global": {
    "const": {
      "AccessionNumber": "qa",
      "AcquisitionMatrix": [80, 0, 0, 80],
      "AngioFlag": "N",
      "BitsAllocated": 16,
      "BitsStored": 12,
      "BodyPartExamined": "BRAIN",
      "Columns": 480,
      "EchoNumbers": 1,
      "EchoTime": 35.0,
      "EchoTrainLength": 39,
      "FlipAngle": 90.0,
      "HighBit": 11,
      "ImageOrientationPatient": [0.98370230998302, 0.17918562491482, 0.01490896233661, -0.175046929499, 0.93542595785469, 0.30714304459749],
      "ImagePositionPatient": [-589.7925581526, -792.82874642388, -277.35821891833],
      "ImageType": [
        "ORIGINAL",
        "PRIMARY",
        "M",
        "ND",
        "NORM",
        "MOSAIC"
],
      "ImagedNucleus": "1H",
      "ImagingFrequency": 123.252445,
      "InPlanePhaseEncodingDirection": "COL",
      "MRAcquisitionType": "2D",
      "MagneticFieldStrength": 3.0,
      "Manufacturer": "SIEMENS",
      "ManufacturerModelName": "Prisma",
      "Modality": "MR",
      "NumberOfAverages": 1.0,
      "NumberOfPhaseEncodingSteps": 79,
      "PercentPhaseFieldOfView": 100.0,
      "PercentSampling": 100.0,
      "PerformedProcedureStepStartTime": "093747.500000",
      "PhotometricInterpretation": "MONOCHROME2",
      "PixelBandwidth": 2315.0,
      "PixelRepresentation": 0,
      "PixelSpacing": [3.0, 3.0],
      "ProtocolName": "func-bold_task-rest_acq-p2",
      "RepetitionTime": 2000.0,
      "Rows": 480,
      "SAR": 0.05556315507145,
      "SamplesPerPixel": 1,
      "ScanOptions": "FS",
      "ScanningSequence": "EP",
      "SequenceName": "*epfid2d1_80",
      "SequenceVariant": "SK",
      "SeriesDescription": "func-bold_task-rest_acq-p2",
      "SeriesNumber": 5,
      "SeriesTime": "095101.992000",
      "SliceLocation": -46.541223093298,
      "SliceThickness": 3.5,
      "SmallestImagePixelValue": 0,
      "SoftwareVersions": "syngo MR E11",
      "SpacingBetweenSlices": 3.9900000498099,
      "SpecificCharacterSet": "ISO_IR 100",
      "StudyID": "75",
      "StudyTime": "093747.441000",
      "TransmitCoilName": "Body",
      "VariableFlipAngleFlag": "N",
      "WindowCenterWidthExplanation": "Algo1",
      "dBdt": 0.0},
    "slices": {}
  },
  "time": {
    "samples": {
      "AcquisitionNumber": [1, 2, 3, 4, 5, 6, 7, 8, 9, 10, 11, 12, 13, 14, 15, 16, 17, 18, 19, 20, 21, 22, 23, 24, 25, 26, 27, 28, 29, 30, 31, 32, 33, 34, 35, 36, 37, 38, 39, 40, 41, 42, 43, 44, 45, 46, 47, 48, 49, 50, 51, 52, 53, 54, 55, 56, 57, 58, 59, 60, 61, 62, 63, 64, 65, 66, 67, 68, 69, 70, 71, 72, 73, 74, 75, 76, 77, 78, 79, 80, 81, 82, 83, 84, 85, 86, 87, 88, 89, 90, 91, 92, 93, 94, 95, 96, 97, 98, 99, 100, 101, 102, 103, 104, 105, 106, 107, 108, 109, 110, 111, 112, 113, 114, 115, 116, 117, 118, 119, 120, 121, 122, 123, 124, 125, 126, 127, 128, 129, 130, 131, 132, 133, 134, 135, 136, 137, 138, 139, 140, 141, 142, 143, 144, 145, 146, 147, 148, 149, 150, 151, 152, 153, 154, 155, 156, 157, 158, 159, 160, 161, 162, 163, 164, 165, 166, 167, 168, 169, 170, 171, 172, 173, 174, 175, 176, 177, 178, 179, 180, 181, 182, 183, 184, 185, 186, 187, 188, 189, 190, 191, 192, 193, 194, 195, 196, 197, 198, 199, 200],
      "AcquisitionTime": ["095013.207500", "095015.207500", "095017.207500", "095019.207500", "095021.207500", "095023.207500", "095025.207500", "095027.207500", "095029.207500", "095031.207500", "095033.207500", "095035.207500", "095037.207500", "095039.207500", "095041.207500", "095043.207500", "095045.207500", "095047.207500", "095049.207500", "095051.207500", "095053.207500", "095055.207500", "095057.207500", "095059.207500", "095101.207500", "095103.207500", "095105.207500", "095107.207500", "095109.207500", "095111.207500", "095113.207500", "095115.207500", "095117.207500", "095119.207500", "095121.207500", "095123.207500", "095125.207500", "095127.207500", "095129.207500", "095131.207500", "095133.207500", "095135.207500", "095137.207500", "095139.207500", "095141.207500", "095143.207500", "095145.207500", "095147.207500", "095149.207500", "095151.207500", "095153.207500", "095155.207500", "095157.207500", "095159.207500", "095201.207500", "095203.207500", "095205.207500", "095207.207500", "095209.207500", "095211.207500", "095213.207500", "095215.207500", "095217.207500", "095219.207500", "095221.207500", "095223.207500", "095225.207500", "095227.207500", "095229.207500", "095231.207500", "095233.207500", "095235.207500", "095237.207500", "095239.207500", "095241.207500", "095243.207500", "095245.207500", "095247.207500", "095249.207500", "095251.207500", "095253.207500", "095255.207500", "095257.207500", "095259.207500", "095301.207500", "095303.207500", "095305.207500", "095307.207500", "095309.207500", "095311.207500", "095313.207500", "095315.207500", "095317.207500", "095319.207500", "095321.207500", "095323.207500", "095325.207500", "095327.207500", "095329.207500", "095331.207500", "095333.207500", "095335.207500", "095337.207500", "095339.207500", "095341.207500", "095343.207500", "095345.207500", "095347.207500", "095349.207500", "095351.207500", "095353.207500", "095355.207500", "095357.207500", "095359.207500", "095401.207500", "095403.207500", "095405.207500", "095407.207500", "095409.207500", "095411.207500", "095413.207500", "095415.207500", "095417.207500", "095419.207500", "095421.207500", "095423.207500", "095425.207500", "095427.207500", "095429.207500", "095431.207500", "095433.207500", "095435.207500", "095437.207500", "095439.207500", "095441.207500", "095443.207500", "095445.207500", "095447.207500", "095449.207500", "095451.207500", "095453.207500", "095455.207500", "095457.207500", "095459.207500", "095501.207500", "095503.207500", "095505.207500", "095507.207500", "095509.207500", "095511.207500", "095513.207500", "095515.207500", "095517.207500", "095519.207500", "095521.207500", "095523.207500", "095525.207500", "095527.207500", "095529.207500", "095531.207500", "095533.207500", "095535.207500", "095537.207500", "095539.207500", "095541.207500", "095543.207500", "095545.207500", "095547.207500", "095549.207500", "095551.207500", "095553.207500", "095555.207500", "095557.207500", "095559.207500", "095601.207500", "095603.207500", "095605.207500", "095607.207500", "095609.207500", "095611.207500", "095613.207500", "095615.207500", "095617.207500", "095619.207500", "095621.207500", "095623.207500", "095625.207500", "095627.207500", "095629.207500", "095631.207500", "095633.207500", "095635.207500", "095637.207500", "095639.207500", "095641.207500", "095643.207500", "095645.207500", "095647.207500", "095649.207500", "095651.207500"],
      "ContentTime": ["095101.996000", "095102.003000", "095102.006000", "095102.008000", "095102.011000", "095102.014000", "095102.016000", "095102.019000", "095102.021000", "095102.024000", "095102.026000", "095102.029000", "095102.031000", "095102.034000", "095102.036000", "095102.039000", "095102.042000", "095102.044000", "095102.047000", "095102.049000", "095102.052000", "095102.054000", "095102.057000", "095102.059000", "095141.990000", "095141.993000", "095141.996000", "095141.998000", "095142.002000", "095142.005000", "095142.007000", "095142.010000", "095142.012000", "095142.015000", "095142.018000", "095142.020000", "095142.023000", "095142.025000", "095142.028000", "095142.030000", "095142.033000", "095142.036000", "095142.038000", "095142.041000", "095221.992000", "095221.994000", "095221.997000", "095222.000000", "095222.003000", "095222.006000", "095222.008000", "095222.011000", "095222.013000", "095222.016000", "095222.018000", "095222.021000", "095222.024000", "095222.026000", "095222.029000", "095222.031000", "095222.034000", "095222.036000", "095222.039000", "095222.042000", "095241.991000", "095241.993000", "095241.996000", "095242.000000", "095242.002000", "095242.005000", "095242.007000", "095242.010000", "095242.013000", "095242.015000", "095321.991000", "095321.994000", "095321.996000", "095322.000000", "095322.002000", "095322.005000", "095322.008000", "095322.010000", "095322.013000", "095322.015000", "095322.050000", "095322.053000", "095322.055000", "095322.058000", "095322.061000", "095322.063000", "095322.066000", "095322.068000", "095322.071000", "095322.073000", "095401.990000", "095401.993000", "095401.996000", "095401.998000", "095402.002000", "095402.005000", "095402.012000", "095402.015000", "095402.018000", "095402.020000", "095402.023000", "095402.025000", "095402.028000", "095402.030000", "095402.033000", "095402.036000", "095402.038000", "095402.041000", "095402.043000", "095402.046000", "095441.992000", "095441.994000", "095441.997000", "095442.001000", "095442.003000", "095442.006000", "095442.008000", "095442.011000", "095442.014000", "095442.016000", "095442.019000", "095442.029000", "095442.032000", "095442.035000", "095442.037000", "095442.040000", "095442.042000", "095442.045000", "095442.047000", "095442.050000", "095521.991000", "095521.993000", "095521.996000", "095522.000000", "095522.002000", "095522.005000", "095522.007000", "095522.010000", "095522.012000", "095522.015000", "095522.018000", "095522.020000", "095522.023000", "095522.025000", "095522.028000", "095522.030000", "095522.033000", "095522.036000", "095522.038000", "095522.041000", "095601.991000", "095601.994000", "095601.996000", "095602.000000", "095602.002000", "095602.005000", "095602.008000", "095602.010000", "095602.013000", "095602.016000", "095602.018000", "095602.021000", "095602.023000", "095602.026000", "095602.028000", "095602.031000", "095602.034000", "095602.036000", "095602.039000", "095602.041000", "095641.991000", "095641.993000", "095641.996000", "095642.000000", "095642.002000", "095642.005000", "095642.007000", "095642.010000", "095642.012000", "095642.015000", "095642.018000", "095642.020000", "095642.023000", "095642.026000", "095642.028000", "095642.031000", "095642.033000", "095642.036000", "095642.039000", "095642.041000", "095653.077000", "095653.080000", "095653.083000", "095653.086000", "095653.088000", "095653.091000"],
      "InstanceCreationTime": ["095101.996000", "095102.003000", "095102.006000", "095102.008000", "095102.011000", "095102.014000", "095102.016000", "095102.019000", "095102.021000", "095102.024000", "095102.026000", "095102.029000", "095102.031000", "095102.034000", "095102.036000", "095102.039000", "095102.042000", "095102.044000", "095102.047000", "095102.049000", "095102.052000", "095102.054000", "095102.057000", "095102.059000", "095141.990000", "095141.993000", "095141.996000", "095141.998000", "095142.002000", "095142.005000", "095142.007000", "095142.010000", "095142.012000", "095142.015000", "095142.018000", "095142.020000", "095142.023000", "095142.025000", "095142.028000", "095142.030000", "095142.033000", "095142.036000", "095142.038000", "095142.041000", "095221.992000", "095221.994000", "095221.997000", "095222.000000", "095222.003000", "095222.006000", "095222.008000", "095222.011000", "095222.013000", "095222.016000", "095222.018000", "095222.021000", "095222.024000", "095222.026000", "095222.029000", "095222.031000", "095222.034000", "095222.036000", "095222.039000", "095222.042000", "095241.991000", "095241.993000", "095241.996000", "095242.000000", "095242.002000", "095242.005000", "095242.007000", "095242.010000", "095242.013000", "095242.015000", "095321.991000", "095321.994000", "095321.996000", "095322.000000", "095322.002000", "095322.005000", "095322.008000", "095322.010000", "095322.013000", "095322.015000", "095322.050000", "095322.053000", "095322.055000", "095322.058000", "095322.061000", "095322.063000", "095322.066000", "095322.068000", "095322.071000", "095322.073000", "095401.990000", "095401.993000", "095401.996000", "095401.998000", "095402.002000", "095402.005000", "095402.012000", "095402.015000", "095402.018000", "095402.020000", "095402.023000", "095402.025000", "095402.028000", "095402.030000", "095402.033000", "095402.036000", "095402.038000", "095402.041000", "095402.043000", "095402.046000", "095441.992000", "095441.994000", "095441.997000", "095442.001000", "095442.003000", "095442.006000", "095442.008000", "095442.011000", "095442.014000", "095442.016000", "095442.019000", "095442.029000", "095442.032000", "095442.035000", "095442.037000", "095442.040000", "095442.042000", "095442.045000", "095442.047000", "095442.050000", "095521.991000", "095521.993000", "095521.996000", "095522.000000", "095522.002000", "095522.005000", "095522.007000", "095522.010000", "095522.012000", "095522.015000", "095522.018000", "095522.020000", "095522.023000", "095522.025000", "095522.028000", "095522.030000", "095522.033000", "095522.036000", "095522.038000", "095522.041000", "095601.991000", "095601.994000", "095601.996000", "095602.000000", "095602.002000", "095602.005000", "095602.008000", "095602.010000", "095602.013000", "095602.016000", "095602.018000", "095602.021000", "095602.023000", "095602.026000", "095602.028000", "095602.031000", "095602.034000", "095602.036000", "095602.039000", "095602.041000", "095641.991000", "095641.993000", "095641.996000", "095642.000000", "095642.002000", "095642.005000", "095642.007000", "095642.010000", "095642.012000", "095642.015000", "095642.018000", "095642.020000", "095642.023000", "095642.026000", "095642.028000", "095642.031000", "095642.033000", "095642.036000", "095642.039000", "095642.041000", "095653.077000", "095653.080000", "095653.083000", "095653.086000", "095653.088000", "095653.091000"],
      "InstanceNumber": [1, 2, 3, 4, 5, 6, 7, 8, 9, 10, 11, 12, 13, 14, 15, 16, 17, 18, 19, 20, 21, 22, 23, 24, 25, 26, 27, 28, 29, 30, 31, 32, 33, 34, 35, 36, 37, 38, 39, 40, 41, 42, 43, 44, 45, 46, 47, 48, 49, 50, 51, 52, 53, 54, 55, 56, 57, 58, 59, 60, 61, 62, 63, 64, 65, 66, 67, 68, 69, 70, 71, 72, 73, 74, 75, 76, 77, 78, 79, 80, 81, 82, 83, 84, 85, 86, 87, 88, 89, 90, 91, 92, 93, 94, 95, 96, 97, 98, 99, 100, 101, 102, 103, 104, 105, 106, 107, 108, 109, 110, 111, 112, 113, 114, 115, 116, 117, 118, 119, 120, 121, 122, 123, 124, 125, 126, 127, 128, 129, 130, 131, 132, 133, 134, 135, 136, 137, 138, 139, 140, 141, 142, 143, 144, 145, 146, 147, 148, 149, 150, 151, 152, 153, 154, 155, 156, 157, 158, 159, 160, 161, 162, 163, 164, 165, 166, 167, 168, 169, 170, 171, 172, 173, 174, 175, 176, 177, 178, 179, 180, 181, 182, 183, 184, 185, 186, 187, 188, 189, 190, 191, 192, 193, 194, 195, 196, 197, 198, 199, 200],
      "LargestImagePixelValue": [2136, 2136, 2130, 2139, 2136, 2136, 2136, 2135, 2145, 2141, 2132, 2137, 2132, 2139, 2139, 2140, 2136, 2138, 2144, 2137, 2132, 2129, 2131, 2135, 2133, 2132, 2132, 2136, 2140, 2140, 2133, 2133, 2134, 2129, 2140, 2136, 2132, 2138, 2138, 2134, 2135, 2135, 2141, 2136, 2135, 2132, 2135, 2141, 2133, 2134, 2137, 2138, 2129, 2139, 2138, 2131, 2138, 2136, 2133, 2140, 2141, 2141, 2134, 2140, 2132, 2129, 2132, 2134, 2134, 2138, 2144, 2129, 2134, 2131, 2141, 2131, 2132, 2135, 2136, 2136, 2134, 2134, 2127, 2135, 2131, 2138, 2138, 2143, 2139, 2131, 2138, 2131, 2134, 2133, 2130, 2136, 2129, 2140, 2139, 2132, 2132, 2132, 2126, 2139, 2134, 2126, 2132, 2130, 2136, 2134, 2135, 2134, 2137, 2134, 2130, 2132, 2135, 2128, 2134, 2138, 2136, 2134, 2134, 2135, 2139, 2140, 2120, 2138, 2134, 2126, 2136, 2129, 2137, 2138, 2133, 2137, 2149, 2135, 2136, 2136, 2138, 2127, 2136, 2133, 2143, 2140, 2139, 2132, 2134, 2129, 2127, 2130, 2135, 2137, 2130, 2124, 2129, 2132, 2136, 2132, 2127, 2136, 2133, 2130, 2132, 2140, 2138, 2136, 2140, 2136, 2134, 2134, 2130, 2131, 2129, 2130, 2139, 2131, 2132, 2136, 2132, 2135, 2135, 2138, 2133, 2126, 2131, 2130, 2130, 2126, 2130, 2124, 2129, 2133, 2133, 2137, 2131, 2134, 2135, 2138],
      "WindowCenter": [999.0, 998.0, 998.0, 998.0, 998.0, 998.0, 999.0, 998.0, 998.0, 998.0, 998.0, 998.0, 998.0, 999.0, 998.0, 998.0, 999.0, 998.0, 999.0, 998.0, 998.0, 998.0, 998.0, 998.0, 998.0, 999.0, 998.0, 998.0, 999.0, 998.0, 998.0, 998.0, 998.0, 998.0, 999.0, 998.0, 999.0, 998.0, 998.0, 998.0, 999.0, 999.0, 998.0, 998.0, 998.0, 998.0, 998.0, 999.0, 998.0, 999.0, 999.0, 998.0, 999.0, 998.0, 999.0, 998.0, 998.0, 998.0, 998.0, 999.0, 998.0, 999.0, 999.0, 998.0, 998.0, 998.0, 998.0, 998.0, 998.0, 998.0, 998.0, 998.0, 998.0, 998.0, 998.0, 999.0, 998.0, 998.0, 998.0, 998.0, 998.0, 998.0, 998.0, 998.0, 998.0, 998.0, 998.0, 998.0, 999.0, 998.0, 998.0, 998.0, 999.0, 999.0, 998.0, 999.0, 999.0, 1000.0, 998.0, 999.0, 998.0, 999.0, 998.0, 999.0, 998.0, 999.0, 998.0, 998.0, 999.0, 998.0, 998.0, 998.0, 998.0, 998.0, 998.0, 999.0, 998.0, 998.0, 999.0, 998.0, 998.0, 999.0, 998.0, 999.0, 998.0, 998.0, 998.0, 998.0, 998.0, 999.0, 999.0, 998.0, 999.0, 998.0, 998.0, 998.0, 998.0, 999.0, 998.0, 998.0, 998.0, 998.0, 998.0, 999.0, 998.0, 998.0, 998.0, 998.0, 999.0, 998.0, 998.0, 998.0, 998.0, 999.0, 998.0, 998.0, 998.0, 998.0, 999.0, 998.0, 998.0, 998.0, 998.0, 998.0, 998.0, 998.0, 998.0, 999.0, 998.0, 999.0, 998.0, 999.0, 998.0, 998.0, 998.0, 998.0, 998.0, 998.0, 998.0, 998.0, 998.0, 998.0, 998.0, 998.0, 998.0, 998.0, 998.0, 998.0, 998.0, 998.0, 998.0, 998.0, 998.0, 998.0, 998.0, 998.0, 998.0, 998.0, 999.0, 998.0],
      "WindowWidth": [2191.0, 2190.0, 2190.0, 2190.0, 2190.0, 2190.0, 2190.0, 2190.0, 2189.0, 2189.0, 2190.0, 2189.0, 2190.0, 2190.0, 2190.0, 2189.0, 2190.0, 2190.0, 2190.0, 2189.0, 2189.0, 2190.0, 2189.0, 2189.0, 2189.0, 2190.0, 2189.0, 2189.0, 2190.0, 2189.0, 2189.0, 2189.0, 2189.0, 2189.0, 2190.0, 2189.0, 2190.0, 2189.0, 2189.0, 2189.0, 2190.0, 2190.0, 2189.0, 2189.0, 2189.0, 2189.0, 2190.0, 2190.0, 2190.0, 2190.0, 2190.0, 2189.0, 2190.0, 2189.0, 2190.0, 2189.0, 2189.0, 2189.0, 2189.0, 2190.0, 2189.0, 2190.0, 2190.0, 2189.0, 2189.0, 2189.0, 2189.0, 2189.0, 2189.0, 2190.0, 2189.0, 2190.0, 2189.0, 2189.0, 2189.0, 2190.0, 2189.0, 2189.0, 2189.0, 2189.0, 2189.0, 2189.0, 2189.0, 2189.0, 2189.0, 2189.0, 2189.0, 2189.0, 2190.0, 2189.0, 2189.0, 2189.0, 2190.0, 2190.0, 2189.0, 2190.0, 2190.0, 2191.0, 2189.0, 2190.0, 2189.0, 2190.0, 2189.0, 2190.0, 2189.0, 2190.0, 2189.0, 2189.0, 2190.0, 2189.0, 2189.0, 2189.0, 2189.0, 2189.0, 2189.0, 2190.0, 2189.0, 2189.0, 2190.0, 2189.0, 2189.0, 2190.0, 2189.0, 2190.0, 2189.0, 2189.0, 2189.0, 2189.0, 2189.0, 2190.0, 2190.0, 2189.0, 2190.0, 2189.0, 2189.0, 2189.0, 2189.0, 2190.0, 2189.0, 2189.0, 2189.0, 2189.0, 2189.0, 2190.0, 2189.0, 2189.0, 2189.0, 2189.0, 2190.0, 2189.0, 2189.0, 2189.0, 2189.0, 2190.0, 2189.0, 2189.0, 2189.0, 2189.0, 2190.0, 2189.0, 2189.0, 2189.0, 2189.0, 2189.0, 2189.0, 2189.0, 2189.0, 2189.0, 2189.0, 2190.0, 2189.0, 2190.0, 2189.0, 2189.0, 2189.0, 2189.0, 2189.0, 2189.0, 2189.0, 2189.0, 2189.0, 2189.0, 2189.0, 2189.0, 2189.0, 2189.0, 2189.0, 2189.0, 2189.0, 2189.0, 2188.0, 2188.0, 2189.0, 2189.0, 2189.0, 2188.0, 2188.0, 2188.0, 2190.0, 2188.0]
    },
    "slices": {}
  }
}