{
  "AcquisitionMatrixPE": 80,
  "AcquisitionNumber": 1,
  "AcquisitionTime": "09:10:3.540000",
  "BandwidthPerPixelPhaseEncode": 25,
  "BaseResolution": 80,
  "BodyPartExamined": "BRAIN",
  "CoilCombinationMethod": "Sum of Squares",
  "ConsistencyInfo": "N4_VE11C_LATEST_20160120",
  "ConversionSoftware": "dcm2niix",
  "ConversionSoftwareVersion": "v1.0.20220720",
  "DerivedVendorReportedEchoSpacing": 0.0005,
  "DeviceSerialNumber": "66112",
  "DwellTime": 2.7e-06,
  "EchoTime": 0.03,
  "EchoTrainLength": 80,
  "EffectiveEchoSpacing": 0.0005,
  "FlipAngle": 77,
  "HeudiconvVersion": "0.13.1",
  "ImageOrientationPatientDICOM": [0.993684, -0.112218, -3.34959e-05, 0.10672, 0.94491, 0.309443],
  "ImageOrientationText": "Tra>Cor(17.9)>Sag(2.0)",
  "ImageType": [
    "ORIGINAL",
    "PRIMARY",
    "M",
    "ND",
    "NORM",
    "MOSAIC"
],
  "ImagingFrequency": 123.252,
  "InPlanePhaseEncodingDirectionDICOM": "COL",
  "InstitutionAddress": "Maynard 3,Hanover,NH,US,03755",
  "InstitutionName": "Dartmouth College - PBS",
  "InstitutionalDepartmentName": "Department",
  "MRAcquisitionType": "2D",
  "MagneticFieldStrength": 3,
  "Manufacturer": "Siemens",
  "ManufacturersModelName": "Prisma",
  "MatrixCoilMode": "SENSE",
  "Modality": "MR",
  "NonlinearGradientCorrection": false,
  "PartialFourier": 1,
  "PatientPosition": "HFS",
  "PercentPhaseFOV": 100,
  "PercentSampling": 100,
  "PhaseEncodingDirection": "j-",
  "PhaseEncodingSteps": 80,
  "PhaseResolution": 1,
  "PixelBandwidth": 2315,
  "ProcedureStepDescription": "dbic^QA",
  "ProtocolName": "func-bold_fa-77",
  "PulseSequenceDetails": "%SiemensSeq%\\ep2d_bold",
  "ReceiveCoilActiveElements": "HC1-7;NC1,2",
  "ReceiveCoilName": "HeadNeck_64",
  "ReconMatrixPE": 80,
  "RepetitionTime": 2,
  "SAR": 0.0322275,
  "ScanOptions": "FS",
  "ScanningSequence": "EP",
  "SequenceName": "*epfid2d1_80",
  "SequenceVariant": "SK",
  "SeriesDescription": "func-bold_fa-77",
  "SeriesNumber": 7,
  "ShimSetting": [4140, -7702, -7520, 194, -72, -165, -41, 85],
  "SliceThickness": 3.5,
  "SliceTiming": [0.99, 0, 1.055, 0.065, 1.1225, 0.1325, 1.1875, 0.1975, 1.255, 0.265, 1.32, 0.33, 1.385, 0.395, 1.4525, 0.4625, 1.5175, 0.5275, 1.585, 0.595, 1.65, 0.66, 1.715, 0.725, 1.7825, 0.7925, 1.8475, 0.8575, 1.915, 0.925],
  "SoftwareVersions": "syngo MR E11",
  "SpacingBetweenSlices": 3.99,
  "StationName": "AWP66112",
  "TotalReadoutTime": 0.0395,
  "TxRefAmp": 212.849,
  "dcmmeta_affine": [
    [-2.981050729751587, 0.3201611638069153, 0.1384267508983612, 105.73250579833984],
    [0.3366539180278778, 2.834731340408325, 1.226893424987793, -126.30354309082031],
    [-0.00010048761032521725, -0.9283292293548584, 3.7941627502441406, -19.513851165771484],
    [0.0, 0.0, 0.0, 1.0]
],
  "dcmmeta_reorient_transform": [
    [0.0, -1.0, 0.0, 79.0],
    [1.0, 0.0, 0.0, 0.0],
    [0.0, 0.0, 1.0, 0.0],
    [0.0, 0.0, 0.0, 1.0]
],
  "dcmmeta_shape": [80, 80, 30, 200],
  "dcmmeta_slice_dim": 2,
  "dcmmeta_version": 0.6,
  "global": {
    "const": {
      "AccessionNumber": "qa64",
      "AcquisitionMatrix": [80, 0, 0, 80],
      "AngioFlag": "N",
      "BitsAllocated": 16,
      "BitsStored": 12,
      "BodyPartExamined": "BRAIN",
      "Columns": 480,
      "EchoNumbers": 1,
      "EchoTime": 30.0,
      "EchoTrainLength": 80,
      "FlipAngle": 77.0,
      "HighBit": 11,
      "ImageOrientationPatient": [0.99368361477493, -0.1122179691754, -3.34958709e-05, 0.10672038318466, 0.94491044390819, 0.3094430687641],
      "ImagePositionPatient": [-791.26763772623, -597.25571437595, -278.4976021389],
      "ImageType": [
        "ORIGINAL",
        "PRIMARY",
        "M",
        "ND",
        "NORM",
        "MOSAIC"
],
      "ImagedNucleus": "1H",
      "ImagingFrequency": 123.252355,
      "InPlanePhaseEncodingDirection": "COL",
      "MRAcquisitionType": "2D",
      "MagneticFieldStrength": 3.0,
      "Manufacturer": "SIEMENS",
      "ManufacturerModelName": "Prisma",
      "Modality": "MR",
      "NumberOfAverages": 1.0,
      "NumberOfPhaseEncodingSteps": 80,
      "PercentPhaseFieldOfView": 100.0,
      "PercentSampling": 100.0,
      "PerformedProcedureStepStartTime": "085959.084000",
      "PhotometricInterpretation": "MONOCHROME2",
      "PixelBandwidth": 2315.0,
      "PixelRepresentation": 0,
      "PixelSpacing": [3.0, 3.0],
      "ProtocolName": "func-bold_fa-77",
      "RepetitionTime": 2000.0,
      "Rows": 480,
      "SAR": 0.03222749463337,
      "SamplesPerPixel": 1,
      "ScanOptions": "FS",
      "ScanningSequence": "EP",
      "SequenceName": "*epfid2d1_80",
      "SequenceVariant": "SK",
      "SeriesDescription": "func-bold_fa-77",
      "SeriesNumber": 7,
      "SeriesTime": "091054.993000",
      "SliceLocation": -53.725189344859,
      "SliceThickness": 3.5,
      "SmallestImagePixelValue": 0,
      "SoftwareVersions": "syngo MR E11",
      "SpacingBetweenSlices": 3.9900000229515,
      "SpecificCharacterSet": "ISO_IR 100",
      "StudyID": "1",
      "StudyTime": "085959.020000",
      "TransmitCoilName": "Body",
      "VariableFlipAngleFlag": "N",
      "WindowCenterWidthExplanation": "Algo1",
      "dBdt": 0.0},
    "slices": {}
  },
  "time": {
    "samples": {
      "AcquisitionNumber": [1, 2, 3, 4, 5, 6, 7, 8, 9, 10, 11, 12, 13, 14, 15, 16, 17, 18, 19, 20, 21, 22, 23, 24, 25, 26, 27, 28, 29, 30, 31, 32, 33, 34, 35, 36, 37, 38, 39, 40, 41, 42, 43, 44, 45, 46, 47, 48, 49, 50, 51, 52, 53, 54, 55, 56, 57, 58, 59, 60, 61, 62, 63, 64, 65, 66, 67, 68, 69, 70, 71, 72, 73, 74, 75, 76, 77, 78, 79, 80, 81, 82, 83, 84, 85, 86, 87, 88, 89, 90, 91, 92, 93, 94, 95, 96, 97, 98, 99, 100, 101, 102, 103, 104, 105, 106, 107, 108, 109, 110, 111, 112, 113, 114, 115, 116, 117, 118, 119, 120, 121, 122, 123, 124, 125, 126, 127, 128, 129, 130, 131, 132, 133, 134, 135, 136, 137, 138, 139, 140, 141, 142, 143, 144, 145, 146, 147, 148, 149, 150, 151, 152, 153, 154, 155, 156, 157, 158, 159, 160, 161, 162, 163, 164, 165, 166, 167, 168, 169, 170, 171, 172, 173, 174, 175, 176, 177, 178, 179, 180, 181, 182, 183, 184, 185, 186, 187, 188, 189, 190, 191, 192, 193, 194, 195, 196, 197, 198, 199, 200],
      "AcquisitionTime": ["091003.540000", "091005.540000", "091007.540000", "091009.540000", "091011.540000", "091013.540000", "091015.540000", "091017.540000", "091019.540000", "091021.540000", "091023.540000", "091025.540000", "091027.540000", "091029.540000", "091031.540000", "091033.540000", "091035.540000", "091037.540000", "091039.540000", "091041.540000", "091043.540000", "091045.540000", "091047.540000", "091049.540000", "091051.540000", "091053.540000", "091055.540000", "091057.540000", "091059.540000", "091101.540000", "091103.540000", "091105.540000", "091107.540000", "091109.540000", "091111.540000", "091113.540000", "091115.540000", "091117.540000", "091119.540000", "091121.540000", "091123.540000", "091125.540000", "091127.540000", "091129.540000", "091131.540000", "091133.540000", "091135.540000", "091137.540000", "091139.540000", "091141.540000", "091143.540000", "091145.540000", "091147.540000", "091149.540000", "091151.540000", "091153.540000", "091155.540000", "091157.540000", "091159.540000", "091201.540000", "091203.540000", "091205.540000", "091207.540000", "091209.540000", "091211.540000", "091213.540000", "091215.540000", "091217.540000", "091219.540000", "091221.540000", "091223.540000", "091225.540000", "091227.540000", "091229.540000", "091231.540000", "091233.540000", "091235.540000", "091237.540000", "091239.540000", "091241.540000", "091243.540000", "091245.540000", "091247.540000", "091249.540000", "091251.540000", "091253.540000", "091255.540000", "091257.540000", "091259.540000", "091301.540000", "091303.540000", "091305.540000", "091307.540000", "091309.540000", "091311.540000", "091313.540000", "091315.540000", "091317.540000", "091319.540000", "091321.540000", "091323.540000", "091325.540000", "091327.540000", "091329.540000", "091331.540000", "091333.540000", "091335.540000", "091337.540000", "091339.540000", "091341.540000", "091343.540000", "091345.540000", "091347.540000", "091349.540000", "091351.540000", "091353.540000", "091355.540000", "091357.540000", "091359.540000", "091401.540000", "091403.540000", "091405.540000", "091407.540000", "091409.540000", "091411.540000", "091413.540000", "091415.540000", "091417.540000", "091419.540000", "091421.540000", "091423.540000", "091425.540000", "091427.540000", "091429.540000", "091431.540000", "091433.540000", "091435.540000", "091437.540000", "091439.540000", "091441.540000", "091443.540000", "091445.540000", "091447.540000", "091449.540000", "091451.540000", "091453.540000", "091455.540000", "091457.540000", "091459.540000", "091501.540000", "091503.540000", "091505.540000", "091507.540000", "091509.540000", "091511.540000", "091513.540000", "091515.540000", "091517.540000", "091519.540000", "091521.540000", "091523.540000", "091525.540000", "091527.540000", "091529.540000", "091531.540000", "091533.540000", "091535.540000", "091537.540000", "091539.540000", "091541.540000", "091543.540000", "091545.540000", "091547.540000", "091549.540000", "091551.540000", "091553.540000", "091555.540000", "091557.540000", "091559.540000", "091601.540000", "091603.540000", "091605.540000", "091607.540000", "091609.540000", "091611.540000", "091613.540000", "091615.540000", "091617.540000", "091619.540000", "091621.540000", "091623.540000", "091625.540000", "091627.540000", "091629.540000", "091631.540000", "091633.540000", "091635.540000", "091637.540000", "091639.540000", "091641.540000"],
      "ContentTime": ["091054.996000", "091055.001000", "091055.003000", "091055.006000", "091055.009000", "091055.011000", "091055.014000", "091055.016000", "091055.019000", "091055.022000", "091055.024000", "091055.027000", "091055.029000", "091055.033000", "091055.037000", "091055.040000", "091055.042000", "091055.045000", "091055.047000", "091055.050000", "091055.053000", "091055.055000", "091055.058000", "091055.060000", "091055.063000", "091134.992000", "091134.995000", "091134.997000", "091135.001000", "091135.003000", "091135.006000", "091135.008000", "091135.011000", "091135.013000", "091135.016000", "091135.019000", "091135.021000", "091135.024000", "091135.027000", "091135.029000", "091135.032000", "091135.035000", "091135.038000", "091135.040000", "091135.043000", "091214.991000", "091214.994000", "091214.997000", "091215.000000", "091215.003000", "091215.006000", "091215.008000", "091215.011000", "091215.013000", "091215.016000", "091215.019000", "091215.021000", "091215.024000", "091215.026000", "091215.029000", "091215.032000", "091215.036000", "091215.039000", "091215.041000", "091215.044000", "091254.992000", "091254.995000", "091254.998000", "091255.002000", "091255.004000", "091255.007000", "091255.009000", "091255.012000", "091255.015000", "091255.017000", "091255.020000", "091255.022000", "091255.025000", "091255.028000", "091255.030000", "091255.034000", "091255.037000", "091255.040000", "091255.043000", "091255.045000", "091334.992000", "091334.995000", "091334.997000", "091335.001000", "091335.003000", "091335.006000", "091335.008000", "091335.011000", "091335.013000", "091335.016000", "091335.019000", "091335.021000", "091335.024000", "091335.028000", "091335.030000", "091335.034000", "091335.037000", "091335.039000", "091335.042000", "091335.045000", "091414.991000", "091414.994000", "091414.997000", "091415.000000", "091415.003000", "091415.006000", "091415.008000", "091415.011000", "091415.013000", "091415.016000", "091415.019000", "091415.021000", "091415.024000", "091415.027000", "091415.029000", "091415.033000", "091415.036000", "091415.038000", "091415.041000", "091415.043000", "091454.992000", "091454.996000", "091454.998000", "091455.002000", "091455.004000", "091455.007000", "091455.009000", "091455.012000", "091455.015000", "091455.017000", "091455.020000", "091455.023000", "091455.026000", "091455.029000", "091455.033000", "091455.036000", "091455.038000", "091455.041000", "091455.043000", "091455.056000", "091534.991000", "091534.994000", "091534.997000", "091535.001000", "091535.003000", "091535.006000", "091535.008000", "091535.011000", "091535.014000", "091535.016000", "091535.019000", "091535.021000", "091535.024000", "091535.027000", "091535.031000", "091535.034000", "091535.036000", "091535.039000", "091535.041000", "091535.044000", "091614.991000", "091614.994000", "091614.997000", "091615.001000", "091615.003000", "091615.006000", "091615.009000", "091615.011000", "091615.014000", "091615.016000", "091615.019000", "091615.021000", "091615.024000", "091615.027000", "091615.031000", "091615.033000", "091615.036000", "091615.039000", "091615.041000", "091615.044000", "091643.083000", "091643.086000", "091643.089000", "091643.091000", "091643.094000", "091643.097000", "091643.099000", "091643.102000", "091643.104000", "091643.107000", "091643.110000", "091643.112000", "091643.119000", "091643.125000", "091643.131000"],
      "InstanceCreationTime": ["091054.996000", "091055.001000", "091055.003000", "091055.006000", "091055.009000", "091055.011000", "091055.014000", "091055.016000", "091055.019000", "091055.022000", "091055.024000", "091055.027000", "091055.029000", "091055.033000", "091055.037000", "091055.040000", "091055.042000", "091055.045000", "091055.047000", "091055.050000", "091055.053000", "091055.055000", "091055.058000", "091055.060000", "091055.063000", "091134.992000", "091134.995000", "091134.997000", "091135.001000", "091135.003000", "091135.006000", "091135.008000", "091135.011000", "091135.013000", "091135.016000", "091135.019000", "091135.021000", "091135.024000", "091135.027000", "091135.029000", "091135.032000", "091135.035000", "091135.038000", "091135.040000", "091135.043000", "091214.991000", "091214.994000", "091214.997000", "091215.000000", "091215.003000", "091215.006000", "091215.008000", "091215.011000", "091215.013000", "091215.016000", "091215.019000", "091215.021000", "091215.024000", "091215.026000", "091215.029000", "091215.032000", "091215.036000", "091215.039000", "091215.041000", "091215.044000", "091254.992000", "091254.995000", "091254.998000", "091255.002000", "091255.004000", "091255.007000", "091255.009000", "091255.012000", "091255.015000", "091255.017000", "091255.020000", "091255.022000", "091255.025000", "091255.028000", "091255.030000", "091255.034000", "091255.037000", "091255.040000", "091255.043000", "091255.045000", "091334.992000", "091334.995000", "091334.997000", "091335.001000", "091335.003000", "091335.006000", "091335.008000", "091335.011000", "091335.013000", "091335.016000", "091335.019000", "091335.021000", "091335.024000", "091335.028000", "091335.030000", "091335.034000", "091335.037000", "091335.039000", "091335.042000", "091335.045000", "091414.991000", "091414.994000", "091414.997000", "091415.000000", "091415.003000", "091415.006000", "091415.008000", "091415.011000", "091415.013000", "091415.016000", "091415.019000", "091415.021000", "091415.024000", "091415.027000", "091415.029000", "091415.033000", "091415.036000", "091415.038000", "091415.041000", "091415.043000", "091454.992000", "091454.996000", "091454.998000", "091455.002000", "091455.004000", "091455.007000", "091455.009000", "091455.012000", "091455.015000", "091455.017000", "091455.020000", "091455.023000", "091455.026000", "091455.029000", "091455.033000", "091455.036000", "091455.038000", "091455.041000", "091455.043000", "091455.056000", "091534.991000", "091534.994000", "091534.997000", "091535.001000", "091535.003000", "091535.006000", "091535.008000", "091535.011000", "091535.014000", "091535.016000", "091535.019000", "091535.021000", "091535.024000", "091535.027000", "091535.031000", "091535.034000", "091535.036000", "091535.039000", "091535.041000", "091535.044000", "091614.991000", "091614.994000", "091614.997000", "091615.001000", "091615.003000", "091615.006000", "091615.009000", "091615.011000", "091615.014000", "091615.016000", "091615.019000", "091615.021000", "091615.024000", "091615.027000", "091615.031000", "091615.033000", "091615.036000", "091615.039000", "091615.041000", "091615.044000", "091643.083000", "091643.086000", "091643.089000", "091643.091000", "091643.094000", "091643.097000", "091643.099000", "091643.102000", "091643.104000", "091643.107000", "091643.110000", "091643.112000", "091643.119000", "091643.125000", "091643.131000"],
      "InstanceNumber": [1, 2, 3, 4, 5, 6, 7, 8, 9, 10, 11, 12, 13, 14, 15, 16, 17, 18, 19, 20, 21, 22, 23, 24, 25, 26, 27, 28, 29, 30, 31, 32, 33, 34, 35, 36, 37, 38, 39, 40, 41, 42, 43, 44, 45, 46, 47, 48, 49, 50, 51, 52, 53, 54, 55, 56, 57, 58, 59, 60, 61, 62, 63, 64, 65, 66, 67, 68, 69, 70, 71, 72, 73, 74, 75, 76, 77, 78, 79, 80, 81, 82, 83, 84, 85, 86, 87, 88, 89, 90, 91, 92, 93, 94, 95, 96, 97, 98, 99, 100, 101, 102, 103, 104, 105, 106, 107, 108, 109, 110, 111, 112, 113, 114, 115, 116, 117, 118, 119, 120, 121, 122, 123, 124, 125, 126, 127, 128, 129, 130, 131, 132, 133, 134, 135, 136, 137, 138, 139, 140, 141, 142, 143, 144, 145, 146, 147, 148, 149, 150, 151, 152, 153, 154, 155, 156, 157, 158, 159, 160, 161, 162, 163, 164, 165, 166, 167, 168, 169, 170, 171, 172, 173, 174, 175, 176, 177, 178, 179, 180, 181, 182, 183, 184, 185, 186, 187, 188, 189, 190, 191, 192, 193, 194, 195, 196, 197, 198, 199, 200],
      "LargestImagePixelValue": [3690, 3693, 3691, 3696, 3692, 3695, 3694, 3691, 3694, 3694, 3692, 3693, 3692, 3691, 3698, 3692, 3692, 3691, 3693, 3694, 3691, 3695, 3692, 3693, 3692, 3692, 3690, 3689, 3692, 3692, 3692, 3692, 3692, 3691, 3690, 3689, 3693, 3689, 3691, 3696, 3691, 3690, 3687, 3690, 3690, 3694, 3691, 3690, 3693, 3693, 3695, 3693, 3694, 3690, 3690, 3694, 3691, 3689, 3689, 3692, 3692, 3693, 3688, 3691, 3690, 3687, 3687, 3690, 3691, 3690, 3686, 3689, 3685, 3689, 3686, 3691, 3694, 3693, 3690, 3688, 3690, 3692, 3690, 3689, 3688, 3690, 3690, 3694, 3686, 3693, 3691, 3693, 3691, 3693, 3686, 3689, 3693, 3692, 3692, 3690, 3690, 3690, 3691, 3690, 3690, 3692, 3688, 3691, 3688, 3690, 3687, 3689, 3692, 3688, 3691, 3686, 3690, 3689, 3690, 3689, 3689, 3689, 3691, 3687, 3690, 3689, 3688, 3689, 3686, 3689, 3689, 3687, 3687, 3690, 3690, 3688, 3685, 3688, 3691, 3688, 3690, 3686, 3686, 3687, 3688, 3689, 3688, 3688, 3686, 3686, 3683, 3688, 3690, 3687, 3684, 3689, 3686, 3687, 3688, 3686, 3686, 3686, 3687, 3685, 3693, 3691, 3689, 3690, 3689, 3690, 3688, 3688, 3684, 3689, 3689, 3688, 3683, 3684, 3690, 3686, 3684, 3689, 3686, 3685, 3681, 3686, 3684, 3688, 3685, 3687, 3684, 3688, 3688, 3685, 3684, 3685, 3682, 3686, 3689, 3684],
      "WindowCenter": [1327.0, 1326.0, 1326.0, 1326.0, 1327.0, 1327.0, 1327.0, 1327.0, 1327.0, 1327.0, 1327.0, 1327.0, 1326.0, 1326.0, 1327.0, 1327.0, 1327.0, 1327.0, 1327.0, 1327.0, 1326.0, 1327.0, 1326.0, 1326.0, 1326.0, 1326.0, 1326.0, 1326.0, 1326.0, 1327.0, 1326.0, 1326.0, 1326.0, 1327.0, 1326.0, 1326.0, 1326.0, 1326.0, 1325.0, 1326.0, 1326.0, 1326.0, 1326.0, 1326.0, 1326.0, 1325.0, 1326.0, 1325.0, 1325.0, 1326.0, 1326.0, 1326.0, 1325.0, 1325.0, 1325.0, 1326.0, 1325.0, 1326.0, 1325.0, 1326.0, 1326.0, 1325.0, 1325.0, 1325.0, 1325.0, 1325.0, 1325.0, 1325.0, 1325.0, 1325.0, 1325.0, 1325.0, 1325.0, 1324.0, 1325.0, 1325.0, 1325.0, 1325.0, 1325.0, 1325.0, 1326.0, 1325.0, 1325.0, 1325.0, 1325.0, 1325.0, 1325.0, 1325.0, 1325.0, 1325.0, 1325.0, 1325.0, 1325.0, 1325.0, 1325.0, 1325.0, 1325.0, 1324.0, 1325.0, 1325.0, 1325.0, 1325.0, 1324.0, 1324.0, 1325.0, 1325.0, 1325.0, 1325.0, 1325.0, 1325.0, 1324.0, 1325.0, 1324.0, 1325.0, 1324.0, 1324.0, 1325.0, 1325.0, 1324.0, 1324.0, 1325.0, 1324.0, 1324.0, 1325.0, 1325.0, 1325.0, 1324.0, 1325.0, 1324.0, 1325.0, 1324.0, 1324.0, 1324.0, 1324.0, 1325.0, 1324.0, 1324.0, 1325.0, 1325.0, 1324.0, 1324.0, 1324.0, 1324.0, 1324.0, 1325.0, 1324.0, 1324.0, 1324.0, 1324.0, 1324.0, 1324.0, 1324.0, 1324.0, 1324.0, 1324.0, 1324.0, 1324.0, 1324.0, 1324.0, 1324.0, 1324.0, 1324.0, 1323.0, 1324.0, 1324.0, 1324.0, 1324.0, 1323.0, 1324.0, 1324.0, 1324.0, 1324.0, 1324.0, 1323.0, 1324.0, 1323.0, 1324.0, 1324.0, 1323.0, 1323.0, 1323.0, 1323.0, 1324.0, 1323.0, 1323.0, 1324.0, 1323.0, 1323.0, 1323.0, 1324.0, 1324.0, 1323.0, 1324.0, 1324.0, 1324.0, 1324.0, 1323.0, 1323.0, 1324.0, 1323.0],
      "WindowWidth": [3186.0, 3186.0, 3186.0, 3186.0, 3186.0, 3185.0, 3186.0, 3185.0, 3186.0, 3186.0, 3186.0, 3186.0, 3186.0, 3186.0, 3186.0, 3186.0, 3185.0, 3186.0, 3186.0, 3185.0, 3185.0, 3185.0, 3185.0, 3185.0, 3185.0, 3185.0, 3185.0, 3185.0, 3185.0, 3185.0, 3185.0, 3185.0, 3185.0, 3185.0, 3185.0, 3185.0, 3185.0, 3185.0, 3185.0, 3185.0, 3185.0, 3185.0, 3185.0, 3185.0, 3184.0, 3184.0, 3185.0, 3185.0, 3185.0, 3185.0, 3185.0, 3185.0, 3185.0, 3185.0, 3185.0, 3185.0, 3185.0, 3185.0, 3184.0, 3185.0, 3184.0, 3184.0, 3184.0, 3184.0, 3184.0, 3184.0, 3184.0, 3184.0, 3184.0, 3184.0, 3184.0, 3184.0, 3184.0, 3185.0, 3184.0, 3184.0, 3184.0, 3184.0, 3184.0, 3184.0, 3184.0, 3184.0, 3184.0, 3184.0, 3184.0, 3185.0, 3185.0, 3184.0, 3184.0, 3184.0, 3184.0, 3184.0, 3184.0, 3184.0, 3184.0, 3184.0, 3184.0, 3184.0, 3184.0, 3184.0, 3184.0, 3184.0, 3184.0, 3184.0, 3184.0, 3184.0, 3184.0, 3184.0, 3184.0, 3184.0, 3184.0, 3184.0, 3184.0, 3184.0, 3184.0, 3184.0, 3184.0, 3184.0, 3184.0, 3184.0, 3184.0, 3184.0, 3184.0, 3184.0, 3184.0, 3184.0, 3184.0, 3183.0, 3184.0, 3183.0, 3183.0, 3183.0, 3183.0, 3183.0, 3183.0, 3183.0, 3183.0, 3183.0, 3184.0, 3183.0, 3183.0, 3183.0, 3183.0, 3183.0, 3184.0, 3183.0, 3183.0, 3183.0, 3183.0, 3184.0, 3183.0, 3183.0, 3183.0, 3183.0, 3183.0, 3183.0, 3183.0, 3183.0, 3183.0, 3183.0, 3183.0, 3183.0, 3183.0, 3183.0, 3183.0, 3183.0, 3183.0, 3184.0, 3183.0, 3184.0, 3184.0, 3183.0, 3183.0, 3183.0, 3183.0, 3183.0, 3183.0, 3183.0, 3183.0, 3183.0, 3183.0, 3183.0, 3183.0, 3183.0, 3183.0, 3183.0, 3183.0, 3183.0, 3183.0, 3183.0, 3183.0, 3183.0, 3183.0, 3183.0, 3183.0, 3183.0, 3183.0, 3183.0, 3183.0, 3182.0]
    },
    "slices": {}
  }
}