{
  "AcquisitionMatrixPE": 80,
  "AcquisitionNumber": 1,
  "AcquisitionTime": "09:51:41.130000",
  "BandwidthPerPixelPhaseEncode": 44.643,
  "BaseResolution": 80,
  "BodyPartExamined": "BRAIN",
  "CoilCombinationMethod": "Sum of Squares",
  "ConsistencyInfo": "N4_VE11C_LATEST_20160120",
  "ConversionSoftware": "dcm2niix",
  "ConversionSoftwareVersion": "v1.0.20220720",
  "DerivedVendorReportedEchoSpacing": 0.000559998,
  "DeviceSerialNumber": "66112",
  "DwellTime": 2.7e-06,
  "EchoTime": 0.035,
  "EchoTrainLength": 39,
  "EffectiveEchoSpacing": 0.000279999,
  "FlipAngle": 90,
  "HeudiconvVersion": "0.13.1",
  "ImageOrientationPatientDICOM": [0.986083, -0.16622, 0.00341944, 0.157415, 0.940071, 0.302469],
  "ImageOrientationText": "Tra>Cor(17.3)>Sag(3.1)",
  "ImageType": [
    "ORIGINAL",
    "PRIMARY",
    "M",
    "ND",
    "NORM",
    "MOSAIC"
],
  "ImagingFrequency": 123.252,
  "InPlanePhaseEncodingDirectionDICOM": "COL",
  "InstitutionAddress": "Maynard 3,Hanover,NH,US,03755",
  "InstitutionName": "Dartmouth College - PBS",
  "InstitutionalDepartmentName": "Department",
  "MRAcquisitionType": "2D",
  "MagneticFieldStrength": 3,
  "Manufacturer": "Siemens",
  "ManufacturersModelName": "Prisma",
  "Modality": "MR",
  "MultibandAccelerationFactor": 4,
  "NonlinearGradientCorrection": false,
  "ParallelReductionFactorInPlane": 2,
  "PartialFourier": 1,
  "PatientPosition": "HFS",
  "PercentPhaseFOV": 100,
  "PercentSampling": 100,
  "PhaseEncodingDirection": "j-",
  "PhaseEncodingSteps": 79,
  "PhaseResolution": 1,
  "PixelBandwidth": 2315,
  "ProcedureStepDescription": "dbic^QA",
  "ProtocolName": "func-bold_task-rest_acq-p2-s4-3.5mm",
  "PulseSequenceDetails": "%SiemensSeq%\\ep2d_bold",
  "ReceiveCoilActiveElements": "HEA;HEP",
  "ReceiveCoilName": "Head_32",
  "ReconMatrixPE": 80,
  "RefLinesPE": 24,
  "RepetitionTime": 2,
  "SAR": 0.0208848,
  "ScanOptions": "FS",
  "ScanningSequence": "EP",
  "SequenceName": "*epfid2d1_80",
  "SequenceVariant": "SK",
  "SeriesDescription": "func-bold_task-rest_acq-p2-s4-3.5mm",
  "SeriesNumber": 7,
  "ShimSetting": [4142, -7690, -7514, 285, -71, -165, -43, 64],
  "SliceThickness": 3.5,
  "SliceTiming": [1.485, 0, 0.99, 0.2475, 1.2375, 0.7425, 1.7325, 0.495, 1.485, 0, 0.99, 0.2475, 1.2375, 0.7425, 1.7325, 0.495, 1.485, 0, 0.99, 0.2475, 1.2375, 0.7425, 1.7325, 0.495, 1.485, 0, 0.99, 0.2475, 1.2375, 0.7425, 1.7325, 0.495],
  "SoftwareVersions": "syngo MR E11",
  "SpacingBetweenSlices": 3.99,
  "StationName": "AWP66112",
  "TaskName": "rest",
  "TotalReadoutTime": 0.0221199,
  "TxRefAmp": 229.398,
  "dcmmeta_affine": [
    [-2.9582481384277344, 0.47224611043930054, 0.21342907845973969, 94.23462677001953],
    [0.49866095185279846, 2.8202121257781982, 1.1879072189331055, -145.039306640625],
    [0.01025831513106823, -0.9074068069458008, 3.8030807971954346, -30.023839950561523],
    [0.0, 0.0, 0.0, 1.0]
],
  "dcmmeta_reorient_transform": [
    [0.0, -1.0, 0.0, 79.0],
    [1.0, 0.0, 0.0, 0.0],
    [0.0, 0.0, 1.0, 0.0],
    [0.0, 0.0, 0.0, 1.0]
],
  "dcmmeta_shape": [80, 80, 32, 200],
  "dcmmeta_slice_dim": 2,
  "dcmmeta_version": 0.6,
  "global": {
    "const": {
      "AccessionNumber": "qa",
      "AcquisitionMatrix": [80, 0, 0, 80],
      "AngioFlag": "N",
      "BitsAllocated": 16,
      "BitsStored": 12,
      "BodyPartExamined": "BRAIN",
      "Columns": 480,
      "EchoNumbers": 1,
      "EchoTime": 35.0,
      "EchoTrainLength": 39,
      "FlipAngle": 90.0,
      "HighBit": 11,
      "ImageOrientationPatient": [0.98608271110718, -0.1662203185413, 0.00341943848445, 0.15741537432052, 0.94007071084142, 0.30246893815008],
      "ImagePositionPatient": [-817.64092098838, -542.0676825034, -285.24200391856],
      "ImageType": [
        "ORIGINAL",
        "PRIMARY",
        "M",
        "ND",
        "NORM",
        "MOSAIC"
],
      "ImagedNucleus": "1H",
      "ImagingFrequency": 123.252456,
      "InPlanePhaseEncodingDirection": "COL",
      "MRAcquisitionType": "2D",
      "MagneticFieldStrength": 3.0,
      "Manufacturer": "SIEMENS",
      "ManufacturerModelName": "Prisma",
      "Modality": "MR",
      "NumberOfAverages": 1.0,
      "NumberOfPhaseEncodingSteps": 79,
      "PercentPhaseFieldOfView": 100.0,
      "PercentSampling": 100.0,
      "PerformedProcedureStepStartTime": "093928.452000",
      "PhotometricInterpretation": "MONOCHROME2",
      "PixelBandwidth": 2315.0,
      "PixelRepresentation": 0,
      "PixelSpacing": [3.0, 3.0],
      "ProtocolName": "func-bold_task-rest_acq-p2-s4-3.5mm",
      "RepetitionTime": 2000.0,
      "Rows": 480,
      "SAR": 0.02088481960048,
      "SamplesPerPixel": 1,
      "ScanOptions": "FS",
      "ScanningSequence": "EP",
      "SequenceName": "*epfid2d1_80",
      "SequenceVariant": "SK",
      "SeriesDescription": "func-bold_task-rest_acq-p2-s4-3.5mm",
      "SeriesNumber": 7,
      "SeriesTime": "095223.540000",
      "SliceLocation": -66.757877913938,
      "SliceThickness": 3.5,
      "SmallestImagePixelValue": 0,
      "SoftwareVersions": "syngo MR E11",
      "SpacingBetweenSlices": 3.9899999970505,
      "SpecificCharacterSet": "ISO_IR 100",
      "StudyID": "3",
      "StudyTime": "093928.304000",
      "TransmitCoilName": "Body",
      "VariableFlipAngleFlag": "N",
      "WindowCenter": 914.0,
      "WindowCenterWidthExplanation": "Algo1",
      "dBdt": 0.0},
    "slices": {}
  },
  "time": {
    "samples": {
      "AcquisitionNumber": [1, 2, 3, 4, 5, 6, 7, 8, 9, 10, 11, 12, 13, 14, 15, 16, 17, 18, 19, 20, 21, 22, 23, 24, 25, 26, 27, 28, 29, 30, 31, 32, 33, 34, 35, 36, 37, 38, 39, 40, 41, 42, 43, 44, 45, 46, 47, 48, 49, 50, 51, 52, 53, 54, 55, 56, 57, 58, 59, 60, 61, 62, 63, 64, 65, 66, 67, 68, 69, 70, 71, 72, 73, 74, 75, 76, 77, 78, 79, 80, 81, 82, 83, 84, 85, 86, 87, 88, 89, 90, 91, 92, 93, 94, 95, 96, 97, 98, 99, 100, 101, 102, 103, 104, 105, 106, 107, 108, 109, 110, 111, 112, 113, 114, 115, 116, 117, 118, 119, 120, 121, 122, 123, 124, 125, 126, 127, 128, 129, 130, 131, 132, 133, 134, 135, 136, 137, 138, 139, 140, 141, 142, 143, 144, 145, 146, 147, 148, 149, 150, 151, 152, 153, 154, 155, 156, 157, 158, 159, 160, 161, 162, 163, 164, 165, 166, 167, 168, 169, 170, 171, 172, 173, 174, 175, 176, 177, 178, 179, 180, 181, 182, 183, 184, 185, 186, 187, 188, 189, 190, 191, 192, 193, 194, 195, 196, 197, 198, 199, 200],
      "AcquisitionTime": ["095141.130000", "095143.130000", "095145.130000", "095147.130000", "095149.130000", "095151.130000", "095153.130000", "095155.130000", "095157.130000", "095159.130000", "095201.130000", "095203.130000", "095205.130000", "095207.130000", "095209.130000", "095211.130000", "095213.130000", "095215.130000", "095217.130000", "095219.130000", "095221.130000", "095223.130000", "095225.130000", "095227.130000", "095229.130000", "095231.130000", "095233.130000", "095235.130000", "095237.130000", "095239.130000", "095241.130000", "095243.130000", "095245.130000", "095247.130000", "095249.130000", "095251.130000", "095253.130000", "095255.130000", "095257.130000", "095259.130000", "095301.130000", "095303.130000", "095305.130000", "095307.130000", "095309.130000", "095311.130000", "095313.130000", "095315.130000", "095317.130000", "095319.130000", "095321.130000", "095323.130000", "095325.130000", "095327.130000", "095329.130000", "095331.130000", "095333.130000", "095335.130000", "095337.130000", "095339.130000", "095341.130000", "095343.130000", "095345.130000", "095347.130000", "095349.130000", "095351.130000", "095353.130000", "095355.130000", "095357.130000", "095359.130000", "095401.130000", "095403.130000", "095405.130000", "095407.130000", "095409.130000", "095411.130000", "095413.130000", "095415.130000", "095417.130000", "095419.130000", "095421.130000", "095423.130000", "095425.130000", "095427.130000", "095429.130000", "095431.130000", "095433.130000", "095435.130000", "095437.130000", "095439.130000", "095441.130000", "095443.130000", "095445.130000", "095447.130000", "095449.130000", "095451.130000", "095453.130000", "095455.130000", "095457.130000", "095459.130000", "095501.130000", "095503.130000", "095505.130000", "095507.130000", "095509.130000", "095511.130000", "095513.130000", "095515.130000", "095517.130000", "095519.130000", "095521.130000", "095523.130000", "095525.130000", "095527.130000", "095529.130000", "095531.130000", "095533.130000", "095535.130000", "095537.130000", "095539.130000", "095541.130000", "095543.130000", "095545.130000", "095547.130000", "095549.130000", "095551.130000", "095553.130000", "095555.130000", "095557.130000", "095559.130000", "095601.130000", "095603.130000", "095605.130000", "095607.130000", "095609.130000", "095611.130000", "095613.130000", "095615.130000", "095617.130000", "095619.130000", "095621.130000", "095623.130000", "095625.130000", "095627.130000", "095629.130000", "095631.130000", "095633.130000", "095635.130000", "095637.130000", "095639.130000", "095641.130000", "095643.130000", "095645.130000", "095647.130000", "095649.130000", "095651.130000", "095653.130000", "095655.130000", "095657.130000", "095659.130000", "095701.130000", "095703.130000", "095705.130000", "095707.130000", "095709.130000", "095711.130000", "095713.130000", "095715.130000", "095717.130000", "095719.130000", "095721.130000", "095723.130000", "095725.130000", "095727.130000", "095729.130000", "095731.130000", "095733.130000", "095735.130000", "095737.130000", "095739.130000", "095741.130000", "095743.130000", "095745.130000", "095747.130000", "095749.130000", "095751.130000", "095753.130000", "095755.130000", "095757.130000", "095759.130000", "095801.130000", "095803.130000", "095805.130000", "095807.130000", "095809.130000", "095811.130000", "095813.130000", "095815.130000", "095817.130000", "095819.130000"],
      "ContentTime": ["095223.543000", "095223.547000", "095223.549000", "095223.552000", "095223.554000", "095223.557000", "095223.560000", "095223.562000", "095223.564000", "095223.567000", "095223.570000", "095223.583000", "095223.588000", "095223.591000", "095223.593000", "095223.596000", "095223.598000", "095223.601000", "095223.603000", "095223.606000", "095223.608000", "095303.538000", "095303.541000", "095303.544000", "095303.546000", "095303.549000", "095303.551000", "095303.554000", "095303.557000", "095303.559000", "095303.562000", "095303.564000", "095303.567000", "095303.569000", "095303.572000", "095303.574000", "095303.577000", "095303.579000", "095303.582000", "095303.584000", "095303.587000", "095343.538000", "095343.541000", "095343.544000", "095343.546000", "095343.549000", "095343.551000", "095343.554000", "095343.570000", "095343.573000", "095343.575000", "095343.578000", "095343.580000", "095343.583000", "095343.585000", "095343.588000", "095343.590000", "095343.592000", "095343.595000", "095343.597000", "095343.600000", "095423.538000", "095423.541000", "095423.544000", "095423.546000", "095423.549000", "095423.551000", "095423.554000", "095423.557000", "095423.559000", "095423.562000", "095423.564000", "095423.567000", "095423.569000", "095423.572000", "095423.574000", "095423.577000", "095423.579000", "095423.582000", "095423.584000", "095423.587000", "095503.539000", "095503.541000", "095503.544000", "095503.547000", "095503.549000", "095503.552000", "095503.554000", "095503.557000", "095503.559000", "095503.562000", "095503.564000", "095503.567000", "095503.569000", "095503.572000", "095503.574000", "095503.577000", "095503.579000", "095503.582000", "095503.584000", "095503.587000", "095543.538000", "095543.541000", "095543.544000", "095543.546000", "095543.555000", "095543.558000", "095543.560000", "095543.563000", "095543.565000", "095543.568000", "095543.570000", "095543.573000", "095543.575000", "095543.578000", "095543.580000", "095543.583000", "095543.585000", "095543.588000", "095543.590000", "095543.593000", "095623.538000", "095623.541000", "095623.544000", "095623.558000", "095623.561000", "095623.563000", "095623.566000", "095623.568000", "095623.571000", "095623.573000", "095623.576000", "095623.579000", "095623.581000", "095623.584000", "095623.586000", "095623.589000", "095623.591000", "095623.594000", "095623.596000", "095623.599000", "095703.538000", "095703.541000", "095703.544000", "095703.546000", "095703.549000", "095703.551000", "095703.554000", "095703.557000", "095703.559000", "095703.562000", "095703.564000", "095703.567000", "095703.569000", "095703.572000", "095703.574000", "095703.577000", "095703.579000", "095703.582000", "095703.584000", "095703.587000", "095743.538000", "095743.541000", "095743.544000", "095743.557000", "095743.560000", "095743.562000", "095743.565000", "095743.567000", "095743.570000", "095743.572000", "095743.575000", "095743.577000", "095743.580000", "095743.582000", "095743.585000", "095743.587000", "095743.590000", "095743.592000", "095743.595000", "095743.597000", "095820.470000", "095820.473000", "095820.476000", "095820.478000", "095820.481000", "095820.483000", "095820.486000", "095820.489000", "095820.491000", "095820.494000", "095820.496000", "095820.499000", "095820.502000", "095820.507000", "095820.510000", "095820.514000", "095820.525000", "095820.527000", "095820.531000"],
      "InstanceCreationTime": ["095223.543000", "095223.547000", "095223.549000", "095223.552000", "095223.554000", "095223.557000", "095223.560000", "095223.562000", "095223.564000", "095223.567000", "095223.570000", "095223.583000", "095223.588000", "095223.591000", "095223.593000", "095223.596000", "095223.598000", "095223.601000", "095223.603000", "095223.606000", "095223.608000", "095303.538000", "095303.541000", "095303.544000", "095303.546000", "095303.549000", "095303.551000", "095303.554000", "095303.557000", "095303.559000", "095303.562000", "095303.564000", "095303.567000", "095303.569000", "095303.572000", "095303.574000", "095303.577000", "095303.579000", "095303.582000", "095303.584000", "095303.587000", "095343.538000", "095343.541000", "095343.544000", "095343.546000", "095343.549000", "095343.551000", "095343.554000", "095343.570000", "095343.573000", "095343.575000", "095343.578000", "095343.580000", "095343.583000", "095343.585000", "095343.588000", "095343.590000", "095343.592000", "095343.595000", "095343.597000", "095343.600000", "095423.538000", "095423.541000", "095423.544000", "095423.546000", "095423.549000", "095423.551000", "095423.554000", "095423.557000", "095423.559000", "095423.562000", "095423.564000", "095423.567000", "095423.569000", "095423.572000", "095423.574000", "095423.577000", "095423.579000", "095423.582000", "095423.584000", "095423.587000", "095503.539000", "095503.541000", "095503.544000", "095503.547000", "095503.549000", "095503.552000", "095503.554000", "095503.557000", "095503.559000", "095503.562000", "095503.564000", "095503.567000", "095503.569000", "095503.572000", "095503.574000", "095503.577000", "095503.579000", "095503.582000", "095503.584000", "095503.587000", "095543.538000", "095543.541000", "095543.544000", "095543.546000", "095543.555000", "095543.558000", "095543.560000", "095543.563000", "095543.565000", "095543.568000", "095543.570000", "095543.573000", "095543.575000", "095543.578000", "095543.580000", "095543.583000", "095543.585000", "095543.588000", "095543.590000", "095543.593000", "095623.538000", "095623.541000", "095623.544000", "095623.558000", "095623.561000", "095623.563000", "095623.566000", "095623.568000", "095623.571000", "095623.573000", "095623.576000", "095623.579000", "095623.581000", "095623.584000", "095623.586000", "095623.589000", "095623.591000", "095623.594000", "095623.596000", "095623.599000", "095703.538000", "095703.541000", "095703.544000", "095703.546000", "095703.549000", "095703.551000", "095703.554000", "095703.557000", "095703.559000", "095703.562000", "095703.564000", "095703.567000", "095703.569000", "095703.572000", "095703.574000", "095703.577000", "095703.579000", "095703.582000", "095703.584000", "095703.587000", "095743.538000", "095743.541000", "095743.544000", "095743.557000", "095743.560000", "095743.562000", "095743.565000", "095743.567000", "095743.570000", "095743.572000", "095743.575000", "095743.577000", "095743.580000", "095743.582000", "095743.585000", "095743.587000", "095743.590000", "095743.592000", "095743.595000", "095743.597000", "095820.470000", "095820.473000", "095820.476000", "095820.478000", "095820.481000", "095820.483000", "095820.486000", "095820.489000", "095820.491000", "095820.494000", "095820.496000", "095820.499000", "095820.502000", "095820.507000", "095820.510000", "095820.514000", "095820.525000", "095820.527000", "095820.531000"],
      "InstanceNumber": [1, 2, 3, 4, 5, 6, 7, 8, 9, 10, 11, 12, 13, 14, 15, 16, 17, 18, 19, 20, 21, 22, 23, 24, 25, 26, 27, 28, 29, 30, 31, 32, 33, 34, 35, 36, 37, 38, 39, 40, 41, 42, 43, 44, 45, 46, 47, 48, 49, 50, 51, 52, 53, 54, 55, 56, 57, 58, 59, 60, 61, 62, 63, 64, 65, 66, 67, 68, 69, 70, 71, 72, 73, 74, 75, 76, 77, 78, 79, 80, 81, 82, 83, 84, 85, 86, 87, 88, 89, 90, 91, 92, 93, 94, 95, 96, 97, 98, 99, 100, 101, 102, 103, 104, 105, 106, 107, 108, 109, 110, 111, 112, 113, 114, 115, 116, 117, 118, 119, 120, 121, 122, 123, 124, 125, 126, 127, 128, 129, 130, 131, 132, 133, 134, 135, 136, 137, 138, 139, 140, 141, 142, 143, 144, 145, 146, 147, 148, 149, 150, 151, 152, 153, 154, 155, 156, 157, 158, 159, 160, 161, 162, 163, 164, 165, 166, 167, 168, 169, 170, 171, 172, 173, 174, 175, 176, 177, 178, 179, 180, 181, 182, 183, 184, 185, 186, 187, 188, 189, 190, 191, 192, 193, 194, 195, 196, 197, 198, 199, 200],
      "LargestImagePixelValue": [2019, 2017, 2014, 2019, 2012, 2016, 2016, 2013, 2019, 2013, 2014, 2019, 2016, 2024, 2011, 2019, 2014, 2015, 2014, 2014, 2018, 2016, 2017, 2014, 2016, 2015, 2016, 2018, 2019, 2018, 2025, 2021, 2019, 2013, 2016, 2013, 2017, 2016, 2016, 2012, 2014, 2022, 2018, 2013, 2014, 2018, 2017, 2013, 2017, 2018, 2015, 2013, 2021, 2020, 2016, 2015, 2015, 2015, 2021, 2018, 2017, 2022, 2016, 2020, 2014, 2016, 2015, 2016, 2015, 2020, 2020, 2017, 2015, 2016, 2021, 2009, 2020, 2015, 2016, 2022, 2015, 2020, 2016, 2015, 2021, 2015, 2012, 2016, 2019, 2013, 2017, 2016, 2021, 2016, 2015, 2018, 2013, 2015, 2022, 2016, 2019, 2016, 2011, 2012, 2020, 2015, 2011, 2019, 2015, 2016, 2014, 2021, 2014, 2016, 2013, 2025, 2015, 2017, 2016, 2015, 2014, 2018, 2017, 2016, 2018, 2017, 2015, 2016, 2020, 2016, 2024, 2016, 2018, 2018, 2019, 2016, 2018, 2017, 2014, 2019, 2019, 2017, 2018, 2018, 2019, 2021, 2020, 2017, 2018, 2018, 2017, 2015, 2020, 2017, 2022, 2015, 2013, 2019, 2018, 2018, 2017, 2017, 2017, 2019, 2016, 2016, 2018, 2016, 2016, 2019, 2020, 2018, 2015, 2016, 2019, 2018, 2015, 2015, 2019, 2019, 2019, 2019, 2015, 2013, 2025, 2018, 2019, 2022, 2014, 2020, 2016, 2018, 2018, 2009, 2018, 2013, 2018, 2018, 2021, 2017],
      "WindowWidth": [2076.0, 2076.0, 2076.0, 2076.0, 2076.0, 2076.0, 2076.0, 2076.0, 2076.0, 2076.0, 2076.0, 2076.0, 2076.0, 2076.0, 2076.0, 2076.0, 2076.0, 2076.0, 2076.0, 2076.0, 2076.0, 2076.0, 2076.0, 2076.0, 2076.0, 2076.0, 2076.0, 2076.0, 2076.0, 2076.0, 2076.0, 2076.0, 2076.0, 2076.0, 2076.0, 2076.0, 2076.0, 2076.0, 2076.0, 2076.0, 2076.0, 2076.0, 2076.0, 2076.0, 2076.0, 2076.0, 2076.0, 2076.0, 2076.0, 2076.0, 2076.0, 2076.0, 2076.0, 2076.0, 2076.0, 2076.0, 2076.0, 2076.0, 2076.0, 2076.0, 2076.0, 2076.0, 2076.0, 2076.0, 2076.0, 2076.0, 2076.0, 2076.0, 2076.0, 2076.0, 2076.0, 2076.0, 2076.0, 2076.0, 2076.0, 2076.0, 2076.0, 2076.0, 2076.0, 2076.0, 2076.0, 2076.0, 2076.0, 2076.0, 2076.0, 2076.0, 2076.0, 2076.0, 2076.0, 2076.0, 2076.0, 2076.0, 2076.0, 2076.0, 2076.0, 2076.0, 2076.0, 2076.0, 2076.0, 2076.0, 2076.0, 2076.0, 2076.0, 2076.0, 2076.0, 2076.0, 2076.0, 2076.0, 2076.0, 2076.0, 2076.0, 2076.0, 2076.0, 2076.0, 2076.0, 2076.0, 2076.0, 2076.0, 2076.0, 2076.0, 2076.0, 2076.0, 2076.0, 2076.0, 2076.0, 2076.0, 2076.0, 2076.0, 2076.0, 2076.0, 2076.0, 2076.0, 2076.0, 2076.0, 2076.0, 2076.0, 2076.0, 2076.0, 2076.0, 2076.0, 2076.0, 2076.0, 2076.0, 2076.0, 2076.0, 2076.0, 2076.0, 2076.0, 2076.0, 2076.0, 2076.0, 2076.0, 2076.0, 2076.0, 2076.0, 2076.0, 2076.0, 2076.0, 2076.0, 2076.0, 2076.0, 2076.0, 2076.0, 2076.0, 2076.0, 2076.0, 2076.0, 2076.0, 2076.0, 2076.0, 2076.0, 2076.0, 2076.0, 2076.0, 2076.0, 2076.0, 2076.0, 2075.0, 2076.0, 2076.0, 2076.0, 2076.0, 2076.0, 2076.0, 2076.0, 2076.0, 2076.0, 2076.0, 2076.0, 2076.0, 2076.0, 2076.0, 2076.0, 2076.0, 2076.0, 2076.0, 2075.0, 2076.0, 2076.0, 2076.0]
    },
    "slices": {}
  }
}