{
  "AcquisitionMatrixPE": 122,
  "AcquisitionNumber": 1,
  "AcquisitionTime": "12:00:1.040000",
  "BandwidthPerPixelPhaseEncode": 28.76,
  "BaseResolution": 122,
  "BodyPartExamined": "BRAIN",
  "CoilCombinationMethod": "Adaptive Combine",
  "ConsistencyInfo": "N4_VE11C_LATEST_20160120",
  "ConversionSoftware": "dcm2niix",
  "ConversionSoftwareVersion": "v1.0.20220720",
  "DerivedVendorReportedEchoSpacing": 0.000570008,
  "DeviceSerialNumber": "66112",
  "DiffusionScheme": "Monopolar",
  "DwellTime": 2e-06,
  "EchoTime": 0.075,
  "EchoTrainLength": 61,
  "EffectiveEchoSpacing": 0.000285004,
  "FlipAngle": 90,
  "HeudiconvVersion": "0.13.1",
  "ImageOrientationPatientDICOM": [0.986485, 0.16358, 0.00938415, -0.158186, 0.9359, 0.314751],
  "ImageOrientationText": "Tra>Cor(18.2)>Sag(-2.4)",
  "ImageType": [
    "ORIGINAL",
    "PRIMARY",
    "DIFFUSION",
    "NONE",
    "ND",
    "NORM"
],
  "ImagingFrequency": 123.252,
  "InPlanePhaseEncodingDirectionDICOM": "COL",
  "InstitutionAddress": "Maynard 3,Hanover,NH,US,03755",
  "InstitutionName": "Dartmouth College - PBS",
  "InstitutionalDepartmentName": "Department",
  "MRAcquisitionType": "2D",
  "MagneticFieldStrength": 3,
  "Manufacturer": "Siemens",
  "ManufacturersModelName": "Prisma",
  "MatrixCoilMode": "GRAPPA",
  "Modality": "MR",
  "NonlinearGradientCorrection": false,
  "ParallelReductionFactorInPlane": 2,
  "PartialFourier": 1,
  "PatientPosition": "HFS",
  "PercentPhaseFOV": 100,
  "PercentSampling": 100,
  "PhaseEncodingDirection": "j-",
  "PhaseEncodingSteps": 122,
  "PhaseResolution": 1,
  "PixelBandwidth": 2050,
  "ProcedureStepDescription": "dbic^QA",
  "ProtocolName": "dwi_acq-DTI-30-p2",
  "PulseSequenceDetails": "%SiemensSeq%\\ep2d_diff",
  "ReceiveCoilActiveElements": "HEA;HEP",
  "ReceiveCoilName": "Head_32",
  "ReconMatrixPE": 122,
  "RefLinesPE": 38,
  "RepetitionTime": 7.7,
  "SAR": 0.0869269,
  "ScanOptions": "FS",
  "ScanningSequence": "EP",
  "SequenceName": "*ep_b0",
  "SequenceVariant": "SK\\SP",
  "SeriesDescription": "dwi_acq-DTI-30-p2",
  "SeriesNumber": 12,
  "ShimSetting": [4142, -7691, -7527, 250, -83, -58, -4, 81],
  "SliceThickness": 2,
  "SliceTiming": [3.83594, 0, 3.94531, 0.10938, 4.05469, 0.21875, 4.16406, 0.32812, 4.27344, 0.4375, 4.39062, 0.54688, 4.5, 0.65625, 4.60938, 0.76562, 4.71094, 0.875, 4.82812, 0.98438, 4.9375, 1.09375, 5.04688, 1.20312, 5.15625, 1.3125, 5.26562, 1.42188, 5.375, 1.53125, 5.48438, 1.64062, 5.59375, 1.75781, 5.70312, 1.86719, 5.8125, 1.96875, 5.92188, 2.07812, 6.03125, 2.19531, 6.14062, 2.30469, 6.25, 2.41406, 6.35938, 2.52344, 6.46875, 2.63281, 6.57812, 2.74219, 6.6875, 2.85156, 6.79688, 2.96094, 6.90625, 3.07031, 7.01562, 3.17969, 7.13281, 3.28906, 7.24219, 3.39844, 7.35156, 3.50781, 7.46094, 3.61719, 7.57031, 3.72656],
  "SoftwareVersions": "syngo MR E11",
  "SpacingBetweenSlices": 2,
  "SpoilingState": true,
  "StationName": "AWP66112",
  "TotalReadoutTime": 0.0344855,
  "TxRefAmp": 220.807,
  "dcmmeta_affine": [
    [-1.940627098083496, -0.3111855983734131, -0.08540855348110199, 143.07859802246094],
    [-0.3217966854572296, 1.8411152362823486, 0.62396240234375, -109.25511169433594],
    [0.01846061646938324, -0.6191816926002502, 1.89825439453125, -20.441116333007812],
    [0.0, 0.0, 0.0, 1.0]
],
  "dcmmeta_reorient_transform": [
    [0.0, -1.0, 0.0, 121.0],
    [1.0, 0.0, 0.0, 0.0],
    [0.0, 0.0, -1.0, 69.0],
    [0.0, 0.0, 0.0, 1.0]
],
  "dcmmeta_shape": [122, 122, 70, 31],
  "dcmmeta_slice_dim": 2,
  "dcmmeta_version": 0.6,
  "global": {
    "const": {
      "AccessionNumber": "qa",
      "AcquisitionMatrix": [122, 0, 0, 122],
      "AngioFlag": "N",
      "BitsAllocated": 16,
      "BitsStored": 12,
      "BodyPartExamined": "BRAIN",
      "Columns": 122,
      "EchoNumbers": 1,
      "EchoTime": 75.0,
      "EchoTrainLength": 61,
      "FlipAngle": 90.0,
      "HighBit": 11,
      "ImageOrientationPatient": [0.98648544335478, 0.16357997385902, 0.00938414627963, -0.1581860114523, 0.93590020593115, 0.31475067961621],
      "ImageType": [
        "ORIGINAL",
        "PRIMARY",
        "DIFFUSION",
        "NONE",
        "ND",
        "NORM"
],
      "ImagedNucleus": "1H",
      "ImagingFrequency": 123.252366,
      "InPlanePhaseEncodingDirection": "COL",
      "MRAcquisitionType": "2D",
      "MagneticFieldStrength": 3.0,
      "Manufacturer": "SIEMENS",
      "ManufacturerModelName": "Prisma",
      "Modality": "MR",
      "NumberOfAverages": 1.0,
      "NumberOfPhaseEncodingSteps": 122,
      "PercentPhaseFieldOfView": 100.0,
      "PercentSampling": 100.0,
      "PerformedProcedureStepStartTime": "113021.970000",
      "PhotometricInterpretation": "MONOCHROME2",
      "PixelBandwidth": 2050.0,
      "PixelRepresentation": 0,
      "PixelSpacing": [1.9672131538391, 1.9672131538391],
      "ProtocolName": "dwi_acq-DTI-30-p2",
      "RepetitionTime": 7700.0,
      "Rows": 122,
      "SAR": 0.08692686902526,
      "SamplesPerPixel": 1,
      "ScanOptions": "FS",
      "ScanningSequence": "EP",
      "SequenceVariant": [
        "SK",
        "SP"
],
      "SeriesDescription": "dwi_acq-DTI-30-p2",
      "SeriesNumber": 12,
      "SeriesTime": "120004.058000",
      "SliceThickness": 2.0,
      "SmallestImagePixelValue": 0,
      "SoftwareVersions": "syngo MR E11",
      "SpacingBetweenSlices": 2.0,
      "SpecificCharacterSet": "ISO_IR 100",
      "StudyID": "30",
      "StudyTime": "113021.914000",
      "TransmitCoilName": "Body",
      "VariableFlipAngleFlag": "N",
      "WindowCenterWidthExplanation": "Algo1",
      "dBdt": 0.0},
    "slices": {
      "AcquisitionTime": ["120001.040000", "115957.200000", "120001.150000", "115957.310000", "120001.260000", "115957.420000", "120001.370000", "115957.530000", "120001.480000", "115957.640000", "120001.590000", "115957.750000", "120001.700000", "115957.860000", "120001.810000", "115957.970000", "120001.917500", "115958.080000", "120002.027500", "115958.187500", "120002.137500", "115958.297500", "120002.247500", "115958.407500", "120002.357500", "115958.517500", "120002.467500", "115958.627500", "120002.577500", "115958.737500", "120002.687500", "115958.847500", "120002.797500", "115958.957500", "120002.905000", "115959.067500", "120003.015000", "115959.175000", "120003.125000", "115959.285000", "120003.235000", "115959.395000", "120003.345000", "115959.505000", "120003.455000", "115959.615000", "120003.565000", "115959.725000", "120003.675000", "115959.835000", "120003.785000", "115959.945000", "120003.892500", "120000.052500", "120004.002500", "120000.162500", "120004.112500", "120000.272500", "120004.222500", "120000.382500", "120004.332500", "120000.492500", "120004.442500", "120000.602500", "120004.552500", "120000.712500", "120004.662500", "120000.822500", "120004.770000", "120000.932500", "120008.740000", "120004.900000", "120008.850000", "120005.010000", "120008.960000", "120005.120000", "120009.070000", "120005.230000", "120009.180000", "120005.340000", "120009.290000", "120005.450000", "120009.400000", "120005.560000", "120009.510000", "120005.670000", "120009.617500", "120005.780000", "120009.727500", "120005.887500", "120009.837500", "120005.997500", "120009.947500", "120006.107500", "120010.057500", "120006.217500", "120010.167500", "120006.327500", "120010.277500", "120006.437500", "120010.387500", "120006.547500", "120010.497500", "120006.657500", "120010.605000", "120006.767500", "120010.715000", "120006.875000", "120010.825000", "120006.985000", "120010.935000", "120007.095000", "120011.045000", "120007.205000", "120011.155000", "120007.315000", "120011.265000", "120007.425000", "120011.375000", "120007.535000", "120011.485000", "120007.645000", "120011.592500", "120007.752500", "120011.702500", "120007.862500", "120011.812500", "120007.972500", "120011.922500", "120008.082500", "120012.032500", "120008.192500", "120012.142500", "120008.302500", "120012.252500", "120008.412500", "120012.362500", "120008.522500", "120012.470000", "120008.632500", "120016.440000", "120012.600000", "120016.550000", "120012.710000", "120016.660000", "120012.820000", "120016.770000", "120012.930000", "120016.880000", "120013.040000", "120016.990000", "120013.150000", "120017.100000", "120013.260000", "120017.210000", "120013.370000", "120017.317500", "120013.480000", "120017.427500", "120013.587500", "120017.537500", "120013.697500", "120017.647500", "120013.807500", "120017.757500", "120013.917500", "120017.867500", "120014.027500", "120017.977500", "120014.137500", "120018.087500", "120014.247500", "120018.197500", "120014.357500", "120018.305000", "120014.467500", "120018.415000", "120014.575000", "120018.525000", "120014.685000", "120018.635000", "120014.795000", "120018.745000", "120014.905000", "120018.855000", "120015.015000", "120018.965000", "120015.125000", "120019.075000", "120015.235000", "120019.185000", "120015.345000", "120019.292500", "120015.452500", "120019.402500", "120015.562500", "120019.512500", "120015.672500", "120019.622500", "120015.782500", "120019.732500", "120015.892500", "120019.842500", "120016.002500", "120019.952500", "120016.112500", "120020.062500", "120016.222500", "120020.170000", "120016.332500", "120024.140000", "120020.300000", "120024.250000", "120020.410000", "120024.360000", "120020.520000", "120024.470000", "120020.630000", "120024.580000", "120020.740000", "120024.690000", "120020.850000", "120024.800000", "120020.960000", "120024.910000", "120021.070000", "120025.017500", "120021.180000", "120025.127500", "120021.287500", "120025.237500", "120021.397500", "120025.347500", "120021.507500", "120025.457500", "120021.617500", "120025.567500", "120021.727500", "120025.677500", "120021.837500", "120025.787500", "120021.947500", "120025.897500", "120022.057500", "120026.005000", "120022.167500", "120026.115000", "120022.275000", "120026.225000", "120022.385000", "120026.335000", "120022.495000", "120026.445000", "120022.605000", "120026.555000", "120022.715000", "120026.665000", "120022.825000", "120026.775000", "120022.935000", "120026.885000", "120023.045000", "120026.992500", "120023.152500", "120027.102500", "120023.262500", "120027.212500", "120023.372500", "120027.322500", "120023.482500", "120027.432500", "120023.592500", "120027.542500", "120023.702500", "120027.652500", "120023.812500", "120027.762500", "120023.922500", "120027.870000", "120024.032500", "120031.840000", "120028.000000", "120031.950000", "120028.110000", "120032.060000", "120028.220000", "120032.170000", "120028.330000", "120032.280000", "120028.440000", "120032.390000", "120028.550000", "120032.500000", "120028.660000", "120032.610000", "120028.770000", "120032.717500", "120028.880000", "120032.827500", "120028.987500", "120032.937500", "120029.097500", "120033.047500", "120029.207500", "120033.157500", "120029.317500", "120033.267500", "120029.427500", "120033.377500", "120029.537500", "120033.487500", "120029.647500", "120033.597500", "120029.757500", "120033.705000", "120029.867500", "120033.815000", "120029.975000", "120033.925000", "120030.085000", "120034.035000", "120030.195000", "120034.145000", "120030.305000", "120034.255000", "120030.415000", "120034.365000", "120030.525000", "120034.475000", "120030.635000", "120034.585000", "120030.745000", "120034.692500", "120030.852500", "120034.802500", "120030.962500", "120034.912500", "120031.072500", "120035.022500", "120031.182500", "120035.132500", "120031.292500", "120035.242500", "120031.402500", "120035.352500", "120031.512500", "120035.462500", "120031.622500", "120035.570000", "120031.732500", "120039.540000", "120035.700000", "120039.650000", "120035.810000", "120039.760000", "120035.920000", "120039.870000", "120036.030000", "120039.980000", "120036.140000", "120040.090000", "120036.250000", "120040.200000", "120036.360000", "120040.310000", "120036.470000", "120040.417500", "120036.580000", "120040.527500", "120036.687500", "120040.637500", "120036.797500", "120040.747500", "120036.907500", "120040.857500", "120037.017500", "120040.967500", "120037.127500", "120041.077500", "120037.237500", "120041.187500", "120037.347500", "120041.297500", "120037.457500", "120041.405000", "120037.567500", "120041.515000", "120037.675000", "120041.625000", "120037.785000", "120041.735000", "120037.895000", "120041.845000", "120038.005000", "120041.955000", "120038.115000", "120042.065000", "120038.225000", "120042.175000", "120038.335000", "120042.285000", "120038.445000", "120042.392500", "120038.552500", "120042.502500", "120038.662500", "120042.612500", "120038.772500", "120042.722500", "120038.882500", "120042.832500", "120038.992500", "120042.942500", "120039.102500", "120043.052500", "120039.212500", "120043.162500", "120039.322500", "120043.270000", "120039.432500", "120047.240000", "120043.400000", "120047.350000", "120043.510000", "120047.460000", "120043.620000", "120047.570000", "120043.730000", "120047.680000", "120043.840000", "120047.790000", "120043.950000", "120047.900000", "120044.060000", "120048.010000", "120044.170000", "120048.117500", "120044.280000", "120048.227500", "120044.387500", "120048.337500", "120044.497500", "120048.447500", "120044.607500", "120048.557500", "120044.717500", "120048.667500", "120044.827500", "120048.777500", "120044.937500", "120048.887500", "120045.047500", "120048.997500", "120045.157500", "120049.105000", "120045.267500", "120049.215000", "120045.375000", "120049.325000", "120045.485000", "120049.435000", "120045.595000", "120049.545000", "120045.705000", "120049.655000", "120045.815000", "120049.765000", "120045.925000", "120049.875000", "120046.035000", "120049.985000", "120046.145000", "120050.092500", "120046.252500", "120050.202500", "120046.362500", "120050.312500", "120046.472500", "120050.422500", "120046.582500", "120050.532500", "120046.692500", "120050.642500", "120046.802500", "120050.752500", "120046.912500", "120050.862500", "120047.022500", "120050.970000", "120047.132500", "120054.940000", "120051.100000", "120055.050000", "120051.210000", "120055.160000", "120051.320000", "120055.270000", "120051.430000", "120055.380000", "120051.540000", "120055.490000", "120051.650000", "120055.600000", "120051.760000", "120055.710000", "120051.870000", "120055.817500", "120051.980000", "120055.927500", "120052.087500", "120056.037500", "120052.197500", "120056.147500", "120052.307500", "120056.257500", "120052.417500", "120056.367500", "120052.527500", "120056.477500", "120052.637500", "120056.587500", "120052.747500", "120056.697500", "120052.857500", "120056.805000", "120052.967500", "120056.915000", "120053.075000", "120057.025000", "120053.185000", "120057.135000", "120053.295000", "120057.245000", "120053.405000", "120057.355000", "120053.515000", "120057.465000", "120053.625000", "120057.575000", "120053.735000", "120057.685000", "120053.845000", "120057.792500", "120053.952500", "120057.902500", "120054.062500", "120058.012500", "120054.172500", "120058.122500", "120054.282500", "120058.232500", "120054.392500", "120058.342500", "120054.502500", "120058.452500", "120054.612500", "120058.562500", "120054.722500", "120058.670000", "120054.832500", "120102.640000", "120058.800000", "120102.750000", "120058.910000", "120102.860000", "120059.020000", "120102.970000", "120059.130000", "120103.080000", "120059.240000", "120103.190000", "120059.350000", "120103.300000", "120059.460000", "120103.410000", "120059.570000", "120103.517500", "120059.680000", "120103.627500", "120059.787500", "120103.737500", "120059.897500", "120103.847500", "120100.007500", "120103.957500", "120100.117500", "120104.067500", "120100.227500", "120104.177500", "120100.337500", "120104.287500", "120100.447500", "120104.397500", "120100.557500", "120104.505000", "120100.667500", "120104.615000", "120100.775000", "120104.725000", "120100.885000", "120104.835000", "120100.995000", "120104.945000", "120101.105000", "120105.055000", "120101.215000", "120105.165000", "120101.325000", "120105.275000", "120101.435000", "120105.385000", "120101.545000", "120105.492500", "120101.652500", "120105.602500", "120101.762500", "120105.712500", "120101.872500", "120105.822500", "120101.982500", "120105.932500", "120102.092500", "120106.042500", "120102.202500", "120106.152500", "120102.312500", "120106.262500", "120102.422500", "120106.370000", "120102.532500", "120110.340000", "120106.500000", "120110.450000", "120106.610000", "120110.560000", "120106.720000", "120110.670000", "120106.830000", "120110.780000", "120106.940000", "120110.890000", "120107.050000", "120111.000000", "120107.160000", "120111.110000", "120107.270000", "120111.217500", "120107.380000", "120111.327500", "120107.487500", "120111.437500", "120107.597500", "120111.547500", "120107.707500", "120111.657500", "120107.817500", "120111.767500", "120107.927500", "120111.877500", "120108.037500", "120111.987500", "120108.147500", "120112.097500", "120108.257500", "120112.205000", "120108.367500", "120112.315000", "120108.475000", "120112.425000", "120108.585000", "120112.535000", "120108.695000", "120112.645000", "120108.805000", "120112.755000", "120108.915000", "120112.865000", "120109.025000", "120112.975000", "120109.135000", "120113.085000", "120109.245000", "120113.192500", "120109.352500", "120113.302500", "120109.462500", "120113.412500", "120109.572500", "120113.522500", "120109.682500", "120113.632500", "120109.792500", "120113.742500", "120109.902500", "120113.852500", "120110.012500", "120113.962500", "120110.122500", "120114.070000", "120110.232500", "120118.040000", "120114.200000", "120118.150000", "120114.310000", "120118.260000", "120114.420000", "120118.370000", "120114.530000", "120118.480000", "120114.640000", "120118.590000", "120114.750000", "120118.700000", "120114.860000", "120118.810000", "120114.970000", "120118.917500", "120115.080000", "120119.027500", "120115.187500", "120119.137500", "120115.297500", "120119.247500", "120115.407500", "120119.357500", "120115.517500", "120119.467500", "120115.627500", "120119.577500", "120115.737500", "120119.687500", "120115.847500", "120119.797500", "120115.957500", "120119.905000", "120116.067500", "120120.015000", "120116.175000", "120120.125000", "120116.285000", "120120.235000", "120116.395000", "120120.345000", "120116.505000", "120120.455000", "120116.615000", "120120.565000", "120116.725000", "120120.675000", "120116.835000", "120120.785000", "120116.945000", "120120.892500", "120117.052500", "120121.002500", "120117.162500", "120121.112500", "120117.272500", "120121.222500", "120117.382500", "120121.332500", "120117.492500", "120121.442500", "120117.602500", "120121.552500", "120117.712500", "120121.662500", "120117.822500", "120121.770000", "120117.932500", "120125.740000", "120121.900000", "120125.850000", "120122.010000", "120125.960000", "120122.120000", "120126.070000", "120122.230000", "120126.180000", "120122.340000", "120126.290000", "120122.450000", "120126.400000", "120122.560000", "120126.510000", "120122.670000", "120126.617500", "120122.780000", "120126.727500", "120122.887500", "120126.837500", "120122.997500", "120126.947500", "120123.107500", "120127.057500", "120123.217500", "120127.167500", "120123.327500", "120127.277500", "120123.437500", "120127.387500", "120123.547500", "120127.497500", "120123.657500", "120127.605000", "120123.767500", "120127.715000", "120123.875000", "120127.825000", "120123.985000", "120127.935000", "120124.095000", "120128.045000", "120124.205000", "120128.155000", "120124.315000", "120128.265000", "120124.425000", "120128.375000", "120124.535000", "120128.485000", "120124.645000", "120128.592500", "120124.752500", "120128.702500", "120124.862500", "120128.812500", "120124.972500", "120128.922500", "120125.082500", "120129.032500", "120125.192500", "120129.142500", "120125.302500", "120129.252500", "120125.412500", "120129.362500", "120125.522500", "120129.470000", "120125.632500", "120133.440000", "120129.600000", "120133.550000", "120129.710000", "120133.660000", "120129.820000", "120133.770000", "120129.930000", "120133.880000", "120130.040000", "120133.990000", "120130.150000", "120134.100000", "120130.260000", "120134.210000", "120130.370000", "120134.317500", "120130.480000", "120134.427500", "120130.587500", "120134.537500", "120130.697500", "120134.647500", "120130.807500", "120134.757500", "120130.917500", "120134.867500", "120131.027500", "120134.977500", "120131.137500", "120135.087500", "120131.247500", "120135.197500", "120131.357500", "120135.305000", "120131.467500", "120135.415000", "120131.575000", "120135.525000", "120131.685000", "120135.635000", "120131.795000", "120135.745000", "120131.905000", "120135.855000", "120132.015000", "120135.965000", "120132.125000", "120136.075000", "120132.235000", "120136.185000", "120132.345000", "120136.292500", "120132.452500", "120136.402500", "120132.562500", "120136.512500", "120132.672500", "120136.622500", "120132.782500", "120136.732500", "120132.892500", "120136.842500", "120133.002500", "120136.952500", "120133.112500", "120137.062500", "120133.222500", "120137.170000", "120133.332500", "120141.140000", "120137.300000", "120141.250000", "120137.410000", "120141.360000", "120137.520000", "120141.470000", "120137.630000", "120141.580000", "120137.740000", "120141.690000", "120137.850000", "120141.800000", "120137.960000", "120141.910000", "120138.070000", "120142.017500", "120138.180000", "120142.127500", "120138.287500", "120142.237500", "120138.397500", "120142.347500", "120138.507500", "120142.457500", "120138.617500", "120142.567500", "120138.727500", "120142.677500", "120138.837500", "120142.787500", "120138.947500", "120142.897500", "120139.057500", "120143.005000", "120139.167500", "120143.115000", "120139.275000", "120143.225000", "120139.385000", "120143.335000", "120139.495000", "120143.445000", "120139.605000", "120143.555000", "120139.715000", "120143.665000", "120139.825000", "120143.775000", "120139.935000", "120143.885000", "120140.045000", "120143.992500", "120140.152500", "120144.102500", "120140.262500", "120144.212500", "120140.372500", "120144.322500", "120140.482500", "120144.432500", "120140.592500", "120144.542500", "120140.702500", "120144.652500", "120140.812500", "120144.762500", "120140.922500", "120144.870000", "120141.032500", "120148.840000", "120145.000000", "120148.950000", "120145.110000", "120149.060000", "120145.220000", "120149.170000", "120145.330000", "120149.280000", "120145.440000", "120149.390000", "120145.550000", "120149.500000", "120145.660000", "120149.610000", "120145.770000", "120149.717500", "120145.880000", "120149.827500", "120145.987500", "120149.937500", "120146.097500", "120150.047500", "120146.207500", "120150.157500", "120146.317500", "120150.267500", "120146.427500", "120150.377500", "120146.537500", "120150.487500", "120146.647500", "120150.597500", "120146.757500", "120150.705000", "120146.867500", "120150.815000", "120146.975000", "120150.925000", "120147.085000", "120151.035000", "120147.195000", "120151.145000", "120147.305000", "120151.255000", "120147.415000", "120151.365000", "120147.525000", "120151.475000", "120147.635000", "120151.585000", "120147.745000", "120151.692500", "120147.852500", "120151.802500", "120147.962500", "120151.912500", "120148.072500", "120152.022500", "120148.182500", "120152.132500", "120148.292500", "120152.242500", "120148.402500", "120152.352500", "120148.512500", "120152.462500", "120148.622500", "120152.570000", "120148.732500", "120156.540000", "120152.700000", "120156.650000", "120152.810000", "120156.760000", "120152.920000", "120156.870000", "120153.030000", "120156.980000", "120153.140000", "120157.090000", "120153.250000", "120157.200000", "120153.360000", "120157.310000", "120153.470000", "120157.417500", "120153.580000", "120157.527500", "120153.687500", "120157.637500", "120153.797500", "120157.747500", "120153.907500", "120157.857500", "120154.017500", "120157.967500", "120154.127500", "120158.077500", "120154.237500", "120158.187500", "120154.347500", "120158.297500", "120154.457500", "120158.405000", "120154.567500", "120158.515000", "120154.675000", "120158.625000", "120154.785000", "120158.735000", "120154.895000", "120158.845000", "120155.005000", "120158.955000", "120155.115000", "120159.065000", "120155.225000", "120159.175000", "120155.335000", "120159.285000", "120155.445000", "120159.392500", "120155.552500", "120159.502500", "120155.662500", "120159.612500", "120155.772500", "120159.722500", "120155.882500", "120159.832500", "120155.992500", "120159.942500", "120156.102500", "120200.052500", "120156.212500", "120200.162500", "120156.322500", "120200.270000", "120156.432500", "120204.240000", "120200.400000", "120204.350000", "120200.510000", "120204.460000", "120200.620000", "120204.570000", "120200.730000", "120204.680000", "120200.840000", "120204.790000", "120200.950000", "120204.900000", "120201.060000", "120205.010000", "120201.170000", "120205.117500", "120201.280000", "120205.227500", "120201.387500", "120205.337500", "120201.497500", "120205.447500", "120201.607500", "120205.557500", "120201.717500", "120205.667500", "120201.827500", "120205.777500", "120201.937500", "120205.887500", "120202.047500", "120205.997500", "120202.157500", "120206.105000", "120202.267500", "120206.215000", "120202.375000", "120206.325000", "120202.485000", "120206.435000", "120202.595000", "120206.545000", "120202.705000", "120206.655000", "120202.815000", "120206.765000", "120202.925000", "120206.875000", "120203.035000", "120206.985000", "120203.145000", "120207.092500", "120203.252500", "120207.202500", "120203.362500", "120207.312500", "120203.472500", "120207.422500", "120203.582500", "120207.532500", "120203.692500", "120207.642500", "120203.802500", "120207.752500", "120203.912500", "120207.862500", "120204.022500", "120207.970000", "120204.132500", "120211.940000", "120208.100000", "120212.050000", "120208.210000", "120212.160000", "120208.320000", "120212.270000", "120208.430000", "120212.380000", "120208.540000", "120212.490000", "120208.650000", "120212.600000", "120208.760000", "120212.710000", "120208.870000", "120212.817500", "120208.980000", "120212.927500", "120209.087500", "120213.037500", "120209.197500", "120213.147500", "120209.307500", "120213.257500", "120209.417500", "120213.367500", "120209.527500", "120213.477500", "120209.637500", "120213.587500", "120209.747500", "120213.697500", "120209.857500", "120213.805000", "120209.967500", "120213.915000", "120210.075000", "120214.025000", "120210.185000", "120214.135000", "120210.295000", "120214.245000", "120210.405000", "120214.355000", "120210.515000", "120214.465000", "120210.625000", "120214.575000", "120210.735000", "120214.685000", "120210.845000", "120214.792500", "120210.952500", "120214.902500", "120211.062500", "120215.012500", "120211.172500", "120215.122500", "120211.282500", "120215.232500", "120211.392500", "120215.342500", "120211.502500", "120215.452500", "120211.612500", "120215.562500", "120211.722500", "120215.670000", "120211.832500", "120219.640000", "120215.800000", "120219.750000", "120215.910000", "120219.860000", "120216.020000", "120219.970000", "120216.130000", "120220.080000", "120216.240000", "120220.190000", "120216.350000", "120220.300000", "120216.460000", "120220.410000", "120216.570000", "120220.517500", "120216.680000", "120220.627500", "120216.787500", "120220.737500", "120216.897500", "120220.847500", "120217.007500", "120220.957500", "120217.117500", "120221.067500", "120217.227500", "120221.177500", "120217.337500", "120221.287500", "120217.447500", "120221.397500", "120217.557500", "120221.505000", "120217.667500", "120221.615000", "120217.775000", "120221.725000", "120217.885000", "120221.835000", "120217.995000", "120221.945000", "120218.105000", "120222.055000", "120218.215000", "120222.165000", "120218.325000", "120222.275000", "120218.435000", "120222.385000", "120218.545000", "120222.492500", "120218.652500", "120222.602500", "120218.762500", "120222.712500", "120218.872500", "120222.822500", "120218.982500", "120222.932500", "120219.092500", "120223.042500", "120219.202500", "120223.152500", "120219.312500", "120223.262500", "120219.422500", "120223.370000", "120219.532500", "120227.340000", "120223.500000", "120227.450000", "120223.610000", "120227.560000", "120223.720000", "120227.670000", "120223.830000", "120227.780000", "120223.940000", "120227.890000", "120224.050000", "120228.000000", "120224.160000", "120228.110000", "120224.270000", "120228.217500", "120224.380000", "120228.327500", "120224.487500", "120228.437500", "120224.597500", "120228.547500", "120224.707500", "120228.657500", "120224.817500", "120228.767500", "120224.927500", "120228.877500", "120225.037500", "120228.987500", "120225.147500", "120229.097500", "120225.257500", "120229.205000", "120225.367500", "120229.315000", "120225.475000", "120229.425000", "120225.585000", "120229.535000", "120225.695000", "120229.645000", "120225.805000", "120229.755000", "120225.915000", "120229.865000", "120226.025000", "120229.975000", "120226.135000", "120230.085000", "120226.245000", "120230.192500", "120226.352500", "120230.302500", "120226.462500", "120230.412500", "120226.572500", "120230.522500", "120226.682500", "120230.632500", "120226.792500", "120230.742500", "120226.902500", "120230.852500", "120227.012500", "120230.962500", "120227.122500", "120231.070000", "120227.232500", "120235.040000", "120231.200000", "120235.150000", "120231.310000", "120235.260000", "120231.420000", "120235.370000", "120231.530000", "120235.480000", "120231.640000", "120235.590000", "120231.750000", "120235.700000", "120231.860000", "120235.810000", "120231.970000", "120235.917500", "120232.080000", "120236.027500", "120232.187500", "120236.137500", "120232.297500", "120236.247500", "120232.407500", "120236.357500", "120232.517500", "120236.467500", "120232.627500", "120236.577500", "120232.737500", "120236.687500", "120232.847500", "120236.797500", "120232.957500", "120236.905000", "1202