{
  "AcquisitionMatrixPE": 80,
  "AcquisitionNumber": 1,
  "AcquisitionTime": "09:50:5.162500",
  "BandwidthPerPixelPhaseEncode": 44.643,
  "BaseResolution": 80,
  "BodyPartExamined": "BRAIN",
  "CoilCombinationMethod": "Sum of Squares",
  "ConsistencyInfo": "N4_VE11C_LATEST_20160120",
  "ConversionSoftware": "dcm2niix",
  "ConversionSoftwareVersion": "v1.0.20220720",
  "DerivedVendorReportedEchoSpacing": 0.000559998,
  "DeviceSerialNumber": "66112",
  "DwellTime": 2.7e-06,
  "EchoTime": 0.035,
  "EchoTrainLength": 39,
  "EffectiveEchoSpacing": 0.000279999,
  "FlipAngle": 90,
  "HeudiconvVersion": "0.13.1",
  "ImageOrientationPatientDICOM": [0.984538, 0.175, 0.00777585, -0.169351, 0.939537, 0.297643],
  "ImageOrientationText": "Tra>Cor(17.1)>Sag(-2.6)",
  "ImageType": [
    "ORIGINAL",
    "PRIMARY",
    "M",
    "ND",
    "NORM",
    "MOSAIC"
],
  "ImagingFrequency": 123.252,
  "InPlanePhaseEncodingDirectionDICOM": "COL",
  "InstitutionAddress": "Maynard 3,Hanover,NH,US,03755",
  "InstitutionName": "Dartmouth College - PBS",
  "InstitutionalDepartmentName": "Department",
  "MRAcquisitionType": "2D",
  "MagneticFieldStrength": 3,
  "Manufacturer": "Siemens",
  "ManufacturersModelName": "Prisma",
  "Modality": "MR",
  "MultibandAccelerationFactor": 4,
  "NonlinearGradientCorrection": false,
  "ParallelReductionFactorInPlane": 2,
  "PartialFourier": 1,
  "PatientPosition": "HFS",
  "PercentPhaseFOV": 100,
  "PercentSampling": 100,
  "PhaseEncodingDirection": "j-",
  "PhaseEncodingSteps": 79,
  "PhaseResolution": 1,
  "PixelBandwidth": 2315,
  "ProcedureStepDescription": "dbic^QA",
  "ProtocolName": "func-bold_task-rest_acq-p2-s4-3.5mm",
  "PulseSequenceDetails": "%SiemensSeq%\\ep2d_bold",
  "ReceiveCoilActiveElements": "HEA;HEP",
  "ReceiveCoilName": "Head_32",
  "ReconMatrixPE": 80,
  "RefLinesPE": 24,
  "RepetitionTime": 2,
  "SAR": 0.0208551,
  "ScanOptions": "FS",
  "ScanningSequence": "EP",
  "SequenceName": "*epfid2d1_80",
  "SequenceVariant": "SK",
  "SeriesDescription": "func-bold_task-rest_acq-p2-s4-3.5mm",
  "SeriesNumber": 7,
  "ShimSetting": [4148, -7696, -7508, 267, -50, -105, -52, 67],
  "SliceThickness": 3.5,
  "SliceTiming": [1.485, 0, 0.99, 0.2475, 1.2375, 0.7425, 1.7325, 0.495, 1.485, 0, 0.99, 0.2475, 1.2375, 0.7425, 1.7325, 0.495, 1.485, 0, 0.99, 0.2475, 1.2375, 0.7425, 1.7325, 0.495, 1.485, 0, 0.99, 0.2475, 1.2375, 0.7425, 1.7325, 0.495],
  "SoftwareVersions": "syngo MR E11",
  "SpacingBetweenSlices": 3.99,
  "StationName": "AWP66112",
  "TaskName": "rest",
  "TotalReadoutTime": 0.0221199,
  "TxRefAmp": 237.507,
  "dcmmeta_affine": [
    [-2.95361328125, -0.5080544948577881, -0.17867881059646606, 142.7021484375],
    [-0.5249987840652466, 2.8186097145080566, 1.174485683441162, -106.72399139404297],
    [0.023327548056840897, -0.8929280042648315, 3.8090364933013916, -9.215961456298828],
    [0.0, 0.0, 0.0, 1.0]
],
  "dcmmeta_reorient_transform": [
    [0.0, -1.0, 0.0, 79.0],
    [1.0, 0.0, 0.0, 0.0],
    [0.0, 0.0, 1.0, 0.0],
    [0.0, 0.0, 0.0, 1.0]
],
  "dcmmeta_shape": [80, 80, 32, 200],
  "dcmmeta_slice_dim": 2,
  "dcmmeta_version": 0.6,
  "global": {
    "const": {
      "AccessionNumber": "qa",
      "AcquisitionMatrix": [80, 0, 0, 80],
      "AngioFlag": "N",
      "BitsAllocated": 16,
      "BitsStored": 12,
      "BodyPartExamined": "BRAIN",
      "Columns": 480,
      "EchoNumbers": 1,
      "EchoTime": 35.0,
      "EchoTrainLength": 39,
      "FlipAngle": 90.0,
      "HighBit": 11,
      "ImageOrientationPatient": [0.98453779804925, 0.17499960106983, 0.00777584964762, -0.1693514915721, 0.93953654149162, 0.29764267083918],
      "ImagePositionPatient": [-591.67762897533, -784.66785636922, -263.00838659986],
      "ImageType": [
        "ORIGINAL",
        "PRIMARY",
        "M",
        "ND",
        "NORM",
        "MOSAIC"
],
      "ImagedNucleus": "1H",
      "ImagingFrequency": 123.252383,
      "InPlanePhaseEncodingDirection": "COL",
      "MRAcquisitionType": "2D",
      "MagneticFieldStrength": 3.0,
      "Manufacturer": "SIEMENS",
      "ManufacturerModelName": "Prisma",
      "Modality": "MR",
      "NumberOfAverages": 1.0,
      "NumberOfPhaseEncodingSteps": 79,
      "PercentPhaseFieldOfView": 100.0,
      "PercentSampling": 100.0,
      "PerformedProcedureStepStartTime": "093907.083000",
      "PhotometricInterpretation": "MONOCHROME2",
      "PixelBandwidth": 2315.0,
      "PixelRepresentation": 0,
      "PixelSpacing": [3.0, 3.0],
      "ProtocolName": "func-bold_task-rest_acq-p2-s4-3.5mm",
      "RepetitionTime": 2000.0,
      "Rows": 480,
      "SAR": 0.0208550639899,
      "SamplesPerPixel": 1,
      "ScanOptions": "FS",
      "ScanningSequence": "EP",
      "SequenceName": "*epfid2d1_80",
      "SequenceVariant": "SK",
      "SeriesDescription": "func-bold_task-rest_acq-p2-s4-3.5mm",
      "SeriesNumber": 7,
      "SeriesTime": "095058.196000",
      "SliceLocation": -46.603402503222,
      "SliceThickness": 3.5,
      "SmallestImagePixelValue": 0,
      "SoftwareVersions": "syngo MR E11",
      "SpacingBetweenSlices": 3.9900001201764,
      "SpecificCharacterSet": "ISO_IR 100",
      "StudyID": "6",
      "StudyTime": "093907.032000",
      "TransmitCoilName": "Body",
      "VariableFlipAngleFlag": "N",
      "WindowCenterWidthExplanation": "Algo1",
      "dBdt": 0.0},
    "slices": {}
  },
  "time": {
    "samples": {
      "AcquisitionNumber": [1, 2, 3, 4, 5, 6, 7, 8, 9, 10, 11, 12, 13, 14, 15, 16, 17, 18, 19, 20, 21, 22, 23, 24, 25, 26, 27, 28, 29, 30, 31, 32, 33, 34, 35, 36, 37, 38, 39, 40, 41, 42, 43, 44, 45, 46, 47, 48, 49, 50, 51, 52, 53, 54, 55, 56, 57, 58, 59, 60, 61, 62, 63, 64, 65, 66, 67, 68, 69, 70, 71, 72, 73, 74, 75, 76, 77, 78, 79, 80, 81, 82, 83, 84, 85, 86, 87, 88, 89, 90, 91, 92, 93, 94, 95, 96, 97, 98, 99, 100, 101, 102, 103, 104, 105, 106, 107, 108, 109, 110, 111, 112, 113, 114, 115, 116, 117, 118, 119, 120, 121, 122, 123, 124, 125, 126, 127, 128, 129, 130, 131, 132, 133, 134, 135, 136, 137, 138, 139, 140, 141, 142, 143, 144, 145, 146, 147, 148, 149, 150, 151, 152, 153, 154, 155, 156, 157, 158, 159, 160, 161, 162, 163, 164, 165, 166, 167, 168, 169, 170, 171, 172, 173, 174, 175, 176, 177, 178, 179, 180, 181, 182, 183, 184, 185, 186, 187, 188, 189, 190, 191, 192, 193, 194, 195, 196, 197, 198, 199, 200],
      "AcquisitionTime": ["095005.162500", "095007.162500", "095009.162500", "095011.162500", "095013.162500", "095015.162500", "095017.162500", "095019.162500", "095021.162500", "095023.162500", "095025.162500", "095027.162500", "095029.162500", "095031.162500", "095033.162500", "095035.162500", "095037.162500", "095039.162500", "095041.162500", "095043.162500", "095045.162500", "095047.162500", "095049.162500", "095051.162500", "095053.162500", "095055.162500", "095057.162500", "095059.162500", "095101.162500", "095103.162500", "095105.162500", "095107.162500", "095109.162500", "095111.162500", "095113.162500", "095115.162500", "095117.162500", "095119.162500", "095121.162500", "095123.162500", "095125.162500", "095127.162500", "095129.162500", "095131.162500", "095133.162500", "095135.162500", "095137.162500", "095139.162500", "095141.162500", "095143.162500", "095145.162500", "095147.162500", "095149.162500", "095151.162500", "095153.162500", "095155.162500", "095157.162500", "095159.162500", "095201.162500", "095203.162500", "095205.162500", "095207.162500", "095209.162500", "095211.162500", "095213.162500", "095215.162500", "095217.162500", "095219.162500", "095221.162500", "095223.162500", "095225.162500", "095227.162500", "095229.162500", "095231.162500", "095233.162500", "095235.162500", "095237.162500", "095239.162500", "095241.162500", "095243.162500", "095245.162500", "095247.162500", "095249.162500", "095251.162500", "095253.162500", "095255.162500", "095257.162500", "095259.162500", "095301.162500", "095303.162500", "095305.162500", "095307.162500", "095309.162500", "095311.162500", "095313.162500", "095315.162500", "095317.162500", "095319.162500", "095321.162500", "095323.162500", "095325.162500", "095327.162500", "095329.162500", "095331.162500", "095333.162500", "095335.162500", "095337.162500", "095339.162500", "095341.162500", "095343.162500", "095345.162500", "095347.162500", "095349.162500", "095351.162500", "095353.162500", "095355.162500", "095357.162500", "095359.162500", "095401.162500", "095403.162500", "095405.162500", "095407.162500", "095409.162500", "095411.162500", "095413.162500", "095415.162500", "095417.162500", "095419.162500", "095421.162500", "095423.162500", "095425.162500", "095427.162500", "095429.162500", "095431.162500", "095433.162500", "095435.162500", "095437.162500", "095439.162500", "095441.162500", "095443.162500", "095445.162500", "095447.162500", "095449.162500", "095451.162500", "095453.162500", "095455.162500", "095457.162500", "095459.162500", "095501.162500", "095503.162500", "095505.162500", "095507.162500", "095509.162500", "095511.162500", "095513.162500", "095515.162500", "095517.162500", "095519.162500", "095521.162500", "095523.162500", "095525.162500", "095527.162500", "095529.162500", "095531.162500", "095533.162500", "095535.162500", "095537.162500", "095539.162500", "095541.162500", "095543.162500", "095545.162500", "095547.162500", "095549.162500", "095551.162500", "095553.162500", "095555.162500", "095557.162500", "095559.162500", "095601.162500", "095603.162500", "095605.162500", "095607.162500", "095609.162500", "095611.162500", "095613.162500", "095615.162500", "095617.162500", "095619.162500", "095621.162500", "095623.162500", "095625.162500", "095627.162500", "095629.162500", "095631.162500", "095633.162500", "095635.162500", "095637.162500", "095639.162500", "095641.162500", "095643.162500"],
      "ContentTime": ["095058.206000", "095058.209000", "095058.212000", "095058.215000", "095058.217000", "095058.220000", "095058.222000", "095058.225000", "095058.227000", "095058.234000", "095058.237000", "095058.240000", "095058.242000", "095058.245000", "095058.247000", "095058.250000", "095058.253000", "095058.255000", "095058.268000", "095058.270000", "095058.273000", "095058.287000", "095058.290000", "095058.292000", "095058.295000", "095058.297000", "095058.300000", "095138.194000", "095138.199000", "095138.202000", "095138.205000", "095138.207000", "095138.210000", "095138.212000", "095138.215000", "095138.217000", "095138.220000", "095138.222000", "095138.225000", "095138.227000", "095138.230000", "095138.234000", "095138.245000", "095138.248000", "095138.251000", "095138.253000", "095138.256000", "095218.194000", "095218.197000", "095218.200000", "095218.202000", "095218.205000", "095218.207000", "095218.210000", "095218.213000", "095218.215000", "095218.218000", "095218.220000", "095218.223000", "095218.225000", "095218.228000", "095218.231000", "095218.234000", "095218.237000", "095218.239000", "095218.242000", "095218.244000", "095258.193000", "095258.196000", "095258.199000", "095258.201000", "095258.204000", "095258.206000", "095258.209000", "095258.212000", "095258.214000", "095258.217000", "095258.219000", "095258.222000", "095258.224000", "095258.227000", "095258.230000", "095258.233000", "095258.236000", "095258.238000", "095258.241000", "095258.244000", "095338.194000", "095338.197000", "095338.200000", "095338.202000", "095338.205000", "095338.208000", "095338.210000", "095338.213000", "095338.215000", "095338.218000", "095338.220000", "095338.223000", "095338.225000", "095338.234000", "095338.237000", "095338.239000", "095338.242000", "095338.244000", "095338.247000", "095338.250000", "095418.194000", "095418.197000", "095418.200000", "095418.202000", "095418.205000", "095418.207000", "095418.210000", "095418.212000", "095418.215000", "095418.218000", "095418.220000", "095418.223000", "095418.225000", "095418.229000", "095418.232000", "095418.234000", "095418.237000", "095418.239000", "095418.242000", "095418.245000", "095458.193000", "095458.198000", "095458.201000", "095458.203000", "095458.206000", "095458.209000", "095458.211000", "095458.214000", "095458.216000", "095458.219000", "095458.221000", "095458.224000", "095458.228000", "095458.231000", "095458.233000", "095458.236000", "095458.238000", "095458.241000", "095458.243000", "095458.246000", "095518.193000", "095518.196000", "095518.199000", "095518.201000", "095518.204000", "095518.206000", "095518.209000", "095518.212000", "095518.214000", "095518.217000", "095558.195000", "095558.197000", "095558.200000", "095558.203000", "095558.205000", "095558.208000", "095558.210000", "095558.213000", "095558.215000", "095558.218000", "095558.221000", "095558.223000", "095558.227000", "095558.230000", "095558.232000", "095558.235000", "095558.238000", "095558.240000", "095558.243000", "095558.245000", "095638.194000", "095638.197000", "095638.200000", "095638.202000", "095638.205000", "095638.208000", "095638.210000", "095638.213000", "095638.215000", "095638.218000", "095638.220000", "095638.223000", "095638.227000", "095638.230000", "095638.232000", "095638.235000", "095638.238000", "095638.240000", "095638.243000", "095638.245000", "095644.265000", "095644.268000", "095644.270000"],
      "InstanceCreationTime": ["095058.206000", "095058.209000", "095058.212000", "095058.215000", "095058.217000", "095058.220000", "095058.222000", "095058.225000", "095058.227000", "095058.234000", "095058.237000", "095058.240000", "095058.242000", "095058.245000", "095058.247000", "095058.250000", "095058.253000", "095058.255000", "095058.268000", "095058.270000", "095058.273000", "095058.287000", "095058.290000", "095058.292000", "095058.295000", "095058.297000", "095058.300000", "095138.194000", "095138.199000", "095138.202000", "095138.205000", "095138.207000", "095138.210000", "095138.212000", "095138.215000", "095138.217000", "095138.220000", "095138.222000", "095138.225000", "095138.227000", "095138.230000", "095138.234000", "095138.245000", "095138.248000", "095138.251000", "095138.253000", "095138.256000", "095218.194000", "095218.197000", "095218.200000", "095218.202000", "095218.205000", "095218.207000", "095218.210000", "095218.213000", "095218.215000", "095218.218000", "095218.220000", "095218.223000", "095218.225000", "095218.228000", "095218.231000", "095218.234000", "095218.237000", "095218.239000", "095218.242000", "095218.244000", "095258.193000", "095258.196000", "095258.199000", "095258.201000", "095258.204000", "095258.206000", "095258.209000", "095258.212000", "095258.214000", "095258.217000", "095258.219000", "095258.222000", "095258.224000", "095258.227000", "095258.230000", "095258.233000", "095258.236000", "095258.238000", "095258.241000", "095258.244000", "095338.194000", "095338.197000", "095338.200000", "095338.202000", "095338.205000", "095338.208000", "095338.210000", "095338.213000", "095338.215000", "095338.218000", "095338.220000", "095338.223000", "095338.225000", "095338.234000", "095338.237000", "095338.239000", "095338.242000", "095338.244000", "095338.247000", "095338.250000", "095418.194000", "095418.197000", "095418.200000", "095418.202000", "095418.205000", "095418.207000", "095418.210000", "095418.212000", "095418.215000", "095418.218000", "095418.220000", "095418.223000", "095418.225000", "095418.229000", "095418.232000", "095418.234000", "095418.237000", "095418.239000", "095418.242000", "095418.245000", "095458.193000", "095458.198000", "095458.201000", "095458.203000", "095458.206000", "095458.209000", "095458.211000", "095458.214000", "095458.216000", "095458.219000", "095458.221000", "095458.224000", "095458.228000", "095458.231000", "095458.233000", "095458.236000", "095458.238000", "095458.241000", "095458.243000", "095458.246000", "095518.193000", "095518.196000", "095518.199000", "095518.201000", "095518.204000", "095518.206000", "095518.209000", "095518.212000", "095518.214000", "095518.217000", "095558.195000", "095558.197000", "095558.200000", "095558.203000", "095558.205000", "095558.208000", "095558.210000", "095558.213000", "095558.215000", "095558.218000", "095558.221000", "095558.223000", "095558.227000", "095558.230000", "095558.232000", "095558.235000", "095558.238000", "095558.240000", "095558.243000", "095558.245000", "095638.194000", "095638.197000", "095638.200000", "095638.202000", "095638.205000", "095638.208000", "095638.210000", "095638.213000", "095638.215000", "095638.218000", "095638.220000", "095638.223000", "095638.227000", "095638.230000", "095638.232000", "095638.235000", "095638.238000", "095638.240000", "095638.243000", "095638.245000", "095644.265000", "095644.268000", "095644.270000"],
      "InstanceNumber": [1, 2, 3, 4, 5, 6, 7, 8, 9, 10, 11, 12, 13, 14, 15, 16, 17, 18, 19, 20, 21, 22, 23, 24, 25, 26, 27, 28, 29, 30, 31, 32, 33, 34, 35, 36, 37, 38, 39, 40, 41, 42, 43, 44, 45, 46, 47, 48, 49, 50, 51, 52, 53, 54, 55, 56, 57, 58, 59, 60, 61, 62, 63, 64, 65, 66, 67, 68, 69, 70, 71, 72, 73, 74, 75, 76, 77, 78, 79, 80, 81, 82, 83, 84, 85, 86, 87, 88, 89, 90, 91, 92, 93, 94, 95, 96, 97, 98, 99, 100, 101, 102, 103, 104, 105, 106, 107, 108, 109, 110, 111, 112, 113, 114, 115, 116, 117, 118, 119, 120, 121, 122, 123, 124, 125, 126, 127, 128, 129, 130, 131, 132, 133, 134, 135, 136, 137, 138, 139, 140, 141, 142, 143, 144, 145, 146, 147, 148, 149, 150, 151, 152, 153, 154, 155, 156, 157, 158, 159, 160, 161, 162, 163, 164, 165, 166, 167, 168, 169, 170, 171, 172, 173, 174, 175, 176, 177, 178, 179, 180, 181, 182, 183, 184, 185, 186, 187, 188, 189, 190, 191, 192, 193, 194, 195, 196, 197, 198, 199, 200],
      "LargestImagePixelValue": [2125, 2125, 2128, 2128, 2125, 2124, 2127, 2127, 2130, 2137, 2129, 2132, 2126, 2127, 2128, 2130, 2127, 2128, 2130, 2129, 2130, 2132, 2133, 2131, 2133, 2130, 2130, 2130, 2133, 2133, 2131, 2131, 2130, 2129, 2131, 2125, 2128, 2128, 2132, 2124, 2133, 2128, 2127, 2125, 2132, 2127, 2126, 2130, 2132, 2131, 2132, 2133, 2133, 2134, 2137, 2134, 2131, 2130, 2131, 2134, 2126, 2128, 2126, 2130, 2126, 2125, 2133, 2132, 2134, 2129, 2140, 2130, 2134, 2124, 2133, 2130, 2129, 2127, 2126, 2130, 2132, 2131, 2135, 2131, 2129, 2132, 2131, 2128, 2135, 2132, 2126, 2127, 2131, 2134, 2131, 2132, 2127, 2130, 2129, 2127, 2128, 2130, 2131, 2134, 2133, 2132, 2137, 2135, 2126, 2131, 2135, 2131, 2130, 2130, 2134, 2132, 2130, 2130, 2131, 2129, 2126, 2126, 2131, 2132, 2130, 2133, 2133, 2131, 2134, 2129, 2132, 2130, 2131, 2135, 2129, 2132, 2134, 2135, 2135, 2135, 2129, 2131, 2133, 2133, 2130, 2131, 2132, 2131, 2134, 2132, 2127, 2132, 2126, 2128, 2132, 2131, 2131, 2133, 2133, 2127, 2132, 2132, 2129, 2130, 2133, 2131, 2128, 2130, 2130, 2133, 2128, 2129, 2132, 2130, 2127, 2134, 2129, 2130, 2126, 2126, 2129, 2127, 2131, 2133, 2127, 2128, 2131, 2127, 2129, 2135, 2132, 2130, 2129, 2131, 2129, 2129, 2133, 2132, 2131, 2131],
      "WindowCenter": [933.0, 933.0, 933.0, 933.0, 933.0, 933.0, 935.0, 933.0, 933.0, 933.0, 934.0, 934.0, 934.0, 934.0, 934.0, 933.0, 933.0, 934.0, 933.0, 934.0, 933.0, 933.0, 933.0, 933.0, 933.0, 933.0, 933.0, 933.0, 935.0, 933.0, 935.0, 933.0, 933.0, 933.0, 935.0, 934.0, 934.0, 934.0, 933.0, 934.0, 933.0, 934.0, 934.0, 934.0, 936.0, 934.0, 934.0, 934.0, 934.0, 934.0, 934.0, 934.0, 934.0, 934.0, 934.0, 934.0, 934.0, 934.0, 935.0, 934.0, 936.0, 934.0, 934.0, 934.0, 934.0, 934.0, 934.0, 934.0, 934.0, 934.0, 934.0, 934.0, 934.0, 934.0, 934.0, 934.0, 935.0, 934.0, 934.0, 934.0, 934.0, 934.0, 934.0, 934.0, 934.0, 934.0, 934.0, 934.0, 934.0, 934.0, 934.0, 934.0, 934.0, 934.0, 934.0, 934.0, 934.0, 934.0, 934.0, 934.0, 934.0, 934.0, 934.0, 934.0, 934.0, 934.0, 935.0, 934.0, 934.0, 934.0, 934.0, 934.0, 934.0, 934.0, 934.0, 934.0, 934.0, 934.0, 935.0, 935.0, 934.0, 934.0, 934.0, 934.0, 934.0, 935.0, 937.0, 933.0, 936.0, 933.0, 933.0, 933.0, 933.0, 935.0, 933.0, 933.0, 936.0, 933.0, 936.0, 933.0, 933.0, 933.0, 933.0, 933.0, 933.0, 933.0, 933.0, 935.0, 933.0, 933.0, 934.0, 935.0, 933.0, 935.0, 933.0, 933.0, 933.0, 935.0, 935.0, 933.0, 933.0, 935.0, 933.0, 933.0, 934.0, 933.0, 934.0, 933.0, 933.0, 933.0, 933.0, 937.0, 934.0, 935.0, 933.0, 935.0, 937.0, 933.0, 933.0, 934.0, 933.0, 934.0, 934.0, 935.0, 933.0, 933.0, 933.0, 934.0, 933.0, 935.0, 933.0, 933.0, 933.0, 933.0, 933.0, 933.0, 933.0, 934.0, 935.0, 933.0],
      "WindowWidth": [2137.0, 2137.0, 2137.0, 2138.0, 2138.0, 2137.0, 2139.0, 2138.0, 2138.0, 2138.0, 2138.0, 2138.0, 2138.0, 2137.0, 2138.0, 2138.0, 2137.0, 2137.0, 2138.0, 2137.0, 2138.0, 2138.0, 2138.0, 2138.0, 2138.0, 2138.0, 2138.0, 2138.0, 2139.0, 2138.0, 2139.0, 2138.0, 2138.0, 2138.0, 2139.0, 2138.0, 2138.0, 2137.0, 2138.0, 2137.0, 2138.0, 2138.0, 2138.0, 2138.0, 2140.0, 2137.0, 2138.0, 2138.0, 2137.0, 2138.0, 2138.0, 2138.0, 2138.0, 2138.0, 2138.0, 2138.0, 2138.0, 2138.0, 2139.0, 2138.0, 2140.0, 2138.0, 2138.0, 2138.0, 2137.0, 2138.0, 2138.0, 2138.0, 2138.0, 2138.0, 2138.0, 2138.0, 2138.0, 2138.0, 2138.0, 2138.0, 2139.0, 2138.0, 2138.0, 2138.0, 2138.0, 2138.0, 2138.0, 2138.0, 2138.0, 2138.0, 2138.0, 2138.0, 2138.0, 2138.0, 2138.0, 2138.0, 2138.0, 2138.0, 2138.0, 2139.0, 2138.0, 2138.0, 2138.0, 2138.0, 2138.0, 2138.0, 2138.0, 2138.0, 2138.0, 2138.0, 2140.0, 2138.0, 2138.0, 2137.0, 2138.0, 2138.0, 2138.0, 2138.0, 2138.0, 2138.0, 2138.0, 2138.0, 2140.0, 2139.0, 2138.0, 2138.0, 2138.0, 2138.0, 2138.0, 2139.0, 2140.0, 2137.0, 2140.0, 2137.0, 2137.0, 2137.0, 2137.0, 2139.0, 2137.0, 2137.0, 2139.0, 2137.0, 2139.0, 2137.0, 2137.0, 2137.0, 2137.0, 2137.0, 2137.0, 2137.0, 2137.0, 2139.0, 2137.0, 2137.0, 2137.0, 2138.0, 2137.0, 2138.0, 2137.0, 2137.0, 2138.0, 2139.0, 2139.0, 2137.0, 2137.0, 2139.0, 2137.0, 2137.0, 2137.0, 2137.0, 2137.0, 2137.0, 2137.0, 2137.0, 2137.0, 2140.0, 2137.0, 2139.0, 2137.0, 2139.0, 2140.0, 2138.0, 2137.0, 2137.0, 2137.0, 2137.0, 2137.0, 2139.0, 2137.0, 2137.0, 2137.0, 2136.0, 2137.0, 2139.0, 2137.0, 2137.0, 2137.0, 2137.0, 2137.0, 2137.0, 2137.0, 2137.0, 2139.0, 2137.0]
    },
    "slices": {}
  }
}