{
  "AcquisitionMatrixPE": 122,
  "AcquisitionNumber": 1,
  "AcquisitionTime": "11:55:25.465000",
  "BandwidthPerPixelPhaseEncode": 27.785,
  "BaseResolution": 122,
  "BodyPartExamined": "BRAIN",
  "CoilCombinationMethod": "Adaptive Combine",
  "ConsistencyInfo": "N4_VE11C_LATEST_20160120",
  "ConversionSoftware": "dcm2niix",
  "ConversionSoftwareVersion": "v1.0.20220720",
  "DerivedVendorReportedEchoSpacing": 0.000590011,
  "DeviceSerialNumber": "66112",
  "DiffusionScheme": "Monopolar",
  "DwellTime": 2e-06,
  "EchoTime": 0.068,
  "EchoTrainLength": 61,
  "EffectiveEchoSpacing": 0.000295005,
  "FlipAngle": 90,
  "HeudiconvVersion": "0.13.1",
  "ImageOrientationPatientDICOM": [0.986548, 0.163228, 0.00893029, -0.158019, 0.938225, 0.307837],
  "ImageOrientationText": "Tra>Cor(17.8)>Sag(-2.4)",
  "ImageType": [
    "ORIGINAL",
    "PRIMARY",
    "DIFFUSION",
    "NONE",
    "ND",
    "NORM"
],
  "ImagingFrequency": 123.252,
  "InPlanePhaseEncodingDirectionDICOM": "COL",
  "InstitutionAddress": "Maynard 3,Hanover,NH,US,03755",
  "InstitutionName": "Dartmouth College - PBS",
  "InstitutionalDepartmentName": "Department",
  "MRAcquisitionType": "2D",
  "MagneticFieldStrength": 3,
  "Manufacturer": "Siemens",
  "ManufacturersModelName": "Prisma",
  "Modality": "MR",
  "MultibandAccelerationFactor": 4,
  "NonlinearGradientCorrection": false,
  "ParallelReductionFactorInPlane": 2,
  "PartialFourier": 1,
  "PatientPosition": "HFS",
  "PercentPhaseFOV": 100,
  "PercentSampling": 100,
  "PhaseEncodingDirection": "j-",
  "PhaseEncodingSteps": 122,
  "PhaseResolution": 1,
  "PixelBandwidth": 2050,
  "ProcedureStepDescription": "dbic^QA",
  "ProtocolName": "dwi_acq-DTI-30-p2-s4",
  "PulseSequenceDetails": "%SiemensSeq%\\ep2d_diff",
  "ReceiveCoilActiveElements": "HEA;HEP",
  "ReceiveCoilName": "Head_32",
  "ReconMatrixPE": 122,
  "RefLinesPE": 38,
  "RepetitionTime": 3.6,
  "SAR": 0.16182,
  "ScanOptions": "FS",
  "ScanningSequence": "EP",
  "SequenceName": "*ep_b0",
  "SequenceVariant": "SK\\SP",
  "SeriesDescription": "dwi_acq-DTI-30-p2-s4",
  "SeriesNumber": 13,
  "ShimSetting": [4142, -7701, -7508, 264, -89, -79, -33, 61],
  "SliceThickness": 2,
  "SliceTiming": [2.59375, 0, 1.78906, 0.20312, 1.99219, 0.39844, 2.1875, 0.60156, 2.39062, 1, 2.78906, 1.19531, 2.98438, 1.39844, 3.1875, 1.59375, 3.38281, 0.79688, 2.59375, 0, 1.78906, 0.20312, 1.99219, 0.39844, 2.1875, 0.60156, 2.39062, 1, 2.78906, 1.19531, 2.98438, 1.39844, 3.1875, 1.59375, 3.38281, 0.79688, 2.59375, 0, 1.78906, 0.20312, 1.99219, 0.39844, 2.1875, 0.60156, 2.39062, 1, 2.78906, 1.19531, 2.98438, 1.39844, 3.1875, 1.59375, 3.38281, 0.79688, 2.59375, 0, 1.78906, 0.20312, 1.99219, 0.39844, 2.1875, 0.60156, 2.39062, 1, 2.78906, 1.19531, 2.98438, 1.39844, 3.1875, 1.59375, 3.38281, 0.79688],
  "SoftwareVersions": "syngo MR E11",
  "SpacingBetweenSlices": 2,
  "SpoilingState": true,
  "StationName": "AWP66112",
  "TotalReadoutTime": 0.0356956,
  "TxRefAmp": 227.741,
  "dcmmeta_affine": [
    [-1.9407501220703125, -0.310857892036438, -0.08373796939849854, 141.81179809570312],
    [-0.32110437750816345, 1.845688819885254, 0.6102142333984375, -105.51750183105469],
    [0.01756778359413147, -0.6055804491043091, 1.9027938842773438, -23.99230194091797],
    [0.0, 0.0, 0.0, 1.0]
],
  "dcmmeta_reorient_transform": [
    [0.0, -1.0, 0.0, 121.0],
    [1.0, 0.0, 0.0, 0.0],
    [0.0, 0.0, -1.0, 71.0],
    [0.0, 0.0, 0.0, 1.0]
],
  "dcmmeta_shape": [122, 122, 72, 31],
  "dcmmeta_slice_dim": 2,
  "dcmmeta_version": 0.6,
  "global": {
    "const": {
      "AccessionNumber": "qa",
      "AcquisitionMatrix": [122, 0, 0, 122],
      "AngioFlag": "N",
      "BitsAllocated": 16,
      "BitsStored": 12,
      "BodyPartExamined": "BRAIN",
      "Columns": 122,
      "EchoNumbers": 1,
      "EchoTime": 68.0,
      "EchoTrainLength": 61,
      "FlipAngle": 90.0,
      "HighBit": 11,
      "ImageOrientationPatient": [0.98654794641629, 0.16322805930308, 0.00893028991374, -0.1580194258279, 0.93822514054839, 0.30783672085051],
      "ImageType": [
        "ORIGINAL",
        "PRIMARY",
        "DIFFUSION",
        "NONE",
        "ND",
        "NORM"
],
      "ImagedNucleus": "1H",
      "ImagingFrequency": 123.252376,
      "InPlanePhaseEncodingDirection": "COL",
      "MRAcquisitionType": "2D",
      "MagneticFieldStrength": 3.0,
      "Manufacturer": "SIEMENS",
      "ManufacturerModelName": "Prisma",
      "Modality": "MR",
      "NumberOfAverages": 1.0,
      "NumberOfPhaseEncodingSteps": 122,
      "PercentPhaseFieldOfView": 100.0,
      "PercentSampling": 100.0,
      "PerformedProcedureStepStartTime": "112154.832000",
      "PhotometricInterpretation": "MONOCHROME2",
      "PixelBandwidth": 2050.0,
      "PixelRepresentation": 0,
      "PixelSpacing": [1.9672131538391, 1.9672131538391],
      "ProtocolName": "dwi_acq-DTI-30-p2-s4",
      "RepetitionTime": 3600.0,
      "Rows": 122,
      "SAR": 0.1618195624526,
      "SamplesPerPixel": 1,
      "ScanOptions": "FS",
      "ScanningSequence": "EP",
      "SequenceVariant": [
        "SK",
        "SP"
],
      "SeriesDescription": "dwi_acq-DTI-30-p2-s4",
      "SeriesNumber": 13,
      "SeriesTime": "115534.666000",
      "SliceThickness": 2.0,
      "SmallestImagePixelValue": 0,
      "SoftwareVersions": "syngo MR E11",
      "SpacingBetweenSlices": 2.0,
      "SpecificCharacterSet": "ISO_IR 100",
      "StudyID": "5",
      "StudyTime": "112154.785000",
      "TransmitCoilName": "Body",
      "VariableFlipAngleFlag": "N",
      "WindowCenterWidthExplanation": "Algo1",
      "dBdt": 0.0},
    "slices": {
      "AcquisitionTime": ["115525.465000", "115522.877500", "115524.667500", "115523.077500", "115524.867500", "115523.275000", "115525.065000", "115523.475000", "115525.265000", "115523.872500", "115525.662500", "115524.072500", "115525.862500", "115524.270000", "115526.060000", "115524.470000", "115526.260000", "115523.675000", "115525.465000", "115522.877500", "115524.667500", "115523.077500", "115524.867500", "115523.275000", "115525.065000", "115523.475000", "115525.265000", "115523.872500", "115525.662500", "115524.072500", "115525.862500", "115524.270000", "115526.060000", "115524.470000", "115526.260000", "115523.675000", "115525.465000", "115522.877500", "115524.667500", "115523.077500", "115524.867500", "115523.275000", "115525.065000", "115523.475000", "115525.265000", "115523.872500", "115525.662500", "115524.072500", "115525.862500", "115524.270000", "115526.060000", "115524.470000", "115526.260000", "115523.675000", "115525.465000", "115522.877500", "115524.667500", "115523.077500", "115524.867500", "115523.275000", "115525.065000", "115523.475000", "115525.265000", "115523.872500", "115525.662500", "115524.072500", "115525.862500", "115524.270000", "115526.060000", "115524.470000", "115526.260000", "115523.675000", "115529.065000", "115526.477500", "115528.267500", "115526.677500", "115528.467500", "115526.875000", "115528.665000", "115527.075000", "115528.865000", "115527.472500", "115529.262500", "115527.672500", "115529.462500", "115527.870000", "115529.660000", "115528.070000", "115529.860000", "115527.275000", "115529.065000", "115526.477500", "115528.267500", "115526.677500", "115528.467500", "115526.875000", "115528.665000", "115527.075000", "115528.865000", "115527.472500", "115529.262500", "115527.672500", "115529.462500", "115527.870000", "115529.660000", "115528.070000", "115529.860000", "115527.275000", "115529.065000", "115526.477500", "115528.267500", "115526.677500", "115528.467500", "115526.875000", "115528.665000", "115527.075000", "115528.865000", "115527.472500", "115529.262500", "115527.672500", "115529.462500", "115527.870000", "115529.660000", "115528.070000", "115529.860000", "115527.275000", "115529.065000", "115526.477500", "115528.267500", "115526.677500", "115528.467500", "115526.875000", "115528.665000", "115527.075000", "115528.865000", "115527.472500", "115529.262500", "115527.672500", "115529.462500", "115527.870000", "115529.660000", "115528.070000", "115529.860000", "115527.275000", "115532.665000", "115530.077500", "115531.867500", "115530.277500", "115532.067500", "115530.475000", "115532.265000", "115530.675000", "115532.465000", "115531.072500", "115532.862500", "115531.272500", "115533.062500", "115531.470000", "115533.260000", "115531.670000", "115533.460000", "115530.875000", "115532.665000", "115530.077500", "115531.867500", "115530.277500", "115532.067500", "115530.475000", "115532.265000", "115530.675000", "115532.465000", "115531.072500", "115532.862500", "115531.272500", "115533.062500", "115531.470000", "115533.260000", "115531.670000", "115533.460000", "115530.875000", "115532.665000", "115530.077500", "115531.867500", "115530.277500", "115532.067500", "115530.475000", "115532.265000", "115530.675000", "115532.465000", "115531.072500", "115532.862500", "115531.272500", "115533.062500", "115531.470000", "115533.260000", "115531.670000", "115533.460000", "115530.875000", "115532.665000", "115530.077500", "115531.867500", "115530.277500", "115532.067500", "115530.475000", "115532.265000", "115530.675000", "115532.465000", "115531.072500", "115532.862500", "115531.272500", "115533.062500", "115531.470000", "115533.260000", "115531.670000", "115533.460000", "115530.875000", "115536.265000", "115533.677500", "115535.467500", "115533.877500", "115535.667500", "115534.075000", "115535.865000", "115534.275000", "115536.065000", "115534.672500", "115536.462500", "115534.872500", "115536.662500", "115535.070000", "115536.860000", "115535.270000", "115537.060000", "115534.475000", "115536.265000", "115533.677500", "115535.467500", "115533.877500", "115535.667500", "115534.075000", "115535.865000", "115534.275000", "115536.065000", "115534.672500", "115536.462500", "115534.872500", "115536.662500", "115535.070000", "115536.860000", "115535.270000", "115537.060000", "115534.475000", "115536.265000", "115533.677500", "115535.467500", "115533.877500", "115535.667500", "115534.075000", "115535.865000", "115534.275000", "115536.065000", "115534.672500", "115536.462500", "115534.872500", "115536.662500", "115535.070000", "115536.860000", "115535.270000", "115537.060000", "115534.475000", "115536.265000", "115533.677500", "115535.467500", "115533.877500", "115535.667500", "115534.075000", "115535.865000", "115534.275000", "115536.065000", "115534.672500", "115536.462500", "115534.872500", "115536.662500", "115535.070000", "115536.860000", "115535.270000", "115537.060000", "115534.475000", "115539.865000", "115537.277500", "115539.067500", "115537.477500", "115539.267500", "115537.675000", "115539.465000", "115537.875000", "115539.665000", "115538.272500", "115540.062500", "115538.472500", "115540.262500", "115538.670000", "115540.460000", "115538.870000", "115540.660000", "115538.075000", "115539.865000", "115537.277500", "115539.067500", "115537.477500", "115539.267500", "115537.675000", "115539.465000", "115537.875000", "115539.665000", "115538.272500", "115540.062500", "115538.472500", "115540.262500", "115538.670000", "115540.460000", "115538.870000", "115540.660000", "115538.075000", "115539.865000", "115537.277500", "115539.067500", "115537.477500", "115539.267500", "115537.675000", "115539.465000", "115537.875000", "115539.665000", "115538.272500", "115540.062500", "115538.472500", "115540.262500", "115538.670000", "115540.460000", "115538.870000", "115540.660000", "115538.075000", "115539.865000", "115537.277500", "115539.067500", "115537.477500", "115539.267500", "115537.675000", "115539.465000", "115537.875000", "115539.665000", "115538.272500", "115540.062500", "115538.472500", "115540.262500", "115538.670000", "115540.460000", "115538.870000", "115540.660000", "115538.075000", "115543.465000", "115540.877500", "115542.667500", "115541.077500", "115542.867500", "115541.275000", "115543.065000", "115541.475000", "115543.265000", "115541.872500", "115543.662500", "115542.072500", "115543.862500", "115542.270000", "115544.060000", "115542.470000", "115544.260000", "115541.675000", "115543.465000", "115540.877500", "115542.667500", "115541.077500", "115542.867500", "115541.275000", "115543.065000", "115541.475000", "115543.265000", "115541.872500", "115543.662500", "115542.072500", "115543.862500", "115542.270000", "115544.060000", "115542.470000", "115544.260000", "115541.675000", "115543.465000", "115540.877500", "115542.667500", "115541.077500", "115542.867500", "115541.275000", "115543.065000", "115541.475000", "115543.265000", "115541.872500", "115543.662500", "115542.072500", "115543.862500", "115542.270000", "115544.060000", "115542.470000", "115544.260000", "115541.675000", "115543.465000", "115540.877500", "115542.667500", "115541.077500", "115542.867500", "115541.275000", "115543.065000", "115541.475000", "115543.265000", "115541.872500", "115543.662500", "115542.072500", "115543.862500", "115542.270000", "115544.060000", "115542.470000", "115544.260000", "115541.675000", "115547.065000", "115544.477500", "115546.267500", "115544.677500", "115546.467500", "115544.875000", "115546.665000", "115545.075000", "115546.865000", "115545.472500", "115547.262500", "115545.672500", "115547.462500", "115545.870000", "115547.660000", "115546.070000", "115547.860000", "115545.275000", "115547.065000", "115544.477500", "115546.267500", "115544.677500", "115546.467500", "115544.875000", "115546.665000", "115545.075000", "115546.865000", "115545.472500", "115547.262500", "115545.672500", "115547.462500", "115545.870000", "115547.660000", "115546.070000", "115547.860000", "115545.275000", "115547.065000", "115544.477500", "115546.267500", "115544.677500", "115546.467500", "115544.875000", "115546.665000", "115545.075000", "115546.865000", "115545.472500", "115547.262500", "115545.672500", "115547.462500", "115545.870000", "115547.660000", "115546.070000", "115547.860000", "115545.275000", "115547.065000", "115544.477500", "115546.267500", "115544.677500", "115546.467500", "115544.875000", "115546.665000", "115545.075000", "115546.865000", "115545.472500", "115547.262500", "115545.672500", "115547.462500", "115545.870000", "115547.660000", "115546.070000", "115547.860000", "115545.275000", "115550.665000", "115548.077500", "115549.867500", "115548.277500", "115550.067500", "115548.475000", "115550.265000", "115548.675000", "115550.465000", "115549.072500", "115550.862500", "115549.272500", "115551.062500", "115549.470000", "115551.260000", "115549.670000", "115551.460000", "115548.875000", "115550.665000", "115548.077500", "115549.867500", "115548.277500", "115550.067500", "115548.475000", "115550.265000", "115548.675000", "115550.465000", "115549.072500", "115550.862500", "115549.272500", "115551.062500", "115549.470000", "115551.260000", "115549.670000", "115551.460000", "115548.875000", "115550.665000", "115548.077500", "115549.867500", "115548.277500", "115550.067500", "115548.475000", "115550.265000", "115548.675000", "115550.465000", "115549.072500", "115550.862500", "115549.272500", "115551.062500", "115549.470000", "115551.260000", "115549.670000", "115551.460000", "115548.875000", "115550.665000", "115548.077500", "115549.867500", "115548.277500", "115550.067500", "115548.475000", "115550.265000", "115548.675000", "115550.465000", "115549.072500", "115550.862500", "115549.272500", "115551.062500", "115549.470000", "115551.260000", "115549.670000", "115551.460000", "115548.875000", "115554.265000", "115551.677500", "115553.467500", "115551.877500", "115553.667500", "115552.075000", "115553.865000", "115552.275000", "115554.065000", "115552.672500", "115554.462500", "115552.872500", "115554.662500", "115553.070000", "115554.860000", "115553.270000", "115555.060000", "115552.475000", "115554.265000", "115551.677500", "115553.467500", "115551.877500", "115553.667500", "115552.075000", "115553.865000", "115552.275000", "115554.065000", "115552.672500", "115554.462500", "115552.872500", "115554.662500", "115553.070000", "115554.860000", "115553.270000", "115555.060000", "115552.475000", "115554.265000", "115551.677500", "115553.467500", "115551.877500", "115553.667500", "115552.075000", "115553.865000", "115552.275000", "115554.065000", "115552.672500", "115554.462500", "115552.872500", "115554.662500", "115553.070000", "115554.860000", "115553.270000", "115555.060000", "115552.475000", "115554.265000", "115551.677500", "115553.467500", "115551.877500", "115553.667500", "115552.075000", "115553.865000", "115552.275000", "115554.065000", "115552.672500", "115554.462500", "115552.872500", "115554.662500", "115553.070000", "115554.860000", "115553.270000", "115555.060000", "115552.475000", "115557.865000", "115555.277500", "115557.067500", "115555.477500", "115557.267500", "115555.675000", "115557.465000", "115555.875000", "115557.665000", "115556.272500", "115558.062500", "115556.472500", "115558.262500", "115556.670000", "115558.460000", "115556.870000", "115558.660000", "115556.075000", "115557.865000", "115555.277500", "115557.067500", "115555.477500", "115557.267500", "115555.675000", "115557.465000", "115555.875000", "115557.665000", "115556.272500", "115558.062500", "115556.472500", "115558.262500", "115556.670000", "115558.460000", "115556.870000", "115558.660000", "115556.075000", "115557.865000", "115555.277500", "115557.067500", "115555.477500", "115557.267500", "115555.675000", "115557.465000", "115555.875000", "115557.665000", "115556.272500", "115558.062500", "115556.472500", "115558.262500", "115556.670000", "115558.460000", "115556.870000", "115558.660000", "115556.075000", "115557.865000", "115555.277500", "115557.067500", "115555.477500", "115557.267500", "115555.675000", "115557.465000", "115555.875000", "115557.665000", "115556.272500", "115558.062500", "115556.472500", "115558.262500", "115556.670000", "115558.460000", "115556.870000", "115558.660000", "115556.075000", "115601.465000", "115558.877500", "115600.667500", "115559.077500", "115600.867500", "115559.275000", "115601.065000", "115559.475000", "115601.265000", "115559.872500", "115601.662500", "115600.072500", "115601.862500", "115600.270000", "115602.060000", "115600.470000", "115602.260000", "115559.675000", "115601.465000", "115558.877500", "115600.667500", "115559.077500", "115600.867500", "115559.275000", "115601.065000", "115559.475000", "115601.265000", "115559.872500", "115601.662500", "115600.072500", "115601.862500", "115600.270000", "115602.060000", "115600.470000", "115602.260000", "115559.675000", "115601.465000", "115558.877500", "115600.667500", "115559.077500", "115600.867500", "115559.275000", "115601.065000", "115559.475000", "115601.265000", "115559.872500", "115601.662500", "115600.072500", "115601.862500", "115600.270000", "115602.060000", "115600.470000", "115602.260000", "115559.675000", "115601.465000", "115558.877500", "115600.667500", "115559.077500", "115600.867500", "115559.275000", "115601.065000", "115559.475000", "115601.265000", "115559.872500", "115601.662500", "115600.072500", "115601.862500", "115600.270000", "115602.060000", "115600.470000", "115602.260000", "115559.675000", "115605.065000", "115602.477500", "115604.267500", "115602.677500", "115604.467500", "115602.875000", "115604.665000", "115603.075000", "115604.865000", "115603.472500", "115605.262500", "115603.672500", "115605.462500", "115603.870000", "115605.660000", "115604.070000", "115605.860000", "115603.275000", "115605.065000", "115602.477500", "115604.267500", "115602.677500", "115604.467500", "115602.875000", "115604.665000", "115603.075000", "115604.865000", "115603.472500", "115605.262500", "115603.672500", "115605.462500", "115603.870000", "115605.660000", "115604.070000", "115605.860000", "115603.275000", "115605.065000", "115602.477500", "115604.267500", "115602.677500", "115604.467500", "115602.875000", "115604.665000", "115603.075000", "115604.865000", "115603.472500", "115605.262500", "115603.672500", "115605.462500", "115603.870000", "115605.660000", "115604.070000", "115605.860000", "115603.275000", "115605.065000", "115602.477500", "115604.267500", "115602.677500", "115604.467500", "115602.875000", "115604.665000", "115603.075000", "115604.865000", "115603.472500", "115605.262500", "115603.672500", "115605.462500", "115603.870000", "115605.660000", "115604.070000", "115605.860000", "115603.275000", "115608.665000", "115606.077500", "115607.867500", "115606.277500", "115608.067500", "115606.475000", "115608.265000", "115606.675000", "115608.465000", "115607.072500", "115608.862500", "115607.272500", "115609.062500", "115607.470000", "115609.260000", "115607.670000", "115609.460000", "115606.875000", "115608.665000", "115606.077500", "115607.867500", "115606.277500", "115608.067500", "115606.475000", "115608.265000", "115606.675000", "115608.465000", "115607.072500", "115608.862500", "115607.272500", "115609.062500", "115607.470000", "115609.260000", "115607.670000", "115609.460000", "115606.875000", "115608.665000", "115606.077500", "115607.867500", "115606.277500", "115608.067500", "115606.475000", "115608.265000", "115606.675000", "115608.465000", "115607.072500", "115608.862500", "115607.272500", "115609.062500", "115607.470000", "115609.260000", "115607.670000", "115609.460000", "115606.875000", "115608.665000", "115606.077500", "115607.867500", "115606.277500", "115608.067500", "115606.475000", "115608.265000", "115606.675000", "115608.465000", "115607.072500", "115608.862500", "115607.272500", "115609.062500", "115607.470000", "115609.260000", "115607.670000", "115609.460000", "115606.875000", "115612.265000", "115609.677500", "115611.467500", "115609.877500", "115611.667500", "115610.075000", "115611.865000", "115610.275000", "115612.065000", "115610.672500", "115612.462500", "115610.872500", "115612.662500", "115611.070000", "115612.860000", "115611.270000", "115613.060000", "115610.475000", "115612.265000", "115609.677500", "115611.467500", "115609.877500", "115611.667500", "115610.075000", "115611.865000", "115610.275000", "115612.065000", "115610.672500", "115612.462500", "115610.872500", "115612.662500", "115611.070000", "115612.860000", "115611.270000", "115613.060000", "115610.475000", "115612.265000", "115609.677500", "115611.467500", "115609.877500", "115611.667500", "115610.075000", "115611.865000", "115610.275000", "115612.065000", "115610.672500", "115612.462500", "115610.872500", "115612.662500", "115611.070000", "115612.860000", "115611.270000", "115613.060000", "115610.475000", "115612.265000", "115609.677500", "115611.467500", "115609.877500", "115611.667500", "115610.075000", "115611.865000", "115610.275000", "115612.065000", "115610.672500", "115612.462500", "115610.872500", "115612.662500", "115611.070000", "115612.860000", "115611.270000", "115613.060000", "115610.475000", "115615.865000", "115613.277500", "115615.067500", "115613.477500", "115615.267500", "115613.675000", "115615.465000", "115613.875000", "115615.665000", "115614.272500", "115616.062500", "115614.472500", "115616.262500", "115614.670000", "115616.460000", "115614.870000", "115616.660000", "115614.075000", "115615.865000", "115613.277500", "115615.067500", "115613.477500", "115615.267500", "115613.675000", "115615.465000", "115613.875000", "115615.665000", "115614.272500", "115616.062500", "115614.472500", "115616.262500", "115614.670000", "115616.460000", "115614.870000", "115616.660000", "115614.075000", "115615.865000", "115613.277500", "115615.067500", "115613.477500", "115615.267500", "115613.675000", "115615.465000", "115613.875000", "115615.665000", "115614.272500", "115616.062500", "115614.472500", "115616.262500", "115614.670000", "115616.460000", "115614.870000", "115616.660000", "115614.075000", "115615.865000", "115613.277500", "115615.067500", "115613.477500", "115615.267500", "115613.675000", "115615.465000", "115613.875000", "115615.665000", "115614.272500", "115616.062500", "115614.472500", "115616.262500", "115614.670000", "115616.460000", "115614.870000", "115616.660000", "115614.075000", "115619.465000", "115616.877500", "115618.667500", "115617.077500", "115618.867500", "115617.275000", "115619.065000", "115617.475000", "115619.265000", "115617.872500", "115619.662500", "115618.072500", "115619.862500", "115618.270000", "115620.060000", "115618.470000", "115620.260000", "115617.675000", "115619.465000", "115616.877500", "115618.667500", "115617.077500", "115618.867500", "115617.275000", "115619.065000", "115617.475000", "115619.265000", "115617.872500", "115619.662500", "115618.072500", "115619.862500", "115618.270000", "115620.060000", "115618.470000", "115620.260000", "115617.675000", "115619.465000", "115616.877500", "115618.667500", "115617.077500", "115618.867500", "115617.275000", "115619.065000", "115617.475000", "115619.265000", "115617.872500", "115619.662500", "115618.072500", "115619.862500", "115618.270000", "115620.060000", "115618.470000", "115620.260000", "115617.675000", "115619.465000", "115616.877500", "115618.667500", "115617.077500", "115618.867500", "115617.275000", "115619.065000", "115617.475000", "115619.265000", "115617.872500", "115619.662500", "115618.072500", "115619.862500", "115618.270000", "115620.060000", "115618.470000", "115620.260000", "115617.675000", "115623.065000", "115620.477500", "115622.267500", "115620.677500", "115622.467500", "115620.875000", "115622.665000", "115621.075000", "115622.865000", "115621.472500", "115623.262500", "115621.672500", "115623.462500", "115621.870000", "115623.660000", "115622.070000", "115623.860000", "115621.275000", "115623.065000", "115620.477500", "115622.267500", "115620.677500", "115622.467500", "115620.875000", "115622.665000", "115621.075000", "115622.865000", "115621.472500", "115623.262500", "115621.672500", "115623.462500", "115621.870000", "115623.660000", "115622.070000", "115623.860000", "115621.275000", "115623.065000", "115620.477500", "115622.267500", "115620.677500", "115622.467500", "115620.875000", "115622.665000", "115621.075000", "115622.865000", "115621.472500", "115623.262500", "115621.672500", "115623.462500", "115621.870000", "115623.660000", "115622.070000", "115623.860000", "115621.275000", "115623.065000", "115620.477500", "115622.267500", "115620.677500", "115622.467500", "115620.875000", "115622.665000", "115621.075000", "115622.865000", "115621.472500", "115623.262500", "115621.672500", "115623.462500", "115621.870000", "115623.660000", "115622.070000", "115623.860000", "115621.275000", "115626.665000", "115624.077500", "115625.867500", "115624.277500", "115626.067500", "115624.475000", "115626.265000", "115624.675000", "115626.465000", "115625.072500", "115626.862500", "115625.272500", "115627.062500", "115625.470000", "115627.260000", "115625.670000", "115627.460000", "115624.875000", "115626.665000", "115624.077500", "115625.867500", "115624.277500", "115626.067500", "115624.475000", "115626.265000", "115624.675000", "115626.465000", "115625.072500", "115626.862500", "115625.272500", "115627.062500", "115625.470000", "115627.260000", "115625.670000", "115627.460000", "115624.875000", "115626.665000", "115624.077500", "115625.867500", "115624.277500", "115626.067500", "115624.475000", "115626.265000", "115624.675000", "115626.465000", "115625.072500", "115626.862500", "115625.272500", "115627.062500", "115625.470000", "115627.260000", "115625.670000", "115627.460000", "115624.875000", "115626.665000", "115624.077500", "115625.867500", "115624.277500", "115626.067500", "115624.475000", "115626.265000", "115624.675000", "115626.465000", "115625.072500", "115626.862500", "115625.272500", "115627.062500", "115625.470000", "115627.260000", "115625.670000", "115627.460000", "115624.875000", "115630.265000", "115627.677500", "115629.467500", "115627.877500", "115629.667500", "115628.075000", "115629.865000", "115628.275000", "115630.065000", "115628.672500", "115630.462500", "115628.872500", "115630.662500", "115629.070000", "115630.860000", "115629.270000", "115631.060000", "115628.475000", "115630.265000", "115627.677500", "115629.467500", "115627.877500", "115629.667500", "115628.075000", "115629.865000", "115628.275000", "115630.065000", "115628.672500", "115630.462500", "115628.872500", "115630.662500", "115629.070000", "115630.860000", "115629.270000", "115631.060000", "115628.475000", "115630.265000", "115627.677500", "115629.467500", "115627.877500", "115629.667500", "115628.075000", "115629.865000", "115628.275000", "115630.065000", "115628.672500", "115630.462500", "115628.872500", "115630.662500", "115629.070000", "115630.860000", "115629.270000", "115631.060000", "115628.475000", "115630.265000", "115627.677500", "115629.467500", "115627.877500", "115629.667500", "115628.075000", "115629.865000", "115628.275000", "115630.065000", "115628.672500", "115630.462500", "115628.872500", "115630.662500", "115629.070000", "115630.860000", "115629.270000", "115631.060000", "115628.475000", "115633.865000", "115631.277500", "115633.067500", "115631.477500", "115633.267500", "115631.675000", "115633.465000", "115631.875000", "115633.665000", "115632.272500", "115634.062500", "115632.472500", "115634.262500", "115632.670000", "115634.460000", "115632.870000", "115634.660000", "115632.075000", "115633.865000", "115631.277500", "115633.067500", "115631.477500", "115633.267500", "115631.675000", "115633.465000", "115631.875000", "115633.665000", "115632.272500", "115634.062500", "115632.472500", "115634.262500", "115632.670000", "115634.460000", "115632.870000", "115634.660000", "115632.075000", "115633.865000", "115631.277500", "115633.067500", "115631.477500", "115633.267500", "115631.675000", "115633.465000", "115631.875000", "115633.665000", "115632.272500", "115634.062500", "115632.472500", "115634.262500", "115632.670000", "115634.460000", "115632.870000", "115634.660000", "115632.075000", "115633.865000", "115631.277500", "115633.067500", "115631.477500", "115633.267500", "115631.675000", "115633.465000", "115631.875000", "115633.665000", "115632.272500", "115634.062500", "115632.472500", "115634.262500"