{
  "AcquisitionMatrixPE": 122,
  "AcquisitionNumber": 1,
  "AcquisitionTime": "11:51:5.992500",
  "BandwidthPerPixelPhaseEncode": 28.76,
  "BaseResolution": 122,
  "BodyPartExamined": "BRAIN",
  "CoilCombinationMethod": "Adaptive Combine",
  "ConsistencyInfo": "N4_VE11C_LATEST_20160120",
  "ConversionSoftware": "dcm2niix",
  "ConversionSoftwareVersion": "v1.0.20220720",
  "DerivedVendorReportedEchoSpacing": 0.000570008,
  "DeviceSerialNumber": "66112",
  "DiffusionScheme": "Monopolar",
  "DwellTime": 2e-06,
  "EchoTime": 0.075,
  "EchoTrainLength": 61,
  "EffectiveEchoSpacing": 0.000285004,
  "FlipAngle": 90,
  "HeudiconvVersion": "0.13.1",
  "ImageOrientationPatientDICOM": [0.986548, 0.163228, 0.00893029, -0.158019, 0.938225, 0.307837],
  "ImageOrientationText": "Tra>Cor(17.8)>Sag(-2.4)",
  "ImageType": [
    "ORIGINAL",
    "PRIMARY",
    "DIFFUSION",
    "NONE",
    "ND",
    "NORM"
],
  "ImagingFrequency": 123.252,
  "InPlanePhaseEncodingDirectionDICOM": "COL",
  "InstitutionAddress": "Maynard 3,Hanover,NH,US,03755",
  "InstitutionName": "Dartmouth College - PBS",
  "InstitutionalDepartmentName": "Department",
  "MRAcquisitionType": "2D",
  "MagneticFieldStrength": 3,
  "Manufacturer": "Siemens",
  "ManufacturersModelName": "Prisma",
  "MatrixCoilMode": "GRAPPA",
  "Modality": "MR",
  "NonlinearGradientCorrection": false,
  "ParallelReductionFactorInPlane": 2,
  "PartialFourier": 1,
  "PatientPosition": "HFS",
  "PercentPhaseFOV": 100,
  "PercentSampling": 100,
  "PhaseEncodingDirection": "j-",
  "PhaseEncodingSteps": 122,
  "PhaseResolution": 1,
  "PixelBandwidth": 2050,
  "ProcedureStepDescription": "dbic^QA",
  "ProtocolName": "dwi_acq-DTI-30-p2",
  "PulseSequenceDetails": "%SiemensSeq%\\ep2d_diff",
  "ReceiveCoilActiveElements": "HEA;HEP",
  "ReceiveCoilName": "Head_32",
  "ReconMatrixPE": 122,
  "RefLinesPE": 38,
  "RepetitionTime": 7.7,
  "SAR": 0.101902,
  "ScanOptions": "FS",
  "ScanningSequence": "EP",
  "SequenceName": "*ep_b0",
  "SequenceVariant": "SK\\SP",
  "SeriesDescription": "dwi_acq-DTI-30-p2",
  "SeriesNumber": 12,
  "ShimSetting": [4142, -7701, -7508, 265, -89, -79, -34, 61],
  "SliceThickness": 2,
  "SliceTiming": [3.83594, 0, 3.94531, 0.10938, 4.05469, 0.21875, 4.16406, 0.32031, 4.27344, 0.4375, 4.38281, 0.54688, 4.49219, 0.65625, 4.60156, 0.76562, 4.71094, 0.875, 4.82031, 0.98438, 4.9375, 1.09375, 5.03906, 1.20312, 5.14844, 1.3125, 5.25781, 1.42188, 5.375, 1.53125, 5.48438, 1.64062, 5.59375, 1.75, 5.70312, 1.85938, 5.8125, 1.96875, 5.92188, 2.07812, 6.03125, 2.1875, 6.14062, 2.29688, 6.25, 2.40625, 6.35938, 2.51562, 6.46875, 2.625, 6.57812, 2.74219, 6.6875, 2.85156, 6.79688, 2.96094, 6.90625, 3.07031, 7.01562, 3.17969, 7.125, 3.28906, 7.23438, 3.39844, 7.34375, 3.50781, 7.45312, 3.61719, 7.5625, 3.72656],
  "SoftwareVersions": "syngo MR E11",
  "SpacingBetweenSlices": 2,
  "SpoilingState": true,
  "StationName": "AWP66112",
  "TotalReadoutTime": 0.0344855,
  "TxRefAmp": 227.741,
  "dcmmeta_affine": [
    [-1.9407501220703125, -0.310857892036438, -0.08373785018920898, 141.72804260253906],
    [-0.32110437750816345, 1.845688819885254, 0.6102142333984375, -104.90728759765625],
    [0.01756778359413147, -0.6055804491043091, 1.9027938842773438, -22.089508056640625],
    [0.0, 0.0, 0.0, 1.0]
],
  "dcmmeta_reorient_transform": [
    [0.0, -1.0, 0.0, 121.0],
    [1.0, 0.0, 0.0, 0.0],
    [0.0, 0.0, -1.0, 69.0],
    [0.0, 0.0, 0.0, 1.0]
],
  "dcmmeta_shape": [122, 122, 70, 31],
  "dcmmeta_slice_dim": 2,
  "dcmmeta_version": 0.6,
  "global": {
    "const": {
      "AccessionNumber": "qa",
      "AcquisitionMatrix": [122, 0, 0, 122],
      "AngioFlag": "N",
      "BitsAllocated": 16,
      "BitsStored": 12,
      "BodyPartExamined": "BRAIN",
      "Columns": 122,
      "EchoNumbers": 1,
      "EchoTime": 75.0,
      "EchoTrainLength": 61,
      "FlipAngle": 90.0,
      "HighBit": 11,
      "ImageOrientationPatient": [0.98654794641629, 0.16322805930308, 0.00893028991374, -0.1580194258279, 0.93822514054839, 0.30783672085051],
      "ImageType": [
        "ORIGINAL",
        "PRIMARY",
        "DIFFUSION",
        "NONE",
        "ND",
        "NORM"
],
      "ImagedNucleus": "1H",
      "ImagingFrequency": 123.252373,
      "InPlanePhaseEncodingDirection": "COL",
      "MRAcquisitionType": "2D",
      "MagneticFieldStrength": 3.0,
      "Manufacturer": "SIEMENS",
      "ManufacturerModelName": "Prisma",
      "Modality": "MR",
      "NumberOfAverages": 1.0,
      "NumberOfPhaseEncodingSteps": 122,
      "PercentPhaseFieldOfView": 100.0,
      "PercentSampling": 100.0,
      "PerformedProcedureStepStartTime": "112154.832000",
      "PhotometricInterpretation": "MONOCHROME2",
      "PixelBandwidth": 2050.0,
      "PixelRepresentation": 0,
      "PixelSpacing": [1.9672131538391, 1.9672131538391],
      "ProtocolName": "dwi_acq-DTI-30-p2",
      "RepetitionTime": 7700.0,
      "Rows": 122,
      "SAR": 0.10190247013939,
      "SamplesPerPixel": 1,
      "ScanOptions": "FS",
      "ScanningSequence": "EP",
      "SequenceVariant": [
        "SK",
        "SP"
],
      "SeriesDescription": "dwi_acq-DTI-30-p2",
      "SeriesNumber": 12,
      "SeriesTime": "115116.028000",
      "SliceThickness": 2.0,
      "SmallestImagePixelValue": 0,
      "SoftwareVersions": "syngo MR E11",
      "SpacingBetweenSlices": 2.0,
      "SpecificCharacterSet": "ISO_IR 100",
      "StudyID": "5",
      "StudyTime": "112154.785000",
      "TransmitCoilName": "Body",
      "VariableFlipAngleFlag": "N",
      "WindowCenterWidthExplanation": "Algo1",
      "dBdt": 0.0},
    "slices": {
      "AcquisitionTime": ["115105.992500", "115102.152500", "115106.102500", "115102.262500", "115106.212500", "115102.372500", "115106.320000", "115102.480000", "115106.430000", "115102.590000", "115106.540000", "115102.700000", "115106.650000", "115102.810000", "115106.760000", "115102.920000", "115106.870000", "115103.030000", "115106.980000", "115103.140000", "115107.090000", "115103.250000", "115107.197500", "115103.360000", "115107.307500", "115103.467500", "115107.417500", "115103.577500", "115107.527500", "115103.687500", "115107.637500", "115103.797500", "115107.747500", "115103.907500", "115107.857500", "115104.017500", "115107.967500", "115104.127500", "115108.077500", "115104.237500", "115108.185000", "115104.347500", "115108.295000", "115104.455000", "115108.405000", "115104.565000", "115108.515000", "115104.675000", "115108.625000", "115104.785000", "115108.735000", "115104.895000", "115108.845000", "115105.005000", "115108.955000", "115105.115000", "115109.065000", "115105.225000", "115109.172500", "115105.332500", "115109.282500", "115105.442500", "115109.392500", "115105.552500", "115109.502500", "115105.662500", "115109.612500", "115105.772500", "115109.722500", "115105.882500", "115113.692500", "115109.852500", "115113.802500", "115109.962500", "115113.912500", "115110.072500", "115114.020000", "115110.180000", "115114.130000", "115110.290000", "115114.240000", "115110.400000", "115114.350000", "115110.510000", "115114.460000", "115110.620000", "115114.570000", "115110.730000", "115114.680000", "115110.840000", "115114.790000", "115110.950000", "115114.897500", "115111.060000", "115115.007500", "115111.167500", "115115.117500", "115111.277500", "115115.227500", "115111.387500", "115115.337500", "115111.497500", "115115.447500", "115111.607500", "115115.557500", "115111.717500", "115115.667500", "115111.827500", "115115.777500", "115111.937500", "115115.885000", "115112.047500", "115115.995000", "115112.155000", "115116.105000", "115112.265000", "115116.215000", "115112.375000", "115116.325000", "115112.485000", "115116.435000", "115112.595000", "115116.545000", "115112.705000", "115116.655000", "115112.815000", "115116.765000", "115112.925000", "115116.872500", "115113.032500", "115116.982500", "115113.142500", "115117.092500", "115113.252500", "115117.202500", "115113.362500", "115117.312500", "115113.472500", "115117.422500", "115113.582500", "115121.392500", "115117.552500", "115121.502500", "115117.662500", "115121.612500", "115117.772500", "115121.720000", "115117.880000", "115121.830000", "115117.990000", "115121.940000", "115118.100000", "115122.050000", "115118.210000", "115122.160000", "115118.320000", "115122.270000", "115118.430000", "115122.380000", "115118.540000", "115122.490000", "115118.650000", "115122.597500", "115118.760000", "115122.707500", "115118.867500", "115122.817500", "115118.977500", "115122.927500", "115119.087500", "115123.037500", "115119.197500", "115123.147500", "115119.307500", "115123.257500", "115119.417500", "115123.367500", "115119.527500", "115123.477500", "115119.637500", "115123.585000", "115119.747500", "115123.695000", "115119.855000", "115123.805000", "115119.965000", "115123.915000", "115120.075000", "115124.025000", "115120.185000", "115124.135000", "115120.295000", "115124.245000", "115120.405000", "115124.355000", "115120.515000", "115124.465000", "115120.625000", "115124.572500", "115120.732500", "115124.682500", "115120.842500", "115124.792500", "115120.952500", "115124.902500", "115121.062500", "115125.012500", "115121.172500", "115125.122500", "115121.282500", "115129.092500", "115125.252500", "115129.202500", "115125.362500", "115129.312500", "115125.472500", "115129.420000", "115125.580000", "115129.530000", "115125.690000", "115129.640000", "115125.800000", "115129.750000", "115125.910000", "115129.860000", "115126.020000", "115129.970000", "115126.130000", "115130.080000", "115126.240000", "115130.190000", "115126.350000", "115130.297500", "115126.460000", "115130.407500", "115126.567500", "115130.517500", "115126.677500", "115130.627500", "115126.787500", "115130.737500", "115126.897500", "115130.847500", "115127.007500", "115130.957500", "115127.117500", "115131.067500", "115127.227500", "115131.177500", "115127.337500", "115131.285000", "115127.447500", "115131.395000", "115127.555000", "115131.505000", "115127.665000", "115131.615000", "115127.775000", "115131.725000", "115127.885000", "115131.835000", "115127.995000", "115131.945000", "115128.105000", "115132.055000", "115128.215000", "115132.165000", "115128.325000", "115132.272500", "115128.432500", "115132.382500", "115128.542500", "115132.492500", "115128.652500", "115132.602500", "115128.762500", "115132.712500", "115128.872500", "115132.822500", "115128.982500", "115136.792500", "115132.952500", "115136.902500", "115133.062500", "115137.012500", "115133.172500", "115137.120000", "115133.280000", "115137.230000", "115133.390000", "115137.340000", "115133.500000", "115137.450000", "115133.610000", "115137.560000", "115133.720000", "115137.670000", "115133.830000", "115137.780000", "115133.940000", "115137.890000", "115134.050000", "115137.997500", "115134.160000", "115138.107500", "115134.267500", "115138.217500", "115134.377500", "115138.327500", "115134.487500", "115138.437500", "115134.597500", "115138.547500", "115134.707500", "115138.657500", "115134.817500", "115138.767500", "115134.927500", "115138.877500", "115135.037500", "115138.985000", "115135.147500", "115139.095000", "115135.255000", "115139.205000", "115135.365000", "115139.315000", "115135.475000", "115139.425000", "115135.585000", "115139.535000", "115135.695000", "115139.645000", "115135.805000", "115139.755000", "115135.915000", "115139.865000", "115136.025000", "115139.972500", "115136.132500", "115140.082500", "115136.242500", "115140.192500", "115136.352500", "115140.302500", "115136.462500", "115140.412500", "115136.572500", "115140.522500", "115136.682500", "115144.492500", "115140.652500", "115144.602500", "115140.762500", "115144.712500", "115140.872500", "115144.820000", "115140.980000", "115144.930000", "115141.090000", "115145.040000", "115141.200000", "115145.150000", "115141.310000", "115145.260000", "115141.420000", "115145.370000", "115141.530000", "115145.480000", "115141.640000", "115145.590000", "115141.750000", "115145.697500", "115141.860000", "115145.807500", "115141.967500", "115145.917500", "115142.077500", "115146.027500", "115142.187500", "115146.137500", "115142.297500", "115146.247500", "115142.407500", "115146.357500", "115142.517500", "115146.467500", "115142.627500", "115146.577500", "115142.737500", "115146.685000", "115142.847500", "115146.795000", "115142.955000", "115146.905000", "115143.065000", "115147.015000", "115143.175000", "115147.125000", "115143.285000", "115147.235000", "115143.395000", "115147.345000", "115143.505000", "115147.455000", "115143.615000", "115147.565000", "115143.725000", "115147.672500", "115143.832500", "115147.782500", "115143.942500", "115147.892500", "115144.052500", "115148.002500", "115144.162500", "115148.112500", "115144.272500", "115148.222500", "115144.382500", "115152.192500", "115148.352500", "115152.302500", "115148.462500", "115152.412500", "115148.572500", "115152.520000", "115148.680000", "115152.630000", "115148.790000", "115152.740000", "115148.900000", "115152.850000", "115149.010000", "115152.960000", "115149.120000", "115153.070000", "115149.230000", "115153.180000", "115149.340000", "115153.290000", "115149.450000", "115153.397500", "115149.560000", "115153.507500", "115149.667500", "115153.617500", "115149.777500", "115153.727500", "115149.887500", "115153.837500", "115149.997500", "115153.947500", "115150.107500", "115154.057500", "115150.217500", "115154.167500", "115150.327500", "115154.277500", "115150.437500", "115154.385000", "115150.547500", "115154.495000", "115150.655000", "115154.605000", "115150.765000", "115154.715000", "115150.875000", "115154.825000", "115150.985000", "115154.935000", "115151.095000", "115155.045000", "115151.205000", "115155.155000", "115151.315000", "115155.265000", "115151.425000", "115155.372500", "115151.532500", "115155.482500", "115151.642500", "115155.592500", "115151.752500", "115155.702500", "115151.862500", "115155.812500", "115151.972500", "115155.922500", "115152.082500", "115159.892500", "115156.052500", "115200.002500", "115156.162500", "115200.112500", "115156.272500", "115200.220000", "115156.380000", "115200.330000", "115156.490000", "115200.440000", "115156.600000", "115200.550000", "115156.710000", "115200.660000", "115156.820000", "115200.770000", "115156.930000", "115200.880000", "115157.040000", "115200.990000", "115157.150000", "115201.097500", "115157.260000", "115201.207500", "115157.367500", "115201.317500", "115157.477500", "115201.427500", "115157.587500", "115201.537500", "115157.697500", "115201.647500", "115157.807500", "115201.757500", "115157.917500", "115201.867500", "115158.027500", "115201.977500", "115158.137500", "115202.085000", "115158.247500", "115202.195000", "115158.355000", "115202.305000", "115158.465000", "115202.415000", "115158.575000", "115202.525000", "115158.685000", "115202.635000", "115158.795000", "115202.745000", "115158.905000", "115202.855000", "115159.015000", "115202.965000", "115159.125000", "115203.072500", "115159.232500", "115203.182500", "115159.342500", "115203.292500", "115159.452500", "115203.402500", "115159.562500", "115203.512500", "115159.672500", "115203.622500", "115159.782500", "115207.592500", "115203.752500", "115207.702500", "115203.862500", "115207.812500", "115203.972500", "115207.920000", "115204.080000", "115208.030000", "115204.190000", "115208.140000", "115204.300000", "115208.250000", "115204.410000", "115208.360000", "115204.520000", "115208.470000", "115204.630000", "115208.580000", "115204.740000", "115208.690000", "115204.850000", "115208.797500", "115204.960000", "115208.907500", "115205.067500", "115209.017500", "115205.177500", "115209.127500", "115205.287500", "115209.237500", "115205.397500", "115209.347500", "115205.507500", "115209.457500", "115205.617500", "115209.567500", "115205.727500", "115209.677500", "115205.837500", "115209.785000", "115205.947500", "115209.895000", "115206.055000", "115210.005000", "115206.165000", "115210.115000", "115206.275000", "115210.225000", "115206.385000", "115210.335000", "115206.495000", "115210.445000", "115206.605000", "115210.555000", "115206.715000", "115210.665000", "115206.825000", "115210.772500", "115206.932500", "115210.882500", "115207.042500", "115210.992500", "115207.152500", "115211.102500", "115207.262500", "115211.212500", "115207.372500", "115211.322500", "115207.482500", "115215.292500", "115211.452500", "115215.402500", "115211.562500", "115215.512500", "115211.672500", "115215.620000", "115211.780000", "115215.730000", "115211.890000", "115215.840000", "115212.000000", "115215.950000", "115212.110000", "115216.060000", "115212.220000", "115216.170000", "115212.330000", "115216.280000", "115212.440000", "115216.390000", "115212.550000", "115216.497500", "115212.660000", "115216.607500", "115212.767500", "115216.717500", "115212.877500", "115216.827500", "115212.987500", "115216.937500", "115213.097500", "115217.047500", "115213.207500", "115217.157500", "115213.317500", "115217.267500", "115213.427500", "115217.377500", "115213.537500", "115217.485000", "115213.647500", "115217.595000", "115213.755000", "115217.705000", "115213.865000", "115217.815000", "115213.975000", "115217.925000", "115214.085000", "115218.035000", "115214.195000", "115218.145000", "115214.305000", "115218.255000", "115214.415000", "115218.365000", "115214.525000", "115218.472500", "115214.632500", "115218.582500", "115214.742500", "115218.692500", "115214.852500", "115218.802500", "115214.962500", "115218.912500", "115215.072500", "115219.022500", "115215.182500", "115222.992500", "115219.152500", "115223.102500", "115219.262500", "115223.212500", "115219.372500", "115223.320000", "115219.480000", "115223.430000", "115219.590000", "115223.540000", "115219.700000", "115223.650000", "115219.810000", "115223.760000", "115219.920000", "115223.870000", "115220.030000", "115223.980000", "115220.140000", "115224.090000", "115220.250000", "115224.197500", "115220.360000", "115224.307500", "115220.467500", "115224.417500", "115220.577500", "115224.527500", "115220.687500", "115224.637500", "115220.797500", "115224.747500", "115220.907500", "115224.857500", "115221.017500", "115224.967500", "115221.127500", "115225.077500", "115221.237500", "115225.185000", "115221.347500", "115225.295000", "115221.455000", "115225.405000", "115221.565000", "115225.515000", "115221.675000", "115225.625000", "115221.785000", "115225.735000", "115221.895000", "115225.845000", "115222.005000", "115225.955000", "115222.115000", "115226.065000", "115222.225000", "115226.172500", "115222.332500", "115226.282500", "115222.442500", "115226.392500", "115222.552500", "115226.502500", "115222.662500", "115226.612500", "115222.772500", "115226.722500", "115222.882500", "115230.692500", "115226.852500", "115230.802500", "115226.962500", "115230.912500", "115227.072500", "115231.020000", "115227.180000", "115231.130000", "115227.290000", "115231.240000", "115227.400000", "115231.350000", "115227.510000", "115231.460000", "115227.620000", "115231.570000", "115227.730000", "115231.680000", "115227.840000", "115231.790000", "115227.950000", "115231.897500", "115228.060000", "115232.007500", "115228.167500", "115232.117500", "115228.277500", "115232.227500", "115228.387500", "115232.337500", "115228.497500", "115232.447500", "115228.607500", "115232.557500", "115228.717500", "115232.667500", "115228.827500", "115232.777500", "115228.937500", "115232.885000", "115229.047500", "115232.995000", "115229.155000", "115233.105000", "115229.265000", "115233.215000", "115229.375000", "115233.325000", "115229.485000", "115233.435000", "115229.595000", "115233.545000", "115229.705000", "115233.655000", "115229.815000", "115233.765000", "115229.925000", "115233.872500", "115230.032500", "115233.982500", "115230.142500", "115234.092500", "115230.252500", "115234.202500", "115230.362500", "115234.312500", "115230.472500", "115234.422500", "115230.582500", "115238.392500", "115234.552500", "115238.502500", "115234.662500", "115238.612500", "115234.772500", "115238.720000", "115234.880000", "115238.830000", "115234.990000", "115238.940000", "115235.100000", "115239.050000", "115235.210000", "115239.160000", "115235.320000", "115239.270000", "115235.430000", "115239.380000", "115235.540000", "115239.490000", "115235.650000", "115239.597500", "115235.760000", "115239.707500", "115235.867500", "115239.817500", "115235.977500", "115239.927500", "115236.087500", "115240.037500", "115236.197500", "115240.147500", "115236.307500", "115240.257500", "115236.417500", "115240.367500", "115236.527500", "115240.477500", "115236.637500", "115240.585000", "115236.747500", "115240.695000", "115236.855000", "115240.805000", "115236.965000", "115240.915000", "115237.075000", "115241.025000", "115237.185000", "115241.135000", "115237.295000", "115241.245000", "115237.405000", "115241.355000", "115237.515000", "115241.465000", "115237.625000", "115241.572500", "115237.732500", "115241.682500", "115237.842500", "115241.792500", "115237.952500", "115241.902500", "115238.062500", "115242.012500", "115238.172500", "115242.122500", "115238.282500", "115246.092500", "115242.252500", "115246.202500", "115242.362500", "115246.312500", "115242.472500", "115246.420000", "115242.580000", "115246.530000", "115242.690000", "115246.640000", "115242.800000", "115246.750000", "115242.910000", "115246.860000", "115243.020000", "115246.970000", "115243.130000", "115247.080000", "115243.240000", "115247.190000", "115243.350000", "115247.297500", "115243.460000", "115247.407500", "115243.567500", "115247.517500", "115243.677500", "115247.627500", "115243.787500", "115247.737500", "115243.897500", "115247.847500", "115244.007500", "115247.957500", "115244.117500", "115248.067500", "115244.227500", "115248.177500", "115244.337500", "115248.285000", "115244.447500", "115248.395000", "115244.555000", "115248.505000", "115244.665000", "115248.615000", "115244.775000", "115248.725000", "115244.885000", "115248.835000", "115244.995000", "115248.945000", "115245.105000", "115249.055000", "115245.215000", "115249.165000", "115245.325000", "115249.272500", "115245.432500", "115249.382500", "115245.542500", "115249.492500", "115245.652500", "115249.602500", "115245.762500", "115249.712500", "115245.872500", "115249.822500", "115245.982500", "115253.792500", "115249.952500", "115253.902500", "115250.062500", "115254.012500", "115250.172500", "115254.120000", "115250.280000", "115254.230000", "115250.390000", "115254.340000", "115250.500000", "115254.450000", "115250.610000", "115254.560000", "115250.720000", "115254.670000", "115250.830000", "115254.780000", "115250.940000", "115254.890000", "115251.050000", "115254.997500", "115251.160000", "115255.107500", "115251.267500", "115255.217500", "115251.377500", "115255.327500", "115251.487500", "115255.437500", "115251.597500", "115255.547500", "115251.707500", "115255.657500", "115251.817500", "115255.767500", "115251.927500", "115255.877500", "115252.037500", "115255.985000", "115252.147500", "115256.095000", "115252.255000", "115256.205000", "115252.365000", "115256.315000", "115252.475000", "115256.425000", "115252.585000", "115256.535000", "115252.695000", "115256.645000", "115252.805000", "115256.755000", "115252.915000", "115256.865000", "115253.025000", "115256.972500", "115253.132500", "115257.082500", "115253.242500", "115257.192500", "115253.352500", "115257.302500", "115253.462500", "115257.412500", "115253.572500", "115257.522500", "115253.682500", "115301.492500", "115257.652500", "115301.602500", "115257.762500", "115301.712500", "115257.872500", "115301.820000", "115257.980000", "115301.930000", "115258.090000", "115302.040000", "115258.200000", "115302.150000", "115258.310000", "115302.260000", "115258.420000", "115302.370000", "115258.530000", "115302.480000", "115258.640000", "115302.590000", "115258.750000", "115302.697500", "115258.860000", "115302.807500", "115258.967500", "115302.917500", "115259.077500", "115303.027500", "115259.187500", "115303.137500", "115259.297500", "115303.247500", "115259.407500", "115303.357500", "115259.517500", "115303.467500", "115259.627500", "115303.577500", "115259.737500", "115303.685000", "115259.847500", "115303.795000", "115259.955000", "115303.905000", "115300.065000", "115304.015000", "115300.175000", "115304.125000", "115300.285000", "115304.235000", "115300.395000", "115304.345000", "115300.505000", "115304.455000", "115300.615000", "115304.565000", "115300.725000", "115304.672500", "115300.832500", "115304.782500", "115300.942500", "115304.892500", "115301.052500", "115305.002500", "115301.162500", "115305.112500", "115301.272500", "115305.222500", "115301.382500", "115309.192500", "115305.352500", "115309.302500", "115305.462500", "115309.412500", "115305.572500", "115309.520000", "115305.680000", "115309.630000", "115305.790000", "115309.740000", "115305.900000", "115309.850000", "115306.010000", "115309.960000", "115306.120000", "115310.070000", "115306.230000", "115310.180000", "115306.340000", "115310.290000", "115306.450000", "115310.397500", "115306.560000", "115310.507500", "115306.667500", "115310.617500", "115306.777500", "115310.727500", "115306.887500", "115310.837500", "115306.997500", "115310.947500", "115307.107500", "115311.057500", "115307.217500", "115311.167500", "115307.327500", "115311.277500", "115307.437500", "115311.385000", "115307.547500", "115311.495000", "115307.655000", "115311.605000", "115307.765000", "115311.715000", "115307.875000", "115311.825000", "115307.985000", "115311.935000", "115308.095000", "115312.045000", "115308.205000", "115312.155000", "115308.315000", "115312.265000", "115308.425000", "115312.372500", "115308.532500", "115312.482500", "115308.642500", "115312.592500", "115308.752500", "115312.702500", "115308.862500", "115312.812500", "115308.972500", "115312.922500", "115309.082500", "115316.892500", "115313.052500", "115317.002500", "115313.162500", "115317.112500", "115313.272500", "115317.220000", "115313.380000", "115317.330000", "115313.490000", "115317.440000", "115313.600000", "115317.550000", "115313.710000", "115317.660000", "115313.820000", "115317.770000", "115313.930000", "115317.880000", "115314.040000", "115317.990000", "115314.150000", "115318.097500", "115314.260000", "115318.207500", "115314.367500", "115318.317500", "115314.477500", "115318.427500", "115314.587500", "115318.537500", "115314.697500", "115318.647500", "115314.807500", "115318.757500", "115314.917500", "115318.867500", "115315.027500", "115318.977500", "115315.137500", "115319.085000", "115315.247500", "115319.195000", "115315.355000", "115319.305000", "115315.465000", "115319.415000", "115315.575000", "115319.525000", "115315.685000", "115319.635000", "115315.795000", "115319.745000", "115315.905000", "115319.855000", "115316.015000", "115319.965000", "115316.125000", "115320.072500", "115316.232500", "115320.182500", "115316.342500", "115320.292500", "115316.452500", "115320.402500", "115316.562500", "115320.512500", "115316.672500", "115320.622500", "115316.782500", "115324.592500", "115320.752500", "115324.702500", "115320.862500", "115324.812500", "115320.972500", "115324.920000", "115321.080000", "115325.030000", "115321.190000", "115325.140000", "115321.300000", "115325.250000", "115321.410000", "115325.360000", "115321.520000", "115325.470000", "115321.630000", "115325.580000", "115321.740000", "115325.690000", "115321.850000", "115325.797500", "115321.960000", "115325.907500", "115322.067500", "115326.017500", "115322.177500", "115326.127500", "115322.287500", "115326.237500", "115322.397500", "115326.347500", "115322.507500", "115326.457500", "115322.617500", "115326.567500", "115322.727500", "115326.677500", "115322.837500", "115326.785000", "115322.947500", "115326.895000", "115323.055000", "115327.005000", "115323.165000", "115327.115000", "115323.275000", "115327.225000", "115323.385000", "115327.335000", "115323.495000", "115327.445000", "115323.605000", "115327.555000", "115323.715000", "115327.665000", "115323.825000", "115327.772500", "115323.932500", "115327.882500", "115324.042500", "115327.992500", "115324.152500", "115328.102500", "115324.262500", "115328.212500", "115324.372500", "115328.322500", "115324.482500", "115332.292500", "115328.452500", "115332.402500", "115328.562500", "115332.512500", "115328.672500", "115332.620000", "115328.780000", "115332.730000", "115328.890000", "115332.840000", "115329.000000", "115332.950000", "115329.110000", "115333.060000", "115329.220000", "115333.170000", "115329.330000", "115333.280000", "115329.440000", "115333.390000", "115329.550000", "115333.497500", "115329.660000", "115333.607500", "115329.767500", "115333.717500", "115329.877500", "115333.827500", "115329.987500", "115333.937500", "115330.097500", "115334.047500", "115330.207500", "115334.157500", "115330.317500", "115334.267500", "115330.427500", "115334.377500", "115330.537500", "115334.485000", "115330.647500", "115334.595000", "115330.755000", "115334.705000", "115330.865000", "115334.815000", "115330.975000", "115334.925000", "115331.085000", "115335.035000", "115331.195000", "115335.145000", "115331.305000", "115335.255000", "115331.415000", "115335.365000", "115331.525000", "115335.472500", "115331.632500", "115335.582500", "115331.742500", "115335.692500", "115331.852500", "115335.802500", "115331.962500", "115335.912500", "115332.072500", "115336.022500", "115332.182500", "115339.992500", "115336.152500", "115340.102500", "115336.262500", "115340.212500", "115336.372500", "115340.320000", "115336.480000", "115340.430000", "115336.590000", "115340.540000", "115336.700000", "115340.650000", "115336.810000", "115340.760000", "115336.920000", "115340.870000", "115337.030000", "115340.980000", "115337.140000", "115341.090000", "115337.250000", "115341.197500", "115337.360000", "115341.307500", "115337.467500", "115341.417500", "115337.577500", "115341.527500", "115337.687500", "115341.637500", "115337.797500", "115341.747500", "115337.907500", "115341.857500", "115