{
  "AcquisitionMatrixPE": 80,
  "AcquisitionNumber": 1,
  "AcquisitionTime": "12:09:8.145000",
  "BandwidthPerPixelPhaseEncode": 46.296,
  "BaseResolution": 80,
  "BodyPartExamined": "BRAIN",
  "CoilCombinationMethod": "Sum of Squares",
  "ConsistencyInfo": "N4_VE11E_LATEST_20181129",
  "ConversionSoftware": "dcm2niix",
  "ConversionSoftwareVersion": "v1.0.20220720",
  "DerivedVendorReportedEchoSpacing": 0.000540003,
  "DeviceSerialNumber": "66112",
  "DwellTime": 2.7e-06,
  "EchoTime": 0.035,
  "EchoTrainLength": 39,
  "EffectiveEchoSpacing": 0.000270002,
  "FlipAngle": 90,
  "HeudiconvVersion": "0.13.1",
  "ImageOrientationPatientDICOM": [0.986104, 0.165878, 0.00917372, -0.160597, 0.937668, 0.3082],
  "ImageOrientationText": "Tra>Cor(17.8)>Sag(-2.4)",
  "ImageType": [
    "ORIGINAL",
    "PRIMARY",
    "M",
    "ND",
    "NORM",
    "MOSAIC"
],
  "ImagingFrequency": 123.252,
  "InPlanePhaseEncodingDirectionDICOM": "COL",
  "InstitutionAddress": "Maynard 3,Hanover,NH,US,03755",
  "InstitutionName": "Dartmouth College - PBS",
  "InstitutionalDepartmentName": "Department",
  "MRAcquisitionType": "2D",
  "MagneticFieldStrength": 3,
  "Manufacturer": "Siemens",
  "ManufacturersModelName": "Prisma",
  "Modality": "MR",
  "MultibandAccelerationFactor": 4,
  "NonlinearGradientCorrection": false,
  "ParallelReductionFactorInPlane": 2,
  "PartialFourier": 1,
  "PatientPosition": "HFS",
  "PercentPhaseFOV": 100,
  "PercentSampling": 100,
  "PhaseEncodingDirection": "j-",
  "PhaseEncodingSteps": 79,
  "PhaseResolution": 1,
  "PixelBandwidth": 2315,
  "ProcedureStepDescription": "dbic^QA",
  "ProtocolName": "func-bold_task-rest_acq-p2-s4-3.5mm",
  "PulseSequenceDetails": "%SiemensSeq%\\ep2d_bold",
  "ReceiveCoilActiveElements": "HEA;HEP",
  "ReceiveCoilName": "Head_32",
  "ReconMatrixPE": 80,
  "RefLinesPE": 24,
  "RepetitionTime": 2,
  "SAR": 0.0177329,
  "ScanOptions": "FS",
  "ScanningSequence": "EP",
  "SequenceName": "*epfid2d1_80",
  "SequenceVariant": "SK",
  "SeriesDescription": "func-bold_task-rest_acq-p2-s4-3.5mm",
  "SeriesNumber": 7,
  "ShimSetting": [4150, -7710, -7525, 236, -40, -68, 17, 60],
  "SliceThickness": 3.5,
  "SliceTiming": [1.485, 0, 0.99, 0.2475, 1.2375, 0.7425, 1.7325, 0.495, 1.485, 0, 0.99, 0.2475, 1.2375, 0.7425, 1.7325, 0.495, 1.485, 0, 0.99, 0.2475, 1.2375, 0.7425, 1.7325, 0.495, 1.485, 0, 0.99, 0.2475, 1.2375, 0.7425, 1.7325, 0.495],
  "SoftwareVersions": "syngo MR E11",
  "SpacingBetweenSlices": 3.99,
  "StationName": "AWP66112",
  "TaskName": "rest",
  "TotalReadoutTime": 0.0213301,
  "TxRefAmp": 225.39,
  "dcmmeta_affine": [
    [-2.958311080932617, -0.4817916750907898, -0.16966117918491364, 140.2980499267578],
    [-0.4976329505443573, 2.8130040168762207, 1.218508005142212, -94.57322692871094],
    [0.027521168813109398, -0.9246001839637756, 3.7955963611602783, -29.486614227294922],
    [0.0, 0.0, 0.0, 1.0]
],
  "dcmmeta_reorient_transform": [
    [0.0, -1.0, 0.0, 79.0],
    [1.0, 0.0, 0.0, 0.0],
    [0.0, 0.0, 1.0, 0.0],
    [0.0, 0.0, 0.0, 1.0]
],
  "dcmmeta_shape": [80, 80, 32, 200],
  "dcmmeta_slice_dim": 2,
  "dcmmeta_version": 0.6,
  "global": {
    "const": {
      "AccessionNumber": "qa",
      "AcquisitionMatrix": [80, 0, 0, 80],
      "AngioFlag": "N",
      "BitsAllocated": 16,
      "BitsStored": 12,
      "BodyPartExamined": "BRAIN",
      "Columns": 480,
      "EchoNumbers": 1,
      "EchoTime": 35.0,
      "EchoTrainLength": 39,
      "FlipAngle": 90.0,
      "HighBit": 11,
      "ImageOrientationPatient": [0.98610366921584, 0.16587765481171, 0.00917372297521, -0.1605972204338, 0.93766798453215, 0.30820007068844],
      "ImagePositionPatient": [-597.54037263623, -789.78146845899, -292.95430660873],
      "ImageType": [
        "ORIGINAL",
        "PRIMARY",
        "M",
        "ND",
        "NORM",
        "MOSAIC"
],
      "ImagedNucleus": "1H",
      "ImagingFrequency": 123.252357,
      "InPlanePhaseEncodingDirection": "COL",
      "MRAcquisitionType": "2D",
      "MagneticFieldStrength": 3.0,
      "Manufacturer": "SIEMENS",
      "ManufacturerModelName": "Prisma",
      "Modality": "MR",
      "NumberOfAverages": 1.0,
      "NumberOfPhaseEncodingSteps": 79,
      "PercentPhaseFieldOfView": 100.0,
      "PercentSampling": 100.0,
      "PerformedProcedureStepStartTime": "115829.065000",
      "PhotometricInterpretation": "MONOCHROME2",
      "PixelBandwidth": 2315.0,
      "PixelRepresentation": 0,
      "PixelSpacing": [3.0, 3.0],
      "ProtocolName": "func-bold_task-rest_acq-p2-s4-3.5mm",
      "RepetitionTime": 2000.0,
      "Rows": 480,
      "SAR": 0.01773294540888,
      "SamplesPerPixel": 1,
      "ScanOptions": "FS",
      "ScanningSequence": "EP",
      "SequenceName": "*epfid2d1_80",
      "SequenceVariant": "SK",
      "SeriesDescription": "func-bold_task-rest_acq-p2-s4-3.5mm",
      "SeriesNumber": 7,
      "SeriesTime": "120952.682000",
      "SliceLocation": -62.897409010476,
      "SliceThickness": 3.5,
      "SmallestImagePixelValue": 0,
      "SoftwareVersions": "syngo MR E11",
      "SpacingBetweenSlices": 3.9899999072828,
      "SpecificCharacterSet": "ISO_IR 100",
      "StudyID": "11",
      "StudyTime": "115829.012000",
      "TransmitCoilName": "Body",
      "VariableFlipAngleFlag": "N",
      "WindowCenterWidthExplanation": "Algo1"
    },
    "slices": {}
  },
  "time": {
    "samples": {
      "AcquisitionNumber": [1, 2, 3, 4, 5, 6, 7, 8, 9, 10, 11, 12, 13, 14, 15, 16, 17, 18, 19, 20, 21, 22, 23, 24, 25, 26, 27, 28, 29, 30, 31, 32, 33, 34, 35, 36, 37, 38, 39, 40, 41, 42, 43, 44, 45, 46, 47, 48, 49, 50, 51, 52, 53, 54, 55, 56, 57, 58, 59, 60, 61, 62, 63, 64, 65, 66, 67, 68, 69, 70, 71, 72, 73, 74, 75, 76, 77, 78, 79, 80, 81, 82, 83, 84, 85, 86, 87, 88, 89, 90, 91, 92, 93, 94, 95, 96, 97, 98, 99, 100, 101, 102, 103, 104, 105, 106, 107, 108, 109, 110, 111, 112, 113, 114, 115, 116, 117, 118, 119, 120, 121, 122, 123, 124, 125, 126, 127, 128, 129, 130, 131, 132, 133, 134, 135, 136, 137, 138, 139, 140, 141, 142, 143, 144, 145, 146, 147, 148, 149, 150, 151, 152, 153, 154, 155, 156, 157, 158, 159, 160, 161, 162, 163, 164, 165, 166, 167, 168, 169, 170, 171, 172, 173, 174, 175, 176, 177, 178, 179, 180, 181, 182, 183, 184, 185, 186, 187, 188, 189, 190, 191, 192, 193, 194, 195, 196, 197, 198, 199, 200],
      "AcquisitionTime": ["120908.145000", "120910.145000", "120912.145000", "120914.145000", "120916.145000", "120918.145000", "120920.145000", "120922.145000", "120924.145000", "120926.145000", "120928.145000", "120930.145000", "120932.145000", "120934.145000", "120936.145000", "120938.145000", "120940.145000", "120942.145000", "120944.145000", "120946.145000", "120948.145000", "120950.145000", "120952.145000", "120954.145000", "120956.145000", "120958.145000", "121000.145000", "121002.145000", "121004.145000", "121006.145000", "121008.145000", "121010.145000", "121012.145000", "121014.145000", "121016.145000", "121018.145000", "121020.145000", "121022.145000", "121024.145000", "121026.145000", "121028.145000", "121030.145000", "121032.145000", "121034.145000", "121036.145000", "121038.145000", "121040.145000", "121042.145000", "121044.145000", "121046.145000", "121048.145000", "121050.145000", "121052.145000", "121054.145000", "121056.145000", "121058.145000", "121100.145000", "121102.145000", "121104.145000", "121106.145000", "121108.145000", "121110.145000", "121112.145000", "121114.145000", "121116.145000", "121118.145000", "121120.145000", "121122.145000", "121124.145000", "121126.145000", "121128.145000", "121130.145000", "121132.145000", "121134.145000", "121136.145000", "121138.145000", "121140.145000", "121142.145000", "121144.145000", "121146.145000", "121148.145000", "121150.145000", "121152.145000", "121154.145000", "121156.145000", "121158.145000", "121200.145000", "121202.145000", "121204.145000", "121206.145000", "121208.145000", "121210.145000", "121212.145000", "121214.145000", "121216.145000", "121218.145000", "121220.145000", "121222.145000", "121224.145000", "121226.145000", "121228.145000", "121230.145000", "121232.145000", "121234.145000", "121236.145000", "121238.145000", "121240.145000", "121242.145000", "121244.145000", "121246.145000", "121248.145000", "121250.145000", "121252.145000", "121254.145000", "121256.145000", "121258.145000", "121300.145000", "121302.145000", "121304.145000", "121306.145000", "121308.145000", "121310.145000", "121312.145000", "121314.145000", "121316.145000", "121318.145000", "121320.145000", "121322.145000", "121324.145000", "121326.145000", "121328.145000", "121330.145000", "121332.145000", "121334.145000", "121336.145000", "121338.145000", "121340.145000", "121342.145000", "121344.145000", "121346.145000", "121348.145000", "121350.145000", "121352.145000", "121354.145000", "121356.145000", "121358.145000", "121400.145000", "121402.145000", "121404.145000", "121406.145000", "121408.145000", "121410.145000", "121412.145000", "121414.145000", "121416.145000", "121418.145000", "121420.145000", "121422.145000", "121424.145000", "121426.145000", "121428.145000", "121430.145000", "121432.145000", "121434.145000", "121436.145000", "121438.145000", "121440.145000", "121442.145000", "121444.145000", "121446.145000", "121448.145000", "121450.145000", "121452.145000", "121454.145000", "121456.145000", "121458.145000", "121500.145000", "121502.145000", "121504.145000", "121506.145000", "121508.145000", "121510.145000", "121512.145000", "121514.145000", "121516.145000", "121518.145000", "121520.145000", "121522.145000", "121524.145000", "121526.145000", "121528.145000", "121530.145000", "121532.145000", "121534.145000", "121536.145000", "121538.145000", "121540.145000", "121542.145000", "121544.145000", "121546.145000"],
      "ContentTime": ["120952.685000", "120952.688000", "120952.691000", "120952.693000", "120952.695000", "120952.698000", "120952.700000", "120952.702000", "120952.705000", "120952.707000", "120952.709000", "120952.711000", "120952.721000", "120952.727000", "120952.730000", "120952.732000", "120952.741000", "120952.744000", "120952.746000", "120952.748000", "120952.751000", "120952.753000", "121032.680000", "121032.683000", "121032.685000", "121032.688000", "121032.690000", "121032.692000", "121032.695000", "121032.697000", "121032.699000", "121032.702000", "121032.704000", "121032.706000", "121032.709000", "121032.711000", "121032.713000", "121032.715000", "121032.718000", "121032.720000", "121032.723000", "121032.737000", "121112.680000", "121112.683000", "121112.685000", "121112.688000", "121112.690000", "121112.692000", "121112.694000", "121112.697000", "121112.699000", "121112.701000", "121112.704000", "121112.706000", "121112.708000", "121112.720000", "121112.722000", "121112.725000", "121112.727000", "121112.730000", "121112.732000", "121112.734000", "121152.680000", "121152.683000", "121152.685000", "121152.687000", "121152.690000", "121152.692000", "121152.694000", "121152.697000", "121152.699000", "121152.701000", "121152.704000", "121152.706000", "121152.708000", "121152.711000", "121152.713000", "121152.715000", "121152.717000", "121152.720000", "121152.722000", "121152.724000", "121232.680000", "121232.683000", "121232.685000", "121232.687000", "121232.690000", "121232.692000", "121232.694000", "121232.697000", "121232.699000", "121232.701000", "121232.704000", "121232.706000", "121232.708000", "121232.711000", "121232.713000", "121232.715000", "121232.717000", "121232.720000", "121232.730000", "121232.733000", "121312.680000", "121312.683000", "121312.685000", "121312.695000", "121312.697000", "121312.700000", "121312.702000", "121312.704000", "121312.707000", "121312.709000", "121312.711000", "121312.714000", "121312.716000", "121312.718000", "121312.721000", "121312.723000", "121312.725000", "121312.728000", "121312.730000", "121312.732000", "121352.681000", "121352.684000", "121352.686000", "121352.688000", "121352.691000", "121352.693000", "121352.695000", "121352.698000", "121352.700000", "121352.702000", "121352.705000", "121352.707000", "121352.709000", "121352.712000", "121352.714000", "121352.716000", "121352.719000", "121352.721000", "121352.723000", "121352.726000", "121432.680000", "121432.683000", "121432.685000", "121432.687000", "121432.690000", "121432.692000", "121432.695000", "121432.697000", "121432.699000", "121432.701000", "121432.704000", "121432.706000", "121432.708000", "121432.711000", "121432.713000", "121432.715000", "121432.723000", "121432.726000", "121432.728000", "121432.730000", "121512.680000", "121512.683000", "121512.692000", "121512.694000", "121512.696000", "121512.699000", "121512.701000", "121512.703000", "121512.706000", "121512.708000", "121512.710000", "121512.713000", "121512.715000", "121512.717000", "121512.720000", "121512.722000", "121512.724000", "121512.727000", "121512.729000", "121512.731000", "121547.422000", "121547.425000", "121547.428000", "121547.431000", "121547.433000", "121547.436000", "121547.438000", "121547.440000", "121547.443000", "121547.446000", "121547.448000", "121547.450000", "121547.453000", "121547.455000", "121547.457000", "121547.460000", "121547.462000", "121547.464000"],
      "InstanceCreationTime": ["120952.685000", "120952.688000", "120952.691000", "120952.693000", "120952.695000", "120952.698000", "120952.700000", "120952.702000", "120952.705000", "120952.707000", "120952.709000", "120952.711000", "120952.721000", "120952.727000", "120952.730000", "120952.732000", "120952.741000", "120952.744000", "120952.746000", "120952.748000", "120952.751000", "120952.753000", "121032.680000", "121032.683000", "121032.685000", "121032.688000", "121032.690000", "121032.692000", "121032.695000", "121032.697000", "121032.699000", "121032.702000", "121032.704000", "121032.706000", "121032.709000", "121032.711000", "121032.713000", "121032.715000", "121032.718000", "121032.720000", "121032.723000", "121032.737000", "121112.680000", "121112.683000", "121112.685000", "121112.688000", "121112.690000", "121112.692000", "121112.694000", "121112.697000", "121112.699000", "121112.701000", "121112.704000", "121112.706000", "121112.708000", "121112.720000", "121112.722000", "121112.725000", "121112.727000", "121112.730000", "121112.732000", "121112.734000", "121152.680000", "121152.683000", "121152.685000", "121152.687000", "121152.690000", "121152.692000", "121152.694000", "121152.697000", "121152.699000", "121152.701000", "121152.704000", "121152.706000", "121152.708000", "121152.711000", "121152.713000", "121152.715000", "121152.717000", "121152.720000", "121152.722000", "121152.724000", "121232.680000", "121232.683000", "121232.685000", "121232.687000", "121232.690000", "121232.692000", "121232.694000", "121232.697000", "121232.699000", "121232.701000", "121232.704000", "121232.706000", "121232.708000", "121232.711000", "121232.713000", "121232.715000", "121232.717000", "121232.720000", "121232.730000", "121232.733000", "121312.680000", "121312.683000", "121312.685000", "121312.695000", "121312.697000", "121312.700000", "121312.702000", "121312.704000", "121312.707000", "121312.709000", "121312.711000", "121312.714000", "121312.716000", "121312.718000", "121312.721000", "121312.723000", "121312.725000", "121312.728000", "121312.730000", "121312.732000", "121352.681000", "121352.684000", "121352.686000", "121352.688000", "121352.691000", "121352.693000", "121352.695000", "121352.698000", "121352.700000", "121352.702000", "121352.705000", "121352.707000", "121352.709000", "121352.712000", "121352.714000", "121352.716000", "121352.719000", "121352.721000", "121352.723000", "121352.726000", "121432.680000", "121432.683000", "121432.685000", "121432.687000", "121432.690000", "121432.692000", "121432.695000", "121432.697000", "121432.699000", "121432.701000", "121432.704000", "121432.706000", "121432.708000", "121432.711000", "121432.713000", "121432.715000", "121432.723000", "121432.726000", "121432.728000", "121432.730000", "121512.680000", "121512.683000", "121512.692000", "121512.694000", "121512.696000", "121512.699000", "121512.701000", "121512.703000", "121512.706000", "121512.708000", "121512.710000", "121512.713000", "121512.715000", "121512.717000", "121512.720000", "121512.722000", "121512.724000", "121512.727000", "121512.729000", "121512.731000", "121547.422000", "121547.425000", "121547.428000", "121547.431000", "121547.433000", "121547.436000", "121547.438000", "121547.440000", "121547.443000", "121547.446000", "121547.448000", "121547.450000", "121547.453000", "121547.455000", "121547.457000", "121547.460000", "121547.462000", "121547.464000"],
      "InstanceNumber": [1, 2, 3, 4, 5, 6, 7, 8, 9, 10, 11, 12, 13, 14, 15, 16, 17, 18, 19, 20, 21, 22, 23, 24, 25, 26, 27, 28, 29, 30, 31, 32, 33, 34, 35, 36, 37, 38, 39, 40, 41, 42, 43, 44, 45, 46, 47, 48, 49, 50, 51, 52, 53, 54, 55, 56, 57, 58, 59, 60, 61, 62, 63, 64, 65, 66, 67, 68, 69, 70, 71, 72, 73, 74, 75, 76, 77, 78, 79, 80, 81, 82, 83, 84, 85, 86, 87, 88, 89, 90, 91, 92, 93, 94, 95, 96, 97, 98, 99, 100, 101, 102, 103, 104, 105, 106, 107, 108, 109, 110, 111, 112, 113, 114, 115, 116, 117, 118, 119, 120, 121, 122, 123, 124, 125, 126, 127, 128, 129, 130, 131, 132, 133, 134, 135, 136, 137, 138, 139, 140, 141, 142, 143, 144, 145, 146, 147, 148, 149, 150, 151, 152, 153, 154, 155, 156, 157, 158, 159, 160, 161, 162, 163, 164, 165, 166, 167, 168, 169, 170, 171, 172, 173, 174, 175, 176, 177, 178, 179, 180, 181, 182, 183, 184, 185, 186, 187, 188, 189, 190, 191, 192, 193, 194, 195, 196, 197, 198, 199, 200],
      "LargestImagePixelValue": [2072, 2068, 2072, 2075, 2071, 2075, 2072, 2076, 2076, 2072, 2075, 2077, 2067, 2076, 2072, 2072, 2070, 2070, 2075, 2071, 2081, 2077, 2073, 2073, 2074, 2073, 2077, 2073, 2074, 2074, 2071, 2071, 2071, 2075, 2072, 2071, 2069, 2073, 2071, 2070, 2072, 2074, 2072, 2071, 2073, 2071, 2073, 2076, 2073, 2073, 2073, 2073, 2069, 2072, 2073, 2072, 2072, 2071, 2071, 2077, 2070, 2072, 2073, 2073, 2076, 2071, 2075, 2073, 2072, 2071, 2071, 2072, 2072, 2073, 2072, 2071, 2069, 2070, 2073, 2074, 2071, 2070, 2071, 2073, 2071, 2075, 2072, 2070, 2077, 2071, 2073, 2070, 2077, 2074, 2073, 2071, 2069, 2071, 2074, 2072, 2068, 2071, 2070, 2072, 2072, 2069, 2075, 2072, 2072, 2073, 2076, 2070, 2071, 2076, 2070, 2071, 2070, 2073, 2073, 2072, 2074, 2067, 2071, 2072, 2071, 2068, 2075, 2076, 2072, 2070, 2071, 2075, 2077, 2071, 2071, 2068, 2069, 2069, 2070, 2073, 2074, 2070, 2071, 2069, 2072, 2074, 2072, 2070, 2068, 2068, 2072, 2072, 2074, 2069, 2070, 2068, 2075, 2075, 2074, 2077, 2071, 2069, 2070, 2069, 2071, 2073, 2076, 2072, 2076, 2074, 2072, 2073, 2074, 2073, 2070, 2070, 2072, 2069, 2069, 2069, 2066, 2071, 2069, 2072, 2075, 2072, 2076, 2075, 2072, 2070, 2070, 2071, 2071, 2072, 2071, 2074, 2071, 2072, 2071, 2071],
      "WindowCenter": [938.0, 938.0, 938.0, 938.0, 938.0, 938.0, 938.0, 938.0, 938.0, 938.0, 938.0, 938.0, 938.0, 938.0, 938.0, 938.0, 938.0, 939.0, 938.0, 938.0, 938.0, 938.0, 938.0, 938.0, 938.0, 938.0, 938.0, 938.0, 938.0, 938.0, 938.0, 938.0, 938.0, 938.0, 939.0, 938.0, 937.0, 938.0, 938.0, 937.0, 938.0, 938.0, 939.0, 939.0, 938.0, 938.0, 938.0, 938.0, 938.0, 938.0, 938.0, 938.0, 938.0, 938.0, 938.0, 938.0, 938.0, 938.0, 938.0, 938.0, 938.0, 938.0, 938.0, 938.0, 938.0, 938.0, 938.0, 938.0, 938.0, 938.0, 938.0, 938.0, 938.0, 939.0, 938.0, 938.0, 938.0, 938.0, 938.0, 938.0, 938.0, 938.0, 938.0, 938.0, 938.0, 938.0, 938.0, 938.0, 938.0, 938.0, 938.0, 938.0, 938.0, 938.0, 938.0, 938.0, 938.0, 938.0, 938.0, 938.0, 938.0, 938.0, 938.0, 938.0, 938.0, 938.0, 938.0, 938.0, 938.0, 938.0, 938.0, 938.0, 938.0, 938.0, 938.0, 938.0, 938.0, 938.0, 938.0, 938.0, 938.0, 938.0, 938.0, 938.0, 938.0, 939.0, 938.0, 938.0, 938.0, 938.0, 938.0, 938.0, 938.0, 938.0, 938.0, 938.0, 938.0, 938.0, 938.0, 938.0, 938.0, 938.0, 938.0, 938.0, 939.0, 938.0, 938.0, 938.0, 938.0, 938.0, 938.0, 938.0, 938.0, 938.0, 937.0, 938.0, 938.0, 938.0, 938.0, 938.0, 938.0, 938.0, 937.0, 938.0, 938.0, 938.0, 938.0, 938.0, 938.0, 938.0, 938.0, 938.0, 938.0, 938.0, 938.0, 938.0, 938.0, 938.0, 938.0, 938.0, 938.0, 938.0, 938.0, 938.0, 938.0, 938.0, 938.0, 938.0, 938.0, 938.0, 938.0, 938.0, 938.0, 938.0, 938.0, 938.0, 938.0, 938.0, 938.0, 938.0],
      "WindowWidth": [2162.0, 2162.0, 2162.0, 2162.0, 2162.0, 2162.0, 2162.0, 2162.0, 2162.0, 2162.0, 2162.0, 2161.0, 2161.0, 2161.0, 2162.0, 2162.0, 2162.0, 2163.0, 2161.0, 2161.0, 2161.0, 2162.0, 2161.0, 2162.0, 2162.0, 2162.0, 2162.0, 2162.0, 2162.0, 2162.0, 2162.0, 2162.0, 2162.0, 2162.0, 2163.0, 2162.0, 2162.0, 2162.0, 2162.0, 2162.0, 2162.0, 2162.0, 2163.0, 2164.0, 2163.0, 2162.0, 2162.0, 2162.0, 2162.0, 2162.0, 2162.0, 2162.0, 2162.0, 2162.0, 2162.0, 2162.0, 2161.0, 2161.0, 2161.0, 2162.0, 2161.0, 2161.0, 2161.0, 2161.0, 2162.0, 2161.0, 2161.0, 2162.0, 2161.0, 2161.0, 2161.0, 2161.0, 2161.0, 2163.0, 2161.0, 2161.0, 2161.0, 2161.0, 2162.0, 2161.0, 2161.0, 2161.0, 2161.0, 2161.0, 2161.0, 2161.0, 2161.0, 2161.0, 2161.0, 2161.0, 2161.0, 2161.0, 2161.0, 2161.0, 2161.0, 2161.0, 2161.0, 2161.0, 2161.0, 2161.0, 2161.0, 2161.0, 2161.0, 2161.0, 2161.0, 2161.0, 2161.0, 2161.0, 2161.0, 2162.0, 2161.0, 2161.0, 2161.0, 2161.0, 2161.0, 2161.0, 2161.0, 2161.0, 2161.0, 2161.0, 2161.0, 2161.0, 2161.0, 2161.0, 2161.0, 2162.0, 2162.0, 2161.0, 2161.0, 2161.0, 2161.0, 2161.0, 2161.0, 2162.0, 2162.0, 2161.0, 2161.0, 2162.0, 2161.0, 2161.0, 2161.0, 2161.0, 2161.0, 2161.0, 2162.0, 2161.0, 2161.0, 2161.0, 2162.0, 2161.0, 2162.0, 2161.0, 2161.0, 2162.0, 2160.0, 2161.0, 2162.0, 2161.0, 2161.0, 2161.0, 2161.0, 2161.0, 2160.0, 2161.0, 2161.0, 2161.0, 2161.0, 2161.0, 2161.0, 2161.0, 2161.0, 2161.0, 2161.0, 2161.0, 2162.0, 2161.0, 2161.0, 2161.0, 2161.0, 2161.0, 2161.0, 2161.0, 2161.0, 2161.0, 2162.0, 2161.0, 2161.0, 2161.0, 2161.0, 2161.0, 2161.0, 2161.0, 2162.0, 2161.0, 2161.0, 2161.0, 2161.0, 2161.0, 2161.0, 2161.0]
    },
    "slices": {}
  }
}