{
  "AcquisitionMatrixPE": 80,
  "AcquisitionNumber": 1,
  "AcquisitionTime": "09:58:15.755000",
  "BandwidthPerPixelPhaseEncode": 48.077,
  "BaseResolution": 80,
  "BodyPartExamined": "BRAIN",
  "CoilCombinationMethod": "Sum of Squares",
  "ConsistencyInfo": "N4_VE11E_LATEST_20181129",
  "ConversionSoftware": "dcm2niix",
  "ConversionSoftwareVersion": "v1.0.20220720",
  "DerivedVendorReportedEchoSpacing": 0.000519999,
  "DeviceSerialNumber": "66112",
  "DwellTime": 2.7e-06,
  "EchoTime": 0.035,
  "EchoTrainLength": 39,
  "EffectiveEchoSpacing": 0.00026,
  "FlipAngle": 90,
  "HeudiconvVersion": "0.13.1",
  "ImageOrientationPatientDICOM": [0.999964, 0.00723739, 0.00436026, -0.00820291, 0.955274, 0.295609],
  "ImageOrientationText": "Tra>Cor(17.2)>Sag(0.1)",
  "ImageType": [
    "ORIGINAL",
    "PRIMARY",
    "M",
    "ND",
    "NORM",
    "MOSAIC"
],
  "ImagingFrequency": 123.259,
  "InPlanePhaseEncodingDirectionDICOM": "COL",
  "InstitutionAddress": "Maynard 3,Hanover,NH,US,03755",
  "InstitutionName": "Dartmouth College - PBS",
  "InstitutionalDepartmentName": "Department",
  "MRAcquisitionType": "2D",
  "MagneticFieldStrength": 3,
  "Manufacturer": "Siemens",
  "ManufacturersModelName": "Prisma",
  "MatrixCoilMode": "GRAPPA",
  "Modality": "MR",
  "NonlinearGradientCorrection": false,
  "ParallelReductionFactorInPlane": 2,
  "PartialFourier": 1,
  "PatientPosition": "HFS",
  "PercentPhaseFOV": 100,
  "PercentSampling": 100,
  "PhaseEncodingDirection": "j-",
  "PhaseEncodingSteps": 79,
  "PhaseResolution": 1,
  "PixelBandwidth": 2315,
  "ProcedureStepDescription": "dbic^QA",
  "ProtocolName": "func-bold_task-rest_acq-p2",
  "PulseSequenceDetails": "%SiemensSeq%\\ep2d_bold",
  "ReceiveCoilActiveElements": "HEA;HEP",
  "ReceiveCoilName": "Head_32",
  "ReconMatrixPE": 80,
  "RefLinesPE": 24,
  "RepetitionTime": 2,
  "SAR": 0.0554136,
  "ScanOptions": "FS",
  "ScanningSequence": "EP",
  "SequenceName": "*epfid2d1_80",
  "SequenceVariant": "SK",
  "SeriesDescription": "func-bold_task-rest_acq-p2",
  "SeriesNumber": 5,
  "ShimSetting": [4218, -7719, -7492, -79, -154, -16, -54, 67],
  "SliceThickness": 3.5,
  "SliceTiming": [0.99, 0, 1.055, 0.065, 1.12, 0.13, 1.1875, 0.1975, 1.2525, 0.2625, 1.32, 0.33, 1.385, 0.395, 1.45, 0.46, 1.5175, 0.5275, 1.5825, 0.5925, 1.65, 0.66, 1.715, 0.725, 1.78, 0.79, 1.8475, 0.8575, 1.9125, 0.9225],
  "SoftwareVersions": "syngo MR E11",
  "SpacingBetweenSlices": 3.99,
  "StationName": "AWP66112",
  "TaskName": "rest",
  "TotalReadoutTime": 0.02054,
  "TxRefAmp": 226.483,
  "dcmmeta_affine": [
    [-2.9998929500579834, -0.024608729407191277, 0.008082984946668148, 122.05599212646484],
    [-0.021712156012654305, 2.865821599960327, 1.179579734802246, -118.32161712646484],
    [0.013080790638923645, -0.8868264555931091, 3.811643362045288, -19.193302154541016],
    [0.0, 0.0, 0.0, 1.0]
],
  "dcmmeta_reorient_transform": [
    [0.0, -1.0, 0.0, 79.0],
    [1.0, 0.0, 0.0, 0.0],
    [0.0, 0.0, 1.0, 0.0],
    [0.0, 0.0, 0.0, 1.0]
],
  "dcmmeta_shape": [80, 80, 30, 200],
  "dcmmeta_slice_dim": 2,
  "dcmmeta_version": 0.6,
  "global": {
    "const": {
      "AccessionNumber": "qa",
      "AcquisitionMatrix": [80, 0, 0, 80],
      "AngioFlag": "N",
      "BitsAllocated": 16,
      "BitsStored": 12,
      "BodyPartExamined": "BRAIN",
      "Columns": 480,
      "EchoNumbers": 1,
      "EchoTime": 35.0,
      "EchoTrainLength": 39,
      "FlipAngle": 90.0,
      "HighBit": 11,
      "ImageOrientationPatient": [0.9999643035422, 0.0072373851689, 0.00436026344072, -0.0082029099636, 0.95527385652316, 0.2956088146715],
      "ImagePositionPatient": [-715.16874055747, -685.58502978641, -269.23403812068],
      "ImageType": [
        "ORIGINAL",
        "PRIMARY",
        "M",
        "ND",
        "NORM",
        "MOSAIC"
],
      "ImagedNucleus": "1H",
      "ImagingFrequency": 123.259338,
      "InPlanePhaseEncodingDirection": "COL",
      "MRAcquisitionType": "2D",
      "MagneticFieldStrength": 3.0,
      "Manufacturer": "SIEMENS",
      "ManufacturerModelName": "Prisma",
      "Modality": "MR",
      "NumberOfAverages": 1.0,
      "NumberOfPhaseEncodingSteps": 79,
      "PercentPhaseFieldOfView": 100.0,
      "PercentSampling": 100.0,
      "PerformedProcedureStepStartTime": "095645.255000",
      "PhotometricInterpretation": "MONOCHROME2",
      "PixelBandwidth": 2315.0,
      "PixelRepresentation": 0,
      "PixelSpacing": [3.0, 3.0],
      "ProtocolName": "func-bold_task-rest_acq-p2",
      "RepetitionTime": 2000.0,
      "Rows": 480,
      "SAR": 0.05541360968712,
      "SamplesPerPixel": 1,
      "ScanOptions": "FS",
      "ScanningSequence": "EP",
      "SequenceName": "*epfid2d1_80",
      "SequenceVariant": "SK",
      "SeriesDescription": "func-bold_task-rest_acq-p2",
      "SeriesNumber": 5,
      "SeriesTime": "095905.390000",
      "SliceLocation": -53.067979455333,
      "SliceThickness": 3.5,
      "SmallestImagePixelValue": 0,
      "SoftwareVersions": "syngo MR E11",
      "SpacingBetweenSlices": 3.9899998894832,
      "SpecificCharacterSet": "ISO_IR 100",
      "StudyID": "9",
      "StudyTime": "095645.208000",
      "TransmitCoilName": "Body",
      "VariableFlipAngleFlag": "N",
      "WindowCenterWidthExplanation": "Algo1"
    },
    "slices": {}
  },
  "time": {
    "samples": {
      "AcquisitionNumber": [1, 2, 3, 4, 5, 6, 7, 8, 9, 10, 11, 12, 13, 14, 15, 16, 17, 18, 19, 20, 21, 22, 23, 24, 25, 26, 27, 28, 29, 30, 31, 32, 33, 34, 35, 36, 37, 38, 39, 40, 41, 42, 43, 44, 45, 46, 47, 48, 49, 50, 51, 52, 53, 54, 55, 56, 57, 58, 59, 60, 61, 62, 63, 64, 65, 66, 67, 68, 69, 70, 71, 72, 73, 74, 75, 76, 77, 78, 79, 80, 81, 82, 83, 84, 85, 86, 87, 88, 89, 90, 91, 92, 93, 94, 95, 96, 97, 98, 99, 100, 101, 102, 103, 104, 105, 106, 107, 108, 109, 110, 111, 112, 113, 114, 115, 116, 117, 118, 119, 120, 121, 122, 123, 124, 125, 126, 127, 128, 129, 130, 131, 132, 133, 134, 135, 136, 137, 138, 139, 140, 141, 142, 143, 144, 145, 146, 147, 148, 149, 150, 151, 152, 153, 154, 155, 156, 157, 158, 159, 160, 161, 162, 163, 164, 165, 166, 167, 168, 169, 170, 171, 172, 173, 174, 175, 176, 177, 178, 179, 180, 181, 182, 183, 184, 185, 186, 187, 188, 189, 190, 191, 192, 193, 194, 195, 196, 197, 198, 199, 200],
      "AcquisitionTime": ["095815.755000", "095817.755000", "095819.755000", "095821.755000", "095823.755000", "095825.755000", "095827.755000", "095829.755000", "095831.755000", "095833.755000", "095835.755000", "095837.755000", "095839.755000", "095841.755000", "095843.755000", "095845.755000", "095847.755000", "095849.755000", "095851.755000", "095853.755000", "095855.755000", "095857.755000", "095859.755000", "095901.755000", "095903.755000", "095905.755000", "095907.755000", "095909.755000", "095911.755000", "095913.755000", "095915.755000", "095917.755000", "095919.755000", "095921.755000", "095923.755000", "095925.755000", "095927.755000", "095929.755000", "095931.755000", "095933.755000", "095935.755000", "095937.755000", "095939.755000", "095941.755000", "095943.755000", "095945.755000", "095947.755000", "095949.755000", "095951.755000", "095953.755000", "095955.755000", "095957.755000", "095959.755000", "100001.755000", "100003.755000", "100005.755000", "100007.755000", "100009.755000", "100011.755000", "100013.755000", "100015.755000", "100017.755000", "100019.755000", "100021.755000", "100023.755000", "100025.755000", "100027.755000", "100029.755000", "100031.755000", "100033.755000", "100035.755000", "100037.755000", "100039.755000", "100041.755000", "100043.755000", "100045.755000", "100047.755000", "100049.755000", "100051.755000", "100053.755000", "100055.755000", "100057.755000", "100059.755000", "100101.755000", "100103.755000", "100105.755000", "100107.755000", "100109.755000", "100111.755000", "100113.755000", "100115.755000", "100117.755000", "100119.755000", "100121.755000", "100123.755000", "100125.755000", "100127.755000", "100129.755000", "100131.755000", "100133.755000", "100135.755000", "100137.755000", "100139.755000", "100141.755000", "100143.755000", "100145.755000", "100147.755000", "100149.755000", "100151.755000", "100153.755000", "100155.755000", "100157.755000", "100159.755000", "100201.755000", "100203.755000", "100205.755000", "100207.755000", "100209.755000", "100211.755000", "100213.755000", "100215.755000", "100217.755000", "100219.755000", "100221.755000", "100223.755000", "100225.755000", "100227.755000", "100229.755000", "100231.755000", "100233.755000", "100235.755000", "100237.755000", "100239.755000", "100241.755000", "100243.755000", "100245.755000", "100247.755000", "100249.755000", "100251.755000", "100253.755000", "100255.755000", "100257.755000", "100259.755000", "100301.755000", "100303.755000", "100305.755000", "100307.755000", "100309.755000", "100311.755000", "100313.755000", "100315.755000", "100317.755000", "100319.755000", "100321.755000", "100323.755000", "100325.755000", "100327.755000", "100329.755000", "100331.755000", "100333.755000", "100335.755000", "100337.755000", "100339.755000", "100341.755000", "100343.755000", "100345.755000", "100347.755000", "100349.755000", "100351.755000", "100353.755000", "100355.755000", "100357.755000", "100359.755000", "100401.755000", "100403.755000", "100405.755000", "100407.755000", "100409.755000", "100411.755000", "100413.755000", "100415.755000", "100417.755000", "100419.755000", "100421.755000", "100423.755000", "100425.755000", "100427.755000", "100429.755000", "100431.755000", "100433.755000", "100435.755000", "100437.755000", "100439.755000", "100441.755000", "100443.755000", "100445.755000", "100447.755000", "100449.755000", "100451.755000", "100453.755000"],
      "ContentTime": ["095905.393000", "095905.397000", "095905.399000", "095905.401000", "095905.404000", "095905.406000", "095905.409000", "095905.411000", "095905.413000", "095905.416000", "095905.418000", "095905.420000", "095905.423000", "095905.425000", "095905.427000", "095905.430000", "095905.432000", "095905.434000", "095905.437000", "095905.439000", "095905.441000", "095905.444000", "095905.446000", "095905.448000", "095905.451000", "095945.388000", "095945.391000", "095945.393000", "095945.395000", "095945.397000", "095945.400000", "095945.402000", "095945.404000", "095945.407000", "095945.409000", "095945.411000", "095945.414000", "095945.416000", "095945.418000", "095945.421000", "095945.423000", "095945.425000", "095945.428000", "095945.430000", "095945.432000", "100025.388000", "100025.391000", "100025.393000", "100025.395000", "100025.398000", "100025.400000", "100025.402000", "100025.410000", "100025.412000", "100025.414000", "100025.417000", "100025.419000", "100025.421000", "100025.424000", "100025.426000", "100025.428000", "100025.431000", "100025.433000", "100025.435000", "100025.438000", "100105.389000", "100105.392000", "100105.394000", "100105.396000", "100105.399000", "100105.401000", "100105.403000", "100105.406000", "100105.408000", "100105.410000", "100105.413000", "100105.415000", "100105.417000", "100105.419000", "100105.422000", "100105.424000", "100105.426000", "100105.429000", "100105.431000", "100105.433000", "100145.388000", "100145.391000", "100145.393000", "100145.396000", "100145.398000", "100145.400000", "100145.402000", "100145.405000", "100145.407000", "100145.409000", "100145.412000", "100145.414000", "100145.416000", "100145.419000", "100145.421000", "100145.423000", "100145.425000", "100145.428000", "100145.430000", "100145.432000", "100225.388000", "100225.391000", "100225.393000", "100225.396000", "100225.398000", "100225.400000", "100225.403000", "100225.405000", "100225.407000", "100225.413000", "100225.415000", "100225.417000", "100225.420000", "100225.422000", "100225.424000", "100225.427000", "100225.429000", "100225.431000", "100225.434000", "100225.436000", "100305.389000", "100305.392000", "100305.394000", "100305.396000", "100305.399000", "100305.401000", "100305.403000", "100305.406000", "100305.408000", "100305.410000", "100305.413000", "100305.415000", "100305.417000", "100305.420000", "100305.422000", "100305.424000", "100305.427000", "100305.429000", "100305.431000", "100305.433000", "100345.388000", "100345.391000", "100345.393000", "100345.396000", "100345.398000", "100345.400000", "100345.405000", "100345.408000", "100345.410000", "100345.412000", "100345.415000", "100345.417000", "100345.419000", "100345.422000", "100345.424000", "100345.426000", "100345.429000", "100345.431000", "100345.434000", "100345.436000", "100425.388000", "100425.391000", "100425.393000", "100425.395000", "100425.398000", "100425.400000", "100425.402000", "100425.405000", "100425.407000", "100425.409000", "100425.412000", "100425.414000", "100425.416000", "100425.418000", "100425.421000", "100425.423000", "100425.425000", "100425.428000", "100425.430000", "100425.432000", "100455.306000", "100455.312000", "100455.316000", "100455.318000", "100455.321000", "100455.324000", "100455.327000", "100455.331000", "100455.333000", "100455.340000", "100455.343000", "100455.346000", "100455.351000", "100455.355000", "100455.358000"],
      "InstanceCreationTime": ["095905.393000", "095905.397000", "095905.399000", "095905.401000", "095905.404000", "095905.406000", "095905.409000", "095905.411000", "095905.413000", "095905.416000", "095905.418000", "095905.420000", "095905.423000", "095905.425000", "095905.427000", "095905.430000", "095905.432000", "095905.434000", "095905.437000", "095905.439000", "095905.441000", "095905.444000", "095905.446000", "095905.448000", "095905.451000", "095945.388000", "095945.391000", "095945.393000", "095945.395000", "095945.397000", "095945.400000", "095945.402000", "095945.404000", "095945.407000", "095945.409000", "095945.411000", "095945.414000", "095945.416000", "095945.418000", "095945.421000", "095945.423000", "095945.425000", "095945.428000", "095945.430000", "095945.432000", "100025.388000", "100025.391000", "100025.393000", "100025.395000", "100025.398000", "100025.400000", "100025.402000", "100025.410000", "100025.412000", "100025.414000", "100025.417000", "100025.419000", "100025.421000", "100025.424000", "100025.426000", "100025.428000", "100025.431000", "100025.433000", "100025.435000", "100025.438000", "100105.389000", "100105.392000", "100105.394000", "100105.396000", "100105.399000", "100105.401000", "100105.403000", "100105.406000", "100105.408000", "100105.410000", "100105.413000", "100105.415000", "100105.417000", "100105.419000", "100105.422000", "100105.424000", "100105.426000", "100105.429000", "100105.431000", "100105.433000", "100145.388000", "100145.391000", "100145.393000", "100145.396000", "100145.398000", "100145.400000", "100145.402000", "100145.405000", "100145.407000", "100145.409000", "100145.412000", "100145.414000", "100145.416000", "100145.419000", "100145.421000", "100145.423000", "100145.425000", "100145.428000", "100145.430000", "100145.432000", "100225.388000", "100225.391000", "100225.393000", "100225.396000", "100225.398000", "100225.400000", "100225.403000", "100225.405000", "100225.407000", "100225.413000", "100225.415000", "100225.417000", "100225.420000", "100225.422000", "100225.424000", "100225.427000", "100225.429000", "100225.431000", "100225.434000", "100225.436000", "100305.389000", "100305.392000", "100305.394000", "100305.396000", "100305.399000", "100305.401000", "100305.403000", "100305.406000", "100305.408000", "100305.410000", "100305.413000", "100305.415000", "100305.417000", "100305.420000", "100305.422000", "100305.424000", "100305.427000", "100305.429000", "100305.431000", "100305.433000", "100345.388000", "100345.391000", "100345.393000", "100345.396000", "100345.398000", "100345.400000", "100345.405000", "100345.408000", "100345.410000", "100345.412000", "100345.415000", "100345.417000", "100345.419000", "100345.422000", "100345.424000", "100345.426000", "100345.429000", "100345.431000", "100345.434000", "100345.436000", "100425.388000", "100425.391000", "100425.393000", "100425.395000", "100425.398000", "100425.400000", "100425.402000", "100425.405000", "100425.407000", "100425.409000", "100425.412000", "100425.414000", "100425.416000", "100425.418000", "100425.421000", "100425.423000", "100425.425000", "100425.428000", "100425.430000", "100425.432000", "100455.306000", "100455.312000", "100455.316000", "100455.318000", "100455.321000", "100455.324000", "100455.327000", "100455.331000", "100455.333000", "100455.340000", "100455.343000", "100455.346000", "100455.351000", "100455.355000", "100455.358000"],
      "InstanceNumber": [1, 2, 3, 4, 5, 6, 7, 8, 9, 10, 11, 12, 13, 14, 15, 16, 17, 18, 19, 20, 21, 22, 23, 24, 25, 26, 27, 28, 29, 30, 31, 32, 33, 34, 35, 36, 37, 38, 39, 40, 41, 42, 43, 44, 45, 46, 47, 48, 49, 50, 51, 52, 53, 54, 55, 56, 57, 58, 59, 60, 61, 62, 63, 64, 65, 66, 67, 68, 69, 70, 71, 72, 73, 74, 75, 76, 77, 78, 79, 80, 81, 82, 83, 84, 85, 86, 87, 88, 89, 90, 91, 92, 93, 94, 95, 96, 97, 98, 99, 100, 101, 102, 103, 104, 105, 106, 107, 108, 109, 110, 111, 112, 113, 114, 115, 116, 117, 118, 119, 120, 121, 122, 123, 124, 125, 126, 127, 128, 129, 130, 131, 132, 133, 134, 135, 136, 137, 138, 139, 140, 141, 142, 143, 144, 145, 146, 147, 148, 149, 150, 151, 152, 153, 154, 155, 156, 157, 158, 159, 160, 161, 162, 163, 164, 165, 166, 167, 168, 169, 170, 171, 172, 173, 174, 175, 176, 177, 178, 179, 180, 181, 182, 183, 184, 185, 186, 187, 188, 189, 190, 191, 192, 193, 194, 195, 196, 197, 198, 199, 200],
      "LargestImagePixelValue": [1980, 1976, 1981, 1975, 1980, 1975, 1983, 1975, 1979, 1982, 1972, 1981, 1981, 1980, 1982, 1982, 1974, 1981, 1981, 1980, 1980, 1983, 1982, 1981, 1978, 1983, 1985, 1985, 1977, 1983, 1984, 1981, 1987, 1975, 1982, 1983, 1989, 1983, 1979, 1980, 1981, 1971, 1980, 1987, 1983, 1983, 1984, 1980, 1979, 1976, 1979, 1978, 1976, 1976, 1982, 1981, 1983, 1981, 1975, 1981, 1978, 1983, 1980, 1984, 1980, 1981, 1978, 1979, 1983, 1976, 1976, 1983, 1981, 1982, 1978, 1979, 1978, 1982, 1977, 1980, 1980, 1978, 1973, 1977, 1984, 1986, 1977, 1979, 1980, 1977, 1977, 1983, 1983, 1980, 1981, 1977, 1978, 1977, 1981, 1980, 1980, 1986, 1984, 1978, 1979, 1976, 1977, 1983, 1983, 1983, 1982, 1978, 1980, 1980, 1978, 1979, 1977, 1982, 1979, 1978, 1978, 1978, 1985, 1977, 1977, 1974, 1980, 1978, 1970, 1981, 1975, 1970, 1974, 1978, 1978, 1975, 1981, 1974, 1979, 1976, 1975, 1978, 1983, 1979, 1973, 1977, 1971, 1979, 1977, 1980, 1974, 1973, 1969, 1980, 1980, 1980, 1977, 1978, 1973, 1974, 1977, 1977, 1973, 1973, 1977, 1970, 1970, 1973, 1976, 1973, 1979, 1977, 1979, 1972, 1979, 1978, 1977, 1971, 1974, 1976, 1975, 1970, 1964, 1973, 1976, 1977, 1973, 1972, 1977, 1973, 1973, 1973, 1972, 1971, 1970, 1967, 1974, 1970, 1970, 1971],
      "WindowCenter": [986.0, 985.0, 986.0, 985.0, 985.0, 986.0, 986.0, 985.0, 985.0, 985.0, 986.0, 986.0, 986.0, 985.0, 986.0, 986.0, 987.0, 985.0, 986.0, 985.0, 985.0, 985.0, 985.0, 985.0, 987.0, 986.0, 986.0, 985.0, 985.0, 985.0, 986.0, 985.0, 985.0, 986.0, 985.0, 985.0, 985.0, 986.0, 985.0, 985.0, 985.0, 986.0, 985.0, 986.0, 985.0, 986.0, 986.0, 985.0, 986.0, 986.0, 985.0, 985.0, 985.0, 986.0, 986.0, 985.0, 985.0, 985.0, 985.0, 985.0, 985.0, 985.0, 985.0, 985.0, 986.0, 985.0, 985.0, 986.0, 985.0, 985.0, 985.0, 986.0, 985.0, 986.0, 986.0, 985.0, 986.0, 985.0, 985.0, 985.0, 985.0, 985.0, 985.0, 985.0, 985.0, 985.0, 985.0, 985.0, 985.0, 986.0, 985.0, 985.0, 985.0, 985.0, 985.0, 986.0, 986.0, 985.0, 985.0, 985.0, 985.0, 985.0, 985.0, 985.0, 985.0, 985.0, 985.0, 985.0, 985.0, 985.0, 985.0, 985.0, 984.0, 985.0, 984.0, 984.0, 984.0, 985.0, 985.0, 985.0, 984.0, 985.0, 984.0, 985.0, 985.0, 984.0, 984.0, 984.0, 985.0, 984.0, 985.0, 984.0, 984.0, 985.0, 984.0, 985.0, 984.0, 984.0, 984.0, 984.0, 984.0, 985.0, 984.0, 985.0, 984.0, 984.0, 985.0, 985.0, 984.0, 984.0, 985.0, 984.0, 984.0, 985.0, 984.0, 984.0, 985.0, 985.0, 984.0, 984.0, 984.0, 985.0, 984.0, 984.0, 985.0, 985.0, 984.0, 984.0, 985.0, 984.0, 984.0, 984.0, 984.0, 984.0, 984.0, 985.0, 984.0, 984.0, 984.0, 986.0, 984.0, 985.0, 984.0, 984.0, 984.0, 984.0, 985.0, 985.0, 985.0, 984.0, 984.0, 984.0, 984.0, 984.0, 984.0, 985.0, 985.0, 985.0, 984.0, 985.0],
      "WindowWidth": [2168.0, 2168.0, 2168.0, 2168.0, 2168.0, 2169.0, 2169.0, 2168.0, 2168.0, 2167.0, 2168.0, 2168.0, 2169.0, 2168.0, 2168.0, 2169.0, 2169.0, 2168.0, 2168.0, 2167.0, 2167.0, 2168.0, 2167.0, 2167.0, 2169.0, 2168.0, 2168.0, 2168.0, 2167.0, 2167.0, 2168.0, 2167.0, 2167.0, 2168.0, 2167.0, 2167.0, 2167.0, 2168.0, 2167.0, 2167.0, 2167.0, 2168.0, 2167.0, 2167.0, 2167.0, 2167.0, 2167.0, 2167.0, 2168.0, 2167.0, 2167.0, 2167.0, 2167.0, 2167.0, 2167.0, 2167.0, 2167.0, 2167.0, 2167.0, 2167.0, 2167.0, 2167.0, 2167.0, 2167.0, 2167.0, 2167.0, 2166.0, 2167.0, 2167.0, 2166.0, 2167.0, 2167.0, 2166.0, 2167.0, 2167.0, 2166.0, 2167.0, 2167.0, 2167.0, 2166.0, 2167.0, 2166.0, 2166.0, 2166.0, 2166.0, 2167.0, 2166.0, 2166.0, 2166.0, 2167.0, 2166.0, 2166.0, 2167.0, 2166.0, 2166.0, 2167.0, 2167.0, 2166.0, 2166.0, 2166.0, 2166.0, 2166.0, 2166.0, 2166.0, 2166.0, 2166.0, 2166.0, 2166.0, 2166.0, 2166.0, 2166.0, 2166.0, 2166.0, 2166.0, 2165.0, 2165.0, 2166.0, 2166.0, 2166.0, 2166.0, 2166.0, 2166.0, 2166.0, 2166.0, 2166.0, 2166.0, 2166.0, 2165.0, 2166.0, 2165.0, 2166.0, 2166.0, 2165.0, 2166.0, 2165.0, 2166.0, 2165.0, 2165.0, 2165.0, 2165.0, 2165.0, 2166.0, 2165.0, 2166.0, 2165.0, 2165.0, 2166.0, 2166.0, 2165.0, 2165.0, 2166.0, 2165.0, 2165.0, 2165.0, 2165.0, 2165.0, 2165.0, 2165.0, 2165.0, 2165.0, 2165.0, 2165.0, 2165.0, 2165.0, 2165.0, 2165.0, 2165.0, 2165.0, 2165.0, 2165.0, 2165.0, 2165.0, 2165.0, 2165.0, 2165.0, 2165.0, 2165.0, 2164.0, 2165.0, 2166.0, 2165.0, 2165.0, 2164.0, 2165.0, 2165.0, 2164.0, 2165.0, 2165.0, 2165.0, 2164.0, 2165.0, 2164.0, 2164.0, 2164.0, 2165.0, 2165.0, 2165.0, 2165.0, 2164.0, 2165.0]
    },
    "slices": {}
  }
}