{
  "AcquisitionMatrixPE": 80,
  "AcquisitionNumber": 1,
  "AcquisitionTime": "09:24:28.462500",
  "BandwidthPerPixelPhaseEncode": 25,
  "BaseResolution": 80,
  "BodyPartExamined": "BRAIN",
  "CoilCombinationMethod": "Sum of Squares",
  "ConsistencyInfo": "N4_VE11E_LATEST_20181129",
  "ConversionSoftware": "dcm2niix",
  "ConversionSoftwareVersion": "v1.0.20220720",
  "DerivedVendorReportedEchoSpacing": 0.0005,
  "DeviceSerialNumber": "66112",
  "DwellTime": 2.7e-06,
  "EchoTime": 0.03,
  "EchoTrainLength": 80,
  "EffectiveEchoSpacing": 0.0005,
  "FlipAngle": 10,
  "HeudiconvVersion": "0.13.1",
  "ImageOrientationPatientDICOM": [0.986816, 0.161562, 0.00960551, -0.156826, 0.939842, 0.303483],
  "ImageOrientationText": "Tra>Cor(17.5)>Sag(-2.3)",
  "ImageType": [
    "ORIGINAL",
    "PRIMARY",
    "M",
    "ND",
    "NORM",
    "MOSAIC"
],
  "ImagingFrequency": 123.259,
  "InPlanePhaseEncodingDirectionDICOM": "COL",
  "InstitutionAddress": "Maynard 3,Hanover,NH,US,03755",
  "InstitutionName": "Dartmouth College - PBS",
  "InstitutionalDepartmentName": "Department",
  "MRAcquisitionType": "2D",
  "MagneticFieldStrength": 3,
  "Manufacturer": "Siemens",
  "ManufacturersModelName": "Prisma",
  "MatrixCoilMode": "SENSE",
  "Modality": "MR",
  "NonlinearGradientCorrection": false,
  "PartialFourier": 1,
  "PatientPosition": "HFS",
  "PercentPhaseFOV": 100,
  "PercentSampling": 100,
  "PhaseEncodingDirection": "j-",
  "PhaseEncodingSteps": 80,
  "PhaseResolution": 1,
  "PixelBandwidth": 2315,
  "ProcedureStepDescription": "dbic^QA",
  "ProtocolName": "func-bold_fa-10",
  "PulseSequenceDetails": "%SiemensSeq%\\ep2d_bold",
  "ReceiveCoilActiveElements": "HEA;HEP",
  "ReceiveCoilName": "Head_32",
  "ReconMatrixPE": 80,
  "RepetitionTime": 2,
  "SAR": 0.0150524,
  "ScanOptions": "FS",
  "ScanningSequence": "EP",
  "SequenceName": "*epfid2d1_80",
  "SequenceVariant": "SK",
  "SeriesDescription": "func-bold_fa-10",
  "SeriesNumber": 8,
  "ShimSetting": [4220, -7742, -7504, -54, -130, -63, 0, 78],
  "SliceThickness": 3.5,
  "SliceTiming": [0.99, 0, 1.0575, 0.0675, 1.1225, 0.1325, 1.1875, 0.2, 1.255, 0.265, 1.32, 0.33, 1.3875, 0.3975, 1.4525, 0.4625, 1.5175, 0.53, 1.585, 0.595, 1.65, 0.66, 1.7175, 0.7275, 1.7825, 0.7925, 1.8475, 0.86, 1.915, 0.925],
  "SoftwareVersions": "syngo MR E11",
  "SpacingBetweenSlices": 3.99,
  "StationName": "AWP66112",
  "TotalReadoutTime": 0.0395,
  "TxRefAmp": 224.446,
  "dcmmeta_affine": [
    [-2.960447311401367, -0.4704779386520386, -0.15961505472660065, 141.24794006347656],
    [-0.48468732833862305, 2.8195271492004395, 1.2009423971176147, -102.90694427490234],
    [0.028816526755690575, -0.9104486703872681, 3.801625967025757, -22.643674850463867],
    [0.0, 0.0, 0.0, 1.0]
],
  "dcmmeta_reorient_transform": [
    [0.0, -1.0, 0.0, 79.0],
    [1.0, 0.0, 0.0, 0.0],
    [0.0, 0.0, 1.0, 0.0],
    [0.0, 0.0, 0.0, 1.0]
],
  "dcmmeta_shape": [80, 80, 30, 200],
  "dcmmeta_slice_dim": 2,
  "dcmmeta_version": 0.6,
  "global": {
    "const": {
      "AccessionNumber": "qa",
      "AcquisitionMatrix": [80, 0, 0, 80],
      "AngioFlag": "N",
      "BitsAllocated": 16,
      "BitsStored": 12,
      "BodyPartExamined": "BRAIN",
      "Columns": 480,
      "EchoNumbers": 1,
      "EchoTime": 30.0,
      "EchoTrainLength": 80,
      "FlipAngle": 10.0,
      "HighBit": 11,
      "ImageOrientationPatient": [0.98681574285127, 0.16156244567988, 0.00960550919172, -0.1568259794531, 0.9398424064811, 0.30348288773568],
      "ImagePositionPatient": [-602.07404396474, -780.67862116516, -282.4221580558],
      "ImageType": [
        "ORIGINAL",
        "PRIMARY",
        "M",
        "ND",
        "NORM",
        "MOSAIC"
],
      "ImagedNucleus": "1H",
      "ImagingFrequency": 123.259164,
      "InPlanePhaseEncodingDirection": "COL",
      "MRAcquisitionType": "2D",
      "MagneticFieldStrength": 3.0,
      "Manufacturer": "SIEMENS",
      "ManufacturerModelName": "Prisma",
      "Modality": "MR",
      "NumberOfAverages": 1.0,
      "NumberOfPhaseEncodingSteps": 80,
      "PercentPhaseFieldOfView": 100.0,
      "PercentSampling": 100.0,
      "PerformedProcedureStepStartTime": "085021.208000",
      "PhotometricInterpretation": "MONOCHROME2",
      "PixelBandwidth": 2315.0,
      "PixelRepresentation": 0,
      "PixelSpacing": [3.0, 3.0],
      "ProtocolName": "func-bold_fa-10",
      "RepetitionTime": 2000.0,
      "Rows": 480,
      "SAR": 0.01505244741916,
      "SamplesPerPixel": 1,
      "ScanOptions": "FS",
      "ScanningSequence": "EP",
      "SequenceName": "*epfid2d1_80",
      "SequenceVariant": "SK",
      "SeriesDescription": "func-bold_fa-10",
      "SeriesNumber": 8,
      "SeriesTime": "092527.686000",
      "SliceLocation": -58.19884648968,
      "SliceThickness": 3.5,
      "SmallestImagePixelValue": 0,
      "SoftwareVersions": "syngo MR E11",
      "SpacingBetweenSlices": 3.9899999901203,
      "SpecificCharacterSet": "ISO_IR 100",
      "StudyID": "42",
      "StudyTime": "085021.122000",
      "TransmitCoilName": "Body",
      "VariableFlipAngleFlag": "N",
      "WindowCenterWidthExplanation": "Algo1"
    },
    "slices": {}
  },
  "time": {
    "samples": {
      "AcquisitionNumber": [1, 2, 3, 4, 5, 6, 7, 8, 9, 10, 11, 12, 13, 14, 15, 16, 17, 18, 19, 20, 21, 22, 23, 24, 25, 26, 27, 28, 29, 30, 31, 32, 33, 34, 35, 36, 37, 38, 39, 40, 41, 42, 43, 44, 45, 46, 47, 48, 49, 50, 51, 52, 53, 54, 55, 56, 57, 58, 59, 60, 61, 62, 63, 64, 65, 66, 67, 68, 69, 70, 71, 72, 73, 74, 75, 76, 77, 78, 79, 80, 81, 82, 83, 84, 85, 86, 87, 88, 89, 90, 91, 92, 93, 94, 95, 96, 97, 98, 99, 100, 101, 102, 103, 104, 105, 106, 107, 108, 109, 110, 111, 112, 113, 114, 115, 116, 117, 118, 119, 120, 121, 122, 123, 124, 125, 126, 127, 128, 129, 130, 131, 132, 133, 134, 135, 136, 137, 138, 139, 140, 141, 142, 143, 144, 145, 146, 147, 148, 149, 150, 151, 152, 153, 154, 155, 156, 157, 158, 159, 160, 161, 162, 163, 164, 165, 166, 167, 168, 169, 170, 171, 172, 173, 174, 175, 176, 177, 178, 179, 180, 181, 182, 183, 184, 185, 186, 187, 188, 189, 190, 191, 192, 193, 194, 195, 196, 197, 198, 199, 200],
      "AcquisitionTime": ["092428.462500", "092430.462500", "092432.462500", "092434.462500", "092436.462500", "092438.462500", "092440.462500", "092442.462500", "092444.462500", "092446.462500", "092448.462500", "092450.462500", "092452.462500", "092454.462500", "092456.462500", "092458.462500", "092500.462500", "092502.462500", "092504.462500", "092506.462500", "092508.462500", "092510.462500", "092512.462500", "092514.462500", "092516.462500", "092518.462500", "092520.462500", "092522.462500", "092524.462500", "092526.462500", "092528.462500", "092530.462500", "092532.462500", "092534.462500", "092536.462500", "092538.462500", "092540.462500", "092542.462500", "092544.462500", "092546.462500", "092548.462500", "092550.462500", "092552.462500", "092554.462500", "092556.462500", "092558.462500", "092600.462500", "092602.462500", "092604.462500", "092606.462500", "092608.462500", "092610.462500", "092612.462500", "092614.462500", "092616.462500", "092618.462500", "092620.462500", "092622.462500", "092624.462500", "092626.462500", "092628.462500", "092630.462500", "092632.462500", "092634.462500", "092636.462500", "092638.462500", "092640.462500", "092642.462500", "092644.462500", "092646.462500", "092648.462500", "092650.462500", "092652.462500", "092654.462500", "092656.462500", "092658.462500", "092700.462500", "092702.462500", "092704.462500", "092706.462500", "092708.462500", "092710.462500", "092712.462500", "092714.462500", "092716.462500", "092718.462500", "092720.462500", "092722.462500", "092724.462500", "092726.462500", "092728.462500", "092730.462500", "092732.462500", "092734.462500", "092736.462500", "092738.462500", "092740.462500", "092742.462500", "092744.462500", "092746.462500", "092748.462500", "092750.462500", "092752.462500", "092754.462500", "092756.462500", "092758.462500", "092800.462500", "092802.462500", "092804.462500", "092806.462500", "092808.462500", "092810.462500", "092812.462500", "092814.462500", "092816.462500", "092818.462500", "092820.462500", "092822.462500", "092824.462500", "092826.462500", "092828.462500", "092830.462500", "092832.462500", "092834.462500", "092836.462500", "092838.462500", "092840.462500", "092842.462500", "092844.462500", "092846.462500", "092848.462500", "092850.462500", "092852.462500", "092854.462500", "092856.462500", "092858.462500", "092900.462500", "092902.462500", "092904.462500", "092906.462500", "092908.462500", "092910.462500", "092912.462500", "092914.462500", "092916.462500", "092918.462500", "092920.462500", "092922.462500", "092924.462500", "092926.462500", "092928.462500", "092930.462500", "092932.462500", "092934.462500", "092936.462500", "092938.462500", "092940.462500", "092942.462500", "092944.462500", "092946.462500", "092948.462500", "092950.462500", "092952.462500", "092954.462500", "092956.462500", "092958.462500", "093000.462500", "093002.462500", "093004.462500", "093006.462500", "093008.462500", "093010.462500", "093012.462500", "093014.462500", "093016.462500", "093018.462500", "093020.462500", "093022.462500", "093024.462500", "093026.462500", "093028.462500", "093030.462500", "093032.462500", "093034.462500", "093036.462500", "093038.462500", "093040.462500", "093042.462500", "093044.462500", "093046.462500", "093048.462500", "093050.462500", "093052.462500", "093054.462500", "093056.462500", "093058.462500", "093100.462500", "093102.462500", "093104.462500", "093106.462500"],
      "ContentTime": ["092527.689000", "092527.692000", "092527.694000", "092527.697000", "092527.699000", "092527.701000", "092527.703000", "092527.706000", "092527.708000", "092527.710000", "092527.713000", "092527.715000", "092527.717000", "092527.719000", "092527.722000", "092527.724000", "092527.726000", "092527.729000", "092527.731000", "092527.742000", "092527.744000", "092527.746000", "092527.748000", "092527.751000", "092527.753000", "092527.755000", "092527.758000", "092527.760000", "092527.762000", "092607.683000", "092607.686000", "092607.688000", "092607.690000", "092607.692000", "092607.702000", "092607.704000", "092607.706000", "092607.708000", "092607.711000", "092607.713000", "092607.715000", "092607.717000", "092607.720000", "092607.722000", "092607.724000", "092607.726000", "092607.729000", "092607.731000", "092607.733000", "092647.683000", "092647.686000", "092647.688000", "092647.690000", "092647.693000", "092647.695000", "092647.697000", "092647.699000", "092647.702000", "092647.704000", "092647.706000", "092647.709000", "092647.711000", "092647.713000", "092647.715000", "092647.718000", "092647.720000", "092647.722000", "092647.725000", "092647.727000", "092727.683000", "092727.686000", "092727.688000", "092727.690000", "092727.692000", "092727.695000", "092727.697000", "092727.699000", "092727.702000", "092727.704000", "092727.712000", "092727.714000", "092727.717000", "092727.719000", "092727.721000", "092727.724000", "092727.726000", "092727.728000", "092727.730000", "092727.733000", "092807.683000", "092807.686000", "092807.688000", "092807.690000", "092807.692000", "092807.695000", "092807.697000", "092807.699000", "092807.702000", "092807.704000", "092807.706000", "092807.708000", "092807.711000", "092807.713000", "092807.715000", "092807.717000", "092807.720000", "092807.722000", "092807.724000", "092807.726000", "092847.683000", "092847.686000", "092847.688000", "092847.690000", "092847.692000", "092847.695000", "092847.697000", "092847.699000", "092847.701000", "092847.704000", "092847.706000", "092847.708000", "092847.710000", "092847.713000", "092847.715000", "092847.717000", "092847.719000", "092847.722000", "092847.724000", "092847.726000", "092927.683000", "092927.685000", "092927.688000", "092927.690000", "092927.692000", "092927.695000", "092927.697000", "092927.699000", "092927.701000", "092927.704000", "092927.706000", "092927.708000", "092927.711000", "092927.713000", "092927.715000", "092927.717000", "092927.720000", "092927.722000", "092927.724000", "092927.726000", "093007.684000", "093007.687000", "093007.689000", "093007.691000", "093007.694000", "093007.696000", "093007.698000", "093007.701000", "093007.703000", "093007.705000", "093007.707000", "093007.710000", "093007.712000", "093007.714000", "093007.716000", "093007.719000", "093007.721000", "093007.723000", "093007.726000", "093007.728000", "093047.683000", "093047.694000", "093047.697000", "093047.699000", "093047.701000", "093047.704000", "093047.706000", "093047.708000", "093047.724000", "093047.726000", "093047.728000", "093047.731000", "093047.733000", "093047.735000", "093047.737000", "093047.740000", "093047.742000", "093047.744000", "093047.746000", "093047.749000", "093108.313000", "093108.315000", "093108.317000", "093108.320000", "093108.322000", "093108.324000", "093108.327000", "093108.329000", "093108.331000", "093108.334000", "093108.336000"],
      "InstanceCreationTime": ["092527.689000", "092527.692000", "092527.694000", "092527.697000", "092527.699000", "092527.701000", "092527.703000", "092527.706000", "092527.708000", "092527.710000", "092527.713000", "092527.715000", "092527.717000", "092527.719000", "092527.722000", "092527.724000", "092527.726000", "092527.729000", "092527.731000", "092527.742000", "092527.744000", "092527.746000", "092527.748000", "092527.751000", "092527.753000", "092527.755000", "092527.758000", "092527.760000", "092527.762000", "092607.683000", "092607.686000", "092607.688000", "092607.690000", "092607.692000", "092607.702000", "092607.704000", "092607.706000", "092607.708000", "092607.711000", "092607.713000", "092607.715000", "092607.717000", "092607.720000", "092607.722000", "092607.724000", "092607.726000", "092607.729000", "092607.731000", "092607.733000", "092647.683000", "092647.686000", "092647.688000", "092647.690000", "092647.693000", "092647.695000", "092647.697000", "092647.699000", "092647.702000", "092647.704000", "092647.706000", "092647.709000", "092647.711000", "092647.713000", "092647.715000", "092647.718000", "092647.720000", "092647.722000", "092647.725000", "092647.727000", "092727.683000", "092727.686000", "092727.688000", "092727.690000", "092727.692000", "092727.695000", "092727.697000", "092727.699000", "092727.702000", "092727.704000", "092727.712000", "092727.714000", "092727.717000", "092727.719000", "092727.721000", "092727.724000", "092727.726000", "092727.728000", "092727.730000", "092727.733000", "092807.683000", "092807.686000", "092807.688000", "092807.690000", "092807.692000", "092807.695000", "092807.697000", "092807.699000", "092807.702000", "092807.704000", "092807.706000", "092807.708000", "092807.711000", "092807.713000", "092807.715000", "092807.717000", "092807.720000", "092807.722000", "092807.724000", "092807.726000", "092847.683000", "092847.686000", "092847.688000", "092847.690000", "092847.692000", "092847.695000", "092847.697000", "092847.699000", "092847.701000", "092847.704000", "092847.706000", "092847.708000", "092847.710000", "092847.713000", "092847.715000", "092847.717000", "092847.719000", "092847.722000", "092847.724000", "092847.726000", "092927.683000", "092927.685000", "092927.688000", "092927.690000", "092927.692000", "092927.695000", "092927.697000", "092927.699000", "092927.701000", "092927.704000", "092927.706000", "092927.708000", "092927.711000", "092927.713000", "092927.715000", "092927.717000", "092927.720000", "092927.722000", "092927.724000", "092927.726000", "093007.684000", "093007.687000", "093007.689000", "093007.691000", "093007.694000", "093007.696000", "093007.698000", "093007.701000", "093007.703000", "093007.705000", "093007.707000", "093007.710000", "093007.712000", "093007.714000", "093007.716000", "093007.719000", "093007.721000", "093007.723000", "093007.726000", "093007.728000", "093047.683000", "093047.694000", "093047.697000", "093047.699000", "093047.701000", "093047.704000", "093047.706000", "093047.708000", "093047.724000", "093047.726000", "093047.728000", "093047.731000", "093047.733000", "093047.735000", "093047.737000", "093047.740000", "093047.742000", "093047.744000", "093047.746000", "093047.749000", "093108.313000", "093108.315000", "093108.317000", "093108.320000", "093108.322000", "093108.324000", "093108.327000", "093108.329000", "093108.331000", "093108.334000", "093108.336000"],
      "InstanceNumber": [1, 2, 3, 4, 5, 6, 7, 8, 9, 10, 11, 12, 13, 14, 15, 16, 17, 18, 19, 20, 21, 22, 23, 24, 25, 26, 27, 28, 29, 30, 31, 32, 33, 34, 35, 36, 37, 38, 39, 40, 41, 42, 43, 44, 45, 46, 47, 48, 49, 50, 51, 52, 53, 54, 55, 56, 57, 58, 59, 60, 61, 62, 63, 64, 65, 66, 67, 68, 69, 70, 71, 72, 73, 74, 75, 76, 77, 78, 79, 80, 81, 82, 83, 84, 85, 86, 87, 88, 89, 90, 91, 92, 93, 94, 95, 96, 97, 98, 99, 100, 101, 102, 103, 104, 105, 106, 107, 108, 109, 110, 111, 112, 113, 114, 115, 116, 117, 118, 119, 120, 121, 122, 123, 124, 125, 126, 127, 128, 129, 130, 131, 132, 133, 134, 135, 136, 137, 138, 139, 140, 141, 142, 143, 144, 145, 146, 147, 148, 149, 150, 151, 152, 153, 154, 155, 156, 157, 158, 159, 160, 161, 162, 163, 164, 165, 166, 167, 168, 169, 170, 171, 172, 173, 174, 175, 176, 177, 178, 179, 180, 181, 182, 183, 184, 185, 186, 187, 188, 189, 190, 191, 192, 193, 194, 195, 196, 197, 198, 199, 200],
      "LargestImagePixelValue": [380, 379, 379, 379, 381, 379, 379, 381, 379, 378, 380, 380, 379, 379, 380, 379, 381, 380, 379, 380, 380, 378, 379, 379, 379, 379, 380, 380, 378, 380, 380, 379, 378, 381, 379, 378, 381, 380, 380, 378, 379, 379, 378, 380, 379, 379, 379, 379, 379, 378, 379, 380, 380, 380, 379, 378, 380, 379, 378, 379, 379, 379, 380, 379, 379, 379, 379, 379, 379, 379, 379, 380, 379, 379, 378, 379, 379, 378, 379, 379, 379, 378, 380, 379, 378, 380, 380, 378, 378, 379, 379, 379, 379, 380, 379, 380, 379, 379, 377, 380, 379, 378, 380, 379, 378, 381, 379, 377, 380, 380, 378, 378, 379, 379, 378, 380, 379, 378, 380, 379, 379, 378, 381, 379, 377, 381, 379, 378, 379, 379, 379, 379, 379, 378, 379, 380, 378, 378, 379, 379, 379, 381, 378, 378, 380, 380, 378, 379, 380, 380, 377, 378, 379, 378, 377, 378, 379, 378, 379, 378, 378, 378, 379, 379, 379, 379, 378, 378, 380, 379, 378, 378, 378, 379, 379, 379, 379, 379, 379, 378, 378, 380, 378, 378, 380, 379, 378, 380, 379, 378, 378, 379, 378, 378, 379, 379, 378, 378, 378, 379],
      "WindowCenter": [306.0, 306.0, 306.0, 307.0, 306.0, 306.0, 306.0, 306.0, 306.0, 306.0, 306.0, 306.0, 306.0, 306.0, 306.0, 306.0, 306.0, 306.0, 306.0, 306.0, 306.0, 306.0, 306.0, 306.0, 306.0, 306.0, 306.0, 306.0, 306.0, 306.0, 306.0, 306.0, 306.0, 306.0, 306.0, 306.0, 306.0, 306.0, 306.0, 306.0, 306.0, 306.0, 306.0, 306.0, 306.0, 306.0, 306.0, 306.0, 306.0, 306.0, 306.0, 306.0, 306.0, 306.0, 306.0, 306.0, 306.0, 306.0, 306.0, 306.0, 306.0, 306.0, 306.0, 306.0, 306.0, 306.0, 306.0, 306.0, 306.0, 306.0, 306.0, 306.0, 306.0, 306.0, 306.0, 306.0, 306.0, 306.0, 306.0, 306.0, 306.0, 306.0, 306.0, 306.0, 306.0, 306.0, 306.0, 306.0, 306.0, 306.0, 306.0, 306.0, 306.0, 306.0, 306.0, 306.0, 306.0, 306.0, 306.0, 306.0, 306.0, 306.0, 306.0, 306.0, 306.0, 306.0, 306.0, 306.0, 306.0, 306.0, 306.0, 306.0, 306.0, 306.0, 306.0, 306.0, 306.0, 306.0, 306.0, 306.0, 306.0, 306.0, 306.0, 306.0, 306.0, 306.0, 306.0, 306.0, 306.0, 306.0, 306.0, 306.0, 306.0, 306.0, 306.0, 306.0, 306.0, 306.0, 306.0, 306.0, 305.0, 306.0, 306.0, 306.0, 306.0, 306.0, 306.0, 306.0, 306.0, 306.0, 305.0, 306.0, 306.0, 305.0, 306.0, 306.0, 306.0, 306.0, 306.0, 306.0, 306.0, 306.0, 306.0, 305.0, 306.0, 306.0, 305.0, 305.0, 306.0, 305.0, 306.0, 306.0, 306.0, 306.0, 306.0, 306.0, 306.0, 305.0, 305.0, 305.0, 306.0, 306.0, 305.0, 305.0, 305.0, 305.0, 305.0, 305.0, 306.0, 305.0, 306.0, 305.0, 305.0, 305.0, 305.0, 305.0, 305.0, 306.0, 305.0, 305.0],
      "WindowWidth": [662.0, 661.0, 661.0, 662.0, 662.0, 661.0, 661.0, 662.0, 661.0, 661.0, 661.0, 661.0, 661.0, 661.0, 661.0, 661.0, 661.0, 661.0, 661.0, 661.0, 661.0, 661.0, 661.0, 661.0, 661.0, 661.0, 661.0, 661.0, 661.0, 661.0, 661.0, 661.0, 661.0, 661.0, 661.0, 661.0, 661.0, 661.0, 661.0, 661.0, 661.0, 661.0, 661.0, 661.0, 661.0, 661.0, 661.0, 661.0, 661.0, 661.0, 661.0, 661.0, 661.0, 661.0, 661.0, 661.0, 661.0, 661.0, 661.0, 661.0, 661.0, 661.0, 661.0, 661.0, 661.0, 661.0, 661.0, 661.0, 661.0, 661.0, 661.0, 661.0, 661.0, 661.0, 661.0, 661.0, 661.0, 661.0, 661.0, 661.0, 661.0, 661.0, 661.0, 661.0, 661.0, 661.0, 661.0, 661.0, 661.0, 661.0, 661.0, 661.0, 661.0, 661.0, 661.0, 661.0, 661.0, 661.0, 661.0, 661.0, 661.0, 661.0, 661.0, 661.0, 661.0, 661.0, 661.0, 661.0, 661.0, 661.0, 660.0, 661.0, 661.0, 661.0, 661.0, 661.0, 661.0, 661.0, 661.0, 661.0, 661.0, 661.0, 661.0, 661.0, 660.0, 661.0, 661.0, 661.0, 661.0, 661.0, 661.0, 661.0, 661.0, 661.0, 660.0, 661.0, 661.0, 660.0, 661.0, 661.0, 660.0, 661.0, 661.0, 660.0, 661.0, 660.0, 660.0, 661.0, 661.0, 661.0, 660.0, 661.0, 661.0, 660.0, 660.0, 660.0, 661.0, 661.0, 661.0, 660.0, 660.0, 660.0, 660.0, 659.0, 661.0, 661.0, 660.0, 660.0, 660.0, 659.0, 661.0, 661.0, 660.0, 660.0, 661.0, 661.0, 661.0, 660.0, 660.0, 659.0, 660.0, 660.0, 660.0, 660.0, 660.0, 660.0, 660.0, 660.0, 660.0, 659.0, 660.0, 660.0, 660.0, 659.0, 659.0, 659.0, 659.0, 660.0, 660.0, 660.0]
    },
    "slices": {}
  }
}