{
  "AcquisitionMatrixPE": 122,
  "AcquisitionNumber": 1,
  "AcquisitionTime": "10:10:45.067500",
  "BandwidthPerPixelPhaseEncode": 28.76,
  "BaseResolution": 122,
  "BodyPartExamined": "BRAIN",
  "CoilCombinationMethod": "Adaptive Combine",
  "ConsistencyInfo": "N4_VE11C_LATEST_20160120",
  "ConversionSoftware": "dcm2niix",
  "ConversionSoftwareVersion": "v1.0.20220720",
  "DerivedVendorReportedEchoSpacing": 0.000570008,
  "DeviceSerialNumber": "66112",
  "DiffusionScheme": "Monopolar",
  "DwellTime": 2e-06,
  "EchoTime": 0.075,
  "EchoTrainLength": 61,
  "EffectiveEchoSpacing": 0.000285004,
  "FlipAngle": 90,
  "HeudiconvVersion": "0.13.1",
  "ImageOrientationPatientDICOM": [0.981522, 0.190913, 0.012938, -0.185993, 0.935968, 0.29895],
  "ImageOrientationText": "Tra>Cor(17.2)>Sag(-2.6)",
  "ImageType": [
    "ORIGINAL",
    "PRIMARY",
    "DIFFUSION",
    "NONE",
    "ND",
    "NORM"
],
  "ImagingFrequency": 123.252,
  "InPlanePhaseEncodingDirectionDICOM": "COL",
  "InstitutionAddress": "Maynard 3,Hanover,NH,US,03755",
  "InstitutionName": "Dartmouth College - PBS",
  "InstitutionalDepartmentName": "Department",
  "MRAcquisitionType": "2D",
  "MagneticFieldStrength": 3,
  "Manufacturer": "Siemens",
  "ManufacturersModelName": "Prisma",
  "MatrixCoilMode": "GRAPPA",
  "Modality": "MR",
  "NonlinearGradientCorrection": false,
  "ParallelReductionFactorInPlane": 2,
  "PartialFourier": 1,
  "PatientPosition": "HFS",
  "PercentPhaseFOV": 100,
  "PercentSampling": 100,
  "PhaseEncodingDirection": "j-",
  "PhaseEncodingSteps": 122,
  "PhaseResolution": 1,
  "PixelBandwidth": 2050,
  "ProcedureStepDescription": "dbic^QA",
  "ProtocolName": "dwi_acq-DTI-30-p2",
  "PulseSequenceDetails": "%SiemensSeq%\\ep2d_diff",
  "ReceiveCoilActiveElements": "HEA;HEP",
  "ReceiveCoilName": "Head_32",
  "ReconMatrixPE": 122,
  "RefLinesPE": 38,
  "RepetitionTime": 7.7,
  "SAR": 0.102215,
  "ScanOptions": "FS",
  "ScanningSequence": "EP",
  "SequenceName": "*ep_b0",
  "SequenceVariant": "SK\\SP",
  "SeriesDescription": "dwi_acq-DTI-30-p2",
  "SeriesNumber": 8,
  "ShimSetting": [4145, -7687, -7503, 294, -28, -138, -38, 68],
  "SliceThickness": 2,
  "SliceTiming": [3.84375, 0, 3.95312, 0.10938, 4.0625, 0.21875, 4.17188, 0.32812, 4.28125, 0.4375, 4.39062, 0.54688, 4.5, 0.65625, 4.60938, 0.76562, 4.71875, 0.875, 4.82812, 0.99219, 4.9375, 1.10156, 5.04688, 1.21094, 5.15625, 1.3125, 5.26562, 1.42969, 5.375, 1.53906, 5.48438, 1.64844, 5.59375, 1.75781, 5.70312, 1.86719, 5.8125, 1.97656, 5.92969, 2.08594, 6.03906, 2.19531, 6.14062, 2.30469, 6.25, 2.41406, 6.36719, 2.52344, 6.47656, 2.63281, 6.58594, 2.74219, 6.69531, 2.85156, 6.80469, 2.96094, 6.91406, 3.07031, 7.02344, 3.17969, 7.13281, 3.28906, 7.24219, 3.39844, 7.35156, 3.50781, 7.46094, 3.61719, 7.57031, 3.73438],
  "SoftwareVersions": "syngo MR E11",
  "SpacingBetweenSlices": 2,
  "SpoilingState": true,
  "StationName": "AWP66112",
  "TotalReadoutTime": 0.0344855,
  "TxRefAmp": 231.567,
  "dcmmeta_affine": [
    [-1.9308624267578125, -0.36588746309280396, -0.0899277925491333, 146.50372314453125],
    [-0.3755660653114319, 1.8412476778030396, 0.5916652679443359, -98.55242919921875],
    [0.025451844558119774, -0.5880993604660034, 1.9083633422851562, -34.24752426147461],
    [0.0, 0.0, 0.0, 1.0]
],
  "dcmmeta_reorient_transform": [
    [0.0, -1.0, 0.0, 121.0],
    [1.0, 0.0, 0.0, 0.0],
    [0.0, 0.0, -1.0, 69.0],
    [0.0, 0.0, 0.0, 1.0]
],
  "dcmmeta_shape": [122, 122, 70, 31],
  "dcmmeta_slice_dim": 2,
  "dcmmeta_version": 0.6,
  "global": {
    "const": {
      "AccessionNumber": "qa",
      "AcquisitionMatrix": [122, 0, 0, 122],
      "AngioFlag": "N",
      "BitsAllocated": 16,
      "BitsStored": 12,
      "BodyPartExamined": "BRAIN",
      "Columns": 122,
      "EchoNumbers": 1,
      "EchoTime": 75.0,
      "EchoTrainLength": 61,
      "FlipAngle": 90.0,
      "HighBit": 11,
      "ImageOrientationPatient": [0.98152174265877, 0.1909127452741, 0.01293802071422, -0.1859927872792, 0.93596756255934, 0.29895050579793],
      "ImageType": [
        "ORIGINAL",
        "PRIMARY",
        "DIFFUSION",
        "NONE",
        "ND",
        "NORM"
],
      "ImagedNucleus": "1H",
      "ImagingFrequency": 123.252425,
      "InPlanePhaseEncodingDirection": "COL",
      "MRAcquisitionType": "2D",
      "MagneticFieldStrength": 3.0,
      "Manufacturer": "SIEMENS",
      "ManufacturerModelName": "Prisma",
      "Modality": "MR",
      "NumberOfAverages": 1.0,
      "NumberOfPhaseEncodingSteps": 122,
      "PercentPhaseFieldOfView": 100.0,
      "PercentSampling": 100.0,
      "PerformedProcedureStepStartTime": "095446.404000",
      "PhotometricInterpretation": "MONOCHROME2",
      "PixelBandwidth": 2050.0,
      "PixelRepresentation": 0,
      "PixelSpacing": [1.9672131538391, 1.9672131538391],
      "ProtocolName": "dwi_acq-DTI-30-p2",
      "RepetitionTime": 7700.0,
      "Rows": 122,
      "SAR": 0.10221457756076,
      "SamplesPerPixel": 1,
      "ScanOptions": "FS",
      "ScanningSequence": "EP",
      "SequenceVariant": [
        "SK",
        "SP"
],
      "SeriesDescription": "dwi_acq-DTI-30-p2",
      "SeriesNumber": 8,
      "SeriesTime": "101059.918000",
      "SliceThickness": 2.0,
      "SmallestImagePixelValue": 0,
      "SoftwareVersions": "syngo MR E11",
      "SpacingBetweenSlices": 2.0,
      "SpecificCharacterSet": "ISO_IR 100",
      "StudyID": "102",
      "StudyTime": "095446.325000",
      "TransmitCoilName": "Body",
      "VariableFlipAngleFlag": "N",
      "WindowCenterWidthExplanation": "Algo1",
      "dBdt": 0.0},
    "slices": {
      "AcquisitionTime": ["101045.067500", "101041.227500", "101045.177500", "101041.337500", "101045.287500", "101041.447500", "101045.395000", "101041.557500", "101045.505000", "101041.665000", "101045.615000", "101041.775000", "101045.725000", "101041.885000", "101045.835000", "101041.995000", "101045.945000", "101042.105000", "101046.055000", "101042.215000", "101046.165000", "101042.325000", "101046.275000", "101042.435000", "101046.382500", "101042.542500", "101046.492500", "101042.652500", "101046.602500", "101042.762500", "101046.712500", "101042.872500", "101046.822500", "101042.982500", "101046.932500", "101043.092500", "101047.042500", "101043.202500", "101047.152500", "101043.312500", "101047.262500", "101043.422500", "101047.370000", "101043.530000", "101047.480000", "101043.640000", "101047.590000", "101043.750000", "101047.700000", "101043.860000", "101047.810000", "101043.970000", "101047.920000", "101044.080000", "101048.030000", "101044.190000", "101048.140000", "101044.300000", "101048.247500", "101044.410000", "101048.357500", "101044.517500", "101048.467500", "101044.627500", "101048.577500", "101044.737500", "101048.687500", "101044.847500", "101048.797500", "101044.957500", "101052.767500", "101048.927500", "101052.877500", "101049.037500", "101052.987500", "101049.147500", "101053.095000", "101049.257500", "101053.205000", "101049.365000", "101053.315000", "101049.475000", "101053.425000", "101049.585000", "101053.535000", "101049.695000", "101053.645000", "101049.805000", "101053.755000", "101049.915000", "101053.865000", "101050.025000", "101053.975000", "101050.135000", "101054.082500", "101050.242500", "101054.192500", "101050.352500", "101054.302500", "101050.462500", "101054.412500", "101050.572500", "101054.522500", "101050.682500", "101054.632500", "101050.792500", "101054.742500", "101050.902500", "101054.852500", "101051.012500", "101054.962500", "101051.122500", "101055.070000", "101051.230000", "101055.180000", "101051.340000", "101055.290000", "101051.450000", "101055.400000", "101051.560000", "101055.510000", "101051.670000", "101055.620000", "101051.780000", "101055.730000", "101051.890000", "101055.840000", "101052.000000", "101055.947500", "101052.110000", "101056.057500", "101052.217500", "101056.167500", "101052.327500", "101056.277500", "101052.437500", "101056.387500", "101052.547500", "101056.497500", "101052.657500", "101100.467500", "101056.627500", "101100.577500", "101056.737500", "101100.687500", "101056.847500", "101100.795000", "101056.957500", "101100.905000", "101057.065000", "101101.015000", "101057.175000", "101101.125000", "101057.285000", "101101.235000", "101057.395000", "101101.345000", "101057.505000", "101101.455000", "101057.615000", "101101.565000", "101057.725000", "101101.675000", "101057.835000", "101101.782500", "101057.942500", "101101.892500", "101058.052500", "101102.002500", "101058.162500", "101102.112500", "101058.272500", "101102.222500", "101058.382500", "101102.332500", "101058.492500", "101102.442500", "101058.602500", "101102.552500", "101058.712500", "101102.662500", "101058.822500", "101102.770000", "101058.930000", "101102.880000", "101059.040000", "101102.990000", "101059.150000", "101103.100000", "101059.260000", "101103.210000", "101059.370000", "101103.320000", "101059.480000", "101103.430000", "101059.590000", "101103.540000", "101059.700000", "101103.647500", "101059.810000", "101103.757500", "101059.917500", "101103.867500", "101100.027500", "101103.977500", "101100.137500", "101104.087500", "101100.247500", "101104.197500", "101100.357500", "101108.167500", "101104.327500", "101108.277500", "101104.437500", "101108.387500", "101104.547500", "101108.495000", "101104.657500", "101108.605000", "101104.765000", "101108.715000", "101104.875000", "101108.825000", "101104.985000", "101108.935000", "101105.095000", "101109.045000", "101105.205000", "101109.155000", "101105.315000", "101109.265000", "101105.425000", "101109.375000", "101105.535000", "101109.482500", "101105.642500", "101109.592500", "101105.752500", "101109.702500", "101105.862500", "101109.812500", "101105.972500", "101109.922500", "101106.082500", "101110.032500", "101106.192500", "101110.142500", "101106.302500", "101110.252500", "101106.412500", "101110.362500", "101106.522500", "101110.470000", "101106.630000", "101110.580000", "101106.740000", "101110.690000", "101106.850000", "101110.800000", "101106.960000", "101110.910000", "101107.070000", "101111.020000", "101107.180000", "101111.130000", "101107.290000", "101111.240000", "101107.400000", "101111.347500", "101107.510000", "101111.457500", "101107.617500", "101111.567500", "101107.727500", "101111.677500", "101107.837500", "101111.787500", "101107.947500", "101111.897500", "101108.057500", "101115.867500", "101112.027500", "101115.977500", "101112.137500", "101116.087500", "101112.247500", "101116.195000", "101112.357500", "101116.305000", "101112.465000", "101116.415000", "101112.575000", "101116.525000", "101112.685000", "101116.635000", "101112.795000", "101116.745000", "101112.905000", "101116.855000", "101113.015000", "101116.965000", "101113.125000", "101117.075000", "101113.235000", "101117.182500", "101113.342500", "101117.292500", "101113.452500", "101117.402500", "101113.562500", "101117.512500", "101113.672500", "101117.622500", "101113.782500", "101117.732500", "101113.892500", "101117.842500", "101114.002500", "101117.952500", "101114.112500", "101118.062500", "101114.222500", "101118.170000", "101114.330000", "101118.280000", "101114.440000", "101118.390000", "101114.550000", "101118.500000", "101114.660000", "101118.610000", "101114.770000", "101118.720000", "101114.880000", "101118.830000", "101114.990000", "101118.940000", "101115.100000", "101119.047500", "101115.210000", "101119.157500", "101115.317500", "101119.267500", "101115.427500", "101119.377500", "101115.537500", "101119.487500", "101115.647500", "101119.597500", "101115.757500", "101123.567500", "101119.727500", "101123.677500", "101119.837500", "101123.787500", "101119.947500", "101123.895000", "101120.057500", "101124.005000", "101120.165000", "101124.115000", "101120.275000", "101124.225000", "101120.385000", "101124.335000", "101120.495000", "101124.445000", "101120.605000", "101124.555000", "101120.715000", "101124.665000", "101120.825000", "101124.775000", "101120.935000", "101124.882500", "101121.042500", "101124.992500", "101121.152500", "101125.102500", "101121.262500", "101125.212500", "101121.372500", "101125.322500", "101121.482500", "101125.432500", "101121.592500", "101125.542500", "101121.702500", "101125.652500", "101121.812500", "101125.762500", "101121.922500", "101125.870000", "101122.030000", "101125.980000", "101122.140000", "101126.090000", "101122.250000", "101126.200000", "101122.360000", "101126.310000", "101122.470000", "101126.420000", "101122.580000", "101126.530000", "101122.690000", "101126.640000", "101122.800000", "101126.747500", "101122.910000", "101126.857500", "101123.017500", "101126.967500", "101123.127500", "101127.077500", "101123.237500", "101127.187500", "101123.347500", "101127.297500", "101123.457500", "101131.267500", "101127.427500", "101131.377500", "101127.537500", "101131.487500", "101127.647500", "101131.595000", "101127.757500", "101131.705000", "101127.865000", "101131.815000", "101127.975000", "101131.925000", "101128.085000", "101132.035000", "101128.195000", "101132.145000", "101128.305000", "101132.255000", "101128.415000", "101132.365000", "101128.525000", "101132.475000", "101128.635000", "101132.582500", "101128.742500", "101132.692500", "101128.852500", "101132.802500", "101128.962500", "101132.912500", "101129.072500", "101133.022500", "101129.182500", "101133.132500", "101129.292500", "101133.242500", "101129.402500", "101133.352500", "101129.512500", "101133.462500", "101129.622500", "101133.570000", "101129.730000", "101133.680000", "101129.840000", "101133.790000", "101129.950000", "101133.900000", "101130.060000", "101134.010000", "101130.170000", "101134.120000", "101130.280000", "101134.230000", "101130.390000", "101134.340000", "101130.500000", "101134.447500", "101130.610000", "101134.557500", "101130.717500", "101134.667500", "101130.827500", "101134.777500", "101130.937500", "101134.887500", "101131.047500", "101134.997500", "101131.157500", "101138.967500", "101135.127500", "101139.077500", "101135.237500", "101139.187500", "101135.347500", "101139.295000", "101135.457500", "101139.405000", "101135.565000", "101139.515000", "101135.675000", "101139.625000", "101135.785000", "101139.735000", "101135.895000", "101139.845000", "101136.005000", "101139.955000", "101136.115000", "101140.065000", "101136.225000", "101140.175000", "101136.335000", "101140.282500", "101136.442500", "101140.392500", "101136.552500", "101140.502500", "101136.662500", "101140.612500", "101136.772500", "101140.722500", "101136.882500", "101140.832500", "101136.992500", "101140.942500", "101137.102500", "101141.052500", "101137.212500", "101141.162500", "101137.322500", "101141.270000", "101137.430000", "101141.380000", "101137.540000", "101141.490000", "101137.650000", "101141.600000", "101137.760000", "101141.710000", "101137.870000", "101141.820000", "101137.980000", "101141.930000", "101138.090000", "101142.040000", "101138.200000", "101142.147500", "101138.310000", "101142.257500", "101138.417500", "101142.367500", "101138.527500", "101142.477500", "101138.637500", "101142.587500", "101138.747500", "101142.697500", "101138.857500", "101146.667500", "101142.827500", "101146.777500", "101142.937500", "101146.887500", "101143.047500", "101146.995000", "101143.157500", "101147.105000", "101143.265000", "101147.215000", "101143.375000", "101147.325000", "101143.485000", "101147.435000", "101143.595000", "101147.545000", "101143.705000", "101147.655000", "101143.815000", "101147.765000", "101143.925000", "101147.875000", "101144.035000", "101147.982500", "101144.142500", "101148.092500", "101144.252500", "101148.202500", "101144.362500", "101148.312500", "101144.472500", "101148.422500", "101144.582500", "101148.532500", "101144.692500", "101148.642500", "101144.802500", "101148.752500", "101144.912500", "101148.862500", "101145.022500", "101148.970000", "101145.130000", "101149.080000", "101145.240000", "101149.190000", "101145.350000", "101149.300000", "101145.460000", "101149.410000", "101145.570000", "101149.520000", "101145.680000", "101149.630000", "101145.790000", "101149.740000", "101145.900000", "101149.847500", "101146.010000", "101149.957500", "101146.117500", "101150.067500", "101146.227500", "101150.177500", "101146.337500", "101150.287500", "101146.447500", "101150.397500", "101146.557500", "101154.367500", "101150.527500", "101154.477500", "101150.637500", "101154.587500", "101150.747500", "101154.695000", "101150.857500", "101154.805000", "101150.965000", "101154.915000", "101151.075000", "101155.025000", "101151.185000", "101155.135000", "101151.295000", "101155.245000", "101151.405000", "101155.355000", "101151.515000", "101155.465000", "101151.625000", "101155.575000", "101151.735000", "101155.682500", "101151.842500", "101155.792500", "101151.952500", "101155.902500", "101152.062500", "101156.012500", "101152.172500", "101156.122500", "101152.282500", "101156.232500", "101152.392500", "101156.342500", "101152.502500", "101156.452500", "101152.612500", "101156.562500", "101152.722500", "101156.670000", "101152.830000", "101156.780000", "101152.940000", "101156.890000", "101153.050000", "101157.000000", "101153.160000", "101157.110000", "101153.270000", "101157.220000", "101153.380000", "101157.330000", "101153.490000", "101157.440000", "101153.600000", "101157.547500", "101153.710000", "101157.657500", "101153.817500", "101157.767500", "101153.927500", "101157.877500", "101154.037500", "101157.987500", "101154.147500", "101158.097500", "101154.257500", "101202.067500", "101158.227500", "101202.177500", "101158.337500", "101202.287500", "101158.447500", "101202.395000", "101158.557500", "101202.505000", "101158.665000", "101202.615000", "101158.775000", "101202.725000", "101158.885000", "101202.835000", "101158.995000", "101202.945000", "101159.105000", "101203.055000", "101159.215000", "101203.165000", "101159.325000", "101203.275000", "101159.435000", "101203.382500", "101159.542500", "101203.492500", "101159.652500", "101203.602500", "101159.762500", "101203.712500", "101159.872500", "101203.822500", "101159.982500", "101203.932500", "101200.092500", "101204.042500", "101200.202500", "101204.152500", "101200.312500", "101204.262500", "101200.422500", "101204.370000", "101200.530000", "101204.480000", "101200.640000", "101204.590000", "101200.750000", "101204.700000", "101200.860000", "101204.810000", "101200.970000", "101204.920000", "101201.080000", "101205.030000", "101201.190000", "101205.140000", "101201.300000", "101205.247500", "101201.410000", "101205.357500", "101201.517500", "101205.467500", "101201.627500", "101205.577500", "101201.737500", "101205.687500", "101201.847500", "101205.797500", "101201.957500", "101209.767500", "101205.927500", "101209.877500", "101206.037500", "101209.987500", "101206.147500", "101210.095000", "101206.257500", "101210.205000", "101206.365000", "101210.315000", "101206.475000", "101210.425000", "101206.585000", "101210.535000", "101206.695000", "101210.645000", "101206.805000", "101210.755000", "101206.915000", "101210.865000", "101207.025000", "101210.975000", "101207.135000", "101211.082500", "101207.242500", "101211.192500", "101207.352500", "101211.302500", "101207.462500", "101211.412500", "101207.572500", "101211.522500", "101207.682500", "101211.632500", "101207.792500", "101211.742500", "101207.902500", "101211.852500", "101208.012500", "101211.962500", "101208.122500", "101212.070000", "101208.230000", "101212.180000", "101208.340000", "101212.290000", "101208.450000", "101212.400000", "101208.560000", "101212.510000", "101208.670000", "101212.620000", "101208.780000", "101212.730000", "101208.890000", "101212.840000", "101209.000000", "101212.947500", "101209.110000", "101213.057500", "101209.217500", "101213.167500", "101209.327500", "101213.277500", "101209.437500", "101213.387500", "101209.547500", "101213.497500", "101209.657500", "101217.467500", "101213.627500", "101217.577500", "101213.737500", "101217.687500", "101213.847500", "101217.795000", "101213.957500", "101217.905000", "101214.065000", "101218.015000", "101214.175000", "101218.125000", "101214.285000", "101218.235000", "101214.395000", "101218.345000", "101214.505000", "101218.455000", "101214.615000", "101218.565000", "101214.725000", "101218.675000", "101214.835000", "101218.782500", "101214.942500", "101218.892500", "101215.052500", "101219.002500", "101215.162500", "101219.112500", "101215.272500", "101219.222500", "101215.382500", "101219.332500", "101215.492500", "101219.442500", "101215.602500", "101219.552500", "101215.712500", "101219.662500", "101215.822500", "101219.770000", "101215.930000", "101219.880000", "101216.040000", "101219.990000", "101216.150000", "101220.100000", "101216.260000", "101220.210000", "101216.370000", "101220.320000", "101216.480000", "101220.430000", "101216.590000", "101220.540000", "101216.700000", "101220.647500", "101216.810000", "101220.757500", "101216.917500", "101220.867500", "101217.027500", "101220.977500", "101217.137500", "101221.087500", "101217.247500", "101221.197500", "101217.357500", "101225.167500", "101221.327500", "101225.277500", "101221.437500", "101225.387500", "101221.547500", "101225.495000", "101221.657500", "101225.605000", "101221.765000", "101225.715000", "101221.875000", "101225.825000", "101221.985000", "101225.935000", "101222.095000", "101226.045000", "101222.205000", "101226.155000", "101222.315000", "101226.265000", "101222.425000", "101226.375000", "101222.535000", "101226.482500", "101222.642500", "101226.592500", "101222.752500", "101226.702500", "101222.862500", "101226.812500", "101222.972500", "101226.922500", "101223.082500", "101227.032500", "101223.192500", "101227.142500", "101223.302500", "101227.252500", "101223.412500", "101227.362500", "101223.522500", "101227.470000", "101223.630000", "101227.580000", "101223.740000", "101227.690000", "101223.850000", "101227.800000", "101223.960000", "101227.910000", "101224.070000", "101228.020000", "101224.180000", "101228.130000", "101224.290000", "101228.240000", "101224.400000", "101228.347500", "101224.510000", "101228.457500", "101224.617500", "101228.567500", "101224.727500", "101228.677500", "101224.837500", "101228.787500", "101224.947500", "101228.897500", "101225.057500", "101232.867500", "101229.027500", "101232.977500", "101229.137500", "101233.087500", "101229.247500", "101233.195000", "101229.357500", "101233.305000", "101229.465000", "101233.415000", "101229.575000", "101233.525000", "101229.685000", "101233.635000", "101229.795000", "101233.745000", "101229.905000", "101233.855000", "101230.015000", "101233.965000", "101230.125000", "101234.075000", "101230.235000", "101234.182500", "101230.342500", "101234.292500", "101230.452500", "101234.402500", "101230.562500", "101234.512500", "101230.672500", "101234.622500", "101230.782500", "101234.732500", "101230.892500", "101234.842500", "101231.002500", "101234.952500", "101231.112500", "101235.062500", "101231.222500", "101235.170000", "101231.330000", "101235.280000", "101231.440000", "101235.390000", "101231.550000", "101235.500000", "101231.660000", "101235.610000", "101231.770000", "101235.720000", "101231.880000", "101235.830000", "101231.990000", "101235.940000", "101232.100000", "101236.047500", "101232.210000", "101236.157500", "101232.317500", "101236.267500", "101232.427500", "101236.377500", "101232.537500", "101236.487500", "101232.647500", "101236.597500", "101232.757500", "101240.567500", "101236.727500", "101240.677500", "101236.837500", "101240.787500", "101236.947500", "101240.895000", "101237.057500", "101241.005000", "101237.165000", "101241.115000", "101237.275000", "101241.225000", "101237.385000", "101241.335000", "101237.495000", "101241.445000", "101237.605000", "101241.555000", "101237.715000", "101241.665000", "101237.825000", "101241.775000", "101237.935000", "101241.882500", "101238.042500", "101241.992500", "101238.152500", "101242.102500", "101238.262500", "101242.212500", "101238.372500", "101242.322500", "101238.482500", "101242.432500", "101238.592500", "101242.542500", "101238.702500", "101242.652500", "101238.812500", "101242.762500", "101238.922500", "101242.870000", "101239.030000", "101242.980000", "101239.140000", "101243.090000", "101239.250000", "101243.200000", "101239.360000", "101243.310000", "101239.470000", "101243.420000", "101239.580000", "101243.530000", "101239.690000", "101243.640000", "101239.800000", "101243.747500", "101239.910000", "101243.857500", "101240.017500", "101243.967500", "101240.127500", "101244.077500", "101240.237500", "101244.187500", "101240.347500", "101244.297500", "101240.457500", "101248.267500", "101244.427500", "101248.377500", "101244.537500", "101248.487500", "101244.647500", "101248.595000", "101244.757500", "101248.705000", "101244.865000", "101248.815000", "101244.975000", "101248.925000", "101245.085000", "101249.035000", "101245.195000", "101249.145000", "101245.305000", "101249.255000", "101245.415000", "101249.365000", "101245.525000", "101249.475000", "101245.635000", "101249.582500", "101245.742500", "101249.692500", "101245.852500", "101249.802500", "101245.962500", "101249.912500", "101246.072500", "101250.022500", "101246.182500", "101250.132500", "101246.292500", "101250.242500", "101246.402500", "101250.352500", "101246.512500", "101250.462500", "101246.622500", "101250.570000", "101246.730000", "101250.680000", "101246.840000", "101250.790000", "101246.950000", "101250.900000", "101247.060000", "101251.010000", "101247.170000", "101251.120000", "101247.280000", "101251.230000", "101247.390000", "101251.340000", "101247.500000", "101251.447500", "101247.610000", "101251.557500", "101247.717500", "101251.667500", "101247.827500", "101251.777500", "101247.937500", "101251.887500", "101248.047500", "101251.997500", "101248.157500", "101255.967500", "101252.127500", "101256.077500", "101252.237500", "101256.187500", "101252.347500", "101256.295000", "101252.457500", "101256.405000", "101252.565000", "101256.515000", "101252.675000", "101256.625000", "101252.785000", "101256.735000", "101252.895000", "101256.845000", "101253.005000", "101256.955000", "101253.115000", "101257.065000", "101253.225000", "101257.175000", "101253.335000", "101257.282500", "101253.442500", "101257.392500", "101253.552500", "101257.502500", "101253.662500", "101257.612500", "101253.772500", "101257.722500", "101253.882500", "101257.832500", "101253.992500", "101257.942500", "101254.102500", "101258.052500", "101254.212500", "101258.162500", "101254.322500", "101258.270000", "101254.430000", "101258.380000", "101254.540000", "101258.490000", "101254.650000", "101258.600000", "101254.760000", "101258.710000", "101254.870000", "101258.820000", "101254.980000", "101258.930000", "101255.090000", "101259.040000", "101255.200000", "101259.147500", "101255.310000", "101259.257500", "101255.417500", "101259.367500", "101255.527500", "101259.477500", "101255.637500", "101259.587500", "101255.747500", "101259.697500", "101255.857500", "101303.667500", "101259.827500", "101303.777500", "101259.937500", "101303.887500", "101300.047500", "101303.995000", "101300.157500", "101304.105000", "101300.265000", "101304.215000", "101300.375000", "101304.325000", "101300.485000", "101304.435000", "101300.595000", "101304.545000", "101300.705000", "101304.655000", "101300.815000", "101304.765000", "101300.925000", "101304.875000", "101301.035000", "101304.982500", "101301.142500", "101305.092500", "101301.252500", "101305.202500", "101301.362500", "101305.312500", "101301.472500", "101305.422500", "101301.582500", "101305.532500", "101301.692500", "101305.642500", "101301.802500", "101305.752500", "101301.912500", "101305.862500", "101302.022500", "101305.970000", "101302.130000", "101306.080000", "101302.240000", "101306.190000", "101302.350000", "101306.300000", "101302.460000", "101306.410000", "101302.570000", "101306.520000", "101302.680000", "101306.630000", "101302.790000", "101306.740000", "101302.900000", "101306.847500", "101303.010000", "101306.957500", "101303.117500", "101307.067500", "101303.227500", "101307.177500", "101303.337500", "101307.287500", "101303.447500", "101307.397500", "101303.557500", "101311.367500", "101307.527500", "101311.477500", "101307.637500", "101311.587500", "101307.747500", "101311.695000", "101307.857500", "101311.805000", "101307.965000", "101311.915000", "101308.075000", "101312.025000", "101308.185000", "101312.135000", "101308.295000", "101312.245000", "101308.405000", "101312.355000", "101308.515000", "101312.465000", "101308.625000", "101312.575000", "101308.735000", "101312.682500", "101308.842500", "101312.792500", "101308.952500", "101312.902500", "101309.062500", "101313.012500", "101309.172500", "101313.122500", "101309.282500", "101313.232500", "101309.392500", "101313.342500", "101309.502500", "101313.452500", "101309.612500", "101313.562500", "101309.722500", "101313.670000", "101309.830000", "101313.780000", "101309.940000", "101313.890000", "101310.050000", "101314.000000", "101310.160000", "101314.110000", "101310.270000", "101314.220000", "101310.380000", "101314.330000", "101310.490000", "101314.440000", "101310.600000", "101314.547500", "101310.710000", "101314.657500", "101310.817500", "101314.767500", "101310.927500", "101314.877500", "101311.037500", "101314.987500", "101311.147500", "101315.097500", "101311.257500", "101319.067500", "101315.227500", "101319.177500", "101315.337500", "101319.287500", "101315.447500", "101319.395000", "101315.557500", "101319.505000", "101315.665000", "101319.615000", "101315.775000", "101319.725000", "101315.885000", "101319.835000", "101315.995000", "101319.945000", "101316.105000", "101320.055000", "101316.215000", "101320.165000", "101316.325000", "101320.275000", "101316.435000", "101320.382500", "101316.542500", "101320.492500", "101316.652500", "101320.602500", "101316.762500", "101320.712500", "101316.872500", "101320.822500", "101316.982500", "101320.932500", "