{
  "AcquisitionMatrixPE": 122,
  "AcquisitionNumber": 1,
  "AcquisitionTime": "10:01:40.065000",
  "BandwidthPerPixelPhaseEncode": 28.76,
  "BaseResolution": 122,
  "BodyPartExamined": "BRAIN",
  "CoilCombinationMethod": "Adaptive Combine",
  "ConsistencyInfo": "N4_VE11C_LATEST_20160120",
  "ConversionSoftware": "dcm2niix",
  "ConversionSoftwareVersion": "v1.0.20220720",
  "DerivedVendorReportedEchoSpacing": 0.000570008,
  "DeviceSerialNumber": "66112",
  "DiffusionScheme": "Monopolar",
  "DwellTime": 2e-06,
  "EchoTime": 0.075,
  "EchoTrainLength": 61,
  "EffectiveEchoSpacing": 0.000285004,
  "FlipAngle": 90,
  "HeudiconvVersion": "0.13.1",
  "ImageOrientationPatientDICOM": [0.988126, 0.153437, 0.00801115, -0.148205, 0.938085, 0.313099],
  "ImageOrientationText": "Tra>Cor(18.1)>Sag(-2.3)",
  "ImageType": [
    "ORIGINAL",
    "PRIMARY",
    "DIFFUSION",
    "NONE",
    "ND",
    "NORM"
],
  "ImagingFrequency": 123.252,
  "InPlanePhaseEncodingDirectionDICOM": "COL",
  "InstitutionAddress": "Maynard 3,Hanover,NH,US,03755",
  "InstitutionName": "Dartmouth College - PBS",
  "InstitutionalDepartmentName": "Department",
  "MRAcquisitionType": "2D",
  "MagneticFieldStrength": 3,
  "Manufacturer": "Siemens",
  "ManufacturersModelName": "Prisma",
  "MatrixCoilMode": "GRAPPA",
  "Modality": "MR",
  "NonlinearGradientCorrection": false,
  "ParallelReductionFactorInPlane": 2,
  "PartialFourier": 1,
  "PatientPosition": "HFS",
  "PercentPhaseFOV": 100,
  "PercentSampling": 100,
  "PhaseEncodingDirection": "j-",
  "PhaseEncodingSteps": 122,
  "PhaseResolution": 1,
  "PixelBandwidth": 2050,
  "ProcedureStepDescription": "dbic^QA",
  "ProtocolName": "dwi_acq-DTI-30-p2",
  "PulseSequenceDetails": "%SiemensSeq%\\ep2d_diff",
  "ReceiveCoilActiveElements": "HEA;HEP",
  "ReceiveCoilName": "Head_32",
  "ReconMatrixPE": 122,
  "RefLinesPE": 38,
  "RepetitionTime": 7.7,
  "SAR": 0.101868,
  "ScanOptions": "FS",
  "ScanningSequence": "EP",
  "SequenceName": "*ep_b0",
  "SequenceVariant": "SK\\SP",
  "SeriesDescription": "dwi_acq-DTI-30-p2",
  "SeriesNumber": 8,
  "ShimSetting": [4147, -7699, -7518, 310, -34, -340, -48, 97],
  "SliceThickness": 2,
  "SliceTiming": [3.83594, 0, 3.94531, 0.10938, 4.05469, 0.21875, 4.16406, 0.32812, 4.27344, 0.4375, 4.38281, 0.54688, 4.49219, 0.65625, 4.60938, 0.76562, 4.71875, 0.875, 4.82812, 0.98438, 4.92969, 1.09375, 5.04688, 1.20312, 5.15625, 1.3125, 5.26562, 1.42188, 5.375, 1.53125, 5.48438, 1.64062, 5.59375, 1.75, 5.70312, 1.86719, 5.8125, 1.97656, 5.92188, 2.07812, 6.03125, 2.1875, 6.14062, 2.30469, 6.25, 2.41406, 6.35938, 2.52344, 6.46875, 2.63281, 6.57812, 2.74219, 6.6875, 2.85156, 6.79688, 2.96094, 6.90625, 3.07031, 7.01562, 3.17969, 7.125, 3.28906, 7.24219, 3.39844, 7.35156, 3.50781, 7.46094, 3.61719, 7.57031, 3.72656],
  "SoftwareVersions": "syngo MR E11",
  "SpacingBetweenSlices": 2,
  "SpoilingState": true,
  "StationName": "AWP66112",
  "TotalReadoutTime": 0.0344855,
  "TxRefAmp": 229.93,
  "dcmmeta_affine": [
    [-1.9438542127609253, -0.2915516793727875, -0.08105182647705078, 139.95254516601562],
    [-0.3018440008163452, 1.8454138040542603, 0.6211357116699219, -106.3734130859375],
    [0.01575964316725731, -0.6159326434135437, 1.8993721008300781, -46.97492218017578],
    [0.0, 0.0, 0.0, 1.0]
],
  "dcmmeta_reorient_transform": [
    [0.0, -1.0, 0.0, 121.0],
    [1.0, 0.0, 0.0, 0.0],
    [0.0, 0.0, -1.0, 69.0],
    [0.0, 0.0, 0.0, 1.0]
],
  "dcmmeta_shape": [122, 122, 70, 31],
  "dcmmeta_slice_dim": 2,
  "dcmmeta_version": 0.6,
  "global": {
    "const": {
      "AccessionNumber": "qa",
      "AcquisitionMatrix": [122, 0, 0, 122],
      "AngioFlag": "N",
      "BitsAllocated": 16,
      "BitsStored": 12,
      "BodyPartExamined": "BRAIN",
      "Columns": 122,
      "EchoNumbers": 1,
      "EchoTime": 75.0,
      "EchoTrainLength": 61,
      "FlipAngle": 90.0,
      "HighBit": 11,
      "ImageOrientationPatient": [0.98812590124319, 0.15343736421024, 0.00801115201175, -0.1482054332782, 0.93808534690717, 0.31309907611629],
      "ImageType": [
        "ORIGINAL",
        "PRIMARY",
        "DIFFUSION",
        "NONE",
        "ND",
        "NORM"
],
      "ImagedNucleus": "1H",
      "ImagingFrequency": 123.252459,
      "InPlanePhaseEncodingDirection": "COL",
      "MRAcquisitionType": "2D",
      "MagneticFieldStrength": 3.0,
      "Manufacturer": "SIEMENS",
      "ManufacturerModelName": "Prisma",
      "Modality": "MR",
      "NumberOfAverages": 1.0,
      "NumberOfPhaseEncodingSteps": 122,
      "PercentPhaseFieldOfView": 100.0,
      "PercentSampling": 100.0,
      "PerformedProcedureStepStartTime": "094556.910000",
      "PhotometricInterpretation": "MONOCHROME2",
      "PixelBandwidth": 2050.0,
      "PixelRepresentation": 0,
      "PixelSpacing": [1.9672131538391, 1.9672131538391],
      "ProtocolName": "dwi_acq-DTI-30-p2",
      "RepetitionTime": 7700.0,
      "Rows": 122,
      "SAR": 0.10186787376537,
      "SamplesPerPixel": 1,
      "ScanOptions": "FS",
      "ScanningSequence": "EP",
      "SequenceVariant": [
        "SK",
        "SP"
],
      "SeriesDescription": "dwi_acq-DTI-30-p2",
      "SeriesNumber": 8,
      "SeriesTime": "100158.689000",
      "SliceThickness": 2.0,
      "SmallestImagePixelValue": 0,
      "SoftwareVersions": "syngo MR E11",
      "SpacingBetweenSlices": 2.0,
      "SpecificCharacterSet": "ISO_IR 100",
      "StudyID": "14",
      "StudyTime": "094556.797000",
      "TransmitCoilName": "Body",
      "VariableFlipAngleFlag": "N",
      "WindowCenterWidthExplanation": "Algo1",
      "dBdt": 0.0},
    "slices": {
      "AcquisitionTime": ["100140.065000", "100136.225000", "100140.172500", "100136.335000", "100140.282500", "100136.442500", "100140.392500", "100136.552500", "100140.502500", "100136.662500", "100140.612500", "100136.772500", "100140.722500", "100136.882500", "100140.832500", "100136.992500", "100140.942500", "100137.102500", "100141.052500", "100137.212500", "100141.160000", "100137.320000", "100141.270000", "100137.430000", "100141.380000", "100137.540000", "100141.490000", "100137.650000", "100141.600000", "100137.760000", "100141.710000", "100137.870000", "100141.820000", "100137.980000", "100141.930000", "100138.090000", "100142.040000", "100138.200000", "100142.147500", "100138.307500", "100142.257500", "100138.417500", "100142.367500", "100138.527500", "100142.477500", "100138.637500", "100142.587500", "100138.747500", "100142.697500", "100138.857500", "100142.807500", "100138.967500", "100142.917500", "100139.077500", "100143.025000", "100139.187500", "100143.135000", "100139.295000", "100143.245000", "100139.405000", "100143.355000", "100139.515000", "100143.465000", "100139.625000", "100143.575000", "100139.735000", "100143.685000", "100139.845000", "100143.795000", "100139.955000", "100147.765000", "100143.925000", "100147.872500", "100144.035000", "100147.982500", "100144.142500", "100148.092500", "100144.252500", "100148.202500", "100144.362500", "100148.312500", "100144.472500", "100148.422500", "100144.582500", "100148.532500", "100144.692500", "100148.642500", "100144.802500", "100148.752500", "100144.912500", "100148.860000", "100145.020000", "100148.970000", "100145.130000", "100149.080000", "100145.240000", "100149.190000", "100145.350000", "100149.300000", "100145.460000", "100149.410000", "100145.570000", "100149.520000", "100145.680000", "100149.630000", "100145.790000", "100149.740000", "100145.900000", "100149.847500", "100146.007500", "100149.957500", "100146.117500", "100150.067500", "100146.227500", "100150.177500", "100146.337500", "100150.287500", "100146.447500", "100150.397500", "100146.557500", "100150.507500", "100146.667500", "100150.617500", "100146.777500", "100150.725000", "100146.887500", "100150.835000", "100146.995000", "100150.945000", "100147.105000", "100151.055000", "100147.215000", "100151.165000", "100147.325000", "100151.275000", "100147.435000", "100151.385000", "100147.545000", "100151.495000", "100147.655000", "100155.465000", "100151.625000", "100155.572500", "100151.735000", "100155.682500", "100151.842500", "100155.792500", "100151.952500", "100155.902500", "100152.062500", "100156.012500", "100152.172500", "100156.122500", "100152.282500", "100156.232500", "100152.392500", "100156.342500", "100152.502500", "100156.452500", "100152.612500", "100156.560000", "100152.720000", "100156.670000", "100152.830000", "100156.780000", "100152.940000", "100156.890000", "100153.050000", "100157.000000", "100153.160000", "100157.110000", "100153.270000", "100157.220000", "100153.380000", "100157.330000", "100153.490000", "100157.440000", "100153.600000", "100157.547500", "100153.707500", "100157.657500", "100153.817500", "100157.767500", "100153.927500", "100157.877500", "100154.037500", "100157.987500", "100154.147500", "100158.097500", "100154.257500", "100158.207500", "100154.367500", "100158.317500", "100154.477500", "100158.425000", "100154.587500", "100158.535000", "100154.695000", "100158.645000", "100154.805000", "100158.755000", "100154.915000", "100158.865000", "100155.025000", "100158.975000", "100155.135000", "100159.085000", "100155.245000", "100159.195000", "100155.355000", "100203.165000", "100159.325000", "100203.272500", "100159.435000", "100203.382500", "100159.542500", "100203.492500", "100159.652500", "100203.602500", "100159.762500", "100203.712500", "100159.872500", "100203.822500", "100159.982500", "100203.932500", "100200.092500", "100204.042500", "100200.202500", "100204.152500", "100200.312500", "100204.260000", "100200.420000", "100204.370000", "100200.530000", "100204.480000", "100200.640000", "100204.590000", "100200.750000", "100204.700000", "100200.860000", "100204.810000", "100200.970000", "100204.920000", "100201.080000", "100205.030000", "100201.190000", "100205.140000", "100201.300000", "100205.247500", "100201.407500", "100205.357500", "100201.517500", "100205.467500", "100201.627500", "100205.577500", "100201.737500", "100205.687500", "100201.847500", "100205.797500", "100201.957500", "100205.907500", "100202.067500", "100206.017500", "100202.177500", "100206.125000", "100202.287500", "100206.235000", "100202.395000", "100206.345000", "100202.505000", "100206.455000", "100202.615000", "100206.565000", "100202.725000", "100206.675000", "100202.835000", "100206.785000", "100202.945000", "100206.895000", "100203.055000", "100210.865000", "100207.025000", "100210.972500", "100207.135000", "100211.082500", "100207.242500", "100211.192500", "100207.352500", "100211.302500", "100207.462500", "100211.412500", "100207.572500", "100211.522500", "100207.682500", "100211.632500", "100207.792500", "100211.742500", "100207.902500", "100211.852500", "100208.012500", "100211.960000", "100208.120000", "100212.070000", "100208.230000", "100212.180000", "100208.340000", "100212.290000", "100208.450000", "100212.400000", "100208.560000", "100212.510000", "100208.670000", "100212.620000", "100208.780000", "100212.730000", "100208.890000", "100212.840000", "100209.000000", "100212.947500", "100209.107500", "100213.057500", "100209.217500", "100213.167500", "100209.327500", "100213.277500", "100209.437500", "100213.387500", "100209.547500", "100213.497500", "100209.657500", "100213.607500", "100209.767500", "100213.717500", "100209.877500", "100213.825000", "100209.987500", "100213.935000", "100210.095000", "100214.045000", "100210.205000", "100214.155000", "100210.315000", "100214.265000", "100210.425000", "100214.375000", "100210.535000", "100214.485000", "100210.645000", "100214.595000", "100210.755000", "100218.565000", "100214.725000", "100218.672500", "100214.835000", "100218.782500", "100214.942500", "100218.892500", "100215.052500", "100219.002500", "100215.162500", "100219.112500", "100215.272500", "100219.222500", "100215.382500", "100219.332500", "100215.492500", "100219.442500", "100215.602500", "100219.552500", "100215.712500", "100219.660000", "100215.820000", "100219.770000", "100215.930000", "100219.880000", "100216.040000", "100219.990000", "100216.150000", "100220.100000", "100216.260000", "100220.210000", "100216.370000", "100220.320000", "100216.480000", "100220.430000", "100216.590000", "100220.540000", "100216.700000", "100220.647500", "100216.807500", "100220.757500", "100216.917500", "100220.867500", "100217.027500", "100220.977500", "100217.137500", "100221.087500", "100217.247500", "100221.197500", "100217.357500", "100221.307500", "100217.467500", "100221.417500", "100217.577500", "100221.525000", "100217.687500", "100221.635000", "100217.795000", "100221.745000", "100217.905000", "100221.855000", "100218.015000", "100221.965000", "100218.125000", "100222.075000", "100218.235000", "100222.185000", "100218.345000", "100222.295000", "100218.455000", "100226.265000", "100222.425000", "100226.372500", "100222.535000", "100226.482500", "100222.642500", "100226.592500", "100222.752500", "100226.702500", "100222.862500", "100226.812500", "100222.972500", "100226.922500", "100223.082500", "100227.032500", "100223.192500", "100227.142500", "100223.302500", "100227.252500", "100223.412500", "100227.360000", "100223.520000", "100227.470000", "100223.630000", "100227.580000", "100223.740000", "100227.690000", "100223.850000", "100227.800000", "100223.960000", "100227.910000", "100224.070000", "100228.020000", "100224.180000", "100228.130000", "100224.290000", "100228.240000", "100224.400000", "100228.347500", "100224.507500", "100228.457500", "100224.617500", "100228.567500", "100224.727500", "100228.677500", "100224.837500", "100228.787500", "100224.947500", "100228.897500", "100225.057500", "100229.007500", "100225.167500", "100229.117500", "100225.277500", "100229.225000", "100225.387500", "100229.335000", "100225.495000", "100229.445000", "100225.605000", "100229.555000", "100225.715000", "100229.665000", "100225.825000", "100229.775000", "100225.935000", "100229.885000", "100226.045000", "100229.995000", "100226.155000", "100233.965000", "100230.125000", "100234.072500", "100230.235000", "100234.182500", "100230.342500", "100234.292500", "100230.452500", "100234.402500", "100230.562500", "100234.512500", "100230.672500", "100234.622500", "100230.782500", "100234.732500", "100230.892500", "100234.842500", "100231.002500", "100234.952500", "100231.112500", "100235.060000", "100231.220000", "100235.170000", "100231.330000", "100235.280000", "100231.440000", "100235.390000", "100231.550000", "100235.500000", "100231.660000", "100235.610000", "100231.770000", "100235.720000", "100231.880000", "100235.830000", "100231.990000", "100235.940000", "100232.100000", "100236.047500", "100232.207500", "100236.157500", "100232.317500", "100236.267500", "100232.427500", "100236.377500", "100232.537500", "100236.487500", "100232.647500", "100236.597500", "100232.757500", "100236.707500", "100232.867500", "100236.817500", "100232.977500", "100236.925000", "100233.087500", "100237.035000", "100233.195000", "100237.145000", "100233.305000", "100237.255000", "100233.415000", "100237.365000", "100233.525000", "100237.475000", "100233.635000", "100237.585000", "100233.745000", "100237.695000", "100233.855000", "100241.665000", "100237.825000", "100241.772500", "100237.935000", "100241.882500", "100238.042500", "100241.992500", "100238.152500", "100242.102500", "100238.262500", "100242.212500", "100238.372500", "100242.322500", "100238.482500", "100242.432500", "100238.592500", "100242.542500", "100238.702500", "100242.652500", "100238.812500", "100242.760000", "100238.920000", "100242.870000", "100239.030000", "100242.980000", "100239.140000", "100243.090000", "100239.250000", "100243.200000", "100239.360000", "100243.310000", "100239.470000", "100243.420000", "100239.580000", "100243.530000", "100239.690000", "100243.640000", "100239.800000", "100243.747500", "100239.907500", "100243.857500", "100240.017500", "100243.967500", "100240.127500", "100244.077500", "100240.237500", "100244.187500", "100240.347500", "100244.297500", "100240.457500", "100244.407500", "100240.567500", "100244.517500", "100240.677500", "100244.625000", "100240.787500", "100244.735000", "100240.895000", "100244.845000", "100241.005000", "100244.955000", "100241.115000", "100245.065000", "100241.225000", "100245.175000", "100241.335000", "100245.285000", "100241.445000", "100245.395000", "100241.555000", "100249.365000", "100245.525000", "100249.472500", "100245.635000", "100249.582500", "100245.742500", "100249.692500", "100245.852500", "100249.802500", "100245.962500", "100249.912500", "100246.072500", "100250.022500", "100246.182500", "100250.132500", "100246.292500", "100250.242500", "100246.402500", "100250.352500", "100246.512500", "100250.460000", "100246.620000", "100250.570000", "100246.730000", "100250.680000", "100246.840000", "100250.790000", "100246.950000", "100250.900000", "100247.060000", "100251.010000", "100247.170000", "100251.120000", "100247.280000", "100251.230000", "100247.390000", "100251.340000", "100247.500000", "100251.447500", "100247.607500", "100251.557500", "100247.717500", "100251.667500", "100247.827500", "100251.777500", "100247.937500", "100251.887500", "100248.047500", "100251.997500", "100248.157500", "100252.107500", "100248.267500", "100252.217500", "100248.377500", "100252.325000", "100248.487500", "100252.435000", "100248.595000", "100252.545000", "100248.705000", "100252.655000", "100248.815000", "100252.765000", "100248.925000", "100252.875000", "100249.035000", "100252.985000", "100249.145000", "100253.095000", "100249.255000", "100257.065000", "100253.225000", "100257.172500", "100253.335000", "100257.282500", "100253.442500", "100257.392500", "100253.552500", "100257.502500", "100253.662500", "100257.612500", "100253.772500", "100257.722500", "100253.882500", "100257.832500", "100253.992500", "100257.942500", "100254.102500", "100258.052500", "100254.212500", "100258.160000", "100254.320000", "100258.270000", "100254.430000", "100258.380000", "100254.540000", "100258.490000", "100254.650000", "100258.600000", "100254.760000", "100258.710000", "100254.870000", "100258.820000", "100254.980000", "100258.930000", "100255.090000", "100259.040000", "100255.200000", "100259.147500", "100255.307500", "100259.257500", "100255.417500", "100259.367500", "100255.527500", "100259.477500", "100255.637500", "100259.587500", "100255.747500", "100259.697500", "100255.857500", "100259.807500", "100255.967500", "100259.917500", "100256.077500", "100300.025000", "100256.187500", "100300.135000", "100256.295000", "100300.245000", "100256.405000", "100300.355000", "100256.515000", "100300.465000", "100256.625000", "100300.575000", "100256.735000", "100300.685000", "100256.845000", "100300.795000", "100256.955000", "100304.765000", "100300.925000", "100304.872500", "100301.035000", "100304.982500", "100301.142500", "100305.092500", "100301.252500", "100305.202500", "100301.362500", "100305.312500", "100301.472500", "100305.422500", "100301.582500", "100305.532500", "100301.692500", "100305.642500", "100301.802500", "100305.752500", "100301.912500", "100305.860000", "100302.020000", "100305.970000", "100302.130000", "100306.080000", "100302.240000", "100306.190000", "100302.350000", "100306.300000", "100302.460000", "100306.410000", "100302.570000", "100306.520000", "100302.680000", "100306.630000", "100302.790000", "100306.740000", "100302.900000", "100306.847500", "100303.007500", "100306.957500", "100303.117500", "100307.067500", "100303.227500", "100307.177500", "100303.337500", "100307.287500", "100303.447500", "100307.397500", "100303.557500", "100307.507500", "100303.667500", "100307.617500", "100303.777500", "100307.725000", "100303.887500", "100307.835000", "100303.995000", "100307.945000", "100304.105000", "100308.055000", "100304.215000", "100308.165000", "100304.325000", "100308.275000", "100304.435000", "100308.385000", "100304.545000", "100308.495000", "100304.655000", "100312.465000", "100308.625000", "100312.572500", "100308.735000", "100312.682500", "100308.842500", "100312.792500", "100308.952500", "100312.902500", "100309.062500", "100313.012500", "100309.172500", "100313.122500", "100309.282500", "100313.232500", "100309.392500", "100313.342500", "100309.502500", "100313.452500", "100309.612500", "100313.560000", "100309.720000", "100313.670000", "100309.830000", "100313.780000", "100309.940000", "100313.890000", "100310.050000", "100314.000000", "100310.160000", "100314.110000", "100310.270000", "100314.220000", "100310.380000", "100314.330000", "100310.490000", "100314.440000", "100310.600000", "100314.547500", "100310.707500", "100314.657500", "100310.817500", "100314.767500", "100310.927500", "100314.877500", "100311.037500", "100314.987500", "100311.147500", "100315.097500", "100311.257500", "100315.207500", "100311.367500", "100315.317500", "100311.477500", "100315.425000", "100311.587500", "100315.535000", "100311.695000", "100315.645000", "100311.805000", "100315.755000", "100311.915000", "100315.865000", "100312.025000", "100315.975000", "100312.135000", "100316.085000", "100312.245000", "100316.195000", "100312.355000", "100320.165000", "100316.325000", "100320.272500", "100316.435000", "100320.382500", "100316.542500", "100320.492500", "100316.652500", "100320.602500", "100316.762500", "100320.712500", "100316.872500", "100320.822500", "100316.982500", "100320.932500", "100317.092500", "100321.042500", "100317.202500", "100321.152500", "100317.312500", "100321.260000", "100317.420000", "100321.370000", "100317.530000", "100321.480000", "100317.640000", "100321.590000", "100317.750000", "100321.700000", "100317.860000", "100321.810000", "100317.970000", "100321.920000", "100318.080000", "100322.030000", "100318.190000", "100322.140000", "100318.300000", "100322.247500", "100318.407500", "100322.357500", "100318.517500", "100322.467500", "100318.627500", "100322.577500", "100318.737500", "100322.687500", "100318.847500", "100322.797500", "100318.957500", "100322.907500", "100319.067500", "100323.017500", "100319.177500", "100323.125000", "100319.287500", "100323.235000", "100319.395000", "100323.345000", "100319.505000", "100323.455000", "100319.615000", "100323.565000", "100319.725000", "100323.675000", "100319.835000", "100323.785000", "100319.945000", "100323.895000", "100320.055000", "100327.865000", "100324.025000", "100327.972500", "100324.135000", "100328.082500", "100324.242500", "100328.192500", "100324.352500", "100328.302500", "100324.462500", "100328.412500", "100324.572500", "100328.522500", "100324.682500", "100328.632500", "100324.792500", "100328.742500", "100324.902500", "100328.852500", "100325.012500", "100328.960000", "100325.120000", "100329.070000", "100325.230000", "100329.180000", "100325.340000", "100329.290000", "100325.450000", "100329.400000", "100325.560000", "100329.510000", "100325.670000", "100329.620000", "100325.780000", "100329.730000", "100325.890000", "100329.840000", "100326.000000", "100329.947500", "100326.107500", "100330.057500", "100326.217500", "100330.167500", "100326.327500", "100330.277500", "100326.437500", "100330.387500", "100326.547500", "100330.497500", "100326.657500", "100330.607500", "100326.767500", "100330.717500", "100326.877500", "100330.825000", "100326.987500", "100330.935000", "100327.095000", "100331.045000", "100327.205000", "100331.155000", "100327.315000", "100331.265000", "100327.425000", "100331.375000", "100327.535000", "100331.485000", "100327.645000", "100331.595000", "100327.755000", "100335.565000", "100331.725000", "100335.672500", "100331.835000", "100335.782500", "100331.942500", "100335.892500", "100332.052500", "100336.002500", "100332.162500", "100336.112500", "100332.272500", "100336.222500", "100332.382500", "100336.332500", "100332.492500", "100336.442500", "100332.602500", "100336.552500", "100332.712500", "100336.660000", "100332.820000", "100336.770000", "100332.930000", "100336.880000", "100333.040000", "100336.990000", "100333.150000", "100337.100000", "100333.260000", "100337.210000", "100333.370000", "100337.320000", "100333.480000", "100337.430000", "100333.590000", "100337.540000", "100333.700000", "100337.647500", "100333.807500", "100337.757500", "100333.917500", "100337.867500", "100334.027500", "100337.977500", "100334.137500", "100338.087500", "100334.247500", "100338.197500", "100334.357500", "100338.307500", "100334.467500", "100338.417500", "100334.577500", "100338.525000", "100334.687500", "100338.635000", "100334.795000", "100338.745000", "100334.905000", "100338.855000", "100335.015000", "100338.965000", "100335.125000", "100339.075000", "100335.235000", "100339.185000", "100335.345000", "100339.295000", "100335.455000", "100343.265000", "100339.425000", "100343.372500", "100339.535000", "100343.482500", "100339.642500", "100343.592500", "100339.752500", "100343.702500", "100339.862500", "100343.812500", "100339.972500", "100343.922500", "100340.082500", "100344.032500", "100340.192500", "100344.142500", "100340.302500", "100344.252500", "100340.412500", "100344.360000", "100340.520000", "100344.470000", "100340.630000", "100344.580000", "100340.740000", "100344.690000", "100340.850000", "100344.800000", "100340.960000", "100344.910000", "100341.070000", "100345.020000", "100341.180000", "100345.130000", "100341.290000", "100345.240000", "100341.400000", "100345.347500", "100341.507500", "100345.457500", "100341.617500", "100345.567500", "100341.727500", "100345.677500", "100341.837500", "100345.787500", "100341.947500", "100345.897500", "100342.057500", "100346.007500", "100342.167500", "100346.117500", "100342.277500", "100346.225000", "100342.387500", "100346.335000", "100342.495000", "100346.445000", "100342.605000", "100346.555000", "100342.715000", "100346.665000", "100342.825000", "100346.775000", "100342.935000", "100346.885000", "100343.045000", "100346.995000", "100343.155000", "100350.965000", "100347.125000", "100351.072500", "100347.235000", "100351.182500", "100347.342500", "100351.292500", "100347.452500", "100351.402500", "100347.562500", "100351.512500", "100347.672500", "100351.622500", "100347.782500", "100351.732500", "100347.892500", "100351.842500", "100348.002500", "100351.952500", "100348.112500", "100352.060000", "100348.220000", "100352.170000", "100348.330000", "100352.280000", "100348.440000", "100352.390000", "100348.550000", "100352.500000", "100348.660000", "100352.610000", "100348.770000", "100352.720000", "100348.880000", "100352.830000", "100348.990000", "100352.940000", "100349.100000", "100353.047500", "100349.207500", "100353.157500", "100349.317500", "100353.267500", "100349.427500", "100353.377500", "100349.537500", "100353.487500", "100349.647500", "100353.597500", "100349.757500", "100353.707500", "100349.867500", "100353.817500", "100349.977500", "100353.925000", "100350.087500", "100354.035000", "100350.195000", "100354.145000", "100350.305000", "100354.255000", "100350.415000", "100354.365000", "100350.525000", "100354.475000", "100350.635000", "100354.585000", "100350.745000", "100354.695000", "100350.855000", "100358.665000", "100354.825000", "100358.772500", "100354.935000", "100358.882500", "100355.042500", "100358.992500", "100355.152500", "100359.102500", "100355.262500", "100359.212500", "100355.372500", "100359.322500", "100355.482500", "100359.432500", "100355.592500", "100359.542500", "100355.702500", "100359.652500", "100355.812500", "100359.760000", "100355.920000", "100359.870000", "100356.030000", "100359.980000", "100356.140000", "100400.090000", "100356.250000", "100400.200000", "100356.360000", "100400.310000", "100356.470000", "100400.420000", "100356.580000", "100400.530000", "100356.690000", "100400.640000", "100356.800000", "100400.747500", "100356.907500", "100400.857500", "100357.017500", "100400.967500", "100357.127500", "100401.077500", "100357.237500", "100401.187500", "100357.347500", "100401.297500", "100357.457500", "100401.407500", "100357.567500", "100401.517500", "100357.677500", "100401.625000", "100357.787500", "100401.735000", "100357.895000", "100401.845000", "100358.005000", "100401.955000", "100358.115000", "100402.065000", "100358.225000", "100402.175000", "100358.335000", "100402.285000", "100358.445000", "100402.395000", "100358.555000", "100406.365000", "100402.525000", "100406.472500", "100402.635000", "100406.582500", "100402.742500", "100406.692500", "100402.852500", "100406.802500", "100402.962500", "100406.912500", "100403.072500", "100407.022500", "100403.182500", "100407.132500", "100403.292500", "100407.242500", "100403.402500", "100407.352500", "100403.512500", "100407.460000", "100403.620000", "100407.570000", "100403.730000", "100407.680000", "100403.840000", "100407.790000", "100403.950000", "100407.900000", "100404.060000", "100408.010000", "100404.170000", "100408.120000", "100404.280000", "100408.230000", "100404.390000", "100408.340000", "100404.500000", "100408.447500", "100404.607500", "100408.557500", "100404.717500", "100408.667500", "100404.827500", "100408.777500", "100404.937500", "100408.887500", "100405.047500", "100408.997500", "100405.157500", "100409.107500", "100405.267500", "100409.217500", "100405.377500", "100409.325000", "100405.487500", "100409.435000", "100405.595000", "100409.545000", "100405.705000", "100409.655000", "100405.815000", "100409.765000", "100405.925000", "100409.875000", "100406.035000", "100409.985000", "100406.145000", "100410.095000", "100406.255000", "100414.065000", "100410.225000", "100414.172500", "100410.335000", "100414.282500", "100410.442500", "100414.392500", "100410.552500", "100414.502500", "100410.662500", "100414.612500", "100410.772500", "100414.722500", "100410.882500", "100414.832500", "100410.992500", "100414.942500", "100411.102500", "100415.052500", "100411.212500", "100415.160000", "100411.320000", "100415.270000", "100411.430000", "100415.380000", "100411.540000", "100415.490000", "100411.650000", "100415.600000", "100411.760000", "100415.710000", "100411.870000", "100415.820000", "100411.980000", "100415.930000", "