{
  "AcquisitionMatrixPE": 80,
  "AcquisitionNumber": 1,
  "AcquisitionTime": "11:14:49.432500",
  "BandwidthPerPixelPhaseEncode": 25,
  "BaseResolution": 80,
  "BodyPartExamined": "BRAIN",
  "CoilCombinationMethod": "Sum of Squares",
  "ConsistencyInfo": "N4_VE11E_LATEST_20181129",
  "ConversionSoftware": "dcm2niix",
  "ConversionSoftwareVersion": "v1.0.20220720",
  "DerivedVendorReportedEchoSpacing": 0.0005,
  "DeviceSerialNumber": "66112",
  "DwellTime": 2.7e-06,
  "EchoTime": 0.03,
  "EchoTrainLength": 80,
  "EffectiveEchoSpacing": 0.0005,
  "FlipAngle": 77,
  "HeudiconvVersion": "0.13.1",
  "ImageOrientationPatientDICOM": [0.999972, 0.00658475, 0.00346704, -0.00733037, 0.951871, 0.306411],
  "ImageOrientationText": "Tra>Cor(17.8)>Sag(0.1)",
  "ImageType": [
    "ORIGINAL",
    "PRIMARY",
    "M",
    "ND",
    "NORM",
    "MOSAIC"
],
  "ImagingFrequency": 123.259,
  "InPlanePhaseEncodingDirectionDICOM": "COL",
  "InstitutionAddress": "Maynard 3,Hanover,NH,US,03755",
  "InstitutionName": "Dartmouth College - PBS",
  "InstitutionalDepartmentName": "Department",
  "MRAcquisitionType": "2D",
  "MagneticFieldStrength": 3,
  "Manufacturer": "Siemens",
  "ManufacturersModelName": "Prisma",
  "MatrixCoilMode": "SENSE",
  "Modality": "MR",
  "NonlinearGradientCorrection": false,
  "PartialFourier": 1,
  "PatientPosition": "HFS",
  "PercentPhaseFOV": 100,
  "PercentSampling": 100,
  "PhaseEncodingDirection": "j-",
  "PhaseEncodingSteps": 80,
  "PhaseResolution": 1,
  "PixelBandwidth": 2315,
  "ProcedureStepDescription": "dbic^QA",
  "ProtocolName": "func-bold_fa-77",
  "PulseSequenceDetails": "%SiemensSeq%\\ep2d_bold",
  "ReceiveCoilActiveElements": "HC1-7;NC1,2",
  "ReceiveCoilName": "HeadNeck_64",
  "ReconMatrixPE": 80,
  "RepetitionTime": 2,
  "SAR": 0.0278438,
  "ScanOptions": "FS",
  "ScanningSequence": "EP",
  "SequenceName": "*epfid2d1_80",
  "SequenceVariant": "SK",
  "SeriesDescription": "func-bold_fa-77",
  "SeriesNumber": 7,
  "ShimSetting": [4215, -7739, -7498, -130, -168, -217, -24, 77],
  "SliceThickness": 3.5,
  "SliceTiming": [0.99, 0, 1.055, 0.065, 1.1225, 0.1325, 1.1875, 0.1975, 1.255, 0.265, 1.32, 0.33, 1.385, 0.395, 1.4525, 0.4625, 1.5175, 0.5275, 1.5825, 0.595, 1.65, 0.66, 1.715, 0.725, 1.7825, 0.7925, 1.8475, 0.8575, 1.9125, 0.925],
  "SoftwareVersions": "syngo MR E11",
  "SpacingBetweenSlices": 3.99,
  "StationName": "AWP66112",
  "TotalReadoutTime": 0.0395,
  "TxRefAmp": 213.424,
  "dcmmeta_affine": [
    [-2.9999170303344727, -0.021991118788719177, 0.005117310211062431, 120.9267349243164],
    [-0.01975424587726593, 2.8556132316589355, 1.2226471900939941, -123.46343994140625],
    [0.010401112027466297, -0.9192327857017517, 3.79805326461792, -26.368600845336914],
    [0.0, 0.0, 0.0, 1.0]
],
  "dcmmeta_reorient_transform": [
    [0.0, -1.0, 0.0, 79.0],
    [1.0, 0.0, 0.0, 0.0],
    [0.0, 0.0, 1.0, 0.0],
    [0.0, 0.0, 0.0, 1.0]
],
  "dcmmeta_shape": [80, 80, 30, 200],
  "dcmmeta_slice_dim": 2,
  "dcmmeta_version": 0.6,
  "global": {
    "const": {
      "AccessionNumber": "qa64",
      "AcquisitionMatrix": [80, 0, 0, 80],
      "AngioFlag": "N",
      "BitsAllocated": 16,
      "BitsStored": 12,
      "BodyPartExamined": "BRAIN",
      "Columns": 480,
      "EchoNumbers": 1,
      "EchoTime": 30.0,
      "EchoTrainLength": 80,
      "FlipAngle": 77.0,
      "HighBit": 11,
      "ImageOrientationPatient": [0.99997230998589, 0.00658474848011, 0.00346703748631, -0.007330373006, 0.95187110609923, 0.30641093812887],
      "ImagePositionPatient": [-714.77459804902, -677.20352787342, -284.9147776358],
      "ImageType": [
        "ORIGINAL",
        "PRIMARY",
        "M",
        "ND",
        "NORM",
        "MOSAIC"
],
      "ImagedNucleus": "1H",
      "ImagingFrequency": 123.259236,
      "InPlanePhaseEncodingDirection": "COL",
      "MRAcquisitionType": "2D",
      "MagneticFieldStrength": 3.0,
      "Manufacturer": "SIEMENS",
      "ManufacturerModelName": "Prisma",
      "Modality": "MR",
      "NumberOfAverages": 1.0,
      "NumberOfPhaseEncodingSteps": 80,
      "PercentPhaseFieldOfView": 100.0,
      "PercentSampling": 100.0,
      "PerformedProcedureStepStartTime": "110250.222000",
      "PhotometricInterpretation": "MONOCHROME2",
      "PixelBandwidth": 2315.0,
      "PixelRepresentation": 0,
      "PixelSpacing": [3.0, 3.0],
      "ProtocolName": "func-bold_fa-77",
      "RepetitionTime": 2000.0,
      "Rows": 480,
      "SAR": 0.02784380597985,
      "SamplesPerPixel": 1,
      "ScanOptions": "FS",
      "ScanningSequence": "EP",
      "SequenceName": "*epfid2d1_80",
      "SequenceVariant": "SK",
      "SeriesDescription": "func-bold_fa-77",
      "SeriesNumber": 7,
      "SeriesTime": "111529.145000",
      "SliceLocation": -62.77763134023,
      "SliceThickness": 3.5,
      "SmallestImagePixelValue": 0,
      "SoftwareVersions": "syngo MR E11",
      "SpacingBetweenSlices": 3.9900000657186,
      "SpecificCharacterSet": "ISO_IR 100",
      "StudyID": "22",
      "StudyTime": "110250.155000",
      "TransmitCoilName": "Body",
      "VariableFlipAngleFlag": "N",
      "WindowCenterWidthExplanation": "Algo1"
    },
    "slices": {}
  },
  "time": {
    "samples": {
      "AcquisitionNumber": [1, 2, 3, 4, 5, 6, 7, 8, 9, 10, 11, 12, 13, 14, 15, 16, 17, 18, 19, 20, 21, 22, 23, 24, 25, 26, 27, 28, 29, 30, 31, 32, 33, 34, 35, 36, 37, 38, 39, 40, 41, 42, 43, 44, 45, 46, 47, 48, 49, 50, 51, 52, 53, 54, 55, 56, 57, 58, 59, 60, 61, 62, 63, 64, 65, 66, 67, 68, 69, 70, 71, 72, 73, 74, 75, 76, 77, 78, 79, 80, 81, 82, 83, 84, 85, 86, 87, 88, 89, 90, 91, 92, 93, 94, 95, 96, 97, 98, 99, 100, 101, 102, 103, 104, 105, 106, 107, 108, 109, 110, 111, 112, 113, 114, 115, 116, 117, 118, 119, 120, 121, 122, 123, 124, 125, 126, 127, 128, 129, 130, 131, 132, 133, 134, 135, 136, 137, 138, 139, 140, 141, 142, 143, 144, 145, 146, 147, 148, 149, 150, 151, 152, 153, 154, 155, 156, 157, 158, 159, 160, 161, 162, 163, 164, 165, 166, 167, 168, 169, 170, 171, 172, 173, 174, 175, 176, 177, 178, 179, 180, 181, 182, 183, 184, 185, 186, 187, 188, 189, 190, 191, 192, 193, 194, 195, 196, 197, 198, 199, 200],
      "AcquisitionTime": ["111449.432500", "111451.432500", "111453.432500", "111455.432500", "111457.432500", "111459.432500", "111501.432500", "111503.432500", "111505.432500", "111507.432500", "111509.432500", "111511.432500", "111513.432500", "111515.432500", "111517.432500", "111519.432500", "111521.432500", "111523.432500", "111525.432500", "111527.432500", "111529.432500", "111531.432500", "111533.432500", "111535.432500", "111537.432500", "111539.432500", "111541.432500", "111543.432500", "111545.432500", "111547.432500", "111549.432500", "111551.432500", "111553.432500", "111555.432500", "111557.432500", "111559.432500", "111601.432500", "111603.432500", "111605.432500", "111607.432500", "111609.432500", "111611.432500", "111613.432500", "111615.432500", "111617.432500", "111619.432500", "111621.432500", "111623.432500", "111625.432500", "111627.432500", "111629.432500", "111631.432500", "111633.432500", "111635.432500", "111637.432500", "111639.432500", "111641.432500", "111643.432500", "111645.432500", "111647.432500", "111649.432500", "111651.432500", "111653.432500", "111655.432500", "111657.432500", "111659.432500", "111701.432500", "111703.432500", "111705.432500", "111707.432500", "111709.432500", "111711.432500", "111713.432500", "111715.432500", "111717.432500", "111719.432500", "111721.432500", "111723.432500", "111725.432500", "111727.432500", "111729.432500", "111731.432500", "111733.432500", "111735.432500", "111737.432500", "111739.432500", "111741.432500", "111743.432500", "111745.432500", "111747.432500", "111749.432500", "111751.432500", "111753.432500", "111755.432500", "111757.432500", "111759.432500", "111801.432500", "111803.432500", "111805.432500", "111807.432500", "111809.432500", "111811.432500", "111813.432500", "111815.432500", "111817.432500", "111819.432500", "111821.432500", "111823.432500", "111825.432500", "111827.432500", "111829.432500", "111831.432500", "111833.432500", "111835.432500", "111837.432500", "111839.432500", "111841.432500", "111843.432500", "111845.432500", "111847.432500", "111849.432500", "111851.432500", "111853.432500", "111855.432500", "111857.432500", "111859.432500", "111901.432500", "111903.432500", "111905.432500", "111907.432500", "111909.432500", "111911.432500", "111913.432500", "111915.432500", "111917.432500", "111919.432500", "111921.432500", "111923.432500", "111925.432500", "111927.432500", "111929.432500", "111931.432500", "111933.432500", "111935.432500", "111937.432500", "111939.432500", "111941.432500", "111943.432500", "111945.432500", "111947.432500", "111949.432500", "111951.432500", "111953.432500", "111955.432500", "111957.432500", "111959.432500", "112001.432500", "112003.432500", "112005.432500", "112007.432500", "112009.432500", "112011.432500", "112013.432500", "112015.432500", "112017.432500", "112019.432500", "112021.432500", "112023.432500", "112025.432500", "112027.432500", "112029.432500", "112031.432500", "112033.432500", "112035.432500", "112037.432500", "112039.432500", "112041.432500", "112043.432500", "112045.432500", "112047.432500", "112049.432500", "112051.432500", "112053.432500", "112055.432500", "112057.432500", "112059.432500", "112101.432500", "112103.432500", "112105.432500", "112107.432500", "112109.432500", "112111.432500", "112113.432500", "112115.432500", "112117.432500", "112119.432500", "112121.432500", "112123.432500", "112125.432500", "112127.432500"],
      "ContentTime": ["111529.148000", "111529.151000", "111529.154000", "111529.156000", "111529.164000", "111529.166000", "111529.169000", "111529.171000", "111529.173000", "111529.175000", "111529.178000", "111529.180000", "111529.182000", "111529.185000", "111529.187000", "111529.189000", "111529.222000", "111529.229000", "111529.231000", "111529.233000", "111609.143000", "111609.146000", "111609.148000", "111609.151000", "111609.153000", "111609.155000", "111609.158000", "111609.160000", "111609.162000", "111609.165000", "111609.167000", "111609.169000", "111609.172000", "111609.174000", "111609.176000", "111609.178000", "111609.181000", "111609.183000", "111609.185000", "111609.188000", "111649.143000", "111649.146000", "111649.148000", "111649.150000", "111649.153000", "111649.155000", "111649.157000", "111649.160000", "111649.170000", "111649.172000", "111649.175000", "111649.177000", "111649.179000", "111649.181000", "111649.184000", "111649.186000", "111649.189000", "111649.191000", "111649.193000", "111649.196000", "111729.145000", "111729.147000", "111729.149000", "111729.152000", "111729.154000", "111729.156000", "111729.159000", "111729.161000", "111729.163000", "111729.166000", "111729.168000", "111729.170000", "111729.173000", "111729.175000", "111729.177000", "111729.179000", "111729.182000", "111729.184000", "111729.186000", "111729.189000", "111809.144000", "111809.146000", "111809.148000", "111809.151000", "111809.153000", "111809.156000", "111809.158000", "111809.160000", "111809.163000", "111809.165000", "111809.167000", "111809.170000", "111809.172000", "111809.174000", "111809.177000", "111809.179000", "111809.181000", "111809.183000", "111809.186000", "111809.188000", "111849.143000", "111849.146000", "111849.148000", "111849.150000", "111849.153000", "111849.155000", "111849.157000", "111849.160000", "111849.162000", "111849.164000", "111849.167000", "111849.169000", "111849.182000", "111849.184000", "111849.186000", "111849.189000", "111849.191000", "111849.193000", "111849.196000", "111849.198000", "111929.144000", "111929.147000", "111929.149000", "111929.183000", "111929.185000", "111929.187000", "111929.190000", "111929.192000", "111929.194000", "111929.197000", "111929.199000", "111929.201000", "111929.204000", "111929.206000", "111929.209000", "111929.211000", "111929.213000", "111929.216000", "111929.218000", "111929.220000", "112009.143000", "112009.146000", "112009.148000", "112009.151000", "112009.153000", "112009.155000", "112009.158000", "112009.160000", "112009.162000", "112009.165000", "112009.167000", "112009.169000", "112009.172000", "112009.174000", "112009.176000", "112009.178000", "112009.181000", "112009.183000", "112009.186000", "112009.188000", "112049.143000", "112049.146000", "112049.148000", "112049.150000", "112049.153000", "112049.156000", "112049.158000", "112049.160000", "112049.163000", "112049.165000", "112049.167000", "112049.169000", "112049.172000", "112049.174000", "112049.176000", "112049.179000", "112049.181000", "112049.183000", "112049.186000", "112049.188000", "112128.755000", "112128.757000", "112128.760000", "112128.762000", "112128.765000", "112128.767000", "112128.769000", "112128.771000", "112128.774000", "112128.776000", "112128.779000", "112128.782000", "112128.784000", "112128.786000", "112128.789000", "112128.791000", "112128.794000", "112128.796000", "112128.798000", "112128.829000"],
      "InstanceCreationTime": ["111529.148000", "111529.151000", "111529.154000", "111529.156000", "111529.164000", "111529.166000", "111529.169000", "111529.171000", "111529.173000", "111529.175000", "111529.178000", "111529.180000", "111529.182000", "111529.185000", "111529.187000", "111529.189000", "111529.222000", "111529.229000", "111529.231000", "111529.233000", "111609.143000", "111609.146000", "111609.148000", "111609.151000", "111609.153000", "111609.155000", "111609.158000", "111609.160000", "111609.162000", "111609.165000", "111609.167000", "111609.169000", "111609.172000", "111609.174000", "111609.176000", "111609.178000", "111609.181000", "111609.183000", "111609.185000", "111609.188000", "111649.143000", "111649.146000", "111649.148000", "111649.150000", "111649.153000", "111649.155000", "111649.157000", "111649.160000", "111649.170000", "111649.172000", "111649.175000", "111649.177000", "111649.179000", "111649.181000", "111649.184000", "111649.186000", "111649.189000", "111649.191000", "111649.193000", "111649.196000", "111729.145000", "111729.147000", "111729.149000", "111729.152000", "111729.154000", "111729.156000", "111729.159000", "111729.161000", "111729.163000", "111729.166000", "111729.168000", "111729.170000", "111729.173000", "111729.175000", "111729.177000", "111729.179000", "111729.182000", "111729.184000", "111729.186000", "111729.189000", "111809.144000", "111809.146000", "111809.148000", "111809.151000", "111809.153000", "111809.156000", "111809.158000", "111809.160000", "111809.163000", "111809.165000", "111809.167000", "111809.170000", "111809.172000", "111809.174000", "111809.177000", "111809.179000", "111809.181000", "111809.183000", "111809.186000", "111809.188000", "111849.143000", "111849.146000", "111849.148000", "111849.150000", "111849.153000", "111849.155000", "111849.157000", "111849.160000", "111849.162000", "111849.164000", "111849.167000", "111849.169000", "111849.182000", "111849.184000", "111849.186000", "111849.189000", "111849.191000", "111849.193000", "111849.196000", "111849.198000", "111929.144000", "111929.147000", "111929.149000", "111929.183000", "111929.185000", "111929.187000", "111929.190000", "111929.192000", "111929.194000", "111929.197000", "111929.199000", "111929.201000", "111929.204000", "111929.206000", "111929.209000", "111929.211000", "111929.213000", "111929.216000", "111929.218000", "111929.220000", "112009.143000", "112009.146000", "112009.148000", "112009.151000", "112009.153000", "112009.155000", "112009.158000", "112009.160000", "112009.162000", "112009.165000", "112009.167000", "112009.169000", "112009.172000", "112009.174000", "112009.176000", "112009.178000", "112009.181000", "112009.183000", "112009.186000", "112009.188000", "112049.143000", "112049.146000", "112049.148000", "112049.150000", "112049.153000", "112049.156000", "112049.158000", "112049.160000", "112049.163000", "112049.165000", "112049.167000", "112049.169000", "112049.172000", "112049.174000", "112049.176000", "112049.179000", "112049.181000", "112049.183000", "112049.186000", "112049.188000", "112128.755000", "112128.757000", "112128.760000", "112128.762000", "112128.765000", "112128.767000", "112128.769000", "112128.771000", "112128.774000", "112128.776000", "112128.779000", "112128.782000", "112128.784000", "112128.786000", "112128.789000", "112128.791000", "112128.794000", "112128.796000", "112128.798000", "112128.829000"],
      "InstanceNumber": [1, 2, 3, 4, 5, 6, 7, 8, 9, 10, 11, 12, 13, 14, 15, 16, 17, 18, 19, 20, 21, 22, 23, 24, 25, 26, 27, 28, 29, 30, 31, 32, 33, 34, 35, 36, 37, 38, 39, 40, 41, 42, 43, 44, 45, 46, 47, 48, 49, 50, 51, 52, 53, 54, 55, 56, 57, 58, 59, 60, 61, 62, 63, 64, 65, 66, 67, 68, 69, 70, 71, 72, 73, 74, 75, 76, 77, 78, 79, 80, 81, 82, 83, 84, 85, 86, 87, 88, 89, 90, 91, 92, 93, 94, 95, 96, 97, 98, 99, 100, 101, 102, 103, 104, 105, 106, 107, 108, 109, 110, 111, 112, 113, 114, 115, 116, 117, 118, 119, 120, 121, 122, 123, 124, 125, 126, 127, 128, 129, 130, 131, 132, 133, 134, 135, 136, 137, 138, 139, 140, 141, 142, 143, 144, 145, 146, 147, 148, 149, 150, 151, 152, 153, 154, 155, 156, 157, 158, 159, 160, 161, 162, 163, 164, 165, 166, 167, 168, 169, 170, 171, 172, 173, 174, 175, 176, 177, 178, 179, 180, 181, 182, 183, 184, 185, 186, 187, 188, 189, 190, 191, 192, 193, 194, 195, 196, 197, 198, 199, 200],
      "LargestImagePixelValue": [3800, 3805, 3802, 3801, 3804, 3801, 3801, 3805, 3804, 3800, 3807, 3799, 3802, 3797, 3799, 3801, 3800, 3802, 3800, 3801, 3805, 3802, 3804, 3801, 3799, 3805, 3804, 3800, 3799, 3800, 3805, 3806, 3801, 3800, 3802, 3800, 3801, 3795, 3799, 3797, 3794, 3799, 3805, 3796, 3801, 3801, 3804, 3798, 3798, 3798, 3797, 3799, 3796, 3799, 3802, 3803, 3798, 3799, 3801, 3801, 3801, 3801, 3796, 3799, 3798, 3801, 3806, 3798, 3797, 3798, 3795, 3793, 3794, 3796, 3795, 3795, 3796, 3791, 3797, 3799, 3802, 3794, 3795, 3795, 3798, 3796, 3794, 3800, 3791, 3795, 3797, 3797, 3797, 3792, 3793, 3793, 3794, 3790, 3797, 3792, 3795, 3792, 3792, 3794, 3792, 3796, 3791, 3790, 3792, 3794, 3790, 3793, 3795, 3794, 3793, 3795, 3794, 3791, 3794, 3792, 3781, 3793, 3792, 3789, 3788, 3795, 3785, 3791, 3791, 3792, 3790, 3777, 3792, 3790, 3788, 3787, 3792, 3789, 3793, 3792, 3790, 3789, 3791, 3791, 3788, 3783, 3789, 3784, 3792, 3787, 3782, 3786, 3786, 3788, 3791, 3784, 3788, 3785, 3786, 3791, 3786, 3788, 3787, 3784, 3786, 3784, 3791, 3782, 3784, 3784, 3781, 3787, 3782, 3787, 3780, 3788, 3782, 3786, 3781, 3787, 3781, 3783, 3790, 3786, 3783, 3782, 3783, 3786, 3785, 3783, 3785, 3782, 3784, 3786, 3783, 3776, 3785, 3782, 3780, 3782],
      "WindowCenter": [1389.0, 1390.0, 1389.0, 1390.0, 1390.0, 1389.0, 1390.0, 1390.0, 1390.0, 1390.0, 1389.0, 1389.0, 1389.0, 1390.0, 1389.0, 1389.0, 1389.0, 1389.0, 1390.0, 1388.0, 1389.0, 1389.0, 1390.0, 1390.0, 1390.0, 1389.0, 1389.0, 1389.0, 1389.0, 1388.0, 1389.0, 1389.0, 1389.0, 1389.0, 1389.0, 1389.0, 1388.0, 1389.0, 1389.0, 1389.0, 1389.0, 1389.0, 1389.0, 1388.0, 1388.0, 1388.0, 1388.0, 1388.0, 1388.0, 1388.0, 1388.0, 1388.0, 1389.0, 1388.0, 1389.0, 1388.0, 1388.0, 1388.0, 1388.0, 1388.0, 1388.0, 1388.0, 1388.0, 1388.0, 1388.0, 1388.0, 1387.0, 1387.0, 1388.0, 1388.0, 1388.0, 1388.0, 1388.0, 1387.0, 1387.0, 1388.0, 1387.0, 1388.0, 1388.0, 1387.0, 1388.0, 1388.0, 1387.0, 1387.0, 1387.0, 1388.0, 1387.0, 1388.0, 1387.0, 1387.0, 1388.0, 1387.0, 1387.0, 1387.0, 1387.0, 1387.0, 1387.0, 1387.0, 1387.0, 1387.0, 1387.0, 1388.0, 1387.0, 1387.0, 1387.0, 1387.0, 1387.0, 1387.0, 1387.0, 1387.0, 1387.0, 1386.0, 1386.0, 1386.0, 1387.0, 1386.0, 1387.0, 1386.0, 1387.0, 1386.0, 1386.0, 1387.0, 1387.0, 1386.0, 1386.0, 1385.0, 1387.0, 1386.0, 1386.0, 1386.0, 1387.0, 1386.0, 1387.0, 1386.0, 1386.0, 1386.0, 1386.0, 1386.0, 1386.0, 1386.0, 1387.0, 1387.0, 1386.0, 1386.0, 1386.0, 1386.0, 1385.0, 1386.0, 1386.0, 1386.0, 1386.0, 1386.0, 1386.0, 1386.0, 1386.0, 1386.0, 1386.0, 1386.0, 1386.0, 1386.0, 1385.0, 1385.0, 1386.0, 1385.0, 1386.0, 1386.0, 1386.0, 1386.0, 1386.0, 1385.0, 1386.0, 1385.0, 1386.0, 1385.0, 1386.0, 1385.0, 1385.0, 1385.0, 1386.0, 1386.0, 1386.0, 1385.0, 1385.0, 1386.0, 1385.0, 1386.0, 1386.0, 1385.0, 1385.0, 1385.0, 1385.0, 1385.0, 1385.0, 1386.0, 1386.0, 1385.0, 1385.0, 1385.0, 1385.0, 1385.0],
      "WindowWidth": [3316.0, 3316.0, 3316.0, 3316.0, 3316.0, 3316.0, 3316.0, 3317.0, 3316.0, 3317.0, 3317.0, 3316.0, 3316.0, 3316.0, 3316.0, 3316.0, 3316.0, 3316.0, 3316.0, 3317.0, 3316.0, 3316.0, 3316.0, 3316.0, 3316.0, 3316.0, 3316.0, 3316.0, 3316.0, 3316.0, 3316.0, 3316.0, 3316.0, 3316.0, 3316.0, 3316.0, 3316.0, 3316.0, 3316.0, 3315.0, 3316.0, 3316.0, 3316.0, 3315.0, 3315.0, 3315.0, 3315.0, 3315.0, 3315.0, 3315.0, 3315.0, 3315.0, 3315.0, 3315.0, 3315.0, 3315.0, 3315.0, 3315.0, 3315.0, 3315.0, 3315.0, 3315.0, 3315.0, 3315.0, 3315.0, 3315.0, 3315.0, 3315.0, 3315.0, 3315.0, 3315.0, 3315.0, 3315.0, 3315.0, 3315.0, 3315.0, 3315.0, 3315.0, 3315.0, 3315.0, 3315.0, 3315.0, 3314.0, 3314.0, 3315.0, 3315.0, 3315.0, 3315.0, 3315.0, 3315.0, 3315.0, 3315.0, 3314.0, 3314.0, 3315.0, 3314.0, 3314.0, 3314.0, 3314.0, 3314.0, 3314.0, 3314.0, 3314.0, 3314.0, 3314.0, 3314.0, 3314.0, 3314.0, 3314.0, 3314.0, 3314.0, 3314.0, 3314.0, 3314.0, 3314.0, 3314.0, 3314.0, 3314.0, 3314.0, 3314.0, 3314.0, 3313.0, 3313.0, 3314.0, 3314.0, 3313.0, 3314.0, 3314.0, 3311.0, 3314.0, 3313.0, 3311.0, 3313.0, 3313.0, 3313.0, 3313.0, 3314.0, 3313.0, 3314.0, 3314.0, 3314.0, 3313.0, 3313.0, 3313.0, 3313.0, 3313.0, 3313.0, 3313.0, 3313.0, 3313.0, 3313.0, 3313.0, 3313.0, 3313.0, 3313.0, 3313.0, 3313.0, 3313.0, 3313.0, 3313.0, 3311.0, 3313.0, 3313.0, 3313.0, 3312.0, 3313.0, 3312.0, 3312.0, 3312.0, 3313.0, 3312.0, 3313.0, 3312.0, 3313.0, 3312.0, 3313.0, 3313.0, 3312.0, 3312.0, 3312.0, 3312.0, 3312.0, 3313.0, 3312.0, 3313.0, 3312.0, 3312.0, 3312.0, 3312.0, 3312.0, 3312.0, 3313.0, 3313.0, 3312.0, 3312.0, 3312.0, 3312.0, 3312.0, 3312.0, 3312.0]
    },
    "slices": {}
  }
}