{
  "AcquisitionMatrixPE": 122,
  "AcquisitionNumber": 1,
  "AcquisitionTime": "09:43:36.057500",
  "BandwidthPerPixelPhaseEncode": 28.76,
  "BaseResolution": 122,
  "BodyPartExamined": "BRAIN",
  "CoilCombinationMethod": "Adaptive Combine",
  "ConsistencyInfo": "N4_VE11C_LATEST_20160120",
  "ConversionSoftware": "dcm2niix",
  "ConversionSoftwareVersion": "v1.0.20220720",
  "DerivedVendorReportedEchoSpacing": 0.000570008,
  "DeviceSerialNumber": "66112",
  "DiffusionScheme": "Monopolar",
  "DwellTime": 2e-06,
  "EchoTime": 0.075,
  "EchoTrainLength": 61,
  "EffectiveEchoSpacing": 0.000285004,
  "FlipAngle": 90,
  "HeudiconvVersion": "0.13.1",
  "ImageOrientationPatientDICOM": [0.979135, 0.202505, 0.0169349, -0.19814, 0.932874, 0.300811],
  "ImageOrientationText": "Tra>Cor(17.3)>Sag(-2.6)",
  "ImageType": [
    "ORIGINAL",
    "PRIMARY",
    "DIFFUSION",
    "NONE",
    "ND",
    "NORM"
],
  "ImagingFrequency": 123.253,
  "InPlanePhaseEncodingDirectionDICOM": "COL",
  "InstitutionAddress": "Maynard 3,Hanover,NH,US,03755",
  "InstitutionName": "Dartmouth College - PBS",
  "InstitutionalDepartmentName": "Department",
  "MRAcquisitionType": "2D",
  "MagneticFieldStrength": 3,
  "Manufacturer": "Siemens",
  "ManufacturersModelName": "Prisma",
  "MatrixCoilMode": "GRAPPA",
  "Modality": "MR",
  "NonlinearGradientCorrection": false,
  "ParallelReductionFactorInPlane": 2,
  "PartialFourier": 1,
  "PatientPosition": "HFS",
  "PercentPhaseFOV": 100,
  "PercentSampling": 100,
  "PhaseEncodingDirection": "j-",
  "PhaseEncodingSteps": 122,
  "PhaseResolution": 1,
  "PixelBandwidth": 2050,
  "ProcedureStepDescription": "dbic^QA",
  "ProtocolName": "dwi_acq-DTI-30-p2",
  "PulseSequenceDetails": "%SiemensSeq%\\ep2d_diff",
  "ReceiveCoilActiveElements": "HEA;HEP",
  "ReceiveCoilName": "Head_32",
  "ReconMatrixPE": 122,
  "RefLinesPE": 38,
  "RepetitionTime": 7.7,
  "SAR": 0.101918,
  "ScanOptions": "FS",
  "ScanningSequence": "EP",
  "SequenceName": "*ep_b0",
  "SequenceVariant": "SK\\SP",
  "SeriesDescription": "dwi_acq-DTI-30-p2",
  "SeriesNumber": 8,
  "ShimSetting": [4146, -7689, -7515, 230, -41, -172, -20, 33],
  "SliceThickness": 2,
  "SliceTiming": [3.83594, 0, 3.94531, 0.10938, 4.0625, 0.21875, 4.16406, 0.32812, 4.27344, 0.4375, 4.38281, 0.54688, 4.5, 0.65625, 4.60938, 0.76562, 4.71875, 0.875, 4.82812, 0.98438, 4.9375, 1.09375, 5.04688, 1.20312, 5.15625, 1.3125, 5.26562, 1.42188, 5.375, 1.53125, 5.48438, 1.64062, 5.59375, 1.75, 5.70312, 1.86719, 5.8125, 1.97656, 5.92188, 2.08594, 6.03125, 2.19531, 6.14062, 2.30469, 6.25, 2.41406, 6.35938, 2.52344, 6.46875, 2.63281, 6.57812, 2.74219, 6.6875, 2.85156, 6.80469, 2.96094, 6.91406, 3.07031, 7.01562, 3.17969, 7.125, 3.28906, 7.24219, 3.39844, 7.35156, 3.50781, 7.46094, 3.61719, 7.57031, 3.72656],
  "SoftwareVersions": "syngo MR E11",
  "SpacingBetweenSlices": 2,
  "SpoilingState": true,
  "StationName": "AWP66112",
  "TotalReadoutTime": 0.0344855,
  "TxRefAmp": 230.228,
  "dcmmeta_affine": [
    [-1.9261670112609863, -0.3897828757762909, -0.09023511409759521, 148.21751403808594],
    [-0.398369699716568, 1.835161566734314, 0.5957794189453125, -99.73095703125],
    [0.03331446647644043, -0.5917590260505676, 1.9070663452148438, -28.956220626831055],
    [0.0, 0.0, 0.0, 1.0]
],
  "dcmmeta_reorient_transform": [
    [0.0, -1.0, 0.0, 121.0],
    [1.0, 0.0, 0.0, 0.0],
    [0.0, 0.0, -1.0, 69.0],
    [0.0, 0.0, 0.0, 1.0]
],
  "dcmmeta_shape": [122, 122, 70, 31],
  "dcmmeta_slice_dim": 2,
  "dcmmeta_version": 0.6,
  "global": {
    "const": {
      "AccessionNumber": "qa",
      "AcquisitionMatrix": [122, 0, 0, 122],
      "AngioFlag": "N",
      "BitsAllocated": 16,
      "BitsStored": 12,
      "BodyPartExamined": "BRAIN",
      "Columns": 122,
      "EchoNumbers": 1,
      "EchoTime": 75.0,
      "EchoTrainLength": 61,
      "FlipAngle": 90.0,
      "HighBit": 11,
      "ImageOrientationPatient": [0.97913487342591, 0.20250459348114, 0.01693485341714, -0.1981396252991, 0.93287379865529, 0.30081084533107],
      "ImageType": [
        "ORIGINAL",
        "PRIMARY",
        "DIFFUSION",
        "NONE",
        "ND",
        "NORM"
],
      "ImagedNucleus": "1H",
      "ImagingFrequency": 123.252532,
      "InPlanePhaseEncodingDirection": "COL",
      "MRAcquisitionType": "2D",
      "MagneticFieldStrength": 3.0,
      "Manufacturer": "SIEMENS",
      "ManufacturerModelName": "Prisma",
      "Modality": "MR",
      "NumberOfAverages": 1.0,
      "NumberOfPhaseEncodingSteps": 122,
      "PercentPhaseFieldOfView": 100.0,
      "PercentSampling": 100.0,
      "PerformedProcedureStepStartTime": "092701.162000",
      "PhotometricInterpretation": "MONOCHROME2",
      "PixelBandwidth": 2050.0,
      "PixelRepresentation": 0,
      "PixelSpacing": [1.9672131538391, 1.9672131538391],
      "ProtocolName": "dwi_acq-DTI-30-p2",
      "RepetitionTime": 7700.0,
      "Rows": 122,
      "SAR": 0.10191779080345,
      "SamplesPerPixel": 1,
      "ScanOptions": "FS",
      "ScanningSequence": "EP",
      "SequenceVariant": [
        "SK",
        "SP"
],
      "SeriesDescription": "dwi_acq-DTI-30-p2",
      "SeriesNumber": 8,
      "SeriesTime": "094347.669000",
      "SliceThickness": 2.0,
      "SmallestImagePixelValue": 0,
      "SoftwareVersions": "syngo MR E11",
      "SpacingBetweenSlices": 2.0,
      "SpecificCharacterSet": "ISO_IR 100",
      "StudyID": "55",
      "StudyTime": "092701.078000",
      "TransmitCoilName": "Body",
      "VariableFlipAngleFlag": "N",
      "WindowCenterWidthExplanation": "Algo1",
      "dBdt": 0.0},
    "slices": {
      "AcquisitionTime": ["094336.057500", "094332.217500", "094336.167500", "094332.327500", "094336.277500", "094332.437500", "094336.385000", "094332.547500", "094336.495000", "094332.655000", "094336.605000", "094332.765000", "094336.715000", "094332.875000", "094336.825000", "094332.985000", "094336.935000", "094333.095000", "094337.045000", "094333.205000", "094337.155000", "094333.315000", "094337.265000", "094333.425000", "094337.372500", "094333.532500", "094337.482500", "094333.642500", "094337.592500", "094333.752500", "094337.702500", "094333.862500", "094337.812500", "094333.972500", "094337.922500", "094334.082500", "094338.032500", "094334.192500", "094338.142500", "094334.302500", "094338.252500", "094334.412500", "094338.360000", "094334.520000", "094338.470000", "094334.630000", "094338.580000", "094334.740000", "094338.690000", "094334.850000", "094338.800000", "094334.960000", "094338.910000", "094335.070000", "094339.020000", "094335.180000", "094339.130000", "094335.290000", "094339.237500", "094335.400000", "094339.347500", "094335.507500", "094339.457500", "094335.617500", "094339.567500", "094335.727500", "094339.677500", "094335.837500", "094339.787500", "094335.947500", "094343.757500", "094339.917500", "094343.867500", "094340.027500", "094343.977500", "094340.137500", "094344.085000", "094340.247500", "094344.195000", "094340.355000", "094344.305000", "094340.465000", "094344.415000", "094340.575000", "094344.525000", "094340.685000", "094344.635000", "094340.795000", "094344.745000", "094340.905000", "094344.855000", "094341.015000", "094344.965000", "094341.125000", "094345.072500", "094341.232500", "094345.182500", "094341.342500", "094345.292500", "094341.452500", "094345.402500", "094341.562500", "094345.512500", "094341.672500", "094345.622500", "094341.782500", "094345.732500", "094341.892500", "094345.842500", "094342.002500", "094345.952500", "094342.112500", "094346.060000", "094342.220000", "094346.170000", "094342.330000", "094346.280000", "094342.440000", "094346.390000", "094342.550000", "094346.500000", "094342.660000", "094346.610000", "094342.770000", "094346.720000", "094342.880000", "094346.830000", "094342.990000", "094346.937500", "094343.100000", "094347.047500", "094343.207500", "094347.157500", "094343.317500", "094347.267500", "094343.427500", "094347.377500", "094343.537500", "094347.487500", "094343.647500", "094351.457500", "094347.617500", "094351.567500", "094347.727500", "094351.677500", "094347.837500", "094351.785000", "094347.947500", "094351.895000", "094348.055000", "094352.005000", "094348.165000", "094352.115000", "094348.275000", "094352.225000", "094348.385000", "094352.335000", "094348.495000", "094352.445000", "094348.605000", "094352.555000", "094348.715000", "094352.665000", "094348.825000", "094352.772500", "094348.932500", "094352.882500", "094349.042500", "094352.992500", "094349.152500", "094353.102500", "094349.262500", "094353.212500", "094349.372500", "094353.322500", "094349.482500", "094353.432500", "094349.592500", "094353.542500", "094349.702500", "094353.652500", "094349.812500", "094353.760000", "094349.920000", "094353.870000", "094350.030000", "094353.980000", "094350.140000", "094354.090000", "094350.250000", "094354.200000", "094350.360000", "094354.310000", "094350.470000", "094354.420000", "094350.580000", "094354.530000", "094350.690000", "094354.637500", "094350.800000", "094354.747500", "094350.907500", "094354.857500", "094351.017500", "094354.967500", "094351.127500", "094355.077500", "094351.237500", "094355.187500", "094351.347500", "094359.157500", "094355.317500", "094359.267500", "094355.427500", "094359.377500", "094355.537500", "094359.485000", "094355.647500", "094359.595000", "094355.755000", "094359.705000", "094355.865000", "094359.815000", "094355.975000", "094359.925000", "094356.085000", "094400.035000", "094356.195000", "094400.145000", "094356.305000", "094400.255000", "094356.415000", "094400.365000", "094356.525000", "094400.472500", "094356.632500", "094400.582500", "094356.742500", "094400.692500", "094356.852500", "094400.802500", "094356.962500", "094400.912500", "094357.072500", "094401.022500", "094357.182500", "094401.132500", "094357.292500", "094401.242500", "094357.402500", "094401.352500", "094357.512500", "094401.460000", "094357.620000", "094401.570000", "094357.730000", "094401.680000", "094357.840000", "094401.790000", "094357.950000", "094401.900000", "094358.060000", "094402.010000", "094358.170000", "094402.120000", "094358.280000", "094402.230000", "094358.390000", "094402.337500", "094358.500000", "094402.447500", "094358.607500", "094402.557500", "094358.717500", "094402.667500", "094358.827500", "094402.777500", "094358.937500", "094402.887500", "094359.047500", "094406.857500", "094403.017500", "094406.967500", "094403.127500", "094407.077500", "094403.237500", "094407.185000", "094403.347500", "094407.295000", "094403.455000", "094407.405000", "094403.565000", "094407.515000", "094403.675000", "094407.625000", "094403.785000", "094407.735000", "094403.895000", "094407.845000", "094404.005000", "094407.955000", "094404.115000", "094408.065000", "094404.225000", "094408.172500", "094404.332500", "094408.282500", "094404.442500", "094408.392500", "094404.552500", "094408.502500", "094404.662500", "094408.612500", "094404.772500", "094408.722500", "094404.882500", "094408.832500", "094404.992500", "094408.942500", "094405.102500", "094409.052500", "094405.212500", "094409.160000", "094405.320000", "094409.270000", "094405.430000", "094409.380000", "094405.540000", "094409.490000", "094405.650000", "094409.600000", "094405.760000", "094409.710000", "094405.870000", "094409.820000", "094405.980000", "094409.930000", "094406.090000", "094410.037500", "094406.200000", "094410.147500", "094406.307500", "094410.257500", "094406.417500", "094410.367500", "094406.527500", "094410.477500", "094406.637500", "094410.587500", "094406.747500", "094414.557500", "094410.717500", "094414.667500", "094410.827500", "094414.777500", "094410.937500", "094414.885000", "094411.047500", "094414.995000", "094411.155000", "094415.105000", "094411.265000", "094415.215000", "094411.375000", "094415.325000", "094411.485000", "094415.435000", "094411.595000", "094415.545000", "094411.705000", "094415.655000", "094411.815000", "094415.765000", "094411.925000", "094415.872500", "094412.032500", "094415.982500", "094412.142500", "094416.092500", "094412.252500", "094416.202500", "094412.362500", "094416.312500", "094412.472500", "094416.422500", "094412.582500", "094416.532500", "094412.692500", "094416.642500", "094412.802500", "094416.752500", "094412.912500", "094416.860000", "094413.020000", "094416.970000", "094413.130000", "094417.080000", "094413.240000", "094417.190000", "094413.350000", "094417.300000", "094413.460000", "094417.410000", "094413.570000", "094417.520000", "094413.680000", "094417.630000", "094413.790000", "094417.737500", "094413.900000", "094417.847500", "094414.007500", "094417.957500", "094414.117500", "094418.067500", "094414.227500", "094418.177500", "094414.337500", "094418.287500", "094414.447500", "094422.257500", "094418.417500", "094422.367500", "094418.527500", "094422.477500", "094418.637500", "094422.585000", "094418.747500", "094422.695000", "094418.855000", "094422.805000", "094418.965000", "094422.915000", "094419.075000", "094423.025000", "094419.185000", "094423.135000", "094419.295000", "094423.245000", "094419.405000", "094423.355000", "094419.515000", "094423.465000", "094419.625000", "094423.572500", "094419.732500", "094423.682500", "094419.842500", "094423.792500", "094419.952500", "094423.902500", "094420.062500", "094424.012500", "094420.172500", "094424.122500", "094420.282500", "094424.232500", "094420.392500", "094424.342500", "094420.502500", "094424.452500", "094420.612500", "094424.560000", "094420.720000", "094424.670000", "094420.830000", "094424.780000", "094420.940000", "094424.890000", "094421.050000", "094425.000000", "094421.160000", "094425.110000", "094421.270000", "094425.220000", "094421.380000", "094425.330000", "094421.490000", "094425.437500", "094421.600000", "094425.547500", "094421.707500", "094425.657500", "094421.817500", "094425.767500", "094421.927500", "094425.877500", "094422.037500", "094425.987500", "094422.147500", "094429.957500", "094426.117500", "094430.067500", "094426.227500", "094430.177500", "094426.337500", "094430.285000", "094426.447500", "094430.395000", "094426.555000", "094430.505000", "094426.665000", "094430.615000", "094426.775000", "094430.725000", "094426.885000", "094430.835000", "094426.995000", "094430.945000", "094427.105000", "094431.055000", "094427.215000", "094431.165000", "094427.325000", "094431.272500", "094427.432500", "094431.382500", "094427.542500", "094431.492500", "094427.652500", "094431.602500", "094427.762500", "094431.712500", "094427.872500", "094431.822500", "094427.982500", "094431.932500", "094428.092500", "094432.042500", "094428.202500", "094432.152500", "094428.312500", "094432.260000", "094428.420000", "094432.370000", "094428.530000", "094432.480000", "094428.640000", "094432.590000", "094428.750000", "094432.700000", "094428.860000", "094432.810000", "094428.970000", "094432.920000", "094429.080000", "094433.030000", "094429.190000", "094433.137500", "094429.300000", "094433.247500", "094429.407500", "094433.357500", "094429.517500", "094433.467500", "094429.627500", "094433.577500", "094429.737500", "094433.687500", "094429.847500", "094437.657500", "094433.817500", "094437.767500", "094433.927500", "094437.877500", "094434.037500", "094437.985000", "094434.147500", "094438.095000", "094434.255000", "094438.205000", "094434.365000", "094438.315000", "094434.475000", "094438.425000", "094434.585000", "094438.535000", "094434.695000", "094438.645000", "094434.805000", "094438.755000", "094434.915000", "094438.865000", "094435.025000", "094438.972500", "094435.132500", "094439.082500", "094435.242500", "094439.192500", "094435.352500", "094439.302500", "094435.462500", "094439.412500", "094435.572500", "094439.522500", "094435.682500", "094439.632500", "094435.792500", "094439.742500", "094435.902500", "094439.852500", "094436.012500", "094439.960000", "094436.120000", "094440.070000", "094436.230000", "094440.180000", "094436.340000", "094440.290000", "094436.450000", "094440.400000", "094436.560000", "094440.510000", "094436.670000", "094440.620000", "094436.780000", "094440.730000", "094436.890000", "094440.837500", "094437.000000", "094440.947500", "094437.107500", "094441.057500", "094437.217500", "094441.167500", "094437.327500", "094441.277500", "094437.437500", "094441.387500", "094437.547500", "094445.357500", "094441.517500", "094445.467500", "094441.627500", "094445.577500", "094441.737500", "094445.685000", "094441.847500", "094445.795000", "094441.955000", "094445.905000", "094442.065000", "094446.015000", "094442.175000", "094446.125000", "094442.285000", "094446.235000", "094442.395000", "094446.345000", "094442.505000", "094446.455000", "094442.615000", "094446.565000", "094442.725000", "094446.672500", "094442.832500", "094446.782500", "094442.942500", "094446.892500", "094443.052500", "094447.002500", "094443.162500", "094447.112500", "094443.272500", "094447.222500", "094443.382500", "094447.332500", "094443.492500", "094447.442500", "094443.602500", "094447.552500", "094443.712500", "094447.660000", "094443.820000", "094447.770000", "094443.930000", "094447.880000", "094444.040000", "094447.990000", "094444.150000", "094448.100000", "094444.260000", "094448.210000", "094444.370000", "094448.320000", "094444.480000", "094448.430000", "094444.590000", "094448.537500", "094444.700000", "094448.647500", "094444.807500", "094448.757500", "094444.917500", "094448.867500", "094445.027500", "094448.977500", "094445.137500", "094449.087500", "094445.247500", "094453.057500", "094449.217500", "094453.167500", "094449.327500", "094453.277500", "094449.437500", "094453.385000", "094449.547500", "094453.495000", "094449.655000", "094453.605000", "094449.765000", "094453.715000", "094449.875000", "094453.825000", "094449.985000", "094453.935000", "094450.095000", "094454.045000", "094450.205000", "094454.155000", "094450.315000", "094454.265000", "094450.425000", "094454.372500", "094450.532500", "094454.482500", "094450.642500", "094454.592500", "094450.752500", "094454.702500", "094450.862500", "094454.812500", "094450.972500", "094454.922500", "094451.082500", "094455.032500", "094451.192500", "094455.142500", "094451.302500", "094455.252500", "094451.412500", "094455.360000", "094451.520000", "094455.470000", "094451.630000", "094455.580000", "094451.740000", "094455.690000", "094451.850000", "094455.800000", "094451.960000", "094455.910000", "094452.070000", "094456.020000", "094452.180000", "094456.130000", "094452.290000", "094456.237500", "094452.400000", "094456.347500", "094452.507500", "094456.457500", "094452.617500", "094456.567500", "094452.727500", "094456.677500", "094452.837500", "094456.787500", "094452.947500", "094500.757500", "094456.917500", "094500.867500", "094457.027500", "094500.977500", "094457.137500", "094501.085000", "094457.247500", "094501.195000", "094457.355000", "094501.305000", "094457.465000", "094501.415000", "094457.575000", "094501.525000", "094457.685000", "094501.635000", "094457.795000", "094501.745000", "094457.905000", "094501.855000", "094458.015000", "094501.965000", "094458.125000", "094502.072500", "094458.232500", "094502.182500", "094458.342500", "094502.292500", "094458.452500", "094502.402500", "094458.562500", "094502.512500", "094458.672500", "094502.622500", "094458.782500", "094502.732500", "094458.892500", "094502.842500", "094459.002500", "094502.952500", "094459.112500", "094503.060000", "094459.220000", "094503.170000", "094459.330000", "094503.280000", "094459.440000", "094503.390000", "094459.550000", "094503.500000", "094459.660000", "094503.610000", "094459.770000", "094503.720000", "094459.880000", "094503.830000", "094459.990000", "094503.937500", "094500.100000", "094504.047500", "094500.207500", "094504.157500", "094500.317500", "094504.267500", "094500.427500", "094504.377500", "094500.537500", "094504.487500", "094500.647500", "094508.457500", "094504.617500", "094508.567500", "094504.727500", "094508.677500", "094504.837500", "094508.785000", "094504.947500", "094508.895000", "094505.055000", "094509.005000", "094505.165000", "094509.115000", "094505.275000", "094509.225000", "094505.385000", "094509.335000", "094505.495000", "094509.445000", "094505.605000", "094509.555000", "094505.715000", "094509.665000", "094505.825000", "094509.772500", "094505.932500", "094509.882500", "094506.042500", "094509.992500", "094506.152500", "094510.102500", "094506.262500", "094510.212500", "094506.372500", "094510.322500", "094506.482500", "094510.432500", "094506.592500", "094510.542500", "094506.702500", "094510.652500", "094506.812500", "094510.760000", "094506.920000", "094510.870000", "094507.030000", "094510.980000", "094507.140000", "094511.090000", "094507.250000", "094511.200000", "094507.360000", "094511.310000", "094507.470000", "094511.420000", "094507.580000", "094511.530000", "094507.690000", "094511.637500", "094507.800000", "094511.747500", "094507.907500", "094511.857500", "094508.017500", "094511.967500", "094508.127500", "094512.077500", "094508.237500", "094512.187500", "094508.347500", "094516.157500", "094512.317500", "094516.267500", "094512.427500", "094516.377500", "094512.537500", "094516.485000", "094512.647500", "094516.595000", "094512.755000", "094516.705000", "094512.865000", "094516.815000", "094512.975000", "094516.925000", "094513.085000", "094517.035000", "094513.195000", "094517.145000", "094513.305000", "094517.255000", "094513.415000", "094517.365000", "094513.525000", "094517.472500", "094513.632500", "094517.582500", "094513.742500", "094517.692500", "094513.852500", "094517.802500", "094513.962500", "094517.912500", "094514.072500", "094518.022500", "094514.182500", "094518.132500", "094514.292500", "094518.242500", "094514.402500", "094518.352500", "094514.512500", "094518.460000", "094514.620000", "094518.570000", "094514.730000", "094518.680000", "094514.840000", "094518.790000", "094514.950000", "094518.900000", "094515.060000", "094519.010000", "094515.170000", "094519.120000", "094515.280000", "094519.230000", "094515.390000", "094519.337500", "094515.500000", "094519.447500", "094515.607500", "094519.557500", "094515.717500", "094519.667500", "094515.827500", "094519.777500", "094515.937500", "094519.887500", "094516.047500", "094523.857500", "094520.017500", "094523.967500", "094520.127500", "094524.077500", "094520.237500", "094524.185000", "094520.347500", "094524.295000", "094520.455000", "094524.405000", "094520.565000", "094524.515000", "094520.675000", "094524.625000", "094520.785000", "094524.735000", "094520.895000", "094524.845000", "094521.005000", "094524.955000", "094521.115000", "094525.065000", "094521.225000", "094525.172500", "094521.332500", "094525.282500", "094521.442500", "094525.392500", "094521.552500", "094525.502500", "094521.662500", "094525.612500", "094521.772500", "094525.722500", "094521.882500", "094525.832500", "094521.992500", "094525.942500", "094522.102500", "094526.052500", "094522.212500", "094526.160000", "094522.320000", "094526.270000", "094522.430000", "094526.380000", "094522.540000", "094526.490000", "094522.650000", "094526.600000", "094522.760000", "094526.710000", "094522.870000", "094526.820000", "094522.980000", "094526.930000", "094523.090000", "094527.037500", "094523.200000", "094527.147500", "094523.307500", "094527.257500", "094523.417500", "094527.367500", "094523.527500", "094527.477500", "094523.637500", "094527.587500", "094523.747500", "094531.557500", "094527.717500", "094531.667500", "094527.827500", "094531.777500", "094527.937500", "094531.885000", "094528.047500", "094531.995000", "094528.155000", "094532.105000", "094528.265000", "094532.215000", "094528.375000", "094532.325000", "094528.485000", "094532.435000", "094528.595000", "094532.545000", "094528.705000", "094532.655000", "094528.815000", "094532.765000", "094528.925000", "094532.872500", "094529.032500", "094532.982500", "094529.142500", "094533.092500", "094529.252500", "094533.202500", "094529.362500", "094533.312500", "094529.472500", "094533.422500", "094529.582500", "094533.532500", "094529.692500", "094533.642500", "094529.802500", "094533.752500", "094529.912500", "094533.860000", "094530.020000", "094533.970000", "094530.130000", "094534.080000", "094530.240000", "094534.190000", "094530.350000", "094534.300000", "094530.460000", "094534.410000", "094530.570000", "094534.520000", "094530.680000", "094534.630000", "094530.790000", "094534.737500", "094530.900000", "094534.847500", "094531.007500", "094534.957500", "094531.117500", "094535.067500", "094531.227500", "094535.177500", "094531.337500", "094535.287500", "094531.447500", "094539.257500", "094535.417500", "094539.367500", "094535.527500", "094539.477500", "094535.637500", "094539.585000", "094535.747500", "094539.695000", "094535.855000", "094539.805000", "094535.965000", "094539.915000", "094536.075000", "094540.025000", "094536.185000", "094540.135000", "094536.295000", "094540.245000", "094536.405000", "094540.355000", "094536.515000", "094540.465000", "094536.625000", "094540.572500", "094536.732500", "094540.682500", "094536.842500", "094540.792500", "094536.952500", "094540.902500", "094537.062500", "094541.012500", "094537.172500", "094541.122500", "094537.282500", "094541.232500", "094537.392500", "094541.342500", "094537.502500", "094541.452500", "094537.612500", "094541.560000", "094537.720000", "094541.670000", "094537.830000", "094541.780000", "094537.940000", "094541.890000", "094538.050000", "094542.000000", "094538.160000", "094542.110000", "094538.270000", "094542.220000", "094538.380000", "094542.330000", "094538.490000", "094542.437500", "094538.600000", "094542.547500", "094538.707500", "094542.657500", "094538.817500", "094542.767500", "094538.927500", "094542.877500", "094539.037500", "094542.987500", "094539.147500", "094546.957500", "094543.117500", "094547.067500", "094543.227500", "094547.177500", "094543.337500", "094547.285000", "094543.447500", "094547.395000", "094543.555000", "094547.505000", "094543.665000", "094547.615000", "094543.775000", "094547.725000", "094543.885000", "094547.835000", "094543.995000", "094547.945000", "094544.105000", "094548.055000", "094544.215000", "094548.165000", "094544.325000", "094548.272500", "094544.432500", "094548.382500", "094544.542500", "094548.492500", "094544.652500", "094548.602500", "094544.762500", "094548.712500", "094544.872500", "094548.822500", "094544.982500", "094548.932500", "094545.092500", "094549.042500", "094545.202500", "094549.152500", "094545.312500", "094549.260000", "094545.420000", "094549.370000", "094545.530000", "094549.480000", "094545.640000", "094549.590000", "094545.750000", "094549.700000", "094545.860000", "094549.810000", "094545.970000", "094549.920000", "094546.080000", "094550.030000", "094546.190000", "094550.137500", "094546.300000", "094550.247500", "094546.407500", "094550.357500", "094546.517500", "094550.467500", "094546.627500", "094550.577500", "094546.737500", "094550.687500", "094546.847500", "094554.657500", "094550.817500", "094554.767500", "094550.927500", "094554.877500", "094551.037500", "094554.985000", "094551.147500", "094555.095000", "094551.255000", "094555.205000", "094551.365000", "094555.315000", "094551.475000", "094555.425000", "094551.585000", "094555.535000", "094551.695000", "094555.645000", "094551.805000", "094555.755000", "094551.915000", "094555.865000", "094552.025000", "094555.972500", "094552.132500", "094556.082500", "094552.242500", "094556.192500", "094552.352500", "094556.302500", "094552.462500", "094556.412500", "094552.572500", "094556.522500", "094552.682500", "094556.632500", "094552.792500", "094556.742500", "094552.902500", "094556.852500", "094553.012500", "094556.960000", "094553.120000", "094557.070000", "094553.230000", "094557.180000", "094553.340000", "094557.290000", "094553.450000", "094557.400000", "094553.560000", "094557.510000", "094553.670000", "094557.620000", "094553.780000", "094557.730000", "094553.890000", "094557.837500", "094554.000000", "094557.947500", "094554.107500", "094558.057500", "094554.217500", "094558.167500", "094554.327500", "094558.277500", "094554.437500", "094558.387500", "094554.547500", "094602.357500", "094558.517500", "094602.467500", "094558.627500", "094602.577500", "094558.737500", "094602.685000", "094558.847500", "094602.795000", "094558.955000", "094602.905000", "094559.065000", "094603.015000", "094559.175000", "094603.125000", "094559.285000", "094603.235000", "094559.395000", "094603.345000", "094559.505000", "094603.455000", "094559.615000", "094603.565000", "094559.725000", "094603.672500", "094559.832500", "094603.782500", "094559.942500", "094603.892500", "094600.052500", "094604.002500", "094600.162500", "094604.112500", "094600.272500", "094604.222500", "094600.382500", "094604.332500", "094600.492500", "094604.442500", "094600.602500", "094604.552500", "094600.712500", "094604.660000", "094600.820000", "094604.770000", "094600.930000", "094604.880000", "094601.040000", "094604.990000", "094601.150000", "094605.100000", "094601.260000", "094605.210000", "094601.370000", "094605.320000", "094601.480000", "094605.430000", "094601.590000", "094605.537500", "094601.700000", "094605.647500", "094601.807500", "094605.757500", "094601.917500", "094605.867500", "094602.027500", "094605.977500", "094602.137500", "094606.087500", "094602.247500", "094610.057500", "094606.217500", "094610.167500", "094606.327500", "094610.277500", "094606.437500", "094610.385000", "094606.547500", "094610.495000", "094606.655000", "094610.605000", "094606.765000", "094610.715000", "094606.875000", "094610.825000", "094606.985000", "094610.935000", "094607.095000", "094611.045000", "094607.205000", "094611.155000", "094607.315000", "094611.265000", "094607.425000", "094611.372500", "094607.532500", "094611.482500", "094607.642500", "094611.592500", "094607.752500", "094611.702500", "094607.862500", "094611.812500", "094607.972500", "094611.922500", "094608.082