{
  "AcquisitionMatrixPE": 80,
  "AcquisitionNumber": 1,
  "AcquisitionTime": "12:14:20.127500",
  "BandwidthPerPixelPhaseEncode": 44.643,
  "BaseResolution": 80,
  "BodyPartExamined": "BRAIN",
  "CoilCombinationMethod": "Sum of Squares",
  "ConsistencyInfo": "N4_VE11C_LATEST_20160120",
  "ConversionSoftware": "dcm2niix",
  "ConversionSoftwareVersion": "v1.0.20220720",
  "DerivedVendorReportedEchoSpacing": 0.000559998,
  "DeviceSerialNumber": "66112",
  "DwellTime": 2.7e-06,
  "EchoTime": 0.035,
  "EchoTrainLength": 39,
  "EffectiveEchoSpacing": 0.000279999,
  "FlipAngle": 90,
  "HeudiconvVersion": "0.13.1",
  "ImageOrientationPatientDICOM": [0.984864, 0.173009, 0.0104995, -0.167815, 0.936637, 0.307489],
  "ImageOrientationText": "Tra>Cor(17.8)>Sag(-2.5)",
  "ImageType": [
    "ORIGINAL",
    "PRIMARY",
    "M",
    "ND",
    "NORM",
    "MOSAIC"
],
  "ImagingFrequency": 123.252,
  "InPlanePhaseEncodingDirectionDICOM": "COL",
  "InstitutionAddress": "Maynard 3,Hanover,NH,US,03755",
  "InstitutionName": "Dartmouth College - PBS",
  "InstitutionalDepartmentName": "Department",
  "MRAcquisitionType": "2D",
  "MagneticFieldStrength": 3,
  "Manufacturer": "Siemens",
  "ManufacturersModelName": "Prisma",
  "Modality": "MR",
  "MultibandAccelerationFactor": 4,
  "NonlinearGradientCorrection": false,
  "ParallelReductionFactorInPlane": 2,
  "PartialFourier": 1,
  "PatientPosition": "HFS",
  "PercentPhaseFOV": 100,
  "PercentSampling": 100,
  "PhaseEncodingDirection": "j-",
  "PhaseEncodingSteps": 79,
  "PhaseResolution": 1,
  "PixelBandwidth": 2315,
  "ProcedureStepDescription": "dbic^QA",
  "ProtocolName": "func-bold_task-rest_acq-p2-s4-3.5mm",
  "PulseSequenceDetails": "%SiemensSeq%\\ep2d_bold",
  "ReceiveCoilActiveElements": "HEA;HEP",
  "ReceiveCoilName": "Head_32",
  "ReconMatrixPE": 80,
  "RefLinesPE": 24,
  "RepetitionTime": 2,
  "SAR": 0.0208071,
  "ScanOptions": "FS",
  "ScanningSequence": "EP",
  "SequenceName": "*epfid2d1_80",
  "SequenceVariant": "SK",
  "SeriesDescription": "func-bold_task-rest_acq-p2-s4-3.5mm",
  "SeriesNumber": 7,
  "ShimSetting": [4144, -7692, -7509, 277, -43, -144, -72, 60],
  "SliceThickness": 3.5,
  "SliceTiming": [1.485, 0, 0.99, 0.2475, 1.2375, 0.7425, 1.7325, 0.495, 1.485, 0, 0.99, 0.2475, 1.2375, 0.7425, 1.7325, 0.495, 1.485, 0, 0.99, 0.2475, 1.2375, 0.7425, 1.7325, 0.495, 1.485, 0, 0.99, 0.2475, 1.2375, 0.7425, 1.7325, 0.495],
  "SoftwareVersions": "syngo MR E11",
  "SpacingBetweenSlices": 3.99,
  "StationName": "AWP66112",
  "TaskName": "rest",
  "TotalReadoutTime": 0.0221199,
  "TxRefAmp": 230.167,
  "dcmmeta_affine": [
    [-2.954592704772949, -0.5034456253051758, -0.17302316427230835, 143.42454528808594],
    [-0.5190274119377136, 2.809910535812378, 1.2153410911560059, -102.64601135253906],
    [0.03149838745594025, -0.9224666357040405, 3.7964601516723633, -26.920665740966797],
    [0.0, 0.0, 0.0, 1.0]
],
  "dcmmeta_reorient_transform": [
    [0.0, -1.0, 0.0, 79.0],
    [1.0, 0.0, 0.0, 0.0],
    [0.0, 0.0, 1.0, 0.0],
    [0.0, 0.0, 0.0, 1.0]
],
  "dcmmeta_shape": [80, 80, 32, 200],
  "dcmmeta_slice_dim": 2,
  "dcmmeta_version": 0.6,
  "global": {
    "const": {
      "AccessionNumber": "qa",
      "AcquisitionMatrix": [80, 0, 0, 80],
      "AngioFlag": "N",
      "BitsAllocated": 16,
      "BitsStored": 12,
      "BodyPartExamined": "BRAIN",
      "Columns": 480,
      "EchoNumbers": 1,
      "EchoTime": 35.0,
      "EchoTrainLength": 39,
      "FlipAngle": 90.0,
      "HighBit": 11,
      "ImageOrientationPatient": [0.98486425430311, 0.17300913811831, 0.01049946301191, -0.1678152161091, 0.93663688188241, 0.30748886929425],
      "ImagePositionPatient": [-593.88176568678, -785.12453961292, -290.58852781878],
      "ImageType": [
        "ORIGINAL",
        "PRIMARY",
        "M",
        "ND",
        "NORM",
        "MOSAIC"
],
      "ImagedNucleus": "1H",
      "ImagingFrequency": 123.252476,
      "InPlanePhaseEncodingDirection": "COL",
      "MRAcquisitionType": "2D",
      "MagneticFieldStrength": 3.0,
      "Manufacturer": "SIEMENS",
      "ManufacturerModelName": "Prisma",
      "Modality": "MR",
      "NumberOfAverages": 1.0,
      "NumberOfPhaseEncodingSteps": 79,
      "PercentPhaseFieldOfView": 100.0,
      "PercentSampling": 100.0,
      "PerformedProcedureStepStartTime": "115301.562000",
      "PhotometricInterpretation": "MONOCHROME2",
      "PixelBandwidth": 2315.0,
      "PixelRepresentation": 0,
      "PixelSpacing": [3.0, 3.0],
      "ProtocolName": "func-bold_task-rest_acq-p2-s4-3.5mm",
      "RepetitionTime": 2000.0,
      "Rows": 480,
      "SAR": 0.02080707045925,
      "SamplesPerPixel": 1,
      "ScanOptions": "FS",
      "ScanningSequence": "EP",
      "SequenceName": "*epfid2d1_80",
      "SequenceVariant": "SK",
      "SeriesDescription": "func-bold_task-rest_acq-p2-s4-3.5mm",
      "SeriesNumber": 7,
      "SeriesTime": "121506.565000",
      "SliceLocation": -63.099980345605,
      "SliceThickness": 3.5,
      "SmallestImagePixelValue": 0,
      "SoftwareVersions": "syngo MR E11",
      "SpacingBetweenSlices": 3.9900000108212,
      "SpecificCharacterSet": "ISO_IR 100",
      "StudyID": "96",
      "StudyTime": "115301.470000",
      "TransmitCoilName": "Body",
      "VariableFlipAngleFlag": "N",
      "WindowCenterWidthExplanation": "Algo1",
      "dBdt": 0.0},
    "slices": {}
  },
  "time": {
    "samples": {
      "AcquisitionNumber": [1, 2, 3, 4, 5, 6, 7, 8, 9, 10, 11, 12, 13, 14, 15, 16, 17, 18, 19, 20, 21, 22, 23, 24, 25, 26, 27, 28, 29, 30, 31, 32, 33, 34, 35, 36, 37, 38, 39, 40, 41, 42, 43, 44, 45, 46, 47, 48, 49, 50, 51, 52, 53, 54, 55, 56, 57, 58, 59, 60, 61, 62, 63, 64, 65, 66, 67, 68, 69, 70, 71, 72, 73, 74, 75, 76, 77, 78, 79, 80, 81, 82, 83, 84, 85, 86, 87, 88, 89, 90, 91, 92, 93, 94, 95, 96, 97, 98, 99, 100, 101, 102, 103, 104, 105, 106, 107, 108, 109, 110, 111, 112, 113, 114, 115, 116, 117, 118, 119, 120, 121, 122, 123, 124, 125, 126, 127, 128, 129, 130, 131, 132, 133, 134, 135, 136, 137, 138, 139, 140, 141, 142, 143, 144, 145, 146, 147, 148, 149, 150, 151, 152, 153, 154, 155, 156, 157, 158, 159, 160, 161, 162, 163, 164, 165, 166, 167, 168, 169, 170, 171, 172, 173, 174, 175, 176, 177, 178, 179, 180, 181, 182, 183, 184, 185, 186, 187, 188, 189, 190, 191, 192, 193, 194, 195, 196, 197, 198, 199, 200],
      "AcquisitionTime": ["121420.127500", "121422.127500", "121424.127500", "121426.127500", "121428.127500", "121430.127500", "121432.127500", "121434.127500", "121436.127500", "121438.127500", "121440.127500", "121442.127500", "121444.127500", "121446.127500", "121448.127500", "121450.127500", "121452.127500", "121454.127500", "121456.127500", "121458.127500", "121500.127500", "121502.127500", "121504.127500", "121506.127500", "121508.127500", "121510.127500", "121512.127500", "121514.127500", "121516.127500", "121518.127500", "121520.127500", "121522.127500", "121524.127500", "121526.127500", "121528.127500", "121530.127500", "121532.127500", "121534.127500", "121536.127500", "121538.127500", "121540.127500", "121542.127500", "121544.127500", "121546.127500", "121548.127500", "121550.127500", "121552.127500", "121554.127500", "121556.127500", "121558.127500", "121600.127500", "121602.127500", "121604.127500", "121606.127500", "121608.127500", "121610.127500", "121612.127500", "121614.127500", "121616.127500", "121618.127500", "121620.127500", "121622.127500", "121624.127500", "121626.127500", "121628.127500", "121630.127500", "121632.127500", "121634.127500", "121636.127500", "121638.127500", "121640.127500", "121642.127500", "121644.127500", "121646.127500", "121648.127500", "121650.127500", "121652.127500", "121654.127500", "121656.127500", "121658.127500", "121700.127500", "121702.127500", "121704.127500", "121706.127500", "121708.127500", "121710.127500", "121712.127500", "121714.127500", "121716.127500", "121718.127500", "121720.127500", "121722.127500", "121724.127500", "121726.127500", "121728.127500", "121730.127500", "121732.127500", "121734.127500", "121736.127500", "121738.127500", "121740.127500", "121742.127500", "121744.127500", "121746.127500", "121748.127500", "121750.127500", "121752.127500", "121754.127500", "121756.127500", "121758.127500", "121800.127500", "121802.127500", "121804.127500", "121806.127500", "121808.127500", "121810.127500", "121812.127500", "121814.127500", "121816.127500", "121818.127500", "121820.127500", "121822.127500", "121824.127500", "121826.127500", "121828.127500", "121830.127500", "121832.127500", "121834.127500", "121836.127500", "121838.127500", "121840.127500", "121842.127500", "121844.127500", "121846.127500", "121848.127500", "121850.127500", "121852.127500", "121854.127500", "121856.127500", "121858.127500", "121900.127500", "121902.127500", "121904.127500", "121906.127500", "121908.127500", "121910.127500", "121912.127500", "121914.127500", "121916.127500", "121918.127500", "121920.127500", "121922.127500", "121924.127500", "121926.127500", "121928.127500", "121930.127500", "121932.127500", "121934.127500", "121936.127500", "121938.127500", "121940.127500", "121942.127500", "121944.127500", "121946.127500", "121948.127500", "121950.127500", "121952.127500", "121954.127500", "121956.127500", "121958.127500", "122000.127500", "122002.127500", "122004.127500", "122006.127500", "122008.127500", "122010.127500", "122012.127500", "122014.127500", "122016.127500", "122018.127500", "122020.127500", "122022.127500", "122024.127500", "122026.127500", "122028.127500", "122030.127500", "122032.127500", "122034.127500", "122036.127500", "122038.127500", "122040.127500", "122042.127500", "122044.127500", "122046.127500", "122048.127500", "122050.127500", "122052.127500", "122054.127500", "122056.127500", "122058.127500"],
      "ContentTime": ["121506.568000", "121506.571000", "121506.574000", "121506.577000", "121506.579000", "121506.582000", "121506.584000", "121506.587000", "121506.589000", "121506.592000", "121506.595000", "121506.597000", "121506.600000", "121506.610000", "121506.613000", "121506.619000", "121506.623000", "121506.626000", "121506.629000", "121506.631000", "121506.634000", "121506.636000", "121506.639000", "121546.562000", "121546.565000", "121546.568000", "121546.570000", "121546.573000", "121546.575000", "121546.578000", "121546.581000", "121546.583000", "121546.586000", "121546.588000", "121546.591000", "121546.594000", "121546.596000", "121546.599000", "121546.601000", "121546.610000", "121546.613000", "121546.616000", "121546.618000", "121626.563000", "121626.566000", "121626.569000", "121626.571000", "121626.574000", "121626.576000", "121626.579000", "121626.582000", "121626.584000", "121626.587000", "121626.589000", "121626.592000", "121626.594000", "121626.597000", "121626.600000", "121626.602000", "121626.605000", "121626.607000", "121626.610000", "121626.613000", "121706.563000", "121706.566000", "121706.569000", "121706.571000", "121706.574000", "121706.576000", "121706.579000", "121706.582000", "121706.584000", "121706.587000", "121706.590000", "121706.592000", "121706.595000", "121706.597000", "121706.600000", "121706.603000", "121706.605000", "121706.608000", "121706.610000", "121706.613000", "121746.563000", "121746.566000", "121746.576000", "121746.579000", "121746.581000", "121746.584000", "121746.586000", "121746.589000", "121746.591000", "121746.594000", "121746.596000", "121746.599000", "121746.601000", "121746.604000", "121746.607000", "121746.609000", "121746.612000", "121746.614000", "121746.626000", "121746.628000", "121826.562000", "121826.565000", "121826.568000", "121826.570000", "121826.573000", "121826.575000", "121826.578000", "121826.581000", "121826.597000", "121826.600000", "121826.602000", "121826.605000", "121826.607000", "121826.612000", "121826.615000", "121826.618000", "121826.620000", "121826.622000", "121826.625000", "121826.628000", "121906.563000", "121906.566000", "121906.569000", "121906.571000", "121906.574000", "121906.576000", "121906.579000", "121906.581000", "121906.584000", "121906.586000", "121906.589000", "121906.591000", "121906.594000", "121906.596000", "121906.599000", "121906.601000", "121906.604000", "121906.606000", "121906.609000", "121906.611000", "121946.563000", "121946.566000", "121946.569000", "121946.571000", "121946.574000", "121946.576000", "121946.579000", "121946.581000", "121946.584000", "121946.586000", "121946.589000", "121946.591000", "121946.594000", "121946.597000", "121946.599000", "121946.611000", "121946.613000", "121946.616000", "121946.619000", "121946.621000", "122026.562000", "122026.565000", "122026.568000", "122026.570000", "122026.573000", "122026.591000", "122026.594000", "122026.596000", "122026.599000", "122026.601000", "122026.604000", "122026.606000", "122026.609000", "122026.611000", "122026.614000", "122026.616000", "122026.619000", "122026.621000", "122026.624000", "122026.626000", "122059.019000", "122059.022000", "122059.024000", "122059.027000", "122059.030000", "122059.032000", "122059.035000", "122059.037000", "122059.040000", "122059.042000", "122059.045000", "122059.048000", "122059.051000", "122059.058000", "122059.071000", "122059.074000", "122059.077000"],
      "InstanceCreationTime": ["121506.568000", "121506.571000", "121506.574000", "121506.577000", "121506.579000", "121506.582000", "121506.584000", "121506.587000", "121506.589000", "121506.592000", "121506.595000", "121506.597000", "121506.600000", "121506.610000", "121506.613000", "121506.619000", "121506.623000", "121506.626000", "121506.629000", "121506.631000", "121506.634000", "121506.636000", "121506.639000", "121546.562000", "121546.565000", "121546.568000", "121546.570000", "121546.573000", "121546.575000", "121546.578000", "121546.581000", "121546.583000", "121546.586000", "121546.588000", "121546.591000", "121546.594000", "121546.596000", "121546.599000", "121546.601000", "121546.610000", "121546.613000", "121546.616000", "121546.618000", "121626.563000", "121626.566000", "121626.569000", "121626.571000", "121626.574000", "121626.576000", "121626.579000", "121626.582000", "121626.584000", "121626.587000", "121626.589000", "121626.592000", "121626.594000", "121626.597000", "121626.600000", "121626.602000", "121626.605000", "121626.607000", "121626.610000", "121626.613000", "121706.563000", "121706.566000", "121706.569000", "121706.571000", "121706.574000", "121706.576000", "121706.579000", "121706.582000", "121706.584000", "121706.587000", "121706.590000", "121706.592000", "121706.595000", "121706.597000", "121706.600000", "121706.603000", "121706.605000", "121706.608000", "121706.610000", "121706.613000", "121746.563000", "121746.566000", "121746.576000", "121746.579000", "121746.581000", "121746.584000", "121746.586000", "121746.589000", "121746.591000", "121746.594000", "121746.596000", "121746.599000", "121746.601000", "121746.604000", "121746.607000", "121746.609000", "121746.612000", "121746.614000", "121746.626000", "121746.628000", "121826.562000", "121826.565000", "121826.568000", "121826.570000", "121826.573000", "121826.575000", "121826.578000", "121826.581000", "121826.597000", "121826.600000", "121826.602000", "121826.605000", "121826.607000", "121826.612000", "121826.615000", "121826.618000", "121826.620000", "121826.622000", "121826.625000", "121826.628000", "121906.563000", "121906.566000", "121906.569000", "121906.571000", "121906.574000", "121906.576000", "121906.579000", "121906.581000", "121906.584000", "121906.586000", "121906.589000", "121906.591000", "121906.594000", "121906.596000", "121906.599000", "121906.601000", "121906.604000", "121906.606000", "121906.609000", "121906.611000", "121946.563000", "121946.566000", "121946.569000", "121946.571000", "121946.574000", "121946.576000", "121946.579000", "121946.581000", "121946.584000", "121946.586000", "121946.589000", "121946.591000", "121946.594000", "121946.597000", "121946.599000", "121946.611000", "121946.613000", "121946.616000", "121946.619000", "121946.621000", "122026.562000", "122026.565000", "122026.568000", "122026.570000", "122026.573000", "122026.591000", "122026.594000", "122026.596000", "122026.599000", "122026.601000", "122026.604000", "122026.606000", "122026.609000", "122026.611000", "122026.614000", "122026.616000", "122026.619000", "122026.621000", "122026.624000", "122026.626000", "122059.019000", "122059.022000", "122059.024000", "122059.027000", "122059.030000", "122059.032000", "122059.035000", "122059.037000", "122059.040000", "122059.042000", "122059.045000", "122059.048000", "122059.051000", "122059.058000", "122059.071000", "122059.074000", "122059.077000"],
      "InstanceNumber": [1, 2, 3, 4, 5, 6, 7, 8, 9, 10, 11, 12, 13, 14, 15, 16, 17, 18, 19, 20, 21, 22, 23, 24, 25, 26, 27, 28, 29, 30, 31, 32, 33, 34, 35, 36, 37, 38, 39, 40, 41, 42, 43, 44, 45, 46, 47, 48, 49, 50, 51, 52, 53, 54, 55, 56, 57, 58, 59, 60, 61, 62, 63, 64, 65, 66, 67, 68, 69, 70, 71, 72, 73, 74, 75, 76, 77, 78, 79, 80, 81, 82, 83, 84, 85, 86, 87, 88, 89, 90, 91, 92, 93, 94, 95, 96, 97, 98, 99, 100, 101, 102, 103, 104, 105, 106, 107, 108, 109, 110, 111, 112, 113, 114, 115, 116, 117, 118, 119, 120, 121, 122, 123, 124, 125, 126, 127, 128, 129, 130, 131, 132, 133, 134, 135, 136, 137, 138, 139, 140, 141, 142, 143, 144, 145, 146, 147, 148, 149, 150, 151, 152, 153, 154, 155, 156, 157, 158, 159, 160, 161, 162, 163, 164, 165, 166, 167, 168, 169, 170, 171, 172, 173, 174, 175, 176, 177, 178, 179, 180, 181, 182, 183, 184, 185, 186, 187, 188, 189, 190, 191, 192, 193, 194, 195, 196, 197, 198, 199, 200],
      "LargestImagePixelValue": [1995, 1986, 1990, 1983, 1988, 1989, 1992, 1993, 1994, 1983, 1986, 1987, 1989, 1995, 2000, 1995, 1996, 1995, 1992, 1988, 1993, 1988, 1990, 1988, 1990, 1992, 1991, 1993, 1996, 1994, 1986, 1988, 1988, 1990, 1989, 1987, 1987, 1987, 1988, 1990, 1993, 1992, 1991, 1992, 1997, 1993, 1990, 1992, 1991, 1990, 1986, 1985, 1981, 1989, 1988, 1985, 1986, 1989, 1995, 1999, 1994, 1986, 1985, 1987, 1990, 1990, 1990, 1982, 1982, 1981, 1979, 1986, 1984, 1991, 1988, 1984, 1988, 1983, 1987, 1990, 1990, 1991, 1993, 1988, 1987, 1987, 1992, 1994, 1993, 1993, 1988, 1989, 1988, 1989, 1990, 1981, 1985, 1988, 1992, 1991, 1989, 1992, 1994, 1995, 1989, 1990, 1990, 1986, 1990, 1990, 1992, 1988, 1987, 1987, 1992, 1992, 1989, 1991, 1992, 1994, 1988, 1986, 1989, 1990, 1983, 1987, 1989, 1984, 1982, 1986, 1987, 1986, 1983, 1987, 1984, 1985, 1985, 1988, 1990, 1991, 1991, 1987, 1989, 1982, 1980, 1988, 1989, 1989, 1990, 1992, 1985, 1992, 1985, 1984, 1984, 1991, 1987, 1991, 1989, 1995, 1994, 1996, 1997, 1993, 1989, 1982, 1983, 1991, 1990, 1988, 1993, 1994, 1992, 1988, 1986, 1987, 1983, 1988, 1984, 1985, 1984, 1983, 1983, 1989, 1984, 1983, 1987, 1990, 1986, 1985, 1990, 1982, 1983, 1987, 1985, 1981, 1985, 1987, 1991, 1989],
      "WindowCenter": [903.0, 903.0, 903.0, 903.0, 903.0, 903.0, 903.0, 903.0, 903.0, 903.0, 903.0, 903.0, 903.0, 903.0, 903.0, 902.0, 903.0, 903.0, 903.0, 903.0, 903.0, 903.0, 903.0, 903.0, 903.0, 903.0, 903.0, 903.0, 903.0, 903.0, 903.0, 903.0, 903.0, 903.0, 903.0, 902.0, 903.0, 903.0, 903.0, 903.0, 903.0, 903.0, 903.0, 903.0, 902.0, 903.0, 903.0, 903.0, 903.0, 903.0, 903.0, 903.0, 903.0, 903.0, 903.0, 903.0, 903.0, 903.0, 903.0, 903.0, 903.0, 903.0, 903.0, 903.0, 903.0, 903.0, 903.0, 903.0, 903.0, 903.0, 903.0, 903.0, 903.0, 903.0, 903.0, 903.0, 903.0, 903.0, 903.0, 903.0, 903.0, 903.0, 903.0, 904.0, 903.0, 903.0, 903.0, 903.0, 903.0, 903.0, 903.0, 903.0, 904.0, 903.0, 903.0, 903.0, 903.0, 903.0, 903.0, 903.0, 903.0, 903.0, 903.0, 903.0, 903.0, 903.0, 903.0, 903.0, 903.0, 903.0, 903.0, 903.0, 903.0, 903.0, 903.0, 903.0, 903.0, 903.0, 903.0, 903.0, 903.0, 903.0, 903.0, 903.0, 903.0, 903.0, 903.0, 903.0, 903.0, 903.0, 903.0, 903.0, 903.0, 903.0, 903.0, 903.0, 903.0, 903.0, 903.0, 903.0, 903.0, 903.0, 903.0, 903.0, 903.0, 903.0, 903.0, 903.0, 903.0, 903.0, 903.0, 903.0, 903.0, 903.0, 903.0, 903.0, 903.0, 903.0, 903.0, 902.0, 903.0, 903.0, 903.0, 903.0, 903.0, 903.0, 903.0, 904.0, 903.0, 903.0, 903.0, 903.0, 903.0, 903.0, 903.0, 903.0, 903.0, 903.0, 903.0, 903.0, 903.0, 903.0, 903.0, 903.0, 903.0, 903.0, 903.0, 903.0, 903.0, 903.0, 903.0, 903.0, 903.0, 903.0, 903.0, 903.0, 903.0, 903.0, 903.0, 903.0],
      "WindowWidth": [2032.0, 2032.0, 2032.0, 2032.0, 2032.0, 2032.0, 2032.0, 2032.0, 2032.0, 2032.0, 2032.0, 2032.0, 2032.0, 2032.0, 2032.0, 2032.0, 2032.0, 2032.0, 2032.0, 2032.0, 2032.0, 2032.0, 2032.0, 2032.0, 2032.0, 2033.0, 2032.0, 2032.0, 2032.0, 2032.0, 2032.0, 2032.0, 2032.0, 2032.0, 2032.0, 2031.0, 2032.0, 2032.0, 2032.0, 2032.0, 2033.0, 2033.0, 2033.0, 2032.0, 2032.0, 2032.0, 2032.0, 2033.0, 2032.0, 2032.0, 2033.0, 2032.0, 2033.0, 2032.0, 2032.0, 2033.0, 2033.0, 2032.0, 2033.0, 2032.0, 2033.0, 2033.0, 2033.0, 2033.0, 2033.0, 2033.0, 2033.0, 2033.0, 2032.0, 2032.0, 2032.0, 2033.0, 2033.0, 2033.0, 2033.0, 2032.0, 2032.0, 2033.0, 2032.0, 2032.0, 2033.0, 2033.0, 2033.0, 2033.0, 2033.0, 2033.0, 2032.0, 2033.0, 2032.0, 2033.0, 2032.0, 2033.0, 2033.0, 2033.0, 2033.0, 2033.0, 2033.0, 2033.0, 2033.0, 2033.0, 2033.0, 2033.0, 2033.0, 2033.0, 2032.0, 2033.0, 2032.0, 2033.0, 2033.0, 2033.0, 2033.0, 2033.0, 2033.0, 2033.0, 2033.0, 2033.0, 2033.0, 2033.0, 2033.0, 2032.0, 2033.0, 2033.0, 2032.0, 2033.0, 2033.0, 2033.0, 2033.0, 2033.0, 2033.0, 2033.0, 2033.0, 2033.0, 2033.0, 2033.0, 2033.0, 2033.0, 2033.0, 2033.0, 2033.0, 2033.0, 2033.0, 2033.0, 2033.0, 2033.0, 2033.0, 2033.0, 2032.0, 2033.0, 2033.0, 2033.0, 2033.0, 2033.0, 2033.0, 2033.0, 2033.0, 2033.0, 2032.0, 2032.0, 2033.0, 2032.0, 2033.0, 2033.0, 2033.0, 2032.0, 2033.0, 2033.0, 2033.0, 2033.0, 2033.0, 2033.0, 2033.0, 2033.0, 2032.0, 2033.0, 2033.0, 2033.0, 2033.0, 2033.0, 2033.0, 2033.0, 2033.0, 2032.0, 2033.0, 2033.0, 2032.0, 2033.0, 2033.0, 2032.0, 2032.0, 2032.0, 2033.0, 2033.0, 2033.0, 2033.0, 2033.0, 2033.0, 2033.0, 2032.0, 2032.0, 2033.0]
    },
    "slices": {}
  }
}