{
  "AccelFactPE": 2,
  "AcquisitionNumber": 1,
  "AcquisitionTime": "12:07:25.195000",
  "BandwidthPerPixelPhaseEncode": 48.077,
  "BodyPartExamined": "BRAIN",
  "ConversionSoftware": "dcm2niix",
  "ConversionSoftwareVersion": "v1.0.20170624 GCC6.3.0",
  "DeviceSerialNumber": "66112",
  "EchoTime": 0.035,
  "EchoTrainLength": 39,
  "EffectiveEchoSpacing": 0.00026,
  "FlipAngle": 90,
  "ImageType": [
    "ORIGINAL",
    "PRIMARY",
    "M",
    "ND",
    "NORM",
    "MOSAIC"
],
  "InstitutionAddress": "Maynard_3_Hanover_NH_US_03755",
  "InstitutionName": "Dartmouth_College_-_PBS",
  "MagneticFieldStrength": 3,
  "Manufacturer": "Siemens",
  "ManufacturersModelName": "Prisma",
  "PhaseEncodingDirection": "j-",
  "PhaseEncodingLines": 80,
  "ProcedureStepDescription": "dbic_QA",
  "ProtocolName": "func-bold_task-rest_acq-p2",
  "RepetitionTime": 2,
  "ScanningSequence": "EP",
  "SequenceName": "_epfid2d1_80",
  "SequenceVariant": "SK",
  "SeriesDescription": "func-bold_task-rest_acq-p2",
  "SliceTiming": [0.99, 0, 1.0575, 0.0675, 1.1225, 0.1325, 1.1875, 0.1975, 1.255, 0.265, 1.32, 0.33, 1.3875, 0.3975, 1.4525, 0.4625, 1.5175, 0.5275, 1.585, 0.595, 1.65, 0.66, 1.7175, 0.7275, 1.7825, 0.7925, 1.8475, 0.8575, 1.915, 0.925],
  "SoftwareVersions": "syngo_MR_E11",
  "TaskName": "rest",
  "TotalReadoutTime": 0.02002,
  "TrueEchoSpacing": 0.000519999,
  "dcmmeta_affine": [
    [-2.954592704772949, -0.5034456253051758, -0.17302316427230835, 143.25152587890625],
    [-0.5190274119377136, 2.809910535812378, 1.2153410911560059, -101.43067169189453],
    [0.03149838745594025, -0.9224666357040405, 3.7964601516723633, -23.12420654296875],
    [0.0, 0.0, 0.0, 1.0]
],
  "dcmmeta_reorient_transform": [
    [0.0, -1.0, 0.0, 79.0],
    [1.0, 0.0, 0.0, 0.0],
    [0.0, 0.0, 1.0, 0.0],
    [0.0, 0.0, 0.0, 1.0]
],
  "dcmmeta_shape": [80, 80, 30, 200],
  "dcmmeta_slice_dim": 2,
  "dcmmeta_version": 0.6,
  "global": {
    "const": {
      "AccessionNumber": "qa",
      "AcquisitionMatrix": [80, 0, 0, 80],
      "AngioFlag": "N",
      "BitsAllocated": 16,
      "BitsStored": 12,
      "BodyPartExamined": "BRAIN",
      "Columns": 480,
      "EchoNumbers": 1,
      "EchoTime": 35.0,
      "EchoTrainLength": 39,
      "FlipAngle": 90.0,
      "HighBit": 11,
      "ImageOrientationPatient": [0.98486425430311, 0.17300913811831, 0.01049946301191, -0.1678152161091, 0.93663688188241, 0.30748886929425],
      "ImagePositionPatient": [-593.7087424629, -786.33988118091, -286.79206862079],
      "ImageType": [
        "ORIGINAL",
        "PRIMARY",
        "M",
        "ND",
        "NORM",
        "MOSAIC"
],
      "ImagedNucleus": "1H",
      "ImagingFrequency": 123.252477,
      "InPlanePhaseEncodingDirection": "COL",
      "MRAcquisitionType": "2D",
      "MagneticFieldStrength": 3.0,
      "Manufacturer": "SIEMENS",
      "ManufacturerModelName": "Prisma",
      "Modality": "MR",
      "NumberOfAverages": 1.0,
      "NumberOfPhaseEncodingSteps": 79,
      "PercentPhaseFieldOfView": 100.0,
      "PercentSampling": 100.0,
      "PerformedProcedureStepStartTime": "115301.562000",
      "PhotometricInterpretation": "MONOCHROME2",
      "PixelBandwidth": 2315.0,
      "PixelRepresentation": 0,
      "PixelSpacing": [3.0, 3.0],
      "PositionReferenceIndicator": "",
      "ProtocolName": "func-bold_task-rest_acq-p2",
      "RepetitionTime": 2000.0,
      "Rows": 480,
      "SAR": 0.05533366454753,
      "SamplesPerPixel": 1,
      "ScanOptions": "FS",
      "ScanningSequence": "EP",
      "SequenceName": "*epfid2d1_80",
      "SequenceVariant": "SK",
      "SeriesDescription": "func-bold_task-rest_acq-p2",
      "SeriesNumber": 5,
      "SeriesTime": "120806.496000",
      "SliceLocation": -59.109981021676,
      "SliceThickness": 3.5,
      "SmallestImagePixelValue": 0,
      "SoftwareVersions": "syngo MR E11",
      "SpacingBetweenSlices": 3.9900000582599,
      "SpecificCharacterSet": "ISO_IR 100",
      "StudyID": "96",
      "StudyTime": "115301.470000",
      "TransmitCoilName": "Body",
      "VariableFlipAngleFlag": "N",
      "WindowCenterWidthExplanation": "Algo1",
      "dBdt": 0.0},
    "slices": {}
  },
  "time": {
    "samples": {
      "AcquisitionNumber": [1, 2, 3, 4, 5, 6, 7, 8, 9, 10, 11, 12, 13, 14, 15, 16, 17, 18, 19, 20, 21, 22, 23, 24, 25, 26, 27, 28, 29, 30, 31, 32, 33, 34, 35, 36, 37, 38, 39, 40, 41, 42, 43, 44, 45, 46, 47, 48, 49, 50, 51, 52, 53, 54, 55, 56, 57, 58, 59, 60, 61, 62, 63, 64, 65, 66, 67, 68, 69, 70, 71, 72, 73, 74, 75, 76, 77, 78, 79, 80, 81, 82, 83, 84, 85, 86, 87, 88, 89, 90, 91, 92, 93, 94, 95, 96, 97, 98, 99, 100, 101, 102, 103, 104, 105, 106, 107, 108, 109, 110, 111, 112, 113, 114, 115, 116, 117, 118, 119, 120, 121, 122, 123, 124, 125, 126, 127, 128, 129, 130, 131, 132, 133, 134, 135, 136, 137, 138, 139, 140, 141, 142, 143, 144, 145, 146, 147, 148, 149, 150, 151, 152, 153, 154, 155, 156, 157, 158, 159, 160, 161, 162, 163, 164, 165, 166, 167, 168, 169, 170, 171, 172, 173, 174, 175, 176, 177, 178, 179, 180, 181, 182, 183, 184, 185, 186, 187, 188, 189, 190, 191, 192, 193, 194, 195, 196, 197, 198, 199, 200],
      "AcquisitionTime": ["120725.195000", "120727.195000", "120729.195000", "120731.195000", "120733.195000", "120735.195000", "120737.195000", "120739.195000", "120741.195000", "120743.195000", "120745.195000", "120747.195000", "120749.195000", "120751.195000", "120753.195000", "120755.195000", "120757.195000", "120759.195000", "120801.195000", "120803.195000", "120805.195000", "120807.195000", "120809.195000", "120811.195000", "120813.195000", "120815.195000", "120817.195000", "120819.195000", "120821.195000", "120823.195000", "120825.195000", "120827.195000", "120829.195000", "120831.195000", "120833.195000", "120835.195000", "120837.195000", "120839.195000", "120841.195000", "120843.195000", "120845.195000", "120847.195000", "120849.195000", "120851.195000", "120853.195000", "120855.195000", "120857.195000", "120859.195000", "120901.195000", "120903.195000", "120905.195000", "120907.195000", "120909.195000", "120911.195000", "120913.195000", "120915.195000", "120917.195000", "120919.195000", "120921.195000", "120923.195000", "120925.195000", "120927.195000", "120929.195000", "120931.195000", "120933.195000", "120935.195000", "120937.195000", "120939.195000", "120941.195000", "120943.195000", "120945.195000", "120947.195000", "120949.195000", "120951.195000", "120953.195000", "120955.195000", "120957.195000", "120959.195000", "121001.195000", "121003.195000", "121005.195000", "121007.195000", "121009.195000", "121011.195000", "121013.195000", "121015.195000", "121017.195000", "121019.195000", "121021.195000", "121023.195000", "121025.195000", "121027.195000", "121029.195000", "121031.195000", "121033.195000", "121035.195000", "121037.195000", "121039.195000", "121041.195000", "121043.195000", "121045.195000", "121047.195000", "121049.195000", "121051.195000", "121053.195000", "121055.195000", "121057.195000", "121059.195000", "121101.195000", "121103.195000", "121105.195000", "121107.195000", "121109.195000", "121111.195000", "121113.195000", "121115.195000", "121117.195000", "121119.195000", "121121.195000", "121123.195000", "121125.195000", "121127.195000", "121129.195000", "121131.195000", "121133.195000", "121135.195000", "121137.195000", "121139.195000", "121141.195000", "121143.195000", "121145.195000", "121147.195000", "121149.195000", "121151.195000", "121153.195000", "121155.195000", "121157.195000", "121159.195000", "121201.195000", "121203.195000", "121205.195000", "121207.195000", "121209.195000", "121211.195000", "121213.195000", "121215.195000", "121217.195000", "121219.195000", "121221.195000", "121223.195000", "121225.195000", "121227.195000", "121229.195000", "121231.195000", "121233.195000", "121235.195000", "121237.195000", "121239.195000", "121241.195000", "121243.195000", "121245.195000", "121247.195000", "121249.195000", "121251.195000", "121253.195000", "121255.195000", "121257.195000", "121259.195000", "121301.195000", "121303.195000", "121305.195000", "121307.195000", "121309.195000", "121311.195000", "121313.195000", "121315.195000", "121317.195000", "121319.195000", "121321.195000", "121323.195000", "121325.195000", "121327.195000", "121329.195000", "121331.195000", "121333.195000", "121335.195000", "121337.195000", "121339.195000", "121341.195000", "121343.195000", "121345.195000", "121347.195000", "121349.195000", "121351.195000", "121353.195000", "121355.195000", "121357.195000", "121359.195000", "121401.195000", "121403.195000"],
      "ContentTime": ["120806.499000", "120806.512000", "120806.514000", "120806.517000", "120806.520000", "120806.522000", "120806.525000", "120806.527000", "120806.530000", "120806.532000", "120806.535000", "120806.538000", "120806.551000", "120806.554000", "120806.557000", "120806.559000", "120806.567000", "120806.570000", "120806.572000", "120806.575000", "120846.493000", "120846.496000", "120846.499000", "120846.502000", "120846.504000", "120846.507000", "120846.510000", "120846.512000", "120846.515000", "120846.518000", "120846.520000", "120846.523000", "120846.525000", "120846.528000", "120846.531000", "120846.533000", "120846.536000", "120846.538000", "120846.541000", "120846.543000", "120926.493000", "120926.496000", "120926.499000", "120926.501000", "120926.504000", "120926.506000", "120926.509000", "120926.516000", "120926.519000", "120926.522000", "120926.524000", "120926.527000", "120926.530000", "120926.532000", "120926.535000", "120926.538000", "120926.540000", "120926.543000", "120926.552000", "120926.554000", "121006.496000", "121006.499000", "121006.502000", "121006.505000", "121006.507000", "121006.510000", "121006.512000", "121006.515000", "121006.518000", "121006.520000", "121006.523000", "121006.525000", "121006.528000", "121006.531000", "121006.533000", "121006.536000", "121006.538000", "121006.541000", "121006.544000", "121006.546000", "121046.494000", "121046.497000", "121046.500000", "121046.503000", "121046.505000", "121046.508000", "121046.510000", "121046.513000", "121046.516000", "121046.518000", "121046.521000", "121046.524000", "121046.526000", "121046.529000", "121046.531000", "121046.534000", "121046.537000", "121046.539000", "121046.541000", "121046.544000", "121126.493000", "121126.496000", "121126.499000", "121126.518000", "121126.520000", "121126.523000", "121126.525000", "121126.528000", "121126.530000", "121126.533000", "121126.535000", "121126.538000", "121126.540000", "121126.543000", "121126.555000", "121126.557000", "121126.560000", "121126.562000", "121126.565000", "121126.568000", "121206.494000", "121206.497000", "121206.500000", "121206.503000", "121206.505000", "121206.507000", "121206.510000", "121206.513000", "121206.515000", "121206.518000", "121206.520000", "121206.523000", "121206.525000", "121206.528000", "121206.530000", "121206.533000", "121206.536000", "121206.538000", "121206.541000", "121206.543000", "121246.494000", "121246.497000", "121246.500000", "121246.503000", "121246.505000", "121246.508000", "121246.510000", "121246.513000", "121246.523000", "121246.526000", "121246.528000", "121246.531000", "121246.533000", "121246.536000", "121246.538000", "121246.541000", "121246.543000", "121246.558000", "121246.561000", "121246.564000", "121326.493000", "121326.496000", "121326.499000", "121326.511000", "121326.513000", "121326.516000", "121326.518000", "121326.528000", "121326.531000", "121326.533000", "121326.535000", "121326.538000", "121326.541000", "121326.543000", "121326.546000", "121326.548000", "121326.551000", "121326.553000", "121326.556000", "121326.558000", "121405.069000", "121405.077000", "121405.080000", "121405.082000", "121405.085000", "121405.087000", "121405.090000", "121405.093000", "121405.095000", "121405.098000", "121405.108000", "121405.111000", "121405.118000", "121405.121000", "121405.126000", "121405.129000", "121405.133000", "121405.136000", "121405.138000", "121405.141000"],
      "InstanceCreationTime": ["120806.499000", "120806.512000", "120806.514000", "120806.517000", "120806.520000", "120806.522000", "120806.525000", "120806.527000", "120806.530000", "120806.532000", "120806.535000", "120806.538000", "120806.551000", "120806.554000", "120806.557000", "120806.559000", "120806.567000", "120806.570000", "120806.572000", "120806.575000", "120846.493000", "120846.496000", "120846.499000", "120846.502000", "120846.504000", "120846.507000", "120846.510000", "120846.512000", "120846.515000", "120846.518000", "120846.520000", "120846.523000", "120846.525000", "120846.528000", "120846.531000", "120846.533000", "120846.536000", "120846.538000", "120846.541000", "120846.543000", "120926.493000", "120926.496000", "120926.499000", "120926.501000", "120926.504000", "120926.506000", "120926.509000", "120926.516000", "120926.519000", "120926.522000", "120926.524000", "120926.527000", "120926.530000", "120926.532000", "120926.535000", "120926.538000", "120926.540000", "120926.543000", "120926.552000", "120926.554000", "121006.496000", "121006.499000", "121006.502000", "121006.505000", "121006.507000", "121006.510000", "121006.512000", "121006.515000", "121006.518000", "121006.520000", "121006.523000", "121006.525000", "121006.528000", "121006.531000", "121006.533000", "121006.536000", "121006.538000", "121006.541000", "121006.544000", "121006.546000", "121046.494000", "121046.497000", "121046.500000", "121046.503000", "121046.505000", "121046.508000", "121046.510000", "121046.513000", "121046.516000", "121046.518000", "121046.521000", "121046.524000", "121046.526000", "121046.529000", "121046.531000", "121046.534000", "121046.537000", "121046.539000", "121046.541000", "121046.544000", "121126.493000", "121126.496000", "121126.499000", "121126.518000", "121126.520000", "121126.523000", "121126.525000", "121126.528000", "121126.530000", "121126.533000", "121126.535000", "121126.538000", "121126.540000", "121126.543000", "121126.555000", "121126.557000", "121126.560000", "121126.562000", "121126.565000", "121126.568000", "121206.494000", "121206.497000", "121206.500000", "121206.503000", "121206.505000", "121206.507000", "121206.510000", "121206.513000", "121206.515000", "121206.518000", "121206.520000", "121206.523000", "121206.525000", "121206.528000", "121206.530000", "121206.533000", "121206.536000", "121206.538000", "121206.541000", "121206.543000", "121246.494000", "121246.497000", "121246.500000", "121246.503000", "121246.505000", "121246.508000", "121246.510000", "121246.513000", "121246.523000", "121246.526000", "121246.528000", "121246.531000", "121246.533000", "121246.536000", "121246.538000", "121246.541000", "121246.543000", "121246.558000", "121246.561000", "121246.564000", "121326.493000", "121326.496000", "121326.499000", "121326.511000", "121326.513000", "121326.516000", "121326.518000", "121326.528000", "121326.531000", "121326.533000", "121326.535000", "121326.538000", "121326.541000", "121326.543000", "121326.546000", "121326.548000", "121326.551000", "121326.553000", "121326.556000", "121326.558000", "121405.069000", "121405.077000", "121405.080000", "121405.082000", "121405.085000", "121405.087000", "121405.090000", "121405.093000", "121405.095000", "121405.098000", "121405.108000", "121405.111000", "121405.118000", "121405.121000", "121405.126000", "121405.129000", "121405.133000", "121405.136000", "121405.138000", "121405.141000"],
      "InstanceNumber": [1, 2, 3, 4, 5, 6, 7, 8, 9, 10, 11, 12, 13, 14, 15, 16, 17, 18, 19, 20, 21, 22, 23, 24, 25, 26, 27, 28, 29, 30, 31, 32, 33, 34, 35, 36, 37, 38, 39, 40, 41, 42, 43, 44, 45, 46, 47, 48, 49, 50, 51, 52, 53, 54, 55, 56, 57, 58, 59, 60, 61, 62, 63, 64, 65, 66, 67, 68, 69, 70, 71, 72, 73, 74, 75, 76, 77, 78, 79, 80, 81, 82, 83, 84, 85, 86, 87, 88, 89, 90, 91, 92, 93, 94, 95, 96, 97, 98, 99, 100, 101, 102, 103, 104, 105, 106, 107, 108, 109, 110, 111, 112, 113, 114, 115, 116, 117, 118, 119, 120, 121, 122, 123, 124, 125, 126, 127, 128, 129, 130, 131, 132, 133, 134, 135, 136, 137, 138, 139, 140, 141, 142, 143, 144, 145, 146, 147, 148, 149, 150, 151, 152, 153, 154, 155, 156, 157, 158, 159, 160, 161, 162, 163, 164, 165, 166, 167, 168, 169, 170, 171, 172, 173, 174, 175, 176, 177, 178, 179, 180, 181, 182, 183, 184, 185, 186, 187, 188, 189, 190, 191, 192, 193, 194, 195, 196, 197, 198, 199, 200],
      "LargestImagePixelValue": [1973, 1975, 1979, 1971, 1986, 1982, 1987, 1979, 1978, 1984, 1976, 1977, 1979, 1985, 1978, 1981, 1982, 1972, 1967, 1969, 1977, 1991, 1991, 1994, 1984, 1973, 1976, 1975, 1973, 1973, 1979, 1977, 1979, 1972, 1977, 1971, 1978, 1968, 1978, 1975, 1984, 1978, 1972, 1968, 1975, 1973, 1976, 1973, 1975, 1968, 1972, 1978, 1974, 1984, 1970, 1970, 1979, 1979, 1978, 1974, 1973, 1974, 1967, 1973, 1965, 1969, 1975, 1977, 1973, 1978, 1976, 1975, 1969, 1968, 1975, 1967, 1968, 1982, 1977, 1977, 1975, 1966, 1971, 1969, 1966, 1967, 1965, 1980, 1974, 1965, 1969, 1975, 1975, 1975, 1974, 1979, 1974, 1978, 1976, 1973, 1974, 1972, 1976, 1975, 1976, 1977, 1975, 1974, 1976, 1978, 1974, 1975, 1972, 1969, 1970, 1979, 1976, 1976, 1976, 1975, 1969, 1981, 1975, 1970, 1975, 1978, 1977, 1971, 1967, 1970, 1969, 1968, 1970, 1972, 1974, 1977, 1981, 1978, 1978, 1980, 1971, 1978, 1980, 1978, 1984, 1970, 1973, 1969, 1970, 1970, 1977, 1975, 1967, 1986, 1974, 1974, 1976, 1982, 1972, 1973, 1970, 1975, 1968, 1978, 1966, 1964, 1971, 1966, 1975, 1980, 1975, 1976, 1979, 1986, 1978, 1976, 1980, 1969, 1972, 1974, 1980, 1985, 1970, 1973, 1969, 1977, 1969, 1967, 1971, 1973, 1972, 1976, 1966, 1973, 1982, 1976, 1978, 1981, 1977, 1975],
      "WindowCenter": [964.0, 964.0, 964.0, 964.0, 964.0, 965.0, 965.0, 964.0, 965.0, 965.0, 965.0, 965.0, 965.0, 964.0, 965.0, 965.0, 964.0, 965.0, 965.0, 964.0, 965.0, 965.0, 965.0, 964.0, 964.0, 965.0, 964.0, 964.0, 964.0, 964.0, 964.0, 964.0, 964.0, 964.0, 964.0, 964.0, 965.0, 965.0, 964.0, 965.0, 964.0, 964.0, 964.0, 965.0, 964.0, 964.0, 964.0, 964.0, 964.0, 964.0, 964.0, 964.0, 964.0, 965.0, 964.0, 964.0, 965.0, 964.0, 964.0, 964.0, 964.0, 964.0, 964.0, 964.0, 964.0, 964.0, 964.0, 964.0, 964.0, 964.0, 963.0, 964.0, 964.0, 963.0, 963.0, 964.0, 963.0, 964.0, 963.0, 963.0, 964.0, 963.0, 964.0, 963.0, 963.0, 964.0, 963.0, 963.0, 964.0, 963.0, 963.0, 965.0, 964.0, 963.0, 963.0, 963.0, 963.0, 964.0, 963.0, 963.0, 963.0, 963.0, 963.0, 963.0, 964.0, 964.0, 964.0, 963.0, 964.0, 963.0, 963.0, 964.0, 963.0, 964.0, 964.0, 964.0, 963.0, 963.0, 963.0, 963.0, 964.0, 964.0, 964.0, 963.0, 963.0, 964.0, 963.0, 964.0, 963.0, 964.0, 963.0, 963.0, 964.0, 964.0, 963.0, 963.0, 963.0, 963.0, 964.0, 963.0, 963.0, 964.0, 963.0, 964.0, 963.0, 964.0, 964.0, 963.0, 963.0, 963.0, 963.0, 964.0, 964.0, 963.0, 964.0, 963.0, 963.0, 964.0, 963.0, 963.0, 963.0, 963.0, 963.0, 963.0, 964.0, 963.0, 963.0, 963.0, 964.0, 963.0, 964.0, 963.0, 964.0, 963.0, 963.0, 963.0, 963.0, 963.0, 963.0, 963.0, 963.0, 963.0, 963.0, 963.0, 964.0, 963.0, 963.0, 963.0, 963.0, 964.0, 963.0, 963.0, 963.0, 963.0, 963.0, 963.0, 963.0, 963.0, 963.0, 963.0],
      "WindowWidth": [2095.0, 2094.0, 2094.0, 2094.0, 2094.0, 2094.0, 2094.0, 2093.0, 2094.0, 2094.0, 2094.0, 2094.0, 2094.0, 2093.0, 2094.0, 2094.0, 2093.0, 2094.0, 2094.0, 2093.0, 2094.0, 2094.0, 2094.0, 2093.0, 2093.0, 2094.0, 2093.0, 2093.0, 2093.0, 2093.0, 2093.0, 2093.0, 2093.0, 2093.0, 2093.0, 2093.0, 2094.0, 2093.0, 2093.0, 2094.0, 2093.0, 2094.0, 2093.0, 2094.0, 2094.0, 2093.0, 2093.0, 2093.0, 2093.0, 2093.0, 2093.0, 2093.0, 2093.0, 2094.0, 2093.0, 2093.0, 2094.0, 2093.0, 2094.0, 2093.0, 2093.0, 2093.0, 2093.0, 2093.0, 2093.0, 2093.0, 2093.0, 2093.0, 2093.0, 2093.0, 2092.0, 2093.0, 2092.0, 2092.0, 2093.0, 2093.0, 2092.0, 2093.0, 2092.0, 2092.0, 2093.0, 2092.0, 2093.0, 2092.0, 2092.0, 2093.0, 2092.0, 2092.0, 2093.0, 2092.0, 2092.0, 2094.0, 2093.0, 2092.0, 2092.0, 2092.0, 2092.0, 2093.0, 2092.0, 2092.0, 2092.0, 2092.0, 2092.0, 2092.0, 2093.0, 2093.0, 2093.0, 2092.0, 2093.0, 2092.0, 2092.0, 2093.0, 2092.0, 2093.0, 2093.0, 2093.0, 2092.0, 2092.0, 2092.0, 2092.0, 2093.0, 2093.0, 2093.0, 2092.0, 2092.0, 2093.0, 2092.0, 2093.0, 2092.0, 2093.0, 2092.0, 2092.0, 2093.0, 2093.0, 2092.0, 2092.0, 2092.0, 2092.0, 2093.0, 2092.0, 2092.0, 2093.0, 2092.0, 2093.0, 2092.0, 2093.0, 2093.0, 2092.0, 2092.0, 2092.0, 2092.0, 2093.0, 2093.0, 2092.0, 2093.0, 2092.0, 2092.0, 2093.0, 2092.0, 2092.0, 2092.0, 2092.0, 2092.0, 2092.0, 2093.0, 2092.0, 2092.0, 2092.0, 2093.0, 2092.0, 2093.0, 2092.0, 2093.0, 2092.0, 2092.0, 2092.0, 2092.0, 2092.0, 2092.0, 2092.0, 2092.0, 2092.0, 2092.0, 2092.0, 2093.0, 2092.0, 2092.0, 2092.0, 2092.0, 2093.0, 2092.0, 2092.0, 2092.0, 2092.0, 2092.0, 2092.0, 2092.0, 2092.0, 2092.0, 2092.0]
    },
    "slices": {}
  }
}