{
  "AcquisitionMatrixPE": 80,
  "AcquisitionNumber": 1,
  "AcquisitionTime": "09:44:57.482500",
  "BandwidthPerPixelPhaseEncode": 48.077,
  "BaseResolution": 80,
  "BodyPartExamined": "BRAIN",
  "CoilCombinationMethod": "Sum of Squares",
  "ConsistencyInfo": "N4_VE11C_LATEST_20160120",
  "ConversionSoftware": "dcm2niix",
  "ConversionSoftwareVersion": "v1.0.20220720",
  "DerivedVendorReportedEchoSpacing": 0.000519999,
  "DeviceSerialNumber": "66112",
  "DwellTime": 2.7e-06,
  "EchoTime": 0.035,
  "EchoTrainLength": 39,
  "EffectiveEchoSpacing": 0.00026,
  "FlipAngle": 90,
  "HeudiconvVersion": "0.13.1",
  "ImageOrientationPatientDICOM": [0.998844, 0.011716, -0.0466129, 0.00313803, 0.951868, 0.306491],
  "ImageOrientationText": "Tra>Cor(17.9)>Sag(-2.7)",
  "ImageType": [
    "ORIGINAL",
    "PRIMARY",
    "M",
    "ND",
    "NORM",
    "MOSAIC"
],
  "ImagingFrequency": 123.252,
  "InPlanePhaseEncodingDirectionDICOM": "COL",
  "InstitutionAddress": "Maynard 3,Hanover,NH,US,03755",
  "InstitutionName": "Dartmouth College - PBS",
  "InstitutionalDepartmentName": "Department",
  "MRAcquisitionType": "2D",
  "MagneticFieldStrength": 3,
  "Manufacturer": "Siemens",
  "ManufacturersModelName": "Prisma",
  "MatrixCoilMode": "GRAPPA",
  "Modality": "MR",
  "NonlinearGradientCorrection": false,
  "ParallelReductionFactorInPlane": 2,
  "PartialFourier": 1,
  "PatientPosition": "HFS",
  "PercentPhaseFOV": 100,
  "PercentSampling": 100,
  "PhaseEncodingDirection": "j-",
  "PhaseEncodingSteps": 79,
  "PhaseResolution": 1,
  "PixelBandwidth": 2315,
  "ProcedureStepDescription": "dbic^QA",
  "ProtocolName": "func-bold_task-rest_acq-p2",
  "PulseSequenceDetails": "%SiemensSeq%\\ep2d_bold",
  "ReceiveCoilActiveElements": "HEA;HEP",
  "ReceiveCoilName": "Head_32",
  "ReconMatrixPE": 80,
  "RefLinesPE": 24,
  "RepetitionTime": 2,
  "SAR": 0.0475986,
  "ScanOptions": "FS",
  "ScanningSequence": "EP",
  "SequenceName": "*epfid2d1_80",
  "SequenceVariant": "SK",
  "SeriesDescription": "func-bold_task-rest_acq-p2",
  "SeriesNumber": 5,
  "ShimSetting": [4147, -7698, -7519, 281, -73, -128, 9, 68],
  "SliceThickness": 3.5,
  "SliceTiming": [0.99, 0, 1.055, 0.065, 1.1225, 0.1325, 1.1875, 0.1975, 1.255, 0.265, 1.32, 0.33, 1.385, 0.395, 1.4525, 0.4625, 1.5175, 0.5275, 1.585, 0.595, 1.65, 0.66, 1.715, 0.725, 1.7825, 0.7925, 1.8475, 0.8575, 1.915, 0.925],
  "SoftwareVersions": "syngo MR E11",
  "SpacingBetweenSlices": 3.99,
  "StationName": "AWP66112",
  "TaskName": "rest",
  "TotalReadoutTime": 0.02054,
  "TxRefAmp": 225.465,
  "dcmmeta_affine": [
    [-2.996532917022705, 0.009414076805114746, -0.19136132299900055, 124.0685806274414],
    [-0.03514793515205383, 2.855604887008667, 1.2220709323883057, -118.6702880859375],
    [-0.13983884453773499, -0.919474184513092, 3.7934184074401855, -25.571870803833008],
    [0.0, 0.0, 0.0, 1.0]
],
  "dcmmeta_reorient_transform": [
    [0.0, -1.0, 0.0, 79.0],
    [1.0, 0.0, 0.0, 0.0],
    [0.0, 0.0, 1.0, 0.0],
    [0.0, 0.0, 0.0, 1.0]
],
  "dcmmeta_shape": [80, 80, 30, 200],
  "dcmmeta_slice_dim": 2,
  "dcmmeta_version": 0.6,
  "global": {
    "const": {
      "AccessionNumber": "qa",
      "AcquisitionMatrix": [80, 0, 0, 80],
      "AngioFlag": "N",
      "BitsAllocated": 16,
      "BitsStored": 12,
      "BodyPartExamined": "BRAIN",
      "Columns": 480,
      "EchoNumbers": 1,
      "EchoTime": 35.0,
      "EchoTrainLength": 39,
      "FlipAngle": 90.0,
      "HighBit": 11,
      "ImageOrientationPatient": [0.99884431674162, 0.01171597812097, -0.0466129463736, 0.0031380254554, 0.95186825898564, 0.30649138704356],
      "ImagePositionPatient": [-726.00169777407, -685.07302914236, -254.13739488488],
      "ImageType": [
        "ORIGINAL",
        "PRIMARY",
        "M",
        "ND",
        "NORM",
        "MOSAIC"
],
      "ImagedNucleus": "1H",
      "ImagingFrequency": 123.252343,
      "InPlanePhaseEncodingDirection": "COL",
      "MRAcquisitionType": "2D",
      "MagneticFieldStrength": 3.0,
      "Manufacturer": "SIEMENS",
      "ManufacturerModelName": "Prisma",
      "Modality": "MR",
      "NumberOfAverages": 1.0,
      "NumberOfPhaseEncodingSteps": 79,
      "PercentPhaseFieldOfView": 100.0,
      "PercentSampling": 100.0,
      "PerformedProcedureStepStartTime": "094322.289000",
      "PhotometricInterpretation": "MONOCHROME2",
      "PixelBandwidth": 2315.0,
      "PixelRepresentation": 0,
      "PixelSpacing": [3.0, 3.0],
      "ProtocolName": "func-bold_task-rest_acq-p2",
      "RepetitionTime": 2000.0,
      "Rows": 480,
      "SAR": 0.04759857532985,
      "SamplesPerPixel": 1,
      "ScanOptions": "FS",
      "ScanningSequence": "EP",
      "SequenceName": "*epfid2d1_80",
      "SequenceVariant": "SK",
      "SeriesDescription": "func-bold_task-rest_acq-p2",
      "SeriesNumber": 5,
      "SeriesTime": "094547.523000",
      "SliceLocation": -66.609086367701,
      "SliceThickness": 3.5,
      "SmallestImagePixelValue": 0,
      "SoftwareVersions": "syngo MR E11",
      "SpacingBetweenSlices": 3.9899999190534,
      "SpecificCharacterSet": "ISO_IR 100",
      "StudyID": "59",
      "StudyTime": "094322.230000",
      "TransmitCoilName": "Body",
      "VariableFlipAngleFlag": "N",
      "WindowCenterWidthExplanation": "Algo1",
      "dBdt": 0.0},
    "slices": {}
  },
  "time": {
    "samples": {
      "AcquisitionNumber": [1, 2, 3, 4, 5, 6, 7, 8, 9, 10, 11, 12, 13, 14, 15, 16, 17, 18, 19, 20, 21, 22, 23, 24, 25, 26, 27, 28, 29, 30, 31, 32, 33, 34, 35, 36, 37, 38, 39, 40, 41, 42, 43, 44, 45, 46, 47, 48, 49, 50, 51, 52, 53, 54, 55, 56, 57, 58, 59, 60, 61, 62, 63, 64, 65, 66, 67, 68, 69, 70, 71, 72, 73, 74, 75, 76, 77, 78, 79, 80, 81, 82, 83, 84, 85, 86, 87, 88, 89, 90, 91, 92, 93, 94, 95, 96, 97, 98, 99, 100, 101, 102, 103, 104, 105, 106, 107, 108, 109, 110, 111, 112, 113, 114, 115, 116, 117, 118, 119, 120, 121, 122, 123, 124, 125, 126, 127, 128, 129, 130, 131, 132, 133, 134, 135, 136, 137, 138, 139, 140, 141, 142, 143, 144, 145, 146, 147, 148, 149, 150, 151, 152, 153, 154, 155, 156, 157, 158, 159, 160, 161, 162, 163, 164, 165, 166, 167, 168, 169, 170, 171, 172, 173, 174, 175, 176, 177, 178, 179, 180, 181, 182, 183, 184, 185, 186, 187, 188, 189, 190, 191, 192, 193, 194, 195, 196, 197, 198, 199, 200],
      "AcquisitionTime": ["094457.482500", "094459.482500", "094501.482500", "094503.482500", "094505.482500", "094507.482500", "094509.482500", "094511.482500", "094513.482500", "094515.482500", "094517.482500", "094519.482500", "094521.482500", "094523.482500", "094525.482500", "094527.482500", "094529.482500", "094531.482500", "094533.482500", "094535.482500", "094537.482500", "094539.482500", "094541.482500", "094543.482500", "094545.482500", "094547.482500", "094549.482500", "094551.482500", "094553.482500", "094555.482500", "094557.482500", "094559.482500", "094601.482500", "094603.482500", "094605.482500", "094607.482500", "094609.482500", "094611.482500", "094613.482500", "094615.482500", "094617.482500", "094619.482500", "094621.482500", "094623.482500", "094625.482500", "094627.482500", "094629.482500", "094631.482500", "094633.482500", "094635.482500", "094637.482500", "094639.482500", "094641.482500", "094643.482500", "094645.482500", "094647.482500", "094649.482500", "094651.482500", "094653.482500", "094655.482500", "094657.482500", "094659.482500", "094701.482500", "094703.482500", "094705.482500", "094707.482500", "094709.482500", "094711.482500", "094713.482500", "094715.482500", "094717.482500", "094719.482500", "094721.482500", "094723.482500", "094725.482500", "094727.482500", "094729.482500", "094731.482500", "094733.482500", "094735.482500", "094737.482500", "094739.482500", "094741.482500", "094743.482500", "094745.482500", "094747.482500", "094749.482500", "094751.482500", "094753.482500", "094755.482500", "094757.482500", "094759.482500", "094801.482500", "094803.482500", "094805.482500", "094807.482500", "094809.482500", "094811.482500", "094813.482500", "094815.482500", "094817.482500", "094819.482500", "094821.482500", "094823.482500", "094825.482500", "094827.482500", "094829.482500", "094831.482500", "094833.482500", "094835.482500", "094837.482500", "094839.482500", "094841.482500", "094843.482500", "094845.482500", "094847.482500", "094849.482500", "094851.482500", "094853.482500", "094855.482500", "094857.482500", "094859.482500", "094901.482500", "094903.482500", "094905.482500", "094907.482500", "094909.482500", "094911.482500", "094913.482500", "094915.482500", "094917.482500", "094919.482500", "094921.482500", "094923.482500", "094925.482500", "094927.482500", "094929.482500", "094931.482500", "094933.482500", "094935.482500", "094937.482500", "094939.482500", "094941.482500", "094943.482500", "094945.482500", "094947.482500", "094949.482500", "094951.482500", "094953.482500", "094955.482500", "094957.482500", "094959.482500", "095001.482500", "095003.482500", "095005.482500", "095007.482500", "095009.482500", "095011.482500", "095013.482500", "095015.482500", "095017.482500", "095019.482500", "095021.482500", "095023.482500", "095025.482500", "095027.482500", "095029.482500", "095031.482500", "095033.482500", "095035.482500", "095037.482500", "095039.482500", "095041.482500", "095043.482500", "095045.482500", "095047.482500", "095049.482500", "095051.482500", "095053.482500", "095055.482500", "095057.482500", "095059.482500", "095101.482500", "095103.482500", "095105.482500", "095107.482500", "095109.482500", "095111.482500", "095113.482500", "095115.482500", "095117.482500", "095119.482500", "095121.482500", "095123.482500", "095125.482500", "095127.482500", "095129.482500", "095131.482500", "095133.482500", "095135.482500"],
      "ContentTime": ["094547.526000", "094547.530000", "094547.532000", "094547.535000", "094547.537000", "094547.540000", "094547.542000", "094547.545000", "094547.547000", "094547.550000", "094547.552000", "094547.555000", "094547.557000", "094547.560000", "094547.562000", "094547.565000", "094547.567000", "094547.570000", "094547.572000", "094547.575000", "094547.577000", "094547.580000", "094547.582000", "094547.585000", "094547.587000", "094627.522000", "094627.525000", "094627.528000", "094627.530000", "094627.533000", "094627.535000", "094627.538000", "094627.540000", "094627.543000", "094627.545000", "094627.548000", "094627.550000", "094627.553000", "094627.555000", "094627.558000", "094627.560000", "094627.563000", "094627.565000", "094627.568000", "094627.570000", "094707.521000", "094707.524000", "094707.527000", "094707.529000", "094707.532000", "094707.534000", "094707.537000", "094707.539000", "094707.542000", "094707.544000", "094707.547000", "094707.549000", "094707.552000", "094707.554000", "094707.557000", "094707.559000", "094707.562000", "094707.564000", "094707.567000", "094707.570000", "094747.521000", "094747.524000", "094747.527000", "094747.529000", "094747.532000", "094747.534000", "094747.537000", "094747.539000", "094747.542000", "094747.544000", "094747.547000", "094747.549000", "094747.552000", "094747.554000", "094747.557000", "094747.559000", "094747.562000", "094747.564000", "094747.579000", "094747.581000", "094827.523000", "094827.525000", "094827.528000", "094827.530000", "094827.533000", "094827.535000", "094827.538000", "094827.540000", "094827.543000", "094827.545000", "094827.548000", "094827.550000", "094827.553000", "094827.555000", "094827.558000", "094827.560000", "094827.563000", "094827.565000", "094827.568000", "094827.570000", "094907.522000", "094907.525000", "094907.528000", "094907.530000", "094907.533000", "094907.535000", "094907.538000", "094907.540000", "094907.543000", "094907.545000", "094907.548000", "094907.550000", "094907.553000", "094907.555000", "094907.558000", "094907.560000", "094907.563000", "094907.565000", "094907.568000", "094907.571000", "094947.521000", "094947.524000", "094947.527000", "094947.529000", "094947.532000", "094947.534000", "094947.537000", "094947.539000", "094947.542000", "094947.544000", "094947.547000", "094947.549000", "094947.552000", "094947.554000", "094947.557000", "094947.559000", "094947.562000", "094947.564000", "094947.567000", "094947.569000", "095027.521000", "095027.524000", "095027.527000", "095027.529000", "095027.532000", "095027.534000", "095027.537000", "095027.539000", "095027.542000", "095027.544000", "095027.547000", "095027.550000", "095027.552000", "095027.555000", "095027.557000", "095027.560000", "095027.562000", "095027.565000", "095027.567000", "095027.570000", "095107.522000", "095107.525000", "095107.528000", "095107.530000", "095107.533000", "095107.535000", "095107.538000", "095107.540000", "095107.543000", "095107.545000", "095107.548000", "095107.551000", "095107.553000", "095107.556000", "095107.558000", "095107.561000", "095107.563000", "095107.566000", "095107.568000", "095107.571000", "095136.797000", "095136.800000", "095136.803000", "095136.805000", "095136.808000", "095136.810000", "095136.813000", "095136.815000", "095136.818000", "095136.820000", "095136.823000", "095136.826000", "095136.833000", "095136.836000", "095136.839000"],
      "InstanceCreationTime": ["094547.526000", "094547.530000", "094547.532000", "094547.535000", "094547.537000", "094547.540000", "094547.542000", "094547.545000", "094547.547000", "094547.550000", "094547.552000", "094547.555000", "094547.557000", "094547.560000", "094547.562000", "094547.565000", "094547.567000", "094547.570000", "094547.572000", "094547.575000", "094547.577000", "094547.580000", "094547.582000", "094547.585000", "094547.587000", "094627.522000", "094627.525000", "094627.528000", "094627.530000", "094627.533000", "094627.535000", "094627.538000", "094627.540000", "094627.543000", "094627.545000", "094627.548000", "094627.550000", "094627.553000", "094627.555000", "094627.558000", "094627.560000", "094627.563000", "094627.565000", "094627.568000", "094627.570000", "094707.521000", "094707.524000", "094707.527000", "094707.529000", "094707.532000", "094707.534000", "094707.537000", "094707.539000", "094707.542000", "094707.544000", "094707.547000", "094707.549000", "094707.552000", "094707.554000", "094707.557000", "094707.559000", "094707.562000", "094707.564000", "094707.567000", "094707.570000", "094747.521000", "094747.524000", "094747.527000", "094747.529000", "094747.532000", "094747.534000", "094747.537000", "094747.539000", "094747.542000", "094747.544000", "094747.547000", "094747.549000", "094747.552000", "094747.554000", "094747.557000", "094747.559000", "094747.562000", "094747.564000", "094747.579000", "094747.581000", "094827.523000", "094827.525000", "094827.528000", "094827.530000", "094827.533000", "094827.535000", "094827.538000", "094827.540000", "094827.543000", "094827.545000", "094827.548000", "094827.550000", "094827.553000", "094827.555000", "094827.558000", "094827.560000", "094827.563000", "094827.565000", "094827.568000", "094827.570000", "094907.522000", "094907.525000", "094907.528000", "094907.530000", "094907.533000", "094907.535000", "094907.538000", "094907.540000", "094907.543000", "094907.545000", "094907.548000", "094907.550000", "094907.553000", "094907.555000", "094907.558000", "094907.560000", "094907.563000", "094907.565000", "094907.568000", "094907.571000", "094947.521000", "094947.524000", "094947.527000", "094947.529000", "094947.532000", "094947.534000", "094947.537000", "094947.539000", "094947.542000", "094947.544000", "094947.547000", "094947.549000", "094947.552000", "094947.554000", "094947.557000", "094947.559000", "094947.562000", "094947.564000", "094947.567000", "094947.569000", "095027.521000", "095027.524000", "095027.527000", "095027.529000", "095027.532000", "095027.534000", "095027.537000", "095027.539000", "095027.542000", "095027.544000", "095027.547000", "095027.550000", "095027.552000", "095027.555000", "095027.557000", "095027.560000", "095027.562000", "095027.565000", "095027.567000", "095027.570000", "095107.522000", "095107.525000", "095107.528000", "095107.530000", "095107.533000", "095107.535000", "095107.538000", "095107.540000", "095107.543000", "095107.545000", "095107.548000", "095107.551000", "095107.553000", "095107.556000", "095107.558000", "095107.561000", "095107.563000", "095107.566000", "095107.568000", "095107.571000", "095136.797000", "095136.800000", "095136.803000", "095136.805000", "095136.808000", "095136.810000", "095136.813000", "095136.815000", "095136.818000", "095136.820000", "095136.823000", "095136.826000", "095136.833000", "095136.836000", "095136.839000"],
      "InstanceNumber": [1, 2, 3, 4, 5, 6, 7, 8, 9, 10, 11, 12, 13, 14, 15, 16, 17, 18, 19, 20, 21, 22, 23, 24, 25, 26, 27, 28, 29, 30, 31, 32, 33, 34, 35, 36, 37, 38, 39, 40, 41, 42, 43, 44, 45, 46, 47, 48, 49, 50, 51, 52, 53, 54, 55, 56, 57, 58, 59, 60, 61, 62, 63, 64, 65, 66, 67, 68, 69, 70, 71, 72, 73, 74, 75, 76, 77, 78, 79, 80, 81, 82, 83, 84, 85, 86, 87, 88, 89, 90, 91, 92, 93, 94, 95, 96, 97, 98, 99, 100, 101, 102, 103, 104, 105, 106, 107, 108, 109, 110, 111, 112, 113, 114, 115, 116, 117, 118, 119, 120, 121, 122, 123, 124, 125, 126, 127, 128, 129, 130, 131, 132, 133, 134, 135, 136, 137, 138, 139, 140, 141, 142, 143, 144, 145, 146, 147, 148, 149, 150, 151, 152, 153, 154, 155, 156, 157, 158, 159, 160, 161, 162, 163, 164, 165, 166, 167, 168, 169, 170, 171, 172, 173, 174, 175, 176, 177, 178, 179, 180, 181, 182, 183, 184, 185, 186, 187, 188, 189, 190, 191, 192, 193, 194, 195, 196, 197, 198, 199, 200],
      "LargestImagePixelValue": [1961, 1960, 1957, 1957, 1955, 1956, 1960, 1956, 1961, 1956, 1954, 1965, 1962, 1960, 1954, 1955, 1955, 1960, 1956, 1957, 1958, 1954, 1958, 1955, 1961, 1956, 1964, 1957, 1958, 1957, 1958, 1957, 1958, 1959, 1960, 1960, 1957, 1957, 1962, 1955, 1956, 1957, 1963, 1958, 1955, 1956, 1961, 1962, 1962, 1962, 1962, 1959, 1959, 1960, 1957, 1960, 1960, 1955, 1961, 1959, 1961, 1959, 1962, 1960, 1958, 1957, 1962, 1959, 1961, 1959, 1960, 1964, 1958, 1961, 1954, 1958, 1959, 1953, 1960, 1958, 1960, 1959, 1954, 1959, 1958, 1959, 1960, 1955, 1961, 1956, 1963, 1955, 1956, 1953, 1958, 1957, 1958, 1958, 1958, 1954, 1958, 1959, 1960, 1958, 1954, 1960, 1954, 1956, 1956, 1955, 1964, 1957, 1957, 1957, 1956, 1959, 1958, 1962, 1956, 1954, 1956, 1959, 1959, 1958, 1953, 1953, 1959, 1954, 1950, 1951, 1959, 1959, 1961, 1956, 1959, 1963, 1953, 1956, 1957, 1959, 1957, 1958, 1958, 1962, 1957, 1956, 1955, 1952, 1956, 1958, 1953, 1953, 1960, 1955, 1959, 1954, 1959, 1955, 1958, 1954, 1952, 1956, 1959, 1958, 1955, 1961, 1954, 1956, 1957, 1955, 1958, 1954, 1962, 1955, 1957, 1956, 1956, 1950, 1955, 1954, 1957, 1958, 1954, 1958, 1960, 1954, 1954, 1961, 1957, 1956, 1958, 1957, 1956, 1954, 1956, 1956, 1951, 1959, 1962, 1957],
      "WindowCenter": [983.0, 983.0, 981.0, 982.0, 983.0, 982.0, 983.0, 982.0, 982.0, 981.0, 982.0, 982.0, 982.0, 982.0, 983.0, 983.0, 983.0, 983.0, 981.0, 982.0, 983.0, 982.0, 982.0, 982.0, 982.0, 982.0, 981.0, 983.0, 982.0, 982.0, 982.0, 982.0, 982.0, 981.0, 982.0, 981.0, 982.0, 982.0, 981.0, 981.0, 982.0, 982.0, 982.0, 981.0, 981.0, 981.0, 982.0, 981.0, 981.0, 983.0, 981.0, 981.0, 981.0, 982.0, 981.0, 982.0, 981.0, 981.0, 981.0, 981.0, 981.0, 981.0, 981.0, 981.0, 981.0, 982.0, 981.0, 982.0, 981.0, 981.0, 982.0, 981.0, 982.0, 982.0, 981.0, 981.0, 980.0, 981.0, 981.0, 982.0, 981.0, 981.0, 981.0, 981.0, 981.0, 981.0, 981.0, 982.0, 981.0, 981.0, 981.0, 981.0, 982.0, 981.0, 982.0, 981.0, 980.0, 981.0, 981.0, 981.0, 980.0, 981.0, 981.0, 983.0, 981.0, 981.0, 982.0, 981.0, 981.0, 981.0, 981.0, 980.0, 980.0, 981.0, 982.0, 982.0, 981.0, 982.0, 981.0, 981.0, 981.0, 980.0, 981.0, 981.0, 981.0, 981.0, 982.0, 981.0, 981.0, 981.0, 981.0, 982.0, 981.0, 980.0, 981.0, 981.0, 981.0, 982.0, 981.0, 981.0, 981.0, 982.0, 981.0, 981.0, 981.0, 981.0, 980.0, 981.0, 981.0, 980.0, 980.0, 982.0, 981.0, 981.0, 981.0, 980.0, 981.0, 981.0, 981.0, 981.0, 980.0, 980.0, 981.0, 981.0, 981.0, 981.0, 981.0, 980.0, 981.0, 980.0, 980.0, 981.0, 980.0, 981.0, 980.0, 981.0, 981.0, 981.0, 981.0, 981.0, 980.0, 982.0, 980.0, 980.0, 980.0, 980.0, 980.0, 980.0, 982.0, 981.0, 980.0, 980.0, 980.0, 980.0, 980.0, 980.0, 981.0, 980.0, 981.0, 980.0],
      "WindowWidth": [2152.0, 2151.0, 2150.0, 2150.0, 2151.0, 2151.0, 2151.0, 2150.0, 2150.0, 2150.0, 2150.0, 2150.0, 2150.0, 2150.0, 2150.0, 2150.0, 2150.0, 2150.0, 2149.0, 2149.0, 2150.0, 2149.0, 2149.0, 2149.0, 2149.0, 2149.0, 2148.0, 2150.0, 2150.0, 2150.0, 2148.0, 2150.0, 2150.0, 2148.0, 2148.0, 2148.0, 2150.0, 2149.0, 2149.0, 2148.0, 2150.0, 2148.0, 2149.0, 2148.0, 2149.0, 2149.0, 2148.0, 2149.0, 2148.0, 2150.0, 2148.0, 2148.0, 2148.0, 2149.0, 2148.0, 2149.0, 2148.0, 2148.0, 2148.0, 2148.0, 2148.0, 2148.0, 2148.0, 2148.0, 2148.0, 2149.0, 2148.0, 2149.0, 2148.0, 2148.0, 2149.0, 2148.0, 2149.0, 2148.0, 2148.0, 2148.0, 2147.0, 2148.0, 2148.0, 2148.0, 2148.0, 2148.0, 2148.0, 2148.0, 2148.0, 2148.0, 2148.0, 2148.0, 2148.0, 2148.0, 2148.0, 2148.0, 2148.0, 2148.0, 2148.0, 2148.0, 2147.0, 2148.0, 2148.0, 2148.0, 2147.0, 2147.0, 2148.0, 2149.0, 2148.0, 2147.0, 2148.0, 2148.0, 2147.0, 2147.0, 2147.0, 2147.0, 2147.0, 2147.0, 2148.0, 2148.0, 2147.0, 2148.0, 2147.0, 2147.0, 2147.0, 2146.0, 2147.0, 2147.0, 2147.0, 2147.0, 2148.0, 2147.0, 2147.0, 2147.0, 2147.0, 2147.0, 2147.0, 2146.0, 2147.0, 2147.0, 2147.0, 2147.0, 2147.0, 2147.0, 2147.0, 2147.0, 2147.0, 2147.0, 2147.0, 2147.0, 2146.0, 2147.0, 2147.0, 2146.0, 2146.0, 2148.0, 2147.0, 2147.0, 2147.0, 2146.0, 2147.0, 2147.0, 2146.0, 2147.0, 2146.0, 2146.0, 2147.0, 2147.0, 2146.0, 2146.0, 2146.0, 2146.0, 2146.0, 2146.0, 2146.0, 2147.0, 2146.0, 2146.0, 2146.0, 2147.0, 2147.0, 2147.0, 2147.0, 2147.0, 2146.0, 2148.0, 2145.0, 2146.0, 2145.0, 2146.0, 2146.0, 2146.0, 2148.0, 2146.0, 2146.0, 2146.0, 2146.0, 2146.0, 2146.0, 2146.0, 2146.0, 2146.0, 2147.0, 2146.0]
    },
    "slices": {}
  }
}