{
  "AcquisitionMatrixPE": 122,
  "AcquisitionNumber": 1,
  "AcquisitionTime": "10:19:24.470000",
  "BandwidthPerPixelPhaseEncode": 27.785,
  "BaseResolution": 122,
  "BodyPartExamined": "BRAIN",
  "CoilCombinationMethod": "Adaptive Combine",
  "ConsistencyInfo": "N4_VE11C_LATEST_20160120",
  "ConversionSoftware": "dcm2niix",
  "ConversionSoftwareVersion": "v1.0.20220720",
  "DerivedVendorReportedEchoSpacing": 0.000590011,
  "DeviceSerialNumber": "66112",
  "DiffusionScheme": "Monopolar",
  "DwellTime": 2e-06,
  "EchoTime": 0.068,
  "EchoTrainLength": 61,
  "EffectiveEchoSpacing": 0.000295005,
  "FlipAngle": 90,
  "HeudiconvVersion": "0.13.1",
  "ImageOrientationPatientDICOM": [0.999963, 0.00746992, 0.00417108, -0.0083775, 0.953851, 0.300162],
  "ImageOrientationText": "Tra>Cor(17.5)>Sag(0.1)",
  "ImageType": [
    "ORIGINAL",
    "PRIMARY",
    "DIFFUSION",
    "NONE",
    "ND",
    "NORM"
],
  "ImagingFrequency": 123.252,
  "InPlanePhaseEncodingDirectionDICOM": "COL",
  "InstitutionAddress": "Maynard 3,Hanover,NH,US,03755",
  "InstitutionName": "Dartmouth College - PBS",
  "InstitutionalDepartmentName": "Department",
  "MRAcquisitionType": "2D",
  "MagneticFieldStrength": 3,
  "Manufacturer": "Siemens",
  "ManufacturersModelName": "Prisma",
  "Modality": "MR",
  "MultibandAccelerationFactor": 4,
  "NonlinearGradientCorrection": false,
  "ParallelReductionFactorInPlane": 2,
  "PartialFourier": 1,
  "PatientPosition": "HFS",
  "PercentPhaseFOV": 100,
  "PercentSampling": 100,
  "PhaseEncodingDirection": "j-",
  "PhaseEncodingSteps": 122,
  "PhaseResolution": 1,
  "PixelBandwidth": 2050,
  "ProcedureStepDescription": "dbic^QA",
  "ProtocolName": "dwi_acq-DTI-30-p2-s4",
  "PulseSequenceDetails": "%SiemensSeq%\\ep2d_diff",
  "ReceiveCoilActiveElements": "HEA;HEP",
  "ReceiveCoilName": "Head_32",
  "ReconMatrixPE": 122,
  "RefLinesPE": 38,
  "RepetitionTime": 3.6,
  "SAR": 0.160749,
  "ScanOptions": "FS",
  "ScanningSequence": "EP",
  "SequenceName": "*ep_b0",
  "SequenceVariant": "SK\\SP",
  "SeriesDescription": "dwi_acq-DTI-30-p2-s4",
  "SeriesNumber": 9,
  "ShimSetting": [4144, -7695, -7515, 272, -82, -164, -24, 66],
  "SliceThickness": 2,
  "SliceTiming": [2.58594, 0, 1.78906, 0.20312, 1.99219, 0.39844, 2.1875, 0.60156, 2.39062, 1, 2.78906, 1.19531, 2.98438, 1.39844, 3.1875, 1.59375, 3.38281, 0.79688, 2.58594, 0, 1.78906, 0.20312, 1.99219, 0.39844, 2.1875, 0.60156, 2.39062, 1, 2.78906, 1.19531, 2.98438, 1.39844, 3.1875, 1.59375, 3.38281, 0.79688, 2.58594, 0, 1.78906, 0.20312, 1.99219, 0.39844, 2.1875, 0.60156, 2.39062, 1, 2.78906, 1.19531, 2.98438, 1.39844, 3.1875, 1.59375, 3.38281, 0.79688, 2.58594, 0, 1.78906, 0.20312, 1.99219, 0.39844, 2.1875, 0.60156, 2.39062, 1, 2.78906, 1.19531, 2.98438, 1.39844, 3.1875, 1.59375, 3.38281, 0.79688],
  "SoftwareVersions": "syngo MR E11",
  "SpacingBetweenSlices": 2,
  "SpoilingState": true,
  "StationName": "AWP66112",
  "TotalReadoutTime": 0.0356956,
  "TxRefAmp": 227.855,
  "dcmmeta_affine": [
    [-1.9671411514282227, -0.016480334103107452, 0.00347280316054821, 120.71631622314453],
    [-0.014694929122924805, 1.8764288425445557, 0.600372314453125, -125.15127563476562],
    [0.00820540264248848, -0.5904833674430847, 1.9077606201171875, -27.689844131469727],
    [0.0, 0.0, 0.0, 1.0]
],
  "dcmmeta_reorient_transform": [
    [0.0, -1.0, 0.0, 121.0],
    [1.0, 0.0, 0.0, 0.0],
    [0.0, 0.0, -1.0, 71.0],
    [0.0, 0.0, 0.0, 1.0]
],
  "dcmmeta_shape": [122, 122, 72, 31],
  "dcmmeta_slice_dim": 2,
  "dcmmeta_version": 0.6,
  "global": {
    "const": {
      "AccessionNumber": "qa",
      "AcquisitionMatrix": [122, 0, 0, 122],
      "AngioFlag": "N",
      "BitsAllocated": 16,
      "BitsStored": 12,
      "BodyPartExamined": "BRAIN",
      "Columns": 122,
      "EchoNumbers": 1,
      "EchoTime": 68.0,
      "EchoTrainLength": 61,
      "FlipAngle": 90.0,
      "HighBit": 11,
      "ImageOrientationPatient": [0.99996340051031, 0.00746992211452, 0.00417107941087, -0.0083775028907, 0.95385133205587, 0.30016237902269],
      "ImageType": [
        "ORIGINAL",
        "PRIMARY",
        "DIFFUSION",
        "NONE",
        "ND",
        "NORM"
],
      "ImagedNucleus": "1H",
      "ImagingFrequency": 123.252415,
      "InPlanePhaseEncodingDirection": "COL",
      "MRAcquisitionType": "2D",
      "MagneticFieldStrength": 3.0,
      "Manufacturer": "SIEMENS",
      "ManufacturerModelName": "Prisma",
      "Modality": "MR",
      "NumberOfAverages": 1.0,
      "NumberOfPhaseEncodingSteps": 122,
      "PercentPhaseFieldOfView": 100.0,
      "PercentSampling": 100.0,
      "PerformedProcedureStepStartTime": "095118.284000",
      "PhotometricInterpretation": "MONOCHROME2",
      "PixelBandwidth": 2050.0,
      "PixelRepresentation": 0,
      "PixelSpacing": [1.9672131538391, 1.9672131538391],
      "ProtocolName": "dwi_acq-DTI-30-p2-s4",
      "RepetitionTime": 3600.0,
      "Rows": 122,
      "SAR": 0.16074893237299,
      "SamplesPerPixel": 1,
      "ScanOptions": "FS",
      "ScanningSequence": "EP",
      "SequenceVariant": [
        "SK",
        "SP"
],
      "SeriesDescription": "dwi_acq-DTI-30-p2-s4",
      "SeriesNumber": 9,
      "SeriesTime": "101933.434000",
      "SliceThickness": 2.0,
      "SmallestImagePixelValue": 0,
      "SoftwareVersions": "syngo MR E11",
      "SpacingBetweenSlices": 2.0,
      "SpecificCharacterSet": "ISO_IR 100",
      "StudyID": "80",
      "StudyTime": "095118.190000",
      "TransmitCoilName": "Body",
      "VariableFlipAngleFlag": "N",
      "WindowCenterWidthExplanation": "Algo1",
      "dBdt": 0.0},
    "slices": {
      "AcquisitionTime": ["101924.470000", "101921.885000", "101923.675000", "101922.085000", "101923.875000", "101922.282500", "101924.072500", "101922.482500", "101924.272500", "101922.880000", "101924.670000", "101923.080000", "101924.867500", "101923.277500", "101925.067500", "101923.477500", "101925.267500", "101922.680000", "101924.470000", "101921.885000", "101923.675000", "101922.085000", "101923.875000", "101922.282500", "101924.072500", "101922.482500", "101924.272500", "101922.880000", "101924.670000", "101923.080000", "101924.867500", "101923.277500", "101925.067500", "101923.477500", "101925.267500", "101922.680000", "101924.470000", "101921.885000", "101923.675000", "101922.085000", "101923.875000", "101922.282500", "101924.072500", "101922.482500", "101924.272500", "101922.880000", "101924.670000", "101923.080000", "101924.867500", "101923.277500", "101925.067500", "101923.477500", "101925.267500", "101922.680000", "101924.470000", "101921.885000", "101923.675000", "101922.085000", "101923.875000", "101922.282500", "101924.072500", "101922.482500", "101924.272500", "101922.880000", "101924.670000", "101923.080000", "101924.867500", "101923.277500", "101925.067500", "101923.477500", "101925.267500", "101922.680000", "101928.070000", "101925.485000", "101927.275000", "101925.685000", "101927.475000", "101925.882500", "101927.672500", "101926.082500", "101927.872500", "101926.480000", "101928.270000", "101926.680000", "101928.467500", "101926.877500", "101928.667500", "101927.077500", "101928.867500", "101926.280000", "101928.070000", "101925.485000", "101927.275000", "101925.685000", "101927.475000", "101925.882500", "101927.672500", "101926.082500", "101927.872500", "101926.480000", "101928.270000", "101926.680000", "101928.467500", "101926.877500", "101928.667500", "101927.077500", "101928.867500", "101926.280000", "101928.070000", "101925.485000", "101927.275000", "101925.685000", "101927.475000", "101925.882500", "101927.672500", "101926.082500", "101927.872500", "101926.480000", "101928.270000", "101926.680000", "101928.467500", "101926.877500", "101928.667500", "101927.077500", "101928.867500", "101926.280000", "101928.070000", "101925.485000", "101927.275000", "101925.685000", "101927.475000", "101925.882500", "101927.672500", "101926.082500", "101927.872500", "101926.480000", "101928.270000", "101926.680000", "101928.467500", "101926.877500", "101928.667500", "101927.077500", "101928.867500", "101926.280000", "101931.670000", "101929.085000", "101930.875000", "101929.285000", "101931.075000", "101929.482500", "101931.272500", "101929.682500", "101931.472500", "101930.080000", "101931.870000", "101930.280000", "101932.067500", "101930.477500", "101932.267500", "101930.677500", "101932.467500", "101929.880000", "101931.670000", "101929.085000", "101930.875000", "101929.285000", "101931.075000", "101929.482500", "101931.272500", "101929.682500", "101931.472500", "101930.080000", "101931.870000", "101930.280000", "101932.067500", "101930.477500", "101932.267500", "101930.677500", "101932.467500", "101929.880000", "101931.670000", "101929.085000", "101930.875000", "101929.285000", "101931.075000", "101929.482500", "101931.272500", "101929.682500", "101931.472500", "101930.080000", "101931.870000", "101930.280000", "101932.067500", "101930.477500", "101932.267500", "101930.677500", "101932.467500", "101929.880000", "101931.670000", "101929.085000", "101930.875000", "101929.285000", "101931.075000", "101929.482500", "101931.272500", "101929.682500", "101931.472500", "101930.080000", "101931.870000", "101930.280000", "101932.067500", "101930.477500", "101932.267500", "101930.677500", "101932.467500", "101929.880000", "101935.270000", "101932.685000", "101934.475000", "101932.885000", "101934.675000", "101933.082500", "101934.872500", "101933.282500", "101935.072500", "101933.680000", "101935.470000", "101933.880000", "101935.667500", "101934.077500", "101935.867500", "101934.277500", "101936.067500", "101933.480000", "101935.270000", "101932.685000", "101934.475000", "101932.885000", "101934.675000", "101933.082500", "101934.872500", "101933.282500", "101935.072500", "101933.680000", "101935.470000", "101933.880000", "101935.667500", "101934.077500", "101935.867500", "101934.277500", "101936.067500", "101933.480000", "101935.270000", "101932.685000", "101934.475000", "101932.885000", "101934.675000", "101933.082500", "101934.872500", "101933.282500", "101935.072500", "101933.680000", "101935.470000", "101933.880000", "101935.667500", "101934.077500", "101935.867500", "101934.277500", "101936.067500", "101933.480000", "101935.270000", "101932.685000", "101934.475000", "101932.885000", "101934.675000", "101933.082500", "101934.872500", "101933.282500", "101935.072500", "101933.680000", "101935.470000", "101933.880000", "101935.667500", "101934.077500", "101935.867500", "101934.277500", "101936.067500", "101933.480000", "101938.870000", "101936.285000", "101938.075000", "101936.485000", "101938.275000", "101936.682500", "101938.472500", "101936.882500", "101938.672500", "101937.280000", "101939.070000", "101937.480000", "101939.267500", "101937.677500", "101939.467500", "101937.877500", "101939.667500", "101937.080000", "101938.870000", "101936.285000", "101938.075000", "101936.485000", "101938.275000", "101936.682500", "101938.472500", "101936.882500", "101938.672500", "101937.280000", "101939.070000", "101937.480000", "101939.267500", "101937.677500", "101939.467500", "101937.877500", "101939.667500", "101937.080000", "101938.870000", "101936.285000", "101938.075000", "101936.485000", "101938.275000", "101936.682500", "101938.472500", "101936.882500", "101938.672500", "101937.280000", "101939.070000", "101937.480000", "101939.267500", "101937.677500", "101939.467500", "101937.877500", "101939.667500", "101937.080000", "101938.870000", "101936.285000", "101938.075000", "101936.485000", "101938.275000", "101936.682500", "101938.472500", "101936.882500", "101938.672500", "101937.280000", "101939.070000", "101937.480000", "101939.267500", "101937.677500", "101939.467500", "101937.877500", "101939.667500", "101937.080000", "101942.470000", "101939.885000", "101941.675000", "101940.085000", "101941.875000", "101940.282500", "101942.072500", "101940.482500", "101942.272500", "101940.880000", "101942.670000", "101941.080000", "101942.867500", "101941.277500", "101943.067500", "101941.477500", "101943.267500", "101940.680000", "101942.470000", "101939.885000", "101941.675000", "101940.085000", "101941.875000", "101940.282500", "101942.072500", "101940.482500", "101942.272500", "101940.880000", "101942.670000", "101941.080000", "101942.867500", "101941.277500", "101943.067500", "101941.477500", "101943.267500", "101940.680000", "101942.470000", "101939.885000", "101941.675000", "101940.085000", "101941.875000", "101940.282500", "101942.072500", "101940.482500", "101942.272500", "101940.880000", "101942.670000", "101941.080000", "101942.867500", "101941.277500", "101943.067500", "101941.477500", "101943.267500", "101940.680000", "101942.470000", "101939.885000", "101941.675000", "101940.085000", "101941.875000", "101940.282500", "101942.072500", "101940.482500", "101942.272500", "101940.880000", "101942.670000", "101941.080000", "101942.867500", "101941.277500", "101943.067500", "101941.477500", "101943.267500", "101940.680000", "101946.070000", "101943.485000", "101945.275000", "101943.685000", "101945.475000", "101943.882500", "101945.672500", "101944.082500", "101945.872500", "101944.480000", "101946.270000", "101944.680000", "101946.467500", "101944.877500", "101946.667500", "101945.077500", "101946.867500", "101944.280000", "101946.070000", "101943.485000", "101945.275000", "101943.685000", "101945.475000", "101943.882500", "101945.672500", "101944.082500", "101945.872500", "101944.480000", "101946.270000", "101944.680000", "101946.467500", "101944.877500", "101946.667500", "101945.077500", "101946.867500", "101944.280000", "101946.070000", "101943.485000", "101945.275000", "101943.685000", "101945.475000", "101943.882500", "101945.672500", "101944.082500", "101945.872500", "101944.480000", "101946.270000", "101944.680000", "101946.467500", "101944.877500", "101946.667500", "101945.077500", "101946.867500", "101944.280000", "101946.070000", "101943.485000", "101945.275000", "101943.685000", "101945.475000", "101943.882500", "101945.672500", "101944.082500", "101945.872500", "101944.480000", "101946.270000", "101944.680000", "101946.467500", "101944.877500", "101946.667500", "101945.077500", "101946.867500", "101944.280000", "101949.670000", "101947.085000", "101948.875000", "101947.285000", "101949.075000", "101947.482500", "101949.272500", "101947.682500", "101949.472500", "101948.080000", "101949.870000", "101948.280000", "101950.067500", "101948.477500", "101950.267500", "101948.677500", "101950.467500", "101947.880000", "101949.670000", "101947.085000", "101948.875000", "101947.285000", "101949.075000", "101947.482500", "101949.272500", "101947.682500", "101949.472500", "101948.080000", "101949.870000", "101948.280000", "101950.067500", "101948.477500", "101950.267500", "101948.677500", "101950.467500", "101947.880000", "101949.670000", "101947.085000", "101948.875000", "101947.285000", "101949.075000", "101947.482500", "101949.272500", "101947.682500", "101949.472500", "101948.080000", "101949.870000", "101948.280000", "101950.067500", "101948.477500", "101950.267500", "101948.677500", "101950.467500", "101947.880000", "101949.670000", "101947.085000", "101948.875000", "101947.285000", "101949.075000", "101947.482500", "101949.272500", "101947.682500", "101949.472500", "101948.080000", "101949.870000", "101948.280000", "101950.067500", "101948.477500", "101950.267500", "101948.677500", "101950.467500", "101947.880000", "101953.270000", "101950.685000", "101952.475000", "101950.885000", "101952.675000", "101951.082500", "101952.872500", "101951.282500", "101953.072500", "101951.680000", "101953.470000", "101951.880000", "101953.667500", "101952.077500", "101953.867500", "101952.277500", "101954.067500", "101951.480000", "101953.270000", "101950.685000", "101952.475000", "101950.885000", "101952.675000", "101951.082500", "101952.872500", "101951.282500", "101953.072500", "101951.680000", "101953.470000", "101951.880000", "101953.667500", "101952.077500", "101953.867500", "101952.277500", "101954.067500", "101951.480000", "101953.270000", "101950.685000", "101952.475000", "101950.885000", "101952.675000", "101951.082500", "101952.872500", "101951.282500", "101953.072500", "101951.680000", "101953.470000", "101951.880000", "101953.667500", "101952.077500", "101953.867500", "101952.277500", "101954.067500", "101951.480000", "101953.270000", "101950.685000", "101952.475000", "101950.885000", "101952.675000", "101951.082500", "101952.872500", "101951.282500", "101953.072500", "101951.680000", "101953.470000", "101951.880000", "101953.667500", "101952.077500", "101953.867500", "101952.277500", "101954.067500", "101951.480000", "101956.870000", "101954.285000", "101956.075000", "101954.485000", "101956.275000", "101954.682500", "101956.472500", "101954.882500", "101956.672500", "101955.280000", "101957.070000", "101955.480000", "101957.267500", "101955.677500", "101957.467500", "101955.877500", "101957.667500", "101955.080000", "101956.870000", "101954.285000", "101956.075000", "101954.485000", "101956.275000", "101954.682500", "101956.472500", "101954.882500", "101956.672500", "101955.280000", "101957.070000", "101955.480000", "101957.267500", "101955.677500", "101957.467500", "101955.877500", "101957.667500", "101955.080000", "101956.870000", "101954.285000", "101956.075000", "101954.485000", "101956.275000", "101954.682500", "101956.472500", "101954.882500", "101956.672500", "101955.280000", "101957.070000", "101955.480000", "101957.267500", "101955.677500", "101957.467500", "101955.877500", "101957.667500", "101955.080000", "101956.870000", "101954.285000", "101956.075000", "101954.485000", "101956.275000", "101954.682500", "101956.472500", "101954.882500", "101956.672500", "101955.280000", "101957.070000", "101955.480000", "101957.267500", "101955.677500", "101957.467500", "101955.877500", "101957.667500", "101955.080000", "102000.470000", "101957.885000", "101959.675000", "101958.085000", "101959.875000", "101958.282500", "102000.072500", "101958.482500", "102000.272500", "101958.880000", "102000.670000", "101959.080000", "102000.867500", "101959.277500", "102001.067500", "101959.477500", "102001.267500", "101958.680000", "102000.470000", "101957.885000", "101959.675000", "101958.085000", "101959.875000", "101958.282500", "102000.072500", "101958.482500", "102000.272500", "101958.880000", "102000.670000", "101959.080000", "102000.867500", "101959.277500", "102001.067500", "101959.477500", "102001.267500", "101958.680000", "102000.470000", "101957.885000", "101959.675000", "101958.085000", "101959.875000", "101958.282500", "102000.072500", "101958.482500", "102000.272500", "101958.880000", "102000.670000", "101959.080000", "102000.867500", "101959.277500", "102001.067500", "101959.477500", "102001.267500", "101958.680000", "102000.470000", "101957.885000", "101959.675000", "101958.085000", "101959.875000", "101958.282500", "102000.072500", "101958.482500", "102000.272500", "101958.880000", "102000.670000", "101959.080000", "102000.867500", "101959.277500", "102001.067500", "101959.477500", "102001.267500", "101958.680000", "102004.070000", "102001.485000", "102003.275000", "102001.685000", "102003.475000", "102001.882500", "102003.672500", "102002.082500", "102003.872500", "102002.480000", "102004.270000", "102002.680000", "102004.467500", "102002.877500", "102004.667500", "102003.077500", "102004.867500", "102002.280000", "102004.070000", "102001.485000", "102003.275000", "102001.685000", "102003.475000", "102001.882500", "102003.672500", "102002.082500", "102003.872500", "102002.480000", "102004.270000", "102002.680000", "102004.467500", "102002.877500", "102004.667500", "102003.077500", "102004.867500", "102002.280000", "102004.070000", "102001.485000", "102003.275000", "102001.685000", "102003.475000", "102001.882500", "102003.672500", "102002.082500", "102003.872500", "102002.480000", "102004.270000", "102002.680000", "102004.467500", "102002.877500", "102004.667500", "102003.077500", "102004.867500", "102002.280000", "102004.070000", "102001.485000", "102003.275000", "102001.685000", "102003.475000", "102001.882500", "102003.672500", "102002.082500", "102003.872500", "102002.480000", "102004.270000", "102002.680000", "102004.467500", "102002.877500", "102004.667500", "102003.077500", "102004.867500", "102002.280000", "102007.670000", "102005.085000", "102006.875000", "102005.285000", "102007.075000", "102005.482500", "102007.272500", "102005.682500", "102007.472500", "102006.080000", "102007.870000", "102006.280000", "102008.067500", "102006.477500", "102008.267500", "102006.677500", "102008.467500", "102005.880000", "102007.670000", "102005.085000", "102006.875000", "102005.285000", "102007.075000", "102005.482500", "102007.272500", "102005.682500", "102007.472500", "102006.080000", "102007.870000", "102006.280000", "102008.067500", "102006.477500", "102008.267500", "102006.677500", "102008.467500", "102005.880000", "102007.670000", "102005.085000", "102006.875000", "102005.285000", "102007.075000", "102005.482500", "102007.272500", "102005.682500", "102007.472500", "102006.080000", "102007.870000", "102006.280000", "102008.067500", "102006.477500", "102008.267500", "102006.677500", "102008.467500", "102005.880000", "102007.670000", "102005.085000", "102006.875000", "102005.285000", "102007.075000", "102005.482500", "102007.272500", "102005.682500", "102007.472500", "102006.080000", "102007.870000", "102006.280000", "102008.067500", "102006.477500", "102008.267500", "102006.677500", "102008.467500", "102005.880000", "102011.270000", "102008.685000", "102010.475000", "102008.885000", "102010.675000", "102009.082500", "102010.872500", "102009.282500", "102011.072500", "102009.680000", "102011.470000", "102009.880000", "102011.667500", "102010.077500", "102011.867500", "102010.277500", "102012.067500", "102009.480000", "102011.270000", "102008.685000", "102010.475000", "102008.885000", "102010.675000", "102009.082500", "102010.872500", "102009.282500", "102011.072500", "102009.680000", "102011.470000", "102009.880000", "102011.667500", "102010.077500", "102011.867500", "102010.277500", "102012.067500", "102009.480000", "102011.270000", "102008.685000", "102010.475000", "102008.885000", "102010.675000", "102009.082500", "102010.872500", "102009.282500", "102011.072500", "102009.680000", "102011.470000", "102009.880000", "102011.667500", "102010.077500", "102011.867500", "102010.277500", "102012.067500", "102009.480000", "102011.270000", "102008.685000", "102010.475000", "102008.885000", "102010.675000", "102009.082500", "102010.872500", "102009.282500", "102011.072500", "102009.680000", "102011.470000", "102009.880000", "102011.667500", "102010.077500", "102011.867500", "102010.277500", "102012.067500", "102009.480000", "102014.870000", "102012.285000", "102014.075000", "102012.485000", "102014.275000", "102012.682500", "102014.472500", "102012.882500", "102014.672500", "102013.280000", "102015.070000", "102013.480000", "102015.267500", "102013.677500", "102015.467500", "102013.877500", "102015.667500", "102013.080000", "102014.870000", "102012.285000", "102014.075000", "102012.485000", "102014.275000", "102012.682500", "102014.472500", "102012.882500", "102014.672500", "102013.280000", "102015.070000", "102013.480000", "102015.267500", "102013.677500", "102015.467500", "102013.877500", "102015.667500", "102013.080000", "102014.870000", "102012.285000", "102014.075000", "102012.485000", "102014.275000", "102012.682500", "102014.472500", "102012.882500", "102014.672500", "102013.280000", "102015.070000", "102013.480000", "102015.267500", "102013.677500", "102015.467500", "102013.877500", "102015.667500", "102013.080000", "102014.870000", "102012.285000", "102014.075000", "102012.485000", "102014.275000", "102012.682500", "102014.472500", "102012.882500", "102014.672500", "102013.280000", "102015.070000", "102013.480000", "102015.267500", "102013.677500", "102015.467500", "102013.877500", "102015.667500", "102013.080000", "102018.470000", "102015.885000", "102017.675000", "102016.085000", "102017.875000", "102016.282500", "102018.072500", "102016.482500", "102018.272500", "102016.880000", "102018.670000", "102017.080000", "102018.867500", "102017.277500", "102019.067500", "102017.477500", "102019.267500", "102016.680000", "102018.470000", "102015.885000", "102017.675000", "102016.085000", "102017.875000", "102016.282500", "102018.072500", "102016.482500", "102018.272500", "102016.880000", "102018.670000", "102017.080000", "102018.867500", "102017.277500", "102019.067500", "102017.477500", "102019.267500", "102016.680000", "102018.470000", "102015.885000", "102017.675000", "102016.085000", "102017.875000", "102016.282500", "102018.072500", "102016.482500", "102018.272500", "102016.880000", "102018.670000", "102017.080000", "102018.867500", "102017.277500", "102019.067500", "102017.477500", "102019.267500", "102016.680000", "102018.470000", "102015.885000", "102017.675000", "102016.085000", "102017.875000", "102016.282500", "102018.072500", "102016.482500", "102018.272500", "102016.880000", "102018.670000", "102017.080000", "102018.867500", "102017.277500", "102019.067500", "102017.477500", "102019.267500", "102016.680000", "102022.070000", "102019.485000", "102021.275000", "102019.685000", "102021.475000", "102019.882500", "102021.672500", "102020.082500", "102021.872500", "102020.480000", "102022.270000", "102020.680000", "102022.467500", "102020.877500", "102022.667500", "102021.077500", "102022.867500", "102020.280000", "102022.070000", "102019.485000", "102021.275000", "102019.685000", "102021.475000", "102019.882500", "102021.672500", "102020.082500", "102021.872500", "102020.480000", "102022.270000", "102020.680000", "102022.467500", "102020.877500", "102022.667500", "102021.077500", "102022.867500", "102020.280000", "102022.070000", "102019.485000", "102021.275000", "102019.685000", "102021.475000", "102019.882500", "102021.672500", "102020.082500", "102021.872500", "102020.480000", "102022.270000", "102020.680000", "102022.467500", "102020.877500", "102022.667500", "102021.077500", "102022.867500", "102020.280000", "102022.070000", "102019.485000", "102021.275000", "102019.685000", "102021.475000", "102019.882500", "102021.672500", "102020.082500", "102021.872500", "102020.480000", "102022.270000", "102020.680000", "102022.467500", "102020.877500", "102022.667500", "102021.077500", "102022.867500", "102020.280000", "102025.670000", "102023.085000", "102024.875000", "102023.285000", "102025.075000", "102023.482500", "102025.272500", "102023.682500", "102025.472500", "102024.080000", "102025.870000", "102024.280000", "102026.067500", "102024.477500", "102026.267500", "102024.677500", "102026.467500", "102023.880000", "102025.670000", "102023.085000", "102024.875000", "102023.285000", "102025.075000", "102023.482500", "102025.272500", "102023.682500", "102025.472500", "102024.080000", "102025.870000", "102024.280000", "102026.067500", "102024.477500", "102026.267500", "102024.677500", "102026.467500", "102023.880000", "102025.670000", "102023.085000", "102024.875000", "102023.285000", "102025.075000", "102023.482500", "102025.272500", "102023.682500", "102025.472500", "102024.080000", "102025.870000", "102024.280000", "102026.067500", "102024.477500", "102026.267500", "102024.677500", "102026.467500", "102023.880000", "102025.670000", "102023.085000", "102024.875000", "102023.285000", "102025.075000", "102023.482500", "102025.272500", "102023.682500", "102025.472500", "102024.080000", "102025.870000", "102024.280000", "102026.067500", "102024.477500", "102026.267500", "102024.677500", "102026.467500", "102023.880000", "102029.270000", "102026.685000", "102028.475000", "102026.885000", "102028.675000", "102027.082500", "102028.872500", "102027.282500", "102029.072500", "102027.680000", "102029.470000", "102027.880000", "102029.667500", "102028.077500", "102029.867500", "102028.277500", "102030.067500", "102027.480000", "102029.270000", "102026.685000", "102028.475000", "102026.885000", "102028.675000", "102027.082500", "102028.872500", "102027.282500", "102029.072500", "102027.680000", "102029.470000", "102027.880000", "102029.667500", "102028.077500", "102029.867500", "102028.277500", "102030.067500", "102027.480000", "102029.270000", "102026.685000", "102028.475000", "102026.885000", "102028.675000", "102027.082500", "102028.872500", "102027.282500", "102029.072500", "102027.680000", "102029.470000", "102027.880000", "102029.667500", "102028.077500", "102029.867500", "102028.277500", "102030.067500", "102027.480000", "102029.270000", "102026.685000", "102028.475000", "102026.885000", "102028.675000", "102027.082500", "102028.872500", "102027.282500", "102029.072500", "102027.680000", "102029.470000", "102027.880000", "102029.667500", "102028.077500", "102029.867500", "102028.277500", "102030.067500", "102027.480000", "102032.870000", "102030.285000", "102032.075000", "102030.485000", "102032.275000", "102030.682500", "102032.472500", "102030.882500", "102032.672500", "102031.280000", "102033.070000", "102031.480000", "102033.267500", "102031.677500", "102033.467500", "102031.877500", "102033.667500", "102031.080000", "102032.870000", "102030.285000", "102032.075000", "102030.485000", "102032.275000", "102030.682500", "102032.472500", "102030.882500", "102032.672500", "102031.280000", "102033.070000", "102031.480000", "102033.267500", "102031.677500", "102033.467500", "102031.877500", "102033.667500", "102031.080000", "102032.870000", "102030.285000", "102032.075000", "102030.485000", "102032.275000", "102030.682500", "102032.472500", "102030.882500", "102032.672500", "102031.280000", "102033.070000", "102031.480000", "102033.267500", "102031.677500", "102033.467500", "102031.877500", "102033.667500", "102031.080000", "102032.870000", "102030.285000", "102032.075000", "102030.485000", "102032.275000", "102030.682500", "102032.472500", "102030.882500", "102032.672500", "102031.280000", "102033.070000", "102031.480000", "102033