{
  "AcquisitionMatrixPE": 80,
  "AcquisitionNumber": 1,
  "AcquisitionTime": "10:09:45.160000",
  "BandwidthPerPixelPhaseEncode": 44.643,
  "BaseResolution": 80,
  "BodyPartExamined": "BRAIN",
  "CoilCombinationMethod": "Sum of Squares",
  "ConsistencyInfo": "N4_VE11C_LATEST_20160120",
  "ConversionSoftware": "dcm2niix",
  "ConversionSoftwareVersion": "v1.0.20220720",
  "DerivedVendorReportedEchoSpacing": 0.000559998,
  "DeviceSerialNumber": "66112",
  "DwellTime": 2.7e-06,
  "EchoTime": 0.035,
  "EchoTrainLength": 39,
  "EffectiveEchoSpacing": 0.000279999,
  "FlipAngle": 90,
  "HeudiconvVersion": "0.13.1",
  "ImageOrientationPatientDICOM": [0.980874, 0.194425, 0.00924536, -0.187644, 0.931905, 0.310391],
  "ImageOrientationText": "Tra>Cor(17.9)>Sag(-3.0)",
  "ImageType": [
    "ORIGINAL",
    "PRIMARY",
    "M",
    "ND",
    "NORM",
    "MOSAIC"
],
  "ImagingFrequency": 123.252,
  "InPlanePhaseEncodingDirectionDICOM": "COL",
  "InstitutionAddress": "Maynard 3,Hanover,NH,US,03755",
  "InstitutionName": "Dartmouth College - PBS",
  "InstitutionalDepartmentName": "Department",
  "MRAcquisitionType": "2D",
  "MagneticFieldStrength": 3,
  "Manufacturer": "Siemens",
  "ManufacturersModelName": "Prisma",
  "Modality": "MR",
  "MultibandAccelerationFactor": 4,
  "NonlinearGradientCorrection": false,
  "ParallelReductionFactorInPlane": 2,
  "PartialFourier": 1,
  "PatientPosition": "HFS",
  "PercentPhaseFOV": 100,
  "PercentSampling": 100,
  "PhaseEncodingDirection": "j-",
  "PhaseEncodingSteps": 79,
  "PhaseResolution": 1,
  "PixelBandwidth": 2315,
  "ProcedureStepDescription": "dbic^QA",
  "ProtocolName": "func-bold_task-rest_acq-p2-s4-3.5mm",
  "PulseSequenceDetails": "%SiemensSeq%\\ep2d_bold",
  "ReceiveCoilActiveElements": "HEA;HEP",
  "ReceiveCoilName": "Head_32",
  "ReconMatrixPE": 80,
  "RefLinesPE": 24,
  "RepetitionTime": 2,
  "SAR": 0.0209063,
  "ScanOptions": "FS",
  "ScanningSequence": "EP",
  "SequenceName": "*epfid2d1_80",
  "SequenceVariant": "SK",
  "SeriesDescription": "func-bold_task-rest_acq-p2-s4-3.5mm",
  "SeriesNumber": 7,
  "ShimSetting": [4146, -7705, -7511, 288, -83, -100, -7, 49],
  "SliceThickness": 3.5,
  "SliceTiming": [1.485, 0, 0.99, 0.2475, 1.2375, 0.7425, 1.7325, 0.495, 1.485, 0, 0.99, 0.2475, 1.2375, 0.7425, 1.7325, 0.495, 1.485, 0, 0.99, 0.2475, 1.2375, 0.7425, 1.7325, 0.495, 1.485, 0, 0.99, 0.2475, 1.2375, 0.7425, 1.7325, 0.495],
  "SoftwareVersions": "syngo MR E11",
  "SpacingBetweenSlices": 3.99,
  "StationName": "AWP66112",
  "TaskName": "rest",
  "TotalReadoutTime": 0.0221199,
  "TxRefAmp": 220.019,
  "dcmmeta_affine": [
    [-2.9426217079162598, -0.5629319548606873, -0.20641057193279266, 144.78688049316406],
    [-0.583274245262146, 2.795714855194092, 1.2216967344284058, -97.24578094482422],
    [0.027736080810427666, -0.9311742186546326, 3.7927498817443848, -21.226455688476562],
    [0.0, 0.0, 0.0, 1.0]
],
  "dcmmeta_reorient_transform": [
    [0.0, -1.0, 0.0, 79.0],
    [1.0, 0.0, 0.0, 0.0],
    [0.0, 0.0, 1.0, 0.0],
    [0.0, 0.0, 0.0, 1.0]
],
  "dcmmeta_shape": [80, 80, 32, 200],
  "dcmmeta_slice_dim": 2,
  "dcmmeta_version": 0.6,
  "global": {
    "const": {
      "AccessionNumber": "qa",
      "AcquisitionMatrix": [80, 0, 0, 80],
      "AngioFlag": "N",
      "BitsAllocated": 16,
      "BitsStored": 12,
      "BodyPartExamined": "BRAIN",
      "Columns": 480,
      "EchoNumbers": 1,
      "EchoTime": 35.0,
      "EchoTrainLength": 39,
      "FlipAngle": 90.0,
      "HighBit": 11,
      "ImageOrientationPatient": [0.98087386561332, 0.19442474911767, 0.00924536031329, -0.1876439782614, 0.93190499009568, 0.31039140912241],
      "ImagePositionPatient": [-576.25318679727, -799.41354226138, -286.57128191607],
      "ImageType": [
        "ORIGINAL",
        "PRIMARY",
        "M",
        "ND",
        "NORM",
        "MOSAIC"
],
      "ImagedNucleus": "1H",
      "ImagingFrequency": 123.252333,
      "InPlanePhaseEncodingDirection": "COL",
      "MRAcquisitionType": "2D",
      "MagneticFieldStrength": 3.0,
      "Manufacturer": "SIEMENS",
      "ManufacturerModelName": "Prisma",
      "Modality": "MR",
      "NumberOfAverages": 1.0,
      "NumberOfPhaseEncodingSteps": 79,
      "PercentPhaseFieldOfView": 100.0,
      "PercentSampling": 100.0,
      "PerformedProcedureStepStartTime": "095930.317000",
      "PhotometricInterpretation": "MONOCHROME2",
      "PixelBandwidth": 2315.0,
      "PixelRepresentation": 0,
      "PixelSpacing": [3.0, 3.0],
      "ProtocolName": "func-bold_task-rest_acq-p2-s4-3.5mm",
      "RepetitionTime": 2000.0,
      "Rows": 480,
      "SAR": 0.02090632402257,
      "SamplesPerPixel": 1,
      "ScanOptions": "FS",
      "ScanningSequence": "EP",
      "SequenceName": "*epfid2d1_80",
      "SequenceVariant": "SK",
      "SeriesDescription": "func-bold_task-rest_acq-p2-s4-3.5mm",
      "SeriesNumber": 7,
      "SeriesTime": "101030.719000",
      "SliceLocation": -57.442867028815,
      "SliceThickness": 3.5,
      "SmallestImagePixelValue": 0,
      "SoftwareVersions": "syngo MR E11",
      "SpacingBetweenSlices": 3.9899999345486,
      "SpecificCharacterSet": "ISO_IR 100",
      "StudyID": "3",
      "StudyTime": "095930.263000",
      "TransmitCoilName": "Body",
      "VariableFlipAngleFlag": "N",
      "WindowCenterWidthExplanation": "Algo1",
      "dBdt": 0.0},
    "slices": {}
  },
  "time": {
    "samples": {
      "AcquisitionNumber": [1, 2, 3, 4, 5, 6, 7, 8, 9, 10, 11, 12, 13, 14, 15, 16, 17, 18, 19, 20, 21, 22, 23, 24, 25, 26, 27, 28, 29, 30, 31, 32, 33, 34, 35, 36, 37, 38, 39, 40, 41, 42, 43, 44, 45, 46, 47, 48, 49, 50, 51, 52, 53, 54, 55, 56, 57, 58, 59, 60, 61, 62, 63, 64, 65, 66, 67, 68, 69, 70, 71, 72, 73, 74, 75, 76, 77, 78, 79, 80, 81, 82, 83, 84, 85, 86, 87, 88, 89, 90, 91, 92, 93, 94, 95, 96, 97, 98, 99, 100, 101, 102, 103, 104, 105, 106, 107, 108, 109, 110, 111, 112, 113, 114, 115, 116, 117, 118, 119, 120, 121, 122, 123, 124, 125, 126, 127, 128, 129, 130, 131, 132, 133, 134, 135, 136, 137, 138, 139, 140, 141, 142, 143, 144, 145, 146, 147, 148, 149, 150, 151, 152, 153, 154, 155, 156, 157, 158, 159, 160, 161, 162, 163, 164, 165, 166, 167, 168, 169, 170, 171, 172, 173, 174, 175, 176, 177, 178, 179, 180, 181, 182, 183, 184, 185, 186, 187, 188, 189, 190, 191, 192, 193, 194, 195, 196, 197, 198, 199, 200],
      "AcquisitionTime": ["100945.160000", "100947.160000", "100949.160000", "100951.160000", "100953.160000", "100955.160000", "100957.160000", "100959.160000", "101001.160000", "101003.160000", "101005.160000", "101007.160000", "101009.160000", "101011.160000", "101013.160000", "101015.160000", "101017.160000", "101019.160000", "101021.160000", "101023.160000", "101025.160000", "101027.160000", "101029.160000", "101031.160000", "101033.160000", "101035.160000", "101037.160000", "101039.160000", "101041.160000", "101043.160000", "101045.160000", "101047.160000", "101049.160000", "101051.160000", "101053.160000", "101055.160000", "101057.160000", "101059.160000", "101101.160000", "101103.160000", "101105.160000", "101107.160000", "101109.160000", "101111.160000", "101113.160000", "101115.160000", "101117.160000", "101119.160000", "101121.160000", "101123.160000", "101125.160000", "101127.160000", "101129.160000", "101131.160000", "101133.160000", "101135.160000", "101137.160000", "101139.160000", "101141.160000", "101143.160000", "101145.160000", "101147.160000", "101149.160000", "101151.160000", "101153.160000", "101155.160000", "101157.160000", "101159.160000", "101201.160000", "101203.160000", "101205.160000", "101207.160000", "101209.160000", "101211.160000", "101213.160000", "101215.160000", "101217.160000", "101219.160000", "101221.160000", "101223.160000", "101225.160000", "101227.160000", "101229.160000", "101231.160000", "101233.160000", "101235.160000", "101237.160000", "101239.160000", "101241.160000", "101243.160000", "101245.160000", "101247.160000", "101249.160000", "101251.160000", "101253.160000", "101255.160000", "101257.160000", "101259.160000", "101301.160000", "101303.160000", "101305.160000", "101307.160000", "101309.160000", "101311.160000", "101313.160000", "101315.160000", "101317.160000", "101319.160000", "101321.160000", "101323.160000", "101325.160000", "101327.160000", "101329.160000", "101331.160000", "101333.160000", "101335.160000", "101337.160000", "101339.160000", "101341.160000", "101343.160000", "101345.160000", "101347.160000", "101349.160000", "101351.160000", "101353.160000", "101355.160000", "101357.160000", "101359.160000", "101401.160000", "101403.160000", "101405.160000", "101407.160000", "101409.160000", "101411.160000", "101413.160000", "101415.160000", "101417.160000", "101419.160000", "101421.160000", "101423.160000", "101425.160000", "101427.160000", "101429.160000", "101431.160000", "101433.160000", "101435.160000", "101437.160000", "101439.160000", "101441.160000", "101443.160000", "101445.160000", "101447.160000", "101449.160000", "101451.160000", "101453.160000", "101455.160000", "101457.160000", "101459.160000", "101501.160000", "101503.160000", "101505.160000", "101507.160000", "101509.160000", "101511.160000", "101513.160000", "101515.160000", "101517.160000", "101519.160000", "101521.160000", "101523.160000", "101525.160000", "101527.160000", "101529.160000", "101531.160000", "101533.160000", "101535.160000", "101537.160000", "101539.160000", "101541.160000", "101543.160000", "101545.160000", "101547.160000", "101549.160000", "101551.160000", "101553.160000", "101555.160000", "101557.160000", "101559.160000", "101601.160000", "101603.160000", "101605.160000", "101607.160000", "101609.160000", "101611.160000", "101613.160000", "101615.160000", "101617.160000", "101619.160000", "101621.160000", "101623.160000"],
      "ContentTime": ["101030.723000", "101030.726000", "101030.729000", "101030.731000", "101030.734000", "101030.737000", "101030.739000", "101030.748000", "101030.751000", "101030.754000", "101030.756000", "101030.762000", "101030.764000", "101030.767000", "101030.769000", "101030.772000", "101030.775000", "101030.777000", "101030.780000", "101030.782000", "101030.785000", "101030.788000", "101030.791000", "101110.707000", "101110.710000", "101110.713000", "101110.715000", "101110.718000", "101110.721000", "101110.723000", "101110.726000", "101110.729000", "101110.731000", "101110.734000", "101110.736000", "101110.739000", "101110.741000", "101110.744000", "101110.746000", "101110.749000", "101110.751000", "101110.762000", "101110.764000", "101150.708000", "101150.710000", "101150.713000", "101150.715000", "101150.718000", "101150.721000", "101150.723000", "101150.726000", "101150.735000", "101150.738000", "101150.740000", "101150.743000", "101150.753000", "101150.755000", "101150.758000", "101150.760000", "101150.763000", "101150.765000", "101150.768000", "101150.770000", "101230.707000", "101230.710000", "101230.713000", "101230.715000", "101230.718000", "101230.721000", "101230.723000", "101230.726000", "101230.728000", "101230.731000", "101230.733000", "101230.736000", "101230.738000", "101230.741000", "101230.743000", "101230.746000", "101230.748000", "101230.751000", "101230.753000", "101230.756000", "101310.708000", "101310.710000", "101310.713000", "101310.716000", "101310.718000", "101310.721000", "101310.723000", "101310.726000", "101310.728000", "101310.731000", "101310.733000", "101310.736000", "101310.738000", "101310.741000", "101310.744000", "101310.746000", "101310.749000", "101310.751000", "101310.754000", "101310.756000", "101350.708000", "101350.710000", "101350.713000", "101350.716000", "101350.718000", "101350.721000", "101350.723000", "101350.726000", "101350.728000", "101350.731000", "101350.733000", "101350.736000", "101350.738000", "101350.741000", "101350.743000", "101350.746000", "101350.748000", "101350.751000", "101350.753000", "101350.756000", "101430.707000", "101430.710000", "101430.713000", "101430.716000", "101430.718000", "101430.721000", "101430.723000", "101430.726000", "101430.728000", "101430.731000", "101430.733000", "101430.736000", "101430.738000", "101430.741000", "101430.743000", "101430.746000", "101430.748000", "101430.751000", "101430.753000", "101430.756000", "101510.708000", "101510.711000", "101510.713000", "101510.716000", "101510.718000", "101510.721000", "101510.723000", "101510.726000", "101510.728000", "101510.731000", "101510.733000", "101510.736000", "101510.739000", "101510.741000", "101510.744000", "101510.746000", "101510.749000", "101510.751000", "101510.754000", "101510.756000", "101550.708000", "101550.710000", "101550.713000", "101550.715000", "101550.718000", "101550.721000", "101550.723000", "101550.726000", "101550.728000", "101550.731000", "101550.733000", "101550.736000", "101550.738000", "101550.741000", "101550.743000", "101550.746000", "101550.748000", "101550.751000", "101550.753000", "101550.756000", "101623.764000", "101623.767000", "101623.770000", "101623.772000", "101623.775000", "101623.778000", "101623.780000", "101623.783000", "101623.785000", "101623.788000", "101623.791000", "101623.793000", "101623.797000", "101623.802000", "101623.805000", "101623.808000", "101623.811000"],
      "InstanceCreationTime": ["101030.723000", "101030.726000", "101030.729000", "101030.731000", "101030.734000", "101030.737000", "101030.739000", "101030.748000", "101030.751000", "101030.754000", "101030.756000", "101030.762000", "101030.764000", "101030.767000", "101030.769000", "101030.772000", "101030.775000", "101030.777000", "101030.780000", "101030.782000", "101030.785000", "101030.788000", "101030.791000", "101110.707000", "101110.710000", "101110.713000", "101110.715000", "101110.718000", "101110.721000", "101110.723000", "101110.726000", "101110.729000", "101110.731000", "101110.734000", "101110.736000", "101110.739000", "101110.741000", "101110.744000", "101110.746000", "101110.749000", "101110.751000", "101110.762000", "101110.764000", "101150.708000", "101150.710000", "101150.713000", "101150.715000", "101150.718000", "101150.721000", "101150.723000", "101150.726000", "101150.735000", "101150.738000", "101150.740000", "101150.743000", "101150.753000", "101150.755000", "101150.758000", "101150.760000", "101150.763000", "101150.765000", "101150.768000", "101150.770000", "101230.707000", "101230.710000", "101230.713000", "101230.715000", "101230.718000", "101230.721000", "101230.723000", "101230.726000", "101230.728000", "101230.731000", "101230.733000", "101230.736000", "101230.738000", "101230.741000", "101230.743000", "101230.746000", "101230.748000", "101230.751000", "101230.753000", "101230.756000", "101310.708000", "101310.710000", "101310.713000", "101310.716000", "101310.718000", "101310.721000", "101310.723000", "101310.726000", "101310.728000", "101310.731000", "101310.733000", "101310.736000", "101310.738000", "101310.741000", "101310.744000", "101310.746000", "101310.749000", "101310.751000", "101310.754000", "101310.756000", "101350.708000", "101350.710000", "101350.713000", "101350.716000", "101350.718000", "101350.721000", "101350.723000", "101350.726000", "101350.728000", "101350.731000", "101350.733000", "101350.736000", "101350.738000", "101350.741000", "101350.743000", "101350.746000", "101350.748000", "101350.751000", "101350.753000", "101350.756000", "101430.707000", "101430.710000", "101430.713000", "101430.716000", "101430.718000", "101430.721000", "101430.723000", "101430.726000", "101430.728000", "101430.731000", "101430.733000", "101430.736000", "101430.738000", "101430.741000", "101430.743000", "101430.746000", "101430.748000", "101430.751000", "101430.753000", "101430.756000", "101510.708000", "101510.711000", "101510.713000", "101510.716000", "101510.718000", "101510.721000", "101510.723000", "101510.726000", "101510.728000", "101510.731000", "101510.733000", "101510.736000", "101510.739000", "101510.741000", "101510.744000", "101510.746000", "101510.749000", "101510.751000", "101510.754000", "101510.756000", "101550.708000", "101550.710000", "101550.713000", "101550.715000", "101550.718000", "101550.721000", "101550.723000", "101550.726000", "101550.728000", "101550.731000", "101550.733000", "101550.736000", "101550.738000", "101550.741000", "101550.743000", "101550.746000", "101550.748000", "101550.751000", "101550.753000", "101550.756000", "101623.764000", "101623.767000", "101623.770000", "101623.772000", "101623.775000", "101623.778000", "101623.780000", "101623.783000", "101623.785000", "101623.788000", "101623.791000", "101623.793000", "101623.797000", "101623.802000", "101623.805000", "101623.808000", "101623.811000"],
      "InstanceNumber": [1, 2, 3, 4, 5, 6, 7, 8, 9, 10, 11, 12, 13, 14, 15, 16, 17, 18, 19, 20, 21, 22, 23, 24, 25, 26, 27, 28, 29, 30, 31, 32, 33, 34, 35, 36, 37, 38, 39, 40, 41, 42, 43, 44, 45, 46, 47, 48, 49, 50, 51, 52, 53, 54, 55, 56, 57, 58, 59, 60, 61, 62, 63, 64, 65, 66, 67, 68, 69, 70, 71, 72, 73, 74, 75, 76, 77, 78, 79, 80, 81, 82, 83, 84, 85, 86, 87, 88, 89, 90, 91, 92, 93, 94, 95, 96, 97, 98, 99, 100, 101, 102, 103, 104, 105, 106, 107, 108, 109, 110, 111, 112, 113, 114, 115, 116, 117, 118, 119, 120, 121, 122, 123, 124, 125, 126, 127, 128, 129, 130, 131, 132, 133, 134, 135, 136, 137, 138, 139, 140, 141, 142, 143, 144, 145, 146, 147, 148, 149, 150, 151, 152, 153, 154, 155, 156, 157, 158, 159, 160, 161, 162, 163, 164, 165, 166, 167, 168, 169, 170, 171, 172, 173, 174, 175, 176, 177, 178, 179, 180, 181, 182, 183, 184, 185, 186, 187, 188, 189, 190, 191, 192, 193, 194, 195, 196, 197, 198, 199, 200],
      "LargestImagePixelValue": [1931, 1936, 1937, 1937, 1930, 1932, 1934, 1934, 1941, 1937, 1931, 1934, 1933, 1934, 1939, 1933, 1934, 1937, 1933, 1942, 1935, 1935, 1930, 1939, 1933, 1937, 1938, 1933, 1937, 1937, 1937, 1941, 1938, 1938, 1935, 1936, 1944, 1940, 1945, 1937, 1939, 1937, 1940, 1936, 1931, 1934, 1939, 1943, 1933, 1938, 1936, 1936, 1935, 1938, 1936, 1940, 1943, 1940, 1936, 1936, 1936, 1931, 1935, 1941, 1937, 1940, 1935, 1940, 1943, 1944, 1941, 1939, 1942, 1937, 1934, 1935, 1935, 1937, 1934, 1941, 1939, 1928, 1942, 1940, 1939, 1939, 1943, 1942, 1941, 1939, 1934, 1939, 1942, 1940, 1941, 1936, 1937, 1939, 1942, 1937, 1944, 1937, 1934, 1939, 1943, 1939, 1939, 1941, 1943, 1939, 1941, 1942, 1939, 1945, 1945, 1936, 1935, 1939, 1935, 1945, 1941, 1944, 1946, 1937, 1938, 1933, 1936, 1938, 1936, 1942, 1943, 1944, 1938, 1936, 1943, 1937, 1935, 1942, 1944, 1945, 1939, 1939, 1942, 1947, 1941, 1944, 1943, 1946, 1935, 1938, 1944, 1938, 1940, 1946, 1936, 1944, 1937, 1938, 1941, 1948, 1933, 1942, 1941, 1938, 1943, 1938, 1939, 1942, 1939, 1947, 1945, 1941, 1944, 1943, 1944, 1940, 1943, 1938, 1944, 1946, 1948, 1948, 1939, 1942, 1941, 1946, 1936, 1940, 1936, 1942, 1942, 1943, 1946, 1943, 1947, 1939, 1944, 1940, 1945, 1943],
      "WindowCenter": [910.0, 910.0, 910.0, 910.0, 910.0, 910.0, 910.0, 910.0, 910.0, 910.0, 910.0, 910.0, 910.0, 910.0, 910.0, 910.0, 910.0, 910.0, 910.0, 910.0, 910.0, 910.0, 910.0, 910.0, 910.0, 910.0, 910.0, 910.0, 910.0, 910.0, 910.0, 910.0, 910.0, 910.0, 910.0, 910.0, 910.0, 910.0, 910.0, 910.0, 910.0, 910.0, 910.0, 910.0, 910.0, 910.0, 910.0, 910.0, 910.0, 910.0, 910.0, 910.0, 910.0, 910.0, 910.0, 910.0, 910.0, 910.0, 910.0, 910.0, 910.0, 910.0, 910.0, 910.0, 910.0, 910.0, 910.0, 910.0, 910.0, 910.0, 910.0, 910.0, 910.0, 910.0, 911.0, 911.0, 911.0, 910.0, 911.0, 911.0, 911.0, 911.0, 911.0, 911.0, 910.0, 911.0, 911.0, 911.0, 910.0, 910.0, 910.0, 910.0, 910.0, 910.0, 910.0, 910.0, 910.0, 910.0, 910.0, 911.0, 910.0, 910.0, 910.0, 910.0, 911.0, 910.0, 910.0, 910.0, 910.0, 910.0, 911.0, 910.0, 910.0, 911.0, 910.0, 910.0, 910.0, 910.0, 911.0, 910.0, 910.0, 911.0, 910.0, 911.0, 911.0, 911.0, 911.0, 911.0, 911.0, 911.0, 911.0, 911.0, 911.0, 910.0, 911.0, 911.0, 911.0, 911.0, 910.0, 911.0, 910.0, 911.0, 911.0, 911.0, 911.0, 911.0, 911.0, 911.0, 910.0, 911.0, 911.0, 911.0, 911.0, 911.0, 911.0, 910.0, 911.0, 911.0, 911.0, 911.0, 911.0, 911.0, 911.0, 911.0, 911.0, 911.0, 910.0, 911.0, 911.0, 910.0, 911.0, 911.0, 911.0, 911.0, 911.0, 911.0, 911.0, 910.0, 911.0, 911.0, 911.0, 911.0, 911.0, 911.0, 911.0, 911.0, 911.0, 911.0, 911.0, 911.0, 911.0, 911.0, 911.0, 911.0, 911.0, 911.0, 911.0, 911.0, 911.0, 911.0],
      "WindowWidth": [2063.0, 2063.0, 2063.0, 2064.0, 2063.0, 2063.0, 2063.0, 2063.0, 2063.0, 2063.0, 2063.0, 2063.0, 2064.0, 2064.0, 2064.0, 2063.0, 2064.0, 2063.0, 2063.0, 2064.0, 2064.0, 2063.0, 2064.0, 2064.0, 2064.0, 2064.0, 2064.0, 2064.0, 2064.0, 2064.0, 2064.0, 2064.0, 2064.0, 2064.0, 2064.0, 2064.0, 2064.0, 2064.0, 2064.0, 2064.0, 2064.0, 2064.0, 2064.0, 2064.0, 2064.0, 2064.0, 2064.0, 2064.0, 2064.0, 2064.0, 2064.0, 2064.0, 2064.0, 2064.0, 2064.0, 2064.0, 2064.0, 2064.0, 2064.0, 2064.0, 2064.0, 2064.0, 2064.0, 2064.0, 2064.0, 2064.0, 2064.0, 2064.0, 2064.0, 2064.0, 2064.0, 2064.0, 2064.0, 2065.0, 2065.0, 2065.0, 2065.0, 2065.0, 2065.0, 2065.0, 2065.0, 2064.0, 2065.0, 2065.0, 2064.0, 2065.0, 2065.0, 2065.0, 2064.0, 2064.0, 2064.0, 2064.0, 2064.0, 2064.0, 2065.0, 2064.0, 2064.0, 2064.0, 2064.0, 2065.0, 2064.0, 2065.0, 2064.0, 2065.0, 2064.0, 2065.0, 2064.0, 2065.0, 2064.0, 2065.0, 2064.0, 2065.0, 2065.0, 2065.0, 2064.0, 2065.0, 2064.0, 2065.0, 2065.0, 2065.0, 2065.0, 2065.0, 2065.0, 2065.0, 2065.0, 2065.0, 2065.0, 2065.0, 2065.0, 2065.0, 2065.0, 2065.0, 2065.0, 2065.0, 2065.0, 2065.0, 2065.0, 2065.0, 2064.0, 2065.0, 2065.0, 2065.0, 2064.0, 2065.0, 2065.0, 2065.0, 2065.0, 2065.0, 2065.0, 2064.0, 2065.0, 2065.0, 2065.0, 2065.0, 2065.0, 2065.0, 2064.0, 2065.0, 2064.0, 2065.0, 2065.0, 2065.0, 2064.0, 2065.0, 2064.0, 2065.0, 2064.0, 2065.0, 2065.0, 2065.0, 2065.0, 2065.0, 2065.0, 2065.0, 2065.0, 2065.0, 2065.0, 2064.0, 2065.0, 2065.0, 2065.0, 2065.0, 2065.0, 2065.0, 2065.0, 2065.0, 2065.0, 2065.0, 2065.0, 2066.0, 2065.0, 2065.0, 2065.0, 2065.0, 2065.0, 2065.0, 2065.0, 2065.0, 2065.0, 2065.0]
    },
    "slices": {}
  }
}