{
  "AcquisitionMatrixPE": 80,
  "AcquisitionNumber": 1,
  "AcquisitionTime": "10:23:21.487500",
  "BandwidthPerPixelPhaseEncode": 25,
  "BaseResolution": 80,
  "BodyPartExamined": "BRAIN",
  "CoilCombinationMethod": "Sum of Squares",
  "ConsistencyInfo": "N4_VE11C_LATEST_20160120",
  "ConversionSoftware": "dcm2niix",
  "ConversionSoftwareVersion": "v1.0.20220720",
  "DerivedVendorReportedEchoSpacing": 0.0005,
  "DeviceSerialNumber": "66112",
  "DwellTime": 2.7e-06,
  "EchoTime": 0.03,
  "EchoTrainLength": 80,
  "EffectiveEchoSpacing": 0.0005,
  "FlipAngle": 10,
  "HeudiconvVersion": "0.13.1",
  "ImageOrientationPatientDICOM": [0.980874, 0.194425, 0.00924536, -0.187644, 0.931905, 0.310391],
  "ImageOrientationText": "Tra>Cor(17.9)>Sag(-3.0)",
  "ImageType": [
    "ORIGINAL",
    "PRIMARY",
    "M",
    "ND",
    "NORM",
    "MOSAIC"
],
  "ImagingFrequency": 123.252,
  "InPlanePhaseEncodingDirectionDICOM": "COL",
  "InstitutionAddress": "Maynard 3,Hanover,NH,US,03755",
  "InstitutionName": "Dartmouth College - PBS",
  "InstitutionalDepartmentName": "Department",
  "MRAcquisitionType": "2D",
  "MagneticFieldStrength": 3,
  "Manufacturer": "Siemens",
  "ManufacturersModelName": "Prisma",
  "MatrixCoilMode": "SENSE",
  "Modality": "MR",
  "NonlinearGradientCorrection": false,
  "PartialFourier": 1,
  "PatientPosition": "HFS",
  "PercentPhaseFOV": 100,
  "PercentSampling": 100,
  "PhaseEncodingDirection": "j-",
  "PhaseEncodingSteps": 80,
  "PhaseResolution": 1,
  "PixelBandwidth": 2315,
  "ProcedureStepDescription": "dbic^QA",
  "ProtocolName": "func-bold_fa-10",
  "PulseSequenceDetails": "%SiemensSeq%\\ep2d_bold",
  "ReceiveCoilActiveElements": "HEA;HEP",
  "ReceiveCoilName": "Head_32",
  "ReconMatrixPE": 80,
  "RepetitionTime": 2,
  "SAR": 0.0117202,
  "ScanOptions": "FS",
  "ScanningSequence": "EP",
  "SequenceName": "*epfid2d1_80",
  "SequenceVariant": "SK",
  "SeriesDescription": "func-bold_fa-10",
  "SeriesNumber": 10,
  "ShimSetting": [4146, -7703, -7511, 282, -84, -89, -3, 49],
  "SliceThickness": 3.5,
  "SliceTiming": [0.99, 0, 1.055, 0.0675, 1.1225, 0.1325, 1.1875, 0.1975, 1.255, 0.265, 1.32, 0.33, 1.385, 0.395, 1.4525, 0.4625, 1.5175, 0.5275, 1.585, 0.595, 1.65, 0.66, 1.715, 0.725, 1.7825, 0.7925, 1.8475, 0.8575, 1.915, 0.925],
  "SoftwareVersions": "syngo MR E11",
  "SpacingBetweenSlices": 3.99,
  "StationName": "AWP66112",
  "TotalReadoutTime": 0.0395,
  "TxRefAmp": 220.019,
  "dcmmeta_affine": [
    [-2.9426217079162598, -0.5629319548606873, -0.20641057193279266, 143.7357940673828],
    [-0.583274245262146, 2.795714855194092, 1.2216967344284058, -91.48280334472656],
    [0.027736080810427666, -0.9311742186546326, 3.7927498817443848, -11.536820411682129],
    [0.0, 0.0, 0.0, 1.0]
],
  "dcmmeta_reorient_transform": [
    [0.0, -1.0, 0.0, 79.0],
    [1.0, 0.0, 0.0, 0.0],
    [0.0, 0.0, 1.0, 0.0],
    [0.0, 0.0, 0.0, 1.0]
],
  "dcmmeta_shape": [80, 80, 30, 200],
  "dcmmeta_slice_dim": 2,
  "dcmmeta_version": 0.6,
  "global": {
    "const": {
      "AccessionNumber": "qa",
      "AcquisitionMatrix": [80, 0, 0, 80],
      "AngioFlag": "N",
      "BitsAllocated": 16,
      "BitsStored": 12,
      "BodyPartExamined": "BRAIN",
      "Columns": 480,
      "EchoNumbers": 1,
      "EchoTime": 30.0,
      "EchoTrainLength": 80,
      "FlipAngle": 10.0,
      "HighBit": 11,
      "ImageOrientationPatient": [0.98087386561332, 0.19442474911767, 0.00924536031329, -0.1876439782614, 0.93190499009568, 0.31039140912241],
      "ImagePositionPatient": [-575.20211038507, -805.17652081515, -276.8816456856],
      "ImageType": [
        "ORIGINAL",
        "PRIMARY",
        "M",
        "ND",
        "NORM",
        "MOSAIC"
],
      "ImagedNucleus": "1H",
      "ImagingFrequency": 123.252336,
      "InPlanePhaseEncodingDirection": "COL",
      "MRAcquisitionType": "2D",
      "MagneticFieldStrength": 3.0,
      "Manufacturer": "SIEMENS",
      "ManufacturerModelName": "Prisma",
      "Modality": "MR",
      "NumberOfAverages": 1.0,
      "NumberOfPhaseEncodingSteps": 80,
      "PercentPhaseFieldOfView": 100.0,
      "PercentSampling": 100.0,
      "PerformedProcedureStepStartTime": "095930.317000",
      "PhotometricInterpretation": "MONOCHROME2",
      "PixelBandwidth": 2315.0,
      "PixelRepresentation": 0,
      "PixelSpacing": [3.0, 3.0],
      "ProtocolName": "func-bold_fa-10",
      "RepetitionTime": 2000.0,
      "Rows": 480,
      "SAR": 0.01172017379574,
      "SamplesPerPixel": 1,
      "ScanOptions": "FS",
      "ScanningSequence": "EP",
      "SequenceName": "*epfid2d1_80",
      "SequenceVariant": "SK",
      "SeriesDescription": "func-bold_fa-10",
      "SeriesNumber": 10,
      "SeriesTime": "102410.848000",
      "SliceLocation": -46.413310096993,
      "SliceThickness": 3.5,
      "SmallestImagePixelValue": 0,
      "SoftwareVersions": "syngo MR E11",
      "SpacingBetweenSlices": 3.9899999694395,
      "SpecificCharacterSet": "ISO_IR 100",
      "StudyID": "3",
      "StudyTime": "095930.263000",
      "TransmitCoilName": "Body",
      "VariableFlipAngleFlag": "N",
      "WindowCenterWidthExplanation": "Algo1",
      "dBdt": 0.0},
    "slices": {}
  },
  "time": {
    "samples": {
      "AcquisitionNumber": [1, 2, 3, 4, 5, 6, 7, 8, 9, 10, 11, 12, 13, 14, 15, 16, 17, 18, 19, 20, 21, 22, 23, 24, 25, 26, 27, 28, 29, 30, 31, 32, 33, 34, 35, 36, 37, 38, 39, 40, 41, 42, 43, 44, 45, 46, 47, 48, 49, 50, 51, 52, 53, 54, 55, 56, 57, 58, 59, 60, 61, 62, 63, 64, 65, 66, 67, 68, 69, 70, 71, 72, 73, 74, 75, 76, 77, 78, 79, 80, 81, 82, 83, 84, 85, 86, 87, 88, 89, 90, 91, 92, 93, 94, 95, 96, 97, 98, 99, 100, 101, 102, 103, 104, 105, 106, 107, 108, 109, 110, 111, 112, 113, 114, 115, 116, 117, 118, 119, 120, 121, 122, 123, 124, 125, 126, 127, 128, 129, 130, 131, 132, 133, 134, 135, 136, 137, 138, 139, 140, 141, 142, 143, 144, 145, 146, 147, 148, 149, 150, 151, 152, 153, 154, 155, 156, 157, 158, 159, 160, 161, 162, 163, 164, 165, 166, 167, 168, 169, 170, 171, 172, 173, 174, 175, 176, 177, 178, 179, 180, 181, 182, 183, 184, 185, 186, 187, 188, 189, 190, 191, 192, 193, 194, 195, 196, 197, 198, 199, 200],
      "AcquisitionTime": ["102321.487500", "102323.487500", "102325.487500", "102327.487500", "102329.487500", "102331.487500", "102333.487500", "102335.487500", "102337.487500", "102339.487500", "102341.487500", "102343.487500", "102345.487500", "102347.487500", "102349.487500", "102351.487500", "102353.487500", "102355.487500", "102357.487500", "102359.487500", "102401.487500", "102403.487500", "102405.487500", "102407.487500", "102409.487500", "102411.487500", "102413.487500", "102415.487500", "102417.487500", "102419.487500", "102421.487500", "102423.487500", "102425.487500", "102427.487500", "102429.487500", "102431.487500", "102433.487500", "102435.487500", "102437.487500", "102439.487500", "102441.487500", "102443.487500", "102445.487500", "102447.487500", "102449.487500", "102451.487500", "102453.487500", "102455.487500", "102457.487500", "102459.487500", "102501.487500", "102503.487500", "102505.487500", "102507.487500", "102509.487500", "102511.487500", "102513.487500", "102515.487500", "102517.487500", "102519.487500", "102521.487500", "102523.487500", "102525.487500", "102527.487500", "102529.487500", "102531.487500", "102533.487500", "102535.487500", "102537.487500", "102539.487500", "102541.487500", "102543.487500", "102545.487500", "102547.487500", "102549.487500", "102551.487500", "102553.487500", "102555.487500", "102557.487500", "102559.487500", "102601.487500", "102603.487500", "102605.487500", "102607.487500", "102609.487500", "102611.487500", "102613.487500", "102615.487500", "102617.487500", "102619.487500", "102621.487500", "102623.487500", "102625.487500", "102627.487500", "102629.487500", "102631.487500", "102633.487500", "102635.487500", "102637.487500", "102639.487500", "102641.487500", "102643.487500", "102645.487500", "102647.487500", "102649.487500", "102651.487500", "102653.487500", "102655.487500", "102657.487500", "102659.487500", "102701.487500", "102703.487500", "102705.487500", "102707.487500", "102709.487500", "102711.487500", "102713.487500", "102715.487500", "102717.487500", "102719.487500", "102721.487500", "102723.487500", "102725.487500", "102727.487500", "102729.487500", "102731.487500", "102733.487500", "102735.487500", "102737.487500", "102739.487500", "102741.487500", "102743.487500", "102745.487500", "102747.487500", "102749.487500", "102751.487500", "102753.487500", "102755.487500", "102757.487500", "102759.487500", "102801.487500", "102803.487500", "102805.487500", "102807.487500", "102809.487500", "102811.487500", "102813.487500", "102815.487500", "102817.487500", "102819.487500", "102821.487500", "102823.487500", "102825.487500", "102827.487500", "102829.487500", "102831.487500", "102833.487500", "102835.487500", "102837.487500", "102839.487500", "102841.487500", "102843.487500", "102845.487500", "102847.487500", "102849.487500", "102851.487500", "102853.487500", "102855.487500", "102857.487500", "102859.487500", "102901.487500", "102903.487500", "102905.487500", "102907.487500", "102909.487500", "102911.487500", "102913.487500", "102915.487500", "102917.487500", "102919.487500", "102921.487500", "102923.487500", "102925.487500", "102927.487500", "102929.487500", "102931.487500", "102933.487500", "102935.487500", "102937.487500", "102939.487500", "102941.487500", "102943.487500", "102945.487500", "102947.487500", "102949.487500", "102951.487500", "102953.487500", "102955.487500", "102957.487500", "102959.487500"],
      "ContentTime": ["102410.851000", "102410.854000", "102410.857000", "102410.860000", "102410.862000", "102410.865000", "102410.867000", "102410.870000", "102410.872000", "102410.875000", "102410.877000", "102410.882000", "102410.885000", "102410.887000", "102410.890000", "102410.892000", "102410.895000", "102410.897000", "102410.900000", "102410.902000", "102410.905000", "102410.907000", "102410.910000", "102410.912000", "102410.915000", "102450.846000", "102450.849000", "102450.852000", "102450.854000", "102450.857000", "102450.859000", "102450.862000", "102450.864000", "102450.867000", "102450.869000", "102450.871000", "102450.874000", "102450.882000", "102450.885000", "102450.887000", "102450.890000", "102450.892000", "102450.895000", "102450.897000", "102450.900000", "102530.846000", "102530.853000", "102530.855000", "102530.858000", "102530.860000", "102530.863000", "102530.865000", "102530.868000", "102530.870000", "102530.873000", "102530.875000", "102530.878000", "102530.880000", "102530.883000", "102530.885000", "102530.888000", "102530.890000", "102530.893000", "102530.895000", "102530.898000", "102610.846000", "102610.849000", "102610.852000", "102610.854000", "102610.857000", "102610.863000", "102610.866000", "102610.868000", "102610.871000", "102610.874000", "102610.876000", "102610.879000", "102610.881000", "102610.884000", "102610.886000", "102610.888000", "102610.891000", "102610.893000", "102610.896000", "102610.898000", "102650.846000", "102650.849000", "102650.852000", "102650.854000", "102650.857000", "102650.859000", "102650.862000", "102650.864000", "102650.867000", "102650.869000", "102650.872000", "102650.874000", "102650.877000", "102650.879000", "102650.882000", "102650.884000", "102650.887000", "102650.889000", "102650.892000", "102650.894000", "102730.846000", "102730.849000", "102730.852000", "102730.854000", "102730.857000", "102730.859000", "102730.862000", "102730.864000", "102730.867000", "102730.869000", "102730.872000", "102730.874000", "102730.877000", "102730.879000", "102730.882000", "102730.884000", "102730.887000", "102730.889000", "102730.892000", "102730.894000", "102810.847000", "102810.849000", "102810.852000", "102810.854000", "102810.857000", "102810.859000", "102810.862000", "102810.864000", "102810.867000", "102810.869000", "102810.872000", "102810.874000", "102810.877000", "102810.879000", "102810.882000", "102810.884000", "102810.887000", "102810.889000", "102810.892000", "102810.894000", "102850.846000", "102850.849000", "102850.852000", "102850.854000", "102850.857000", "102850.859000", "102850.862000", "102850.864000", "102850.867000", "102850.869000", "102850.872000", "102850.874000", "102850.877000", "102850.879000", "102850.882000", "102850.884000", "102850.887000", "102850.889000", "102850.892000", "102850.894000", "102930.846000", "102930.849000", "102930.852000", "102930.854000", "102930.857000", "102930.859000", "102930.862000", "102930.864000", "102930.867000", "102930.869000", "102930.872000", "102930.874000", "102930.877000", "102930.879000", "102930.882000", "102930.884000", "102930.887000", "102930.889000", "102930.892000", "102930.894000", "103000.692000", "103000.695000", "103000.697000", "103000.700000", "103000.702000", "103000.705000", "103000.707000", "103000.710000", "103000.712000", "103000.715000", "103000.718000", "103000.720000", "103000.723000", "103000.732000", "103000.736000"],
      "InstanceCreationTime": ["102410.851000", "102410.854000", "102410.857000", "102410.860000", "102410.862000", "102410.865000", "102410.867000", "102410.870000", "102410.872000", "102410.875000", "102410.877000", "102410.882000", "102410.885000", "102410.887000", "102410.890000", "102410.892000", "102410.895000", "102410.897000", "102410.900000", "102410.902000", "102410.905000", "102410.907000", "102410.910000", "102410.912000", "102410.915000", "102450.846000", "102450.849000", "102450.852000", "102450.854000", "102450.857000", "102450.859000", "102450.862000", "102450.864000", "102450.867000", "102450.869000", "102450.871000", "102450.874000", "102450.882000", "102450.885000", "102450.887000", "102450.890000", "102450.892000", "102450.895000", "102450.897000", "102450.900000", "102530.846000", "102530.853000", "102530.855000", "102530.858000", "102530.860000", "102530.863000", "102530.865000", "102530.868000", "102530.870000", "102530.873000", "102530.875000", "102530.878000", "102530.880000", "102530.883000", "102530.885000", "102530.888000", "102530.890000", "102530.893000", "102530.895000", "102530.898000", "102610.846000", "102610.849000", "102610.852000", "102610.854000", "102610.857000", "102610.863000", "102610.866000", "102610.868000", "102610.871000", "102610.874000", "102610.876000", "102610.879000", "102610.881000", "102610.884000", "102610.886000", "102610.888000", "102610.891000", "102610.893000", "102610.896000", "102610.898000", "102650.846000", "102650.849000", "102650.852000", "102650.854000", "102650.857000", "102650.859000", "102650.862000", "102650.864000", "102650.867000", "102650.869000", "102650.872000", "102650.874000", "102650.877000", "102650.879000", "102650.882000", "102650.884000", "102650.887000", "102650.889000", "102650.892000", "102650.894000", "102730.846000", "102730.849000", "102730.852000", "102730.854000", "102730.857000", "102730.859000", "102730.862000", "102730.864000", "102730.867000", "102730.869000", "102730.872000", "102730.874000", "102730.877000", "102730.879000", "102730.882000", "102730.884000", "102730.887000", "102730.889000", "102730.892000", "102730.894000", "102810.847000", "102810.849000", "102810.852000", "102810.854000", "102810.857000", "102810.859000", "102810.862000", "102810.864000", "102810.867000", "102810.869000", "102810.872000", "102810.874000", "102810.877000", "102810.879000", "102810.882000", "102810.884000", "102810.887000", "102810.889000", "102810.892000", "102810.894000", "102850.846000", "102850.849000", "102850.852000", "102850.854000", "102850.857000", "102850.859000", "102850.862000", "102850.864000", "102850.867000", "102850.869000", "102850.872000", "102850.874000", "102850.877000", "102850.879000", "102850.882000", "102850.884000", "102850.887000", "102850.889000", "102850.892000", "102850.894000", "102930.846000", "102930.849000", "102930.852000", "102930.854000", "102930.857000", "102930.859000", "102930.862000", "102930.864000", "102930.867000", "102930.869000", "102930.872000", "102930.874000", "102930.877000", "102930.879000", "102930.882000", "102930.884000", "102930.887000", "102930.889000", "102930.892000", "102930.894000", "103000.692000", "103000.695000", "103000.697000", "103000.700000", "103000.702000", "103000.705000", "103000.707000", "103000.710000", "103000.712000", "103000.715000", "103000.718000", "103000.720000", "103000.723000", "103000.732000", "103000.736000"],
      "InstanceNumber": [1, 2, 3, 4, 5, 6, 7, 8, 9, 10, 11, 12, 13, 14, 15, 16, 17, 18, 19, 20, 21, 22, 23, 24, 25, 26, 27, 28, 29, 30, 31, 32, 33, 34, 35, 36, 37, 38, 39, 40, 41, 42, 43, 44, 45, 46, 47, 48, 49, 50, 51, 52, 53, 54, 55, 56, 57, 58, 59, 60, 61, 62, 63, 64, 65, 66, 67, 68, 69, 70, 71, 72, 73, 74, 75, 76, 77, 78, 79, 80, 81, 82, 83, 84, 85, 86, 87, 88, 89, 90, 91, 92, 93, 94, 95, 96, 97, 98, 99, 100, 101, 102, 103, 104, 105, 106, 107, 108, 109, 110, 111, 112, 113, 114, 115, 116, 117, 118, 119, 120, 121, 122, 123, 124, 125, 126, 127, 128, 129, 130, 131, 132, 133, 134, 135, 136, 137, 138, 139, 140, 141, 142, 143, 144, 145, 146, 147, 148, 149, 150, 151, 152, 153, 154, 155, 156, 157, 158, 159, 160, 161, 162, 163, 164, 165, 166, 167, 168, 169, 170, 171, 172, 173, 174, 175, 176, 177, 178, 179, 180, 181, 182, 183, 184, 185, 186, 187, 188, 189, 190, 191, 192, 193, 194, 195, 196, 197, 198, 199, 200],
      "LargestImagePixelValue": [331, 326, 328, 329, 331, 332, 331, 334, 329, 328, 330, 330, 331, 327, 329, 327, 328, 328, 330, 329, 329, 330, 331, 328, 328, 327, 327, 329, 328, 328, 329, 328, 330, 329, 330, 330, 329, 329, 331, 330, 331, 332, 331, 331, 332, 326, 333, 327, 330, 328, 330, 328, 333, 328, 334, 329, 329, 329, 330, 328, 327, 327, 330, 329, 329, 330, 328, 327, 328, 329, 330, 328, 329, 332, 329, 328, 332, 329, 329, 329, 330, 333, 328, 327, 332, 330, 330, 330, 329, 330, 329, 329, 329, 327, 329, 329, 327, 329, 329, 331, 327, 330, 328, 329, 327, 327, 328, 331, 332, 328, 330, 330, 327, 330, 328, 328, 329, 328, 329, 329, 328, 330, 328, 328, 328, 327, 328, 330, 333, 327, 328, 327, 328, 332, 328, 329, 328, 331, 329, 333, 328, 328, 326, 329, 327, 329, 330, 328, 329, 332, 329, 329, 328, 330, 329, 328, 329, 327, 328, 329, 327, 331, 331, 328, 327, 329, 328, 326, 329, 329, 327, 329, 330, 330, 332, 329, 329, 328, 328, 327, 327, 327, 329, 330, 327, 332, 328, 328, 328, 330, 328, 326, 330, 330, 328, 327, 329, 328, 330, 327],
      "WindowCenter": [271.0, 271.0, 271.0, 271.0, 271.0, 271.0, 272.0, 272.0, 271.0, 271.0, 271.0, 271.0, 271.0, 271.0, 271.0, 271.0, 271.0, 271.0, 271.0, 271.0, 271.0, 271.0, 271.0, 271.0, 270.0, 271.0, 271.0, 271.0, 271.0, 271.0, 271.0, 271.0, 272.0, 271.0, 272.0, 271.0, 271.0, 271.0, 271.0, 272.0, 271.0, 271.0, 271.0, 271.0, 271.0, 271.0, 271.0, 271.0, 272.0, 271.0, 271.0, 271.0, 271.0, 271.0, 272.0, 271.0, 271.0, 271.0, 271.0, 271.0, 271.0, 271.0, 272.0, 271.0, 271.0, 271.0, 271.0, 271.0, 270.0, 271.0, 271.0, 270.0, 271.0, 271.0, 271.0, 271.0, 271.0, 271.0, 271.0, 271.0, 271.0, 271.0, 271.0, 271.0, 271.0, 271.0, 271.0, 271.0, 271.0, 271.0, 271.0, 271.0, 270.0, 271.0, 271.0, 271.0, 270.0, 270.0, 271.0, 271.0, 271.0, 271.0, 270.0, 270.0, 270.0, 271.0, 271.0, 271.0, 271.0, 271.0, 271.0, 271.0, 270.0, 271.0, 271.0, 270.0, 270.0, 270.0, 271.0, 270.0, 270.0, 271.0, 270.0, 270.0, 271.0, 271.0, 270.0, 271.0, 271.0, 271.0, 271.0, 270.0, 270.0, 271.0, 270.0, 270.0, 270.0, 271.0, 270.0, 271.0, 270.0, 270.0, 270.0, 270.0, 270.0, 270.0, 271.0, 270.0, 270.0, 271.0, 270.0, 270.0, 271.0, 271.0, 270.0, 270.0, 270.0, 270.0, 270.0, 270.0, 270.0, 270.0, 271.0, 270.0, 270.0, 270.0, 270.0, 270.0, 270.0, 270.0, 270.0, 270.0, 271.0, 270.0, 271.0, 270.0, 270.0, 269.0, 270.0, 270.0, 270.0, 270.0, 270.0, 271.0, 270.0, 271.0, 270.0, 270.0, 270.0, 270.0, 270.0, 270.0, 271.0, 271.0, 270.0, 270.0, 270.0, 270.0, 271.0, 270.0],
      "WindowWidth": [597.0, 596.0, 596.0, 596.0, 597.0, 596.0, 597.0, 597.0, 596.0, 596.0, 597.0, 597.0, 597.0, 596.0, 596.0, 596.0, 596.0, 596.0, 597.0, 596.0, 596.0, 597.0, 597.0, 596.0, 595.0, 596.0, 596.0, 596.0, 596.0, 596.0, 596.0, 596.0, 597.0, 595.0, 597.0, 596.0, 596.0, 596.0, 597.0, 597.0, 597.0, 597.0, 597.0, 596.0, 596.0, 596.0, 597.0, 595.0, 597.0, 596.0, 596.0, 596.0, 597.0, 596.0, 597.0, 595.0, 596.0, 596.0, 597.0, 596.0, 596.0, 596.0, 597.0, 595.0, 596.0, 596.0, 596.0, 596.0, 595.0, 596.0, 596.0, 595.0, 596.0, 596.0, 596.0, 596.0, 596.0, 595.0, 596.0, 596.0, 596.0, 596.0, 595.0, 595.0, 595.0, 595.0, 596.0, 596.0, 596.0, 596.0, 596.0, 596.0, 595.0, 595.0, 595.0, 596.0, 595.0, 595.0, 596.0, 596.0, 595.0, 595.0, 595.0, 595.0, 595.0, 595.0, 595.0, 596.0, 596.0, 595.0, 595.0, 596.0, 595.0, 596.0, 596.0, 595.0, 595.0, 595.0, 595.0, 595.0, 595.0, 595.0, 595.0, 595.0, 595.0, 595.0, 594.0, 596.0, 595.0, 595.0, 595.0, 594.0, 594.0, 595.0, 594.0, 595.0, 594.0, 595.0, 595.0, 595.0, 594.0, 594.0, 594.0, 594.0, 595.0, 594.0, 595.0, 594.0, 594.0, 596.0, 594.0, 595.0, 595.0, 595.0, 594.0, 595.0, 594.0, 594.0, 595.0, 594.0, 594.0, 595.0, 595.0, 595.0, 594.0, 594.0, 594.0, 595.0, 594.0, 594.0, 594.0, 594.0, 595.0, 595.0, 595.0, 594.0, 594.0, 594.0, 594.0, 594.0, 594.0, 594.0, 594.0, 595.0, 594.0, 595.0, 594.0, 594.0, 594.0, 595.0, 594.0, 594.0, 595.0, 595.0, 594.0, 594.0, 594.0, 594.0, 595.0, 594.0]
    },
    "slices": {}
  }
}