{
  "AcquisitionMatrixPE": 80,
  "AcquisitionNumber": 1,
  "AcquisitionTime": "10:02:50.472500",
  "BandwidthPerPixelPhaseEncode": 48.077,
  "BaseResolution": 80,
  "BodyPartExamined": "BRAIN",
  "CoilCombinationMethod": "Sum of Squares",
  "ConsistencyInfo": "N4_VE11C_LATEST_20160120",
  "ConversionSoftware": "dcm2niix",
  "ConversionSoftwareVersion": "v1.0.20220720",
  "DerivedVendorReportedEchoSpacing": 0.000519999,
  "DeviceSerialNumber": "66112",
  "DwellTime": 2.7e-06,
  "EchoTime": 0.035,
  "EchoTrainLength": 39,
  "EffectiveEchoSpacing": 0.00026,
  "FlipAngle": 90,
  "HeudiconvVersion": "0.13.1",
  "ImageOrientationPatientDICOM": [0.980874, 0.194425, 0.00924536, -0.187644, 0.931905, 0.310391],
  "ImageOrientationText": "Tra>Cor(17.9)>Sag(-3.0)",
  "ImageType": [
    "ORIGINAL",
    "PRIMARY",
    "M",
    "ND",
    "NORM",
    "MOSAIC"
],
  "ImagingFrequency": 123.252,
  "InPlanePhaseEncodingDirectionDICOM": "COL",
  "InstitutionAddress": "Maynard 3,Hanover,NH,US,03755",
  "InstitutionName": "Dartmouth College - PBS",
  "InstitutionalDepartmentName": "Department",
  "MRAcquisitionType": "2D",
  "MagneticFieldStrength": 3,
  "Manufacturer": "Siemens",
  "ManufacturersModelName": "Prisma",
  "MatrixCoilMode": "GRAPPA",
  "Modality": "MR",
  "NonlinearGradientCorrection": false,
  "ParallelReductionFactorInPlane": 2,
  "PartialFourier": 1,
  "PatientPosition": "HFS",
  "PercentPhaseFOV": 100,
  "PercentSampling": 100,
  "PhaseEncodingDirection": "j-",
  "PhaseEncodingSteps": 79,
  "PhaseResolution": 1,
  "PixelBandwidth": 2315,
  "ProcedureStepDescription": "dbic^QA",
  "ProtocolName": "func-bold_task-rest_acq-p2",
  "PulseSequenceDetails": "%SiemensSeq%\\ep2d_bold",
  "ReceiveCoilActiveElements": "HEA;HEP",
  "ReceiveCoilName": "Head_32",
  "ReconMatrixPE": 80,
  "RefLinesPE": 24,
  "RepetitionTime": 2,
  "SAR": 0.0555976,
  "ScanOptions": "FS",
  "ScanningSequence": "EP",
  "SequenceName": "*epfid2d1_80",
  "SequenceVariant": "SK",
  "SeriesDescription": "func-bold_task-rest_acq-p2",
  "SeriesNumber": 5,
  "ShimSetting": [4146, -7704, -7511, 292, -83, -99, -8, 49],
  "SliceThickness": 3.5,
  "SliceTiming": [0.99, 0, 1.0575, 0.0675, 1.1225, 0.1325, 1.1875, 0.1975, 1.255, 0.265, 1.32, 0.33, 1.3875, 0.3975, 1.4525, 0.4625, 1.5175, 0.5275, 1.585, 0.595, 1.65, 0.66, 1.7175, 0.7275, 1.7825, 0.7925, 1.8475, 0.8575, 1.915, 0.925],
  "SoftwareVersions": "syngo MR E11",
  "SpacingBetweenSlices": 3.99,
  "StationName": "AWP66112",
  "TaskName": "rest",
  "TotalReadoutTime": 0.02054,
  "TxRefAmp": 220.019,
  "dcmmeta_affine": [
    [-2.9426217079162598, -0.5629319548606873, -0.20641057193279266, 144.58045959472656],
    [-0.583274245262146, 2.795714855194092, 1.2216967344284058, -96.02408599853516],
    [0.027736080810427666, -0.9311742186546326, 3.7927498817443848, -17.43370819091797],
    [0.0, 0.0, 0.0, 1.0]
],
  "dcmmeta_reorient_transform": [
    [0.0, -1.0, 0.0, 79.0],
    [1.0, 0.0, 0.0, 0.0],
    [0.0, 0.0, 1.0, 0.0],
    [0.0, 0.0, 0.0, 1.0]
],
  "dcmmeta_shape": [80, 80, 30, 200],
  "dcmmeta_slice_dim": 2,
  "dcmmeta_version": 0.6,
  "global": {
    "const": {
      "AccessionNumber": "qa",
      "AcquisitionMatrix": [80, 0, 0, 80],
      "AngioFlag": "N",
      "BitsAllocated": 16,
      "BitsStored": 12,
      "BodyPartExamined": "BRAIN",
      "Columns": 480,
      "EchoNumbers": 1,
      "EchoTime": 35.0,
      "EchoTrainLength": 39,
      "FlipAngle": 90.0,
      "HighBit": 11,
      "ImageOrientationPatient": [0.98087386561332, 0.19442474911767, 0.00924536031329, -0.1876439782614, 0.93190499009568, 0.31039140912241],
      "ImagePositionPatient": [-576.04677638925, -800.63523911502, -282.77853441851],
      "ImageType": [
        "ORIGINAL",
        "PRIMARY",
        "M",
        "ND",
        "NORM",
        "MOSAIC"
],
      "ImagedNucleus": "1H",
      "ImagingFrequency": 123.252332,
      "InPlanePhaseEncodingDirection": "COL",
      "MRAcquisitionType": "2D",
      "MagneticFieldStrength": 3.0,
      "Manufacturer": "SIEMENS",
      "ManufacturerModelName": "Prisma",
      "Modality": "MR",
      "NumberOfAverages": 1.0,
      "NumberOfPhaseEncodingSteps": 79,
      "PercentPhaseFieldOfView": 100.0,
      "PercentSampling": 100.0,
      "PerformedProcedureStepStartTime": "095930.317000",
      "PhotometricInterpretation": "MONOCHROME2",
      "PixelBandwidth": 2315.0,
      "PixelRepresentation": 0,
      "PixelSpacing": [3.0, 3.0],
      "ProtocolName": "func-bold_task-rest_acq-p2",
      "RepetitionTime": 2000.0,
      "Rows": 480,
      "SAR": 0.05559761290831,
      "SamplesPerPixel": 1,
      "ScanOptions": "FS",
      "ScanningSequence": "EP",
      "SequenceName": "*epfid2d1_80",
      "SequenceVariant": "SK",
      "SeriesDescription": "func-bold_task-rest_acq-p2",
      "SeriesNumber": 5,
      "SeriesTime": "100330.848000",
      "SliceLocation": -53.452869279572,
      "SliceThickness": 3.5,
      "SmallestImagePixelValue": 0,
      "SoftwareVersions": "syngo MR E11",
      "SpacingBetweenSlices": 3.9899999597956,
      "SpecificCharacterSet": "ISO_IR 100",
      "StudyID": "3",
      "StudyTime": "095930.263000",
      "TransmitCoilName": "Body",
      "VariableFlipAngleFlag": "N",
      "WindowCenterWidthExplanation": "Algo1",
      "dBdt": 0.0},
    "slices": {}
  },
  "time": {
    "samples": {
      "AcquisitionNumber": [1, 2, 3, 4, 5, 6, 7, 8, 9, 10, 11, 12, 13, 14, 15, 16, 17, 18, 19, 20, 21, 22, 23, 24, 25, 26, 27, 28, 29, 30, 31, 32, 33, 34, 35, 36, 37, 38, 39, 40, 41, 42, 43, 44, 45, 46, 47, 48, 49, 50, 51, 52, 53, 54, 55, 56, 57, 58, 59, 60, 61, 62, 63, 64, 65, 66, 67, 68, 69, 70, 71, 72, 73, 74, 75, 76, 77, 78, 79, 80, 81, 82, 83, 84, 85, 86, 87, 88, 89, 90, 91, 92, 93, 94, 95, 96, 97, 98, 99, 100, 101, 102, 103, 104, 105, 106, 107, 108, 109, 110, 111, 112, 113, 114, 115, 116, 117, 118, 119, 120, 121, 122, 123, 124, 125, 126, 127, 128, 129, 130, 131, 132, 133, 134, 135, 136, 137, 138, 139, 140, 141, 142, 143, 144, 145, 146, 147, 148, 149, 150, 151, 152, 153, 154, 155, 156, 157, 158, 159, 160, 161, 162, 163, 164, 165, 166, 167, 168, 169, 170, 171, 172, 173, 174, 175, 176, 177, 178, 179, 180, 181, 182, 183, 184, 185, 186, 187, 188, 189, 190, 191, 192, 193, 194, 195, 196, 197, 198, 199, 200],
      "AcquisitionTime": ["100250.472500", "100252.472500", "100254.472500", "100256.472500", "100258.472500", "100300.472500", "100302.472500", "100304.472500", "100306.472500", "100308.472500", "100310.472500", "100312.472500", "100314.472500", "100316.472500", "100318.472500", "100320.472500", "100322.472500", "100324.472500", "100326.472500", "100328.472500", "100330.472500", "100332.472500", "100334.472500", "100336.472500", "100338.472500", "100340.472500", "100342.472500", "100344.472500", "100346.472500", "100348.472500", "100350.472500", "100352.472500", "100354.472500", "100356.472500", "100358.472500", "100400.472500", "100402.472500", "100404.472500", "100406.472500", "100408.472500", "100410.472500", "100412.472500", "100414.472500", "100416.472500", "100418.472500", "100420.472500", "100422.472500", "100424.472500", "100426.472500", "100428.472500", "100430.472500", "100432.472500", "100434.472500", "100436.472500", "100438.472500", "100440.472500", "100442.472500", "100444.472500", "100446.472500", "100448.472500", "100450.472500", "100452.472500", "100454.472500", "100456.472500", "100458.472500", "100500.472500", "100502.472500", "100504.472500", "100506.472500", "100508.472500", "100510.472500", "100512.472500", "100514.472500", "100516.472500", "100518.472500", "100520.472500", "100522.472500", "100524.472500", "100526.472500", "100528.472500", "100530.472500", "100532.472500", "100534.472500", "100536.472500", "100538.472500", "100540.472500", "100542.472500", "100544.472500", "100546.472500", "100548.472500", "100550.472500", "100552.472500", "100554.472500", "100556.472500", "100558.472500", "100600.472500", "100602.472500", "100604.472500", "100606.472500", "100608.472500", "100610.472500", "100612.472500", "100614.472500", "100616.472500", "100618.472500", "100620.472500", "100622.472500", "100624.472500", "100626.472500", "100628.472500", "100630.472500", "100632.472500", "100634.472500", "100636.472500", "100638.472500", "100640.472500", "100642.472500", "100644.472500", "100646.472500", "100648.472500", "100650.472500", "100652.472500", "100654.472500", "100656.472500", "100658.472500", "100700.472500", "100702.472500", "100704.472500", "100706.472500", "100708.472500", "100710.472500", "100712.472500", "100714.472500", "100716.472500", "100718.472500", "100720.472500", "100722.472500", "100724.472500", "100726.472500", "100728.472500", "100730.472500", "100732.472500", "100734.472500", "100736.472500", "100738.472500", "100740.472500", "100742.472500", "100744.472500", "100746.472500", "100748.472500", "100750.472500", "100752.472500", "100754.472500", "100756.472500", "100758.472500", "100800.472500", "100802.472500", "100804.472500", "100806.472500", "100808.472500", "100810.472500", "100812.472500", "100814.472500", "100816.472500", "100818.472500", "100820.472500", "100822.472500", "100824.472500", "100826.472500", "100828.472500", "100830.472500", "100832.472500", "100834.472500", "100836.472500", "100838.472500", "100840.472500", "100842.472500", "100844.472500", "100846.472500", "100848.472500", "100850.472500", "100852.472500", "100854.472500", "100856.472500", "100858.472500", "100900.472500", "100902.472500", "100904.472500", "100906.472500", "100908.472500", "100910.472500", "100912.472500", "100914.472500", "100916.472500", "100918.472500", "100920.472500", "100922.472500", "100924.472500", "100926.472500", "100928.472500"],
      "ContentTime": ["100330.851000", "100330.855000", "100330.857000", "100330.860000", "100330.862000", "100330.865000", "100330.867000", "100330.870000", "100330.872000", "100330.875000", "100330.877000", "100330.880000", "100330.882000", "100330.885000", "100330.887000", "100330.890000", "100330.892000", "100330.895000", "100330.897000", "100330.900000", "100410.846000", "100410.849000", "100410.852000", "100410.854000", "100410.857000", "100410.859000", "100410.862000", "100410.864000", "100410.867000", "100410.869000", "100410.872000", "100410.874000", "100410.877000", "100410.879000", "100410.882000", "100410.884000", "100410.887000", "100410.890000", "100410.892000", "100410.895000", "100450.846000", "100450.849000", "100450.852000", "100450.854000", "100450.857000", "100450.859000", "100450.862000", "100450.864000", "100450.867000", "100450.869000", "100450.872000", "100450.874000", "100450.877000", "100450.879000", "100450.882000", "100450.884000", "100450.887000", "100450.889000", "100450.892000", "100450.894000", "100530.846000", "100530.849000", "100530.852000", "100530.854000", "100530.857000", "100530.859000", "100530.862000", "100530.864000", "100530.867000", "100530.869000", "100530.872000", "100530.875000", "100530.877000", "100530.880000", "100530.882000", "100530.885000", "100530.887000", "100530.890000", "100530.892000", "100530.895000", "100610.846000", "100610.849000", "100610.852000", "100610.854000", "100610.857000", "100610.859000", "100610.862000", "100610.864000", "100610.867000", "100610.870000", "100610.872000", "100610.875000", "100610.877000", "100610.880000", "100610.882000", "100610.885000", "100610.887000", "100610.890000", "100610.892000", "100610.895000", "100650.846000", "100650.849000", "100650.852000", "100650.854000", "100650.857000", "100650.859000", "100650.862000", "100650.864000", "100650.867000", "100650.869000", "100650.872000", "100650.875000", "100650.887000", "100650.889000", "100650.892000", "100650.894000", "100650.897000", "100650.899000", "100650.902000", "100650.905000", "100730.846000", "100730.849000", "100730.852000", "100730.855000", "100730.857000", "100730.860000", "100730.862000", "100730.865000", "100730.867000", "100730.870000", "100730.872000", "100730.875000", "100730.878000", "100730.880000", "100730.883000", "100730.885000", "100730.888000", "100730.890000", "100730.893000", "100730.896000", "100810.847000", "100810.849000", "100810.852000", "100810.854000", "100810.857000", "100810.859000", "100810.862000", "100810.865000", "100810.867000", "100810.870000", "100810.872000", "100810.875000", "100810.877000", "100810.880000", "100810.882000", "100810.885000", "100810.887000", "100810.890000", "100810.893000", "100810.895000", "100850.846000", "100850.849000", "100850.852000", "100850.854000", "100850.857000", "100850.859000", "100850.862000", "100850.864000", "100850.867000", "100850.869000", "100850.872000", "100850.874000", "100850.877000", "100850.879000", "100850.882000", "100850.884000", "100850.887000", "100850.890000", "100850.892000", "100850.895000", "100929.710000", "100929.713000", "100929.716000", "100929.718000", "100929.721000", "100929.723000", "100929.726000", "100929.728000", "100929.731000", "100929.734000", "100929.736000", "100929.739000", "100929.744000", "100929.747000", "100929.753000", "100929.758000", "100929.762000", "100929.765000", "100929.768000", "100929.771000"],
      "InstanceCreationTime": ["100330.851000", "100330.855000", "100330.857000", "100330.860000", "100330.862000", "100330.865000", "100330.867000", "100330.870000", "100330.872000", "100330.875000", "100330.877000", "100330.880000", "100330.882000", "100330.885000", "100330.887000", "100330.890000", "100330.892000", "100330.895000", "100330.897000", "100330.900000", "100410.846000", "100410.849000", "100410.852000", "100410.854000", "100410.857000", "100410.859000", "100410.862000", "100410.864000", "100410.867000", "100410.869000", "100410.872000", "100410.874000", "100410.877000", "100410.879000", "100410.882000", "100410.884000", "100410.887000", "100410.890000", "100410.892000", "100410.895000", "100450.846000", "100450.849000", "100450.852000", "100450.854000", "100450.857000", "100450.859000", "100450.862000", "100450.864000", "100450.867000", "100450.869000", "100450.872000", "100450.874000", "100450.877000", "100450.879000", "100450.882000", "100450.884000", "100450.887000", "100450.889000", "100450.892000", "100450.894000", "100530.846000", "100530.849000", "100530.852000", "100530.854000", "100530.857000", "100530.859000", "100530.862000", "100530.864000", "100530.867000", "100530.869000", "100530.872000", "100530.875000", "100530.877000", "100530.880000", "100530.882000", "100530.885000", "100530.887000", "100530.890000", "100530.892000", "100530.895000", "100610.846000", "100610.849000", "100610.852000", "100610.854000", "100610.857000", "100610.859000", "100610.862000", "100610.864000", "100610.867000", "100610.870000", "100610.872000", "100610.875000", "100610.877000", "100610.880000", "100610.882000", "100610.885000", "100610.887000", "100610.890000", "100610.892000", "100610.895000", "100650.846000", "100650.849000", "100650.852000", "100650.854000", "100650.857000", "100650.859000", "100650.862000", "100650.864000", "100650.867000", "100650.869000", "100650.872000", "100650.875000", "100650.887000", "100650.889000", "100650.892000", "100650.894000", "100650.897000", "100650.899000", "100650.902000", "100650.905000", "100730.846000", "100730.849000", "100730.852000", "100730.855000", "100730.857000", "100730.860000", "100730.862000", "100730.865000", "100730.867000", "100730.870000", "100730.872000", "100730.875000", "100730.878000", "100730.880000", "100730.883000", "100730.885000", "100730.888000", "100730.890000", "100730.893000", "100730.896000", "100810.847000", "100810.849000", "100810.852000", "100810.854000", "100810.857000", "100810.859000", "100810.862000", "100810.865000", "100810.867000", "100810.870000", "100810.872000", "100810.875000", "100810.877000", "100810.880000", "100810.882000", "100810.885000", "100810.887000", "100810.890000", "100810.893000", "100810.895000", "100850.846000", "100850.849000", "100850.852000", "100850.854000", "100850.857000", "100850.859000", "100850.862000", "100850.864000", "100850.867000", "100850.869000", "100850.872000", "100850.874000", "100850.877000", "100850.879000", "100850.882000", "100850.884000", "100850.887000", "100850.890000", "100850.892000", "100850.895000", "100929.710000", "100929.713000", "100929.716000", "100929.718000", "100929.721000", "100929.723000", "100929.726000", "100929.728000", "100929.731000", "100929.734000", "100929.736000", "100929.739000", "100929.744000", "100929.747000", "100929.753000", "100929.758000", "100929.762000", "100929.765000", "100929.768000", "100929.771000"],
      "InstanceNumber": [1, 2, 3, 4, 5, 6, 7, 8, 9, 10, 11, 12, 13, 14, 15, 16, 17, 18, 19, 20, 21, 22, 23, 24, 25, 26, 27, 28, 29, 30, 31, 32, 33, 34, 35, 36, 37, 38, 39, 40, 41, 42, 43, 44, 45, 46, 47, 48, 49, 50, 51, 52, 53, 54, 55, 56, 57, 58, 59, 60, 61, 62, 63, 64, 65, 66, 67, 68, 69, 70, 71, 72, 73, 74, 75, 76, 77, 78, 79, 80, 81, 82, 83, 84, 85, 86, 87, 88, 89, 90, 91, 92, 93, 94, 95, 96, 97, 98, 99, 100, 101, 102, 103, 104, 105, 106, 107, 108, 109, 110, 111, 112, 113, 114, 115, 116, 117, 118, 119, 120, 121, 122, 123, 124, 125, 126, 127, 128, 129, 130, 131, 132, 133, 134, 135, 136, 137, 138, 139, 140, 141, 142, 143, 144, 145, 146, 147, 148, 149, 150, 151, 152, 153, 154, 155, 156, 157, 158, 159, 160, 161, 162, 163, 164, 165, 166, 167, 168, 169, 170, 171, 172, 173, 174, 175, 176, 177, 178, 179, 180, 181, 182, 183, 184, 185, 186, 187, 188, 189, 190, 191, 192, 193, 194, 195, 196, 197, 198, 199, 200],
      "LargestImagePixelValue": [1961, 1964, 1963, 1957, 1963, 1964, 1957, 1958, 1966, 1968, 1961, 1959, 1956, 1956, 1959, 1961, 1964, 1964, 1961, 1966, 1957, 1960, 1959, 1950, 1957, 1959, 1959, 1956, 1956, 1956, 1958, 1963, 1956, 1944, 1957, 1959, 1959, 1962, 1960, 1957, 1961, 1955, 1955, 1954, 1960, 1960, 1955, 1955, 1953, 1959, 1959, 1955, 1957, 1953, 1952, 1957, 1964, 1955, 1955, 1952, 1958, 1956, 1958, 1967, 1955, 1960, 1954, 1961, 1957, 1958, 1959, 1956, 1963, 1962, 1955, 1963, 1961, 1959, 1960, 1958, 1959, 1958, 1962, 1948, 1958, 1960, 1963, 1966, 1954, 1956, 1961, 1958, 1957, 1961, 1953, 1956, 1957, 1959, 1956, 1962, 1956, 1961, 1956, 1963, 1959, 1964, 1958, 1959, 1958, 1966, 1961, 1964, 1954, 1962, 1951, 1956, 1964, 1961, 1953, 1956, 1967, 1961, 1963, 1965, 1963, 1956, 1953, 1955, 1961, 1960, 1963, 1959, 1956, 1956, 1968, 1955, 1964, 1957, 1954, 1960, 1957, 1960, 1954, 1957, 1957, 1959, 1960, 1968, 1957, 1958, 1963, 1962, 1963, 1954, 1964, 1958, 1956, 1955, 1954, 1965, 1958, 1952, 1957, 1960, 1960, 1960, 1956, 1957, 1957, 1961, 1967, 1960, 1951, 1956, 1963, 1960, 1961, 1955, 1954, 1963, 1951, 1956, 1967, 1955, 1962, 1964, 1962, 1961, 1967, 1961, 1960, 1958, 1954, 1959, 1961, 1960, 1963, 1956, 1963, 1959],
      "WindowCenter": [975.0, 975.0, 975.0, 974.0, 974.0, 975.0, 975.0, 974.0, 974.0, 975.0, 975.0, 974.0, 975.0, 975.0, 975.0, 974.0, 974.0, 974.0, 975.0, 976.0, 974.0, 975.0, 975.0, 974.0, 975.0, 975.0, 976.0, 975.0, 976.0, 975.0, 974.0, 975.0, 975.0, 974.0, 975.0, 974.0, 976.0, 974.0, 974.0, 974.0, 974.0, 975.0, 974.0, 974.0, 975.0, 975.0, 975.0, 974.0, 974.0, 974.0, 975.0, 975.0, 974.0, 975.0, 975.0, 974.0, 974.0, 974.0, 974.0, 974.0, 975.0, 974.0, 974.0, 975.0, 975.0, 975.0, 975.0, 974.0, 974.0, 975.0, 975.0, 974.0, 974.0, 974.0, 974.0, 974.0, 974.0, 975.0, 975.0, 974.0, 974.0, 974.0, 974.0, 974.0, 974.0, 974.0, 974.0, 973.0, 974.0, 974.0, 974.0, 974.0, 974.0, 973.0, 975.0, 974.0, 974.0, 974.0, 974.0, 974.0, 974.0, 974.0, 974.0, 974.0, 975.0, 974.0, 974.0, 973.0, 973.0, 974.0, 974.0, 974.0, 974.0, 973.0, 973.0, 974.0, 975.0, 973.0, 976.0, 973.0, 974.0, 974.0, 974.0, 974.0, 974.0, 973.0, 973.0, 975.0, 973.0, 973.0, 974.0, 975.0, 974.0, 973.0, 974.0, 974.0, 975.0, 973.0, 974.0, 973.0, 974.0, 974.0, 973.0, 973.0, 974.0, 973.0, 974.0, 975.0, 974.0, 974.0, 973.0, 974.0, 975.0, 974.0, 973.0, 973.0, 974.0, 974.0, 975.0, 974.0, 975.0, 975.0, 974.0, 975.0, 974.0, 974.0, 974.0, 974.0, 974.0, 975.0, 974.0, 975.0, 974.0, 973.0, 974.0, 974.0, 974.0, 973.0, 974.0, 974.0, 973.0, 973.0, 974.0, 973.0, 974.0, 974.0, 973.0, 973.0, 974.0, 974.0, 974.0, 974.0, 974.0, 974.0, 974.0, 974.0, 973.0, 974.0, 974.0, 974.0],
      "WindowWidth": [2128.0, 2127.0, 2127.0, 2126.0, 2126.0, 2127.0, 2127.0, 2126.0, 2126.0, 2127.0, 2127.0, 2126.0, 2126.0, 2127.0, 2127.0, 2126.0, 2126.0, 2126.0, 2127.0, 2127.0, 2126.0, 2126.0, 2126.0, 2125.0, 2126.0, 2126.0, 2127.0, 2126.0, 2127.0, 2126.0, 2126.0, 2126.0, 2126.0, 2125.0, 2126.0, 2125.0, 2126.0, 2125.0, 2125.0, 2125.0, 2125.0, 2126.0, 2126.0, 2125.0, 2126.0, 2126.0, 2126.0, 2125.0, 2125.0, 2125.0, 2126.0, 2126.0, 2125.0, 2126.0, 2126.0, 2125.0, 2125.0, 2125.0, 2125.0, 2125.0, 2125.0, 2125.0, 2125.0, 2125.0, 2126.0, 2125.0, 2125.0, 2125.0, 2125.0, 2126.0, 2126.0, 2125.0, 2125.0, 2125.0, 2125.0, 2125.0, 2125.0, 2126.0, 2126.0, 2125.0, 2125.0, 2125.0, 2125.0, 2125.0, 2125.0, 2125.0, 2125.0, 2125.0, 2125.0, 2125.0, 2124.0, 2125.0, 2124.0, 2125.0, 2125.0, 2125.0, 2125.0, 2125.0, 2124.0, 2125.0, 2124.0, 2124.0, 2125.0, 2125.0, 2125.0, 2124.0, 2125.0, 2124.0, 2124.0, 2125.0, 2125.0, 2125.0, 2124.0, 2124.0, 2124.0, 2125.0, 2125.0, 2124.0, 2126.0, 2124.0, 2125.0, 2124.0, 2125.0, 2125.0, 2125.0, 2124.0, 2124.0, 2125.0, 2124.0, 2124.0, 2124.0, 2125.0, 2125.0, 2124.0, 2124.0, 2124.0, 2126.0, 2124.0, 2124.0, 2124.0, 2124.0, 2125.0, 2124.0, 2124.0, 2124.0, 2124.0, 2124.0, 2125.0, 2124.0, 2124.0, 2124.0, 2124.0, 2125.0, 2124.0, 2124.0, 2124.0, 2124.0, 2124.0, 2125.0, 2124.0, 2125.0, 2125.0, 2124.0, 2125.0, 2124.0, 2124.0, 2124.0, 2124.0, 2124.0, 2125.0, 2124.0, 2125.0, 2124.0, 2124.0, 2124.0, 2124.0, 2124.0, 2124.0, 2124.0, 2124.0, 2124.0, 2123.0, 2124.0, 2124.0, 2124.0, 2124.0, 2123.0, 2123.0, 2124.0, 2124.0, 2124.0, 2124.0, 2124.0, 2124.0, 2124.0, 2124.0, 2124.0, 2124.0, 2124.0, 2124.0]
    },
    "slices": {}
  }
}