{
  "AcquisitionMatrixPE": 80,
  "AcquisitionNumber": 1,
  "AcquisitionTime": "10:22:30.985000",
  "BandwidthPerPixelPhaseEncode": 48.077,
  "BaseResolution": 80,
  "BodyPartExamined": "BRAIN",
  "CoilCombinationMethod": "Sum of Squares",
  "ConsistencyInfo": "N4_VE11C_LATEST_20160120",
  "ConversionSoftware": "dcm2niix",
  "ConversionSoftwareVersion": "v1.0.20220720",
  "DerivedVendorReportedEchoSpacing": 0.000519999,
  "DeviceSerialNumber": "66112",
  "DwellTime": 2.7e-06,
  "EchoTime": 0.035,
  "EchoTrainLength": 39,
  "EffectiveEchoSpacing": 0.00026,
  "FlipAngle": 90,
  "HeudiconvVersion": "0.13.1",
  "ImageOrientationPatientDICOM": [0.980126, -0.198344, -0.00343207, 0.18963, 0.931703, 0.30979],
  "ImageOrientationText": "Tra>Cor(17.7)>Sag(3.3)",
  "ImageType": [
    "ORIGINAL",
    "PRIMARY",
    "M",
    "ND",
    "NORM",
    "MOSAIC"
],
  "ImagingFrequency": 123.253,
  "InPlanePhaseEncodingDirectionDICOM": "COL",
  "InstitutionAddress": "Maynard 3,Hanover,NH,US,03755",
  "InstitutionName": "Dartmouth College - PBS",
  "InstitutionalDepartmentName": "Department",
  "MRAcquisitionType": "2D",
  "MagneticFieldStrength": 3,
  "Manufacturer": "Siemens",
  "ManufacturersModelName": "Prisma",
  "MatrixCoilMode": "GRAPPA",
  "Modality": "MR",
  "NonlinearGradientCorrection": false,
  "ParallelReductionFactorInPlane": 2,
  "PartialFourier": 1,
  "PatientPosition": "HFS",
  "PercentPhaseFOV": 100,
  "PercentSampling": 100,
  "PhaseEncodingDirection": "j-",
  "PhaseEncodingSteps": 79,
  "PhaseResolution": 1,
  "PixelBandwidth": 2315,
  "ProcedureStepDescription": "dbic^QA",
  "ProtocolName": "func-bold_task-rest_acq-p2",
  "PulseSequenceDetails": "%SiemensSeq%\\ep2d_bold",
  "ReceiveCoilActiveElements": "HC1-7;NC1,2",
  "ReceiveCoilName": "HeadNeck_64",
  "ReconMatrixPE": 80,
  "RefLinesPE": 24,
  "RepetitionTime": 2,
  "SAR": 0.0361844,
  "ScanOptions": "FS",
  "ScanningSequence": "EP",
  "SequenceName": "*epfid2d1_80",
  "SequenceVariant": "SK",
  "SeriesDescription": "func-bold_task-rest_acq-p2",
  "SeriesNumber": 5,
  "ShimSetting": [4144, -7678, -7513, 231, -92, -377, -88, 141],
  "SliceThickness": 3.5,
  "SliceTiming": [0.99, 0, 1.055, 0.0675, 1.1225, 0.1325, 1.1875, 0.1975, 1.255, 0.265, 1.32, 0.33, 1.385, 0.3975, 1.4525, 0.4625, 1.5175, 0.5275, 1.585, 0.595, 1.65, 0.66, 1.715, 0.7275, 1.7825, 0.7925, 1.8475, 0.8575, 1.915, 0.925],
  "SoftwareVersions": "syngo MR E11",
  "SpacingBetweenSlices": 3.99,
  "StationName": "AWP66112",
  "TaskName": "rest",
  "TotalReadoutTime": 0.02054,
  "TxRefAmp": 217.627,
  "dcmmeta_affine": [
    [-2.9403791427612305, 0.5688893795013428, 0.23240743577480316, 86.19097137451172],
    [0.595032811164856, 2.7951090335845947, 1.2140954732894897, -150.06756591796875],
    [-0.010296212509274483, -0.9293712377548218, 3.793686628341675, -21.887237548828125],
    [0.0, 0.0, 0.0, 1.0]
],
  "dcmmeta_reorient_transform": [
    [0.0, -1.0, 0.0, 79.0],
    [1.0, 0.0, 0.0, 0.0],
    [0.0, 0.0, 1.0, 0.0],
    [0.0, 0.0, 0.0, 1.0]
],
  "dcmmeta_shape": [80, 80, 30, 200],
  "dcmmeta_slice_dim": 2,
  "dcmmeta_version": 0.6,
  "global": {
    "const": {
      "AccessionNumber": "qa64",
      "AcquisitionMatrix": [80, 0, 0, 80],
      "AngioFlag": "N",
      "BitsAllocated": 16,
      "BitsStored": 12,
      "BodyPartExamined": "BRAIN",
      "Columns": 480,
      "EchoNumbers": 1,
      "EchoTime": 35.0,
      "EchoTrainLength": 39,
      "FlipAngle": 90.0,
      "HighBit": 11,
      "ImageOrientationPatient": [0.98012640753275, -0.1983442616928, -0.0034320708753, 0.18962978816979, 0.9317029837135, 0.30979040265646],
      "ImagePositionPatient": [-832.9869454563, -510.76126844133, -279.12256217586],
      "ImageType": [
        "ORIGINAL",
        "PRIMARY",
        "M",
        "ND",
        "NORM",
        "MOSAIC"
],
      "ImagedNucleus": "1H",
      "ImagingFrequency": 123.252508,
      "InPlanePhaseEncodingDirection": "COL",
      "LargestImagePixelValue": 4095,
      "MRAcquisitionType": "2D",
      "MagneticFieldStrength": 3.0,
      "Manufacturer": "SIEMENS",
      "ManufacturerModelName": "Prisma",
      "Modality": "MR",
      "NumberOfAverages": 1.0,
      "NumberOfPhaseEncodingSteps": 79,
      "PercentPhaseFieldOfView": 100.0,
      "PercentSampling": 100.0,
      "PerformedProcedureStepStartTime": "102021.766000",
      "PhotometricInterpretation": "MONOCHROME2",
      "PixelBandwidth": 2315.0,
      "PixelRepresentation": 0,
      "PixelSpacing": [3.0, 3.0],
      "ProtocolName": "func-bold_task-rest_acq-p2",
      "RepetitionTime": 2000.0,
      "Rows": 480,
      "SAR": 0.03618437347446,
      "SamplesPerPixel": 1,
      "ScanOptions": "FS",
      "ScanningSequence": "EP",
      "SequenceName": "*epfid2d1_80",
      "SequenceVariant": "SK",
      "SeriesDescription": "func-bold_task-rest_acq-p2",
      "SeriesNumber": 5,
      "SeriesTime": "102323.164000",
      "SliceLocation": -61.453197823051,
      "SliceThickness": 3.5,
      "SmallestImagePixelValue": 0,
      "SoftwareVersions": "syngo MR E11",
      "SpacingBetweenSlices": 3.989999961033,
      "SpecificCharacterSet": "ISO_IR 100",
      "StudyID": "1",
      "StudyTime": "102021.701000",
      "TransmitCoilName": "Body",
      "VariableFlipAngleFlag": "N",
      "WindowCenterWidthExplanation": "Algo1",
      "dBdt": 0.0},
    "slices": {}
  },
  "time": {
    "samples": {
      "AcquisitionNumber": [1, 2, 3, 4, 5, 6, 7, 8, 9, 10, 11, 12, 13, 14, 15, 16, 17, 18, 19, 20, 21, 22, 23, 24, 25, 26, 27, 28, 29, 30, 31, 32, 33, 34, 35, 36, 37, 38, 39, 40, 41, 42, 43, 44, 45, 46, 47, 48, 49, 50, 51, 52, 53, 54, 55, 56, 57, 58, 59, 60, 61, 62, 63, 64, 65, 66, 67, 68, 69, 70, 71, 72, 73, 74, 75, 76, 77, 78, 79, 80, 81, 82, 83, 84, 85, 86, 87, 88, 89, 90, 91, 92, 93, 94, 95, 96, 97, 98, 99, 100, 101, 102, 103, 104, 105, 106, 107, 108, 109, 110, 111, 112, 113, 114, 115, 116, 117, 118, 119, 120, 121, 122, 123, 124, 125, 126, 127, 128, 129, 130, 131, 132, 133, 134, 135, 136, 137, 138, 139, 140, 141, 142, 143, 144, 145, 146, 147, 148, 149, 150, 151, 152, 153, 154, 155, 156, 157, 158, 159, 160, 161, 162, 163, 164, 165, 166, 167, 168, 169, 170, 171, 172, 173, 174, 175, 176, 177, 178, 179, 180, 181, 182, 183, 184, 185, 186, 187, 188, 189, 190, 191, 192, 193, 194, 195, 196, 197, 198, 199, 200],
      "AcquisitionTime": ["102230.985000", "102232.985000", "102234.985000", "102236.985000", "102238.985000", "102240.985000", "102242.985000", "102244.985000", "102246.985000", "102248.985000", "102250.985000", "102252.985000", "102254.985000", "102256.985000", "102258.985000", "102300.985000", "102302.985000", "102304.985000", "102306.985000", "102308.985000", "102310.985000", "102312.985000", "102314.985000", "102316.985000", "102318.985000", "102320.985000", "102322.985000", "102324.985000", "102326.985000", "102328.985000", "102330.985000", "102332.985000", "102334.985000", "102336.985000", "102338.985000", "102340.985000", "102342.985000", "102344.985000", "102346.985000", "102348.985000", "102350.985000", "102352.985000", "102354.985000", "102356.985000", "102358.985000", "102400.985000", "102402.985000", "102404.985000", "102406.985000", "102408.985000", "102410.985000", "102412.985000", "102414.985000", "102416.985000", "102418.985000", "102420.985000", "102422.985000", "102424.985000", "102426.985000", "102428.985000", "102430.985000", "102432.985000", "102434.985000", "102436.985000", "102438.985000", "102440.985000", "102442.985000", "102444.985000", "102446.985000", "102448.985000", "102450.985000", "102452.985000", "102454.985000", "102456.985000", "102458.985000", "102500.985000", "102502.985000", "102504.985000", "102506.985000", "102508.985000", "102510.985000", "102512.985000", "102514.985000", "102516.985000", "102518.985000", "102520.985000", "102522.985000", "102524.985000", "102526.985000", "102528.985000", "102530.985000", "102532.985000", "102534.985000", "102536.985000", "102538.985000", "102540.985000", "102542.985000", "102544.985000", "102546.985000", "102548.985000", "102550.985000", "102552.985000", "102554.985000", "102556.985000", "102558.985000", "102600.985000", "102602.985000", "102604.985000", "102606.985000", "102608.985000", "102610.985000", "102612.985000", "102614.985000", "102616.985000", "102618.985000", "102620.985000", "102622.985000", "102624.985000", "102626.985000", "102628.985000", "102630.985000", "102632.985000", "102634.985000", "102636.985000", "102638.985000", "102640.985000", "102642.985000", "102644.985000", "102646.985000", "102648.985000", "102650.985000", "102652.985000", "102654.985000", "102656.985000", "102658.985000", "102700.985000", "102702.985000", "102704.985000", "102706.985000", "102708.985000", "102710.985000", "102712.985000", "102714.985000", "102716.985000", "102718.985000", "102720.985000", "102722.985000", "102724.985000", "102726.985000", "102728.985000", "102730.985000", "102732.985000", "102734.985000", "102736.985000", "102738.985000", "102740.985000", "102742.985000", "102744.985000", "102746.985000", "102748.985000", "102750.985000", "102752.985000", "102754.985000", "102756.985000", "102758.985000", "102800.985000", "102802.985000", "102804.985000", "102806.985000", "102808.985000", "102810.985000", "102812.985000", "102814.985000", "102816.985000", "102818.985000", "102820.985000", "102822.985000", "102824.985000", "102826.985000", "102828.985000", "102830.985000", "102832.985000", "102834.985000", "102836.985000", "102838.985000", "102840.985000", "102842.985000", "102844.985000", "102846.985000", "102848.985000", "102850.985000", "102852.985000", "102854.985000", "102856.985000", "102858.985000", "102900.985000", "102902.985000", "102904.985000", "102906.985000", "102908.985000"],
      "ContentTime": ["102323.167000", "102323.170000", "102323.173000", "102323.176000", "102323.178000", "102323.181000", "102323.183000", "102323.186000", "102323.188000", "102323.191000", "102323.193000", "102323.196000", "102323.198000", "102323.201000", "102323.203000", "102323.206000", "102323.208000", "102323.211000", "102323.213000", "102323.216000", "102323.218000", "102323.221000", "102323.223000", "102323.226000", "102323.228000", "102323.231000", "102403.161000", "102403.164000", "102403.167000", "102403.169000", "102403.172000", "102403.174000", "102403.177000", "102403.179000", "102403.182000", "102403.192000", "102403.195000", "102403.197000", "102403.200000", "102403.202000", "102403.205000", "102403.207000", "102403.210000", "102403.213000", "102403.215000", "102403.218000", "102443.161000", "102443.164000", "102443.167000", "102443.169000", "102443.172000", "102443.174000", "102443.177000", "102443.179000", "102443.182000", "102443.184000", "102443.187000", "102443.190000", "102443.192000", "102443.195000", "102443.197000", "102443.200000", "102443.202000", "102443.205000", "102443.207000", "102443.210000", "102523.162000", "102523.165000", "102523.168000", "102523.170000", "102523.173000", "102523.175000", "102523.178000", "102523.180000", "102523.183000", "102523.185000", "102523.188000", "102523.191000", "102523.193000", "102523.196000", "102523.198000", "102523.201000", "102523.203000", "102523.206000", "102523.208000", "102523.211000", "102603.162000", "102603.165000", "102603.168000", "102603.170000", "102603.173000", "102603.175000", "102603.178000", "102603.180000", "102603.183000", "102603.186000", "102603.188000", "102603.191000", "102603.193000", "102603.196000", "102603.198000", "102603.201000", "102603.203000", "102603.206000", "102603.208000", "102603.211000", "102643.161000", "102643.164000", "102643.167000", "102643.169000", "102643.172000", "102643.174000", "102643.177000", "102643.179000", "102643.182000", "102643.184000", "102643.187000", "102643.189000", "102643.192000", "102643.195000", "102643.197000", "102643.200000", "102643.202000", "102643.205000", "102643.207000", "102643.210000", "102723.161000", "102723.164000", "102723.167000", "102723.169000", "102723.172000", "102723.174000", "102723.177000", "102723.179000", "102723.182000", "102723.184000", "102723.187000", "102723.189000", "102723.192000", "102723.194000", "102723.197000", "102723.199000", "102723.202000", "102723.205000", "102723.207000", "102723.210000", "102743.163000", "102743.165000", "102743.168000", "102743.170000", "102743.173000", "102743.176000", "102743.178000", "102743.181000", "102743.183000", "102743.186000", "102823.162000", "102823.165000", "102823.168000", "102823.170000", "102823.173000", "102823.206000", "102823.208000", "102823.211000", "102823.213000", "102823.216000", "102823.218000", "102823.221000", "102823.223000", "102823.226000", "102823.228000", "102823.231000", "102823.233000", "102823.236000", "102823.238000", "102823.241000", "102903.161000", "102903.164000", "102903.167000", "102903.169000", "102903.172000", "102903.191000", "102903.194000", "102903.196000", "102903.199000", "102903.201000", "102903.204000", "102903.207000", "102903.209000", "102903.212000", "102903.214000", "102903.217000", "102903.219000", "102903.222000", "102903.224000", "102903.227000", "102910.954000", "102910.957000", "102910.959000", "102910.962000"],
      "InstanceCreationTime": ["102323.167000", "102323.170000", "102323.173000", "102323.176000", "102323.178000", "102323.181000", "102323.183000", "102323.186000", "102323.188000", "102323.191000", "102323.193000", "102323.196000", "102323.198000", "102323.201000", "102323.203000", "102323.206000", "102323.208000", "102323.211000", "102323.213000", "102323.216000", "102323.218000", "102323.221000", "102323.223000", "102323.226000", "102323.228000", "102323.231000", "102403.161000", "102403.164000", "102403.167000", "102403.169000", "102403.172000", "102403.174000", "102403.177000", "102403.179000", "102403.182000", "102403.192000", "102403.195000", "102403.197000", "102403.200000", "102403.202000", "102403.205000", "102403.207000", "102403.210000", "102403.213000", "102403.215000", "102403.218000", "102443.161000", "102443.164000", "102443.167000", "102443.169000", "102443.172000", "102443.174000", "102443.177000", "102443.179000", "102443.182000", "102443.184000", "102443.187000", "102443.190000", "102443.192000", "102443.195000", "102443.197000", "102443.200000", "102443.202000", "102443.205000", "102443.207000", "102443.210000", "102523.162000", "102523.165000", "102523.168000", "102523.170000", "102523.173000", "102523.175000", "102523.178000", "102523.180000", "102523.183000", "102523.185000", "102523.188000", "102523.191000", "102523.193000", "102523.196000", "102523.198000", "102523.201000", "102523.203000", "102523.206000", "102523.208000", "102523.211000", "102603.162000", "102603.165000", "102603.168000", "102603.170000", "102603.173000", "102603.175000", "102603.178000", "102603.180000", "102603.183000", "102603.186000", "102603.188000", "102603.191000", "102603.193000", "102603.196000", "102603.198000", "102603.201000", "102603.203000", "102603.206000", "102603.208000", "102603.211000", "102643.161000", "102643.164000", "102643.167000", "102643.169000", "102643.172000", "102643.174000", "102643.177000", "102643.179000", "102643.182000", "102643.184000", "102643.187000", "102643.189000", "102643.192000", "102643.195000", "102643.197000", "102643.200000", "102643.202000", "102643.205000", "102643.207000", "102643.210000", "102723.161000", "102723.164000", "102723.167000", "102723.169000", "102723.172000", "102723.174000", "102723.177000", "102723.179000", "102723.182000", "102723.184000", "102723.187000", "102723.189000", "102723.192000", "102723.194000", "102723.197000", "102723.199000", "102723.202000", "102723.205000", "102723.207000", "102723.210000", "102743.163000", "102743.165000", "102743.168000", "102743.170000", "102743.173000", "102743.176000", "102743.178000", "102743.181000", "102743.183000", "102743.186000", "102823.162000", "102823.165000", "102823.168000", "102823.170000", "102823.173000", "102823.206000", "102823.208000", "102823.211000", "102823.213000", "102823.216000", "102823.218000", "102823.221000", "102823.223000", "102823.226000", "102823.228000", "102823.231000", "102823.233000", "102823.236000", "102823.238000", "102823.241000", "102903.161000", "102903.164000", "102903.167000", "102903.169000", "102903.172000", "102903.191000", "102903.194000", "102903.196000", "102903.199000", "102903.201000", "102903.204000", "102903.207000", "102903.209000", "102903.212000", "102903.214000", "102903.217000", "102903.219000", "102903.222000", "102903.224000", "102903.227000", "102910.954000", "102910.957000", "102910.959000", "102910.962000"],
      "InstanceNumber": [1, 2, 3, 4, 5, 6, 7, 8, 9, 10, 11, 12, 13, 14, 15, 16, 17, 18, 19, 20, 21, 22, 23, 24, 25, 26, 27, 28, 29, 30, 31, 32, 33, 34, 35, 36, 37, 38, 39, 40, 41, 42, 43, 44, 45, 46, 47, 48, 49, 50, 51, 52, 53, 54, 55, 56, 57, 58, 59, 60, 61, 62, 63, 64, 65, 66, 67, 68, 69, 70, 71, 72, 73, 74, 75, 76, 77, 78, 79, 80, 81, 82, 83, 84, 85, 86, 87, 88, 89, 90, 91, 92, 93, 94, 95, 96, 97, 98, 99, 100, 101, 102, 103, 104, 105, 106, 107, 108, 109, 110, 111, 112, 113, 114, 115, 116, 117, 118, 119, 120, 121, 122, 123, 124, 125, 126, 127, 128, 129, 130, 131, 132, 133, 134, 135, 136, 137, 138, 139, 140, 141, 142, 143, 144, 145, 146, 147, 148, 149, 150, 151, 152, 153, 154, 155, 156, 157, 158, 159, 160, 161, 162, 163, 164, 165, 166, 167, 168, 169, 170, 171, 172, 173, 174, 175, 176, 177, 178, 179, 180, 181, 182, 183, 184, 185, 186, 187, 188, 189, 190, 191, 192, 193, 194, 195, 196, 197, 198, 199, 200],
      "WindowCenter": [1800.0, 1800.0, 1800.0, 1800.0, 1799.0, 1800.0, 1800.0, 1798.0, 1798.0, 1799.0, 1800.0, 1798.0, 1799.0, 1800.0, 1798.0, 1799.0, 1799.0, 1799.0, 1799.0, 1798.0, 1799.0, 1799.0, 1798.0, 1798.0, 1799.0, 1800.0, 1799.0, 1798.0, 1797.0, 1797.0, 1797.0, 1797.0, 1799.0, 1797.0, 1798.0, 1799.0, 1797.0, 1798.0, 1798.0, 1798.0, 1798.0, 1798.0, 1798.0, 1798.0, 1797.0, 1798.0, 1798.0, 1797.0, 1797.0, 1798.0, 1797.0, 1798.0, 1798.0, 1796.0, 1798.0, 1799.0, 1796.0, 1797.0, 1797.0, 1798.0, 1798.0, 1797.0, 1798.0, 1798.0, 1798.0, 1797.0, 1796.0, 1797.0, 1797.0, 1797.0, 1798.0, 1798.0, 1797.0, 1797.0, 1797.0, 1797.0, 1797.0, 1798.0, 1797.0, 1798.0, 1797.0, 1796.0, 1797.0, 1797.0, 1796.0, 1796.0, 1798.0, 1798.0, 1797.0, 1797.0, 1796.0, 1796.0, 1798.0, 1797.0, 1796.0, 1796.0, 1795.0, 1796.0, 1796.0, 1796.0, 1796.0, 1796.0, 1796.0, 1795.0, 1796.0, 1795.0, 1798.0, 1797.0, 1795.0, 1795.0, 1796.0, 1797.0, 1796.0, 1796.0, 1796.0, 1797.0, 1796.0, 1796.0, 1796.0, 1796.0, 1795.0, 1796.0, 1796.0, 1795.0, 1796.0, 1796.0, 1796.0, 1795.0, 1796.0, 1795.0, 1795.0, 1795.0, 1796.0, 1796.0, 1795.0, 1795.0, 1796.0, 1795.0, 1795.0, 1796.0, 1796.0, 1796.0, 1796.0, 1794.0, 1796.0, 1797.0, 1794.0, 1795.0, 1796.0, 1795.0, 1795.0, 1795.0, 1796.0, 1795.0, 1796.0, 1796.0, 1795.0, 1796.0, 1795.0, 1796.0, 1795.0, 1794.0, 1795.0, 1795.0, 1794.0, 1795.0, 1796.0, 1796.0, 1795.0, 1794.0, 1794.0, 1795.0, 1795.0, 1795.0, 1794.0, 1794.0, 1795.0, 1794.0, 1795.0, 1794.0, 1795.0, 1794.0, 1795.0, 1794.0, 1793.0, 1795.0, 1794.0, 1793.0, 1794.0, 1794.0, 1793.0, 1794.0, 1794.0, 1795.0, 1794.0, 1794.0, 1794.0, 1794.0, 1793.0, 1794.0],
      "WindowWidth": [3670.0, 3670.0, 3670.0, 3670.0, 3670.0, 3669.0, 3669.0, 3669.0, 3669.0, 3669.0, 3669.0, 3669.0, 3669.0, 3669.0, 3670.0, 3670.0, 3669.0, 3669.0, 3669.0, 3669.0, 3669.0, 3669.0, 3669.0, 3669.0, 3669.0, 3669.0, 3670.0, 3669.0, 3670.0, 3669.0, 3669.0, 3669.0, 3669.0, 3669.0, 3669.0, 3669.0, 3669.0, 3669.0, 3669.0, 3669.0, 3669.0, 3669.0, 3669.0, 3669.0, 3669.0, 3669.0, 3669.0, 3669.0, 3669.0, 3669.0, 3669.0, 3669.0, 3668.0, 3669.0, 3669.0, 3669.0, 3670.0, 3669.0, 3669.0, 3669.0, 3669.0, 3669.0, 3669.0, 3669.0, 3669.0, 3669.0, 3669.0, 3669.0, 3669.0, 3669.0, 3669.0, 3669.0, 3669.0, 3669.0, 3669.0, 3669.0, 3669.0, 3668.0, 3668.0, 3668.0, 3668.0, 3669.0, 3669.0, 3669.0, 3669.0, 3669.0, 3668.0, 3668.0, 3669.0, 3668.0, 3669.0, 3669.0, 3668.0, 3669.0, 3669.0, 3669.0, 3669.0, 3669.0, 3668.0, 3669.0, 3669.0, 3668.0, 3668.0, 3668.0, 3668.0, 3668.0, 3668.0, 3668.0, 3668.0, 3668.0, 3669.0, 3668.0, 3668.0, 3668.0, 3668.0, 3668.0, 3668.0, 3668.0, 3668.0, 3668.0, 3668.0, 3668.0, 3668.0, 3668.0, 3668.0, 3668.0, 3668.0, 3668.0, 3668.0, 3668.0, 3668.0, 3668.0, 3668.0, 3667.0, 3668.0, 3668.0, 3668.0, 3668.0, 3668.0, 3667.0, 3667.0, 3667.0, 3667.0, 3668.0, 3668.0, 3667.0, 3668.0, 3667.0, 3667.0, 3667.0, 3667.0, 3667.0, 3667.0, 3667.0, 3667.0, 3667.0, 3667.0, 3667.0, 3667.0, 3667.0, 3667.0, 3668.0, 3667.0, 3667.0, 3667.0, 3667.0, 3667.0, 3667.0, 3667.0, 3668.0, 3668.0, 3667.0, 3667.0, 3667.0, 3667.0, 3668.0, 3667.0, 3667.0, 3667.0, 3667.0, 3667.0, 3667.0, 3667.0, 3667.0, 3667.0, 3667.0, 3667.0, 3667.0, 3667.0, 3667.0, 3667.0, 3667.0, 3667.0, 3667.0, 3667.0, 3667.0, 3667.0, 3667.0, 3667.0, 3667.0]
    },
    "slices": {}
  }
}