{
  "AcquisitionMatrixPE": 80,
  "AcquisitionNumber": 1,
  "AcquisitionTime": "10:06:29.605000",
  "BandwidthPerPixelPhaseEncode": 48.077,
  "BaseResolution": 80,
  "BodyPartExamined": "BRAIN",
  "CoilCombinationMethod": "Sum of Squares",
  "ConsistencyInfo": "N4_VE11C_LATEST_20160120",
  "ConversionSoftware": "dcm2niix",
  "ConversionSoftwareVersion": "v1.0.20220720",
  "DerivedVendorReportedEchoSpacing": 0.000519999,
  "DeviceSerialNumber": "66112",
  "DwellTime": 2.7e-06,
  "EchoTime": 0.035,
  "EchoTrainLength": 39,
  "EffectiveEchoSpacing": 0.00026,
  "FlipAngle": 90,
  "HeudiconvVersion": "0.13.1",
  "ImageOrientationPatientDICOM": [0.989134, -0.146961, 0.00411219, 0.13831, 0.939661, 0.312902],
  "ImageOrientationText": "Tra>Cor(18.0)>Sag(2.9)",
  "ImageType": [
    "ORIGINAL",
    "PRIMARY",
    "M",
    "ND",
    "NORM",
    "MOSAIC"
],
  "ImagingFrequency": 123.252,
  "InPlanePhaseEncodingDirectionDICOM": "COL",
  "InstitutionAddress": "Maynard 3,Hanover,NH,US,03755",
  "InstitutionName": "Dartmouth College - PBS",
  "InstitutionalDepartmentName": "Department",
  "MRAcquisitionType": "2D",
  "MagneticFieldStrength": 3,
  "Manufacturer": "Siemens",
  "ManufacturersModelName": "Prisma",
  "MatrixCoilMode": "GRAPPA",
  "Modality": "MR",
  "NonlinearGradientCorrection": false,
  "ParallelReductionFactorInPlane": 2,
  "PartialFourier": 1,
  "PatientPosition": "HFS",
  "PercentPhaseFOV": 100,
  "PercentSampling": 100,
  "PhaseEncodingDirection": "j-",
  "PhaseEncodingSteps": 79,
  "PhaseResolution": 1,
  "PixelBandwidth": 2315,
  "ProcedureStepDescription": "dbic^QA",
  "ProtocolName": "func-bold_task-rest_acq-p2",
  "PulseSequenceDetails": "%SiemensSeq%\\ep2d_bold",
  "ReceiveCoilActiveElements": "HEA;HEP",
  "ReceiveCoilName": "Head_32",
  "ReconMatrixPE": 80,
  "RefLinesPE": 24,
  "RepetitionTime": 2,
  "SAR": 0.0657151,
  "ScanOptions": "FS",
  "ScanningSequence": "EP",
  "SequenceName": "*epfid2d1_80",
  "SequenceVariant": "SK",
  "SeriesDescription": "func-bold_task-rest_acq-p2",
  "SeriesNumber": 5,
  "ShimSetting": [4143, -7693, -7495, 344, -84, -144, -65, 89],
  "SliceThickness": 3.5,
  "SliceTiming": [0.99, 0, 1.055, 0.065, 1.12, 0.1325, 1.1875, 0.1975, 1.2525, 0.2625, 1.32, 0.33, 1.385, 0.395, 1.45, 0.46, 1.5175, 0.5275, 1.5825, 0.5925, 1.65, 0.66, 1.715, 0.725, 1.78, 0.79, 1.8475, 0.8575, 1.9125, 0.9225],
  "SoftwareVersions": "syngo MR E11",
  "SpacingBetweenSlices": 3.99,
  "StationName": "AWP66112",
  "TaskName": "rest",
  "TotalReadoutTime": 0.02054,
  "TxRefAmp": 231.349,
  "dcmmeta_affine": [
    [-2.9674012660980225, 0.41492876410484314, 0.19889500737190247, 96.90226745605469],
    [0.4408825635910034, 2.818983316421509, 1.2326422929763794, -140.94482421875],
    [0.012336577288806438, -0.9387052059173584, 3.7896087169647217, -17.522907257080078],
    [0.0, 0.0, 0.0, 1.0]
],
  "dcmmeta_reorient_transform": [
    [0.0, -1.0, 0.0, 79.0],
    [1.0, 0.0, 0.0, 0.0],
    [0.0, 0.0, 1.0, 0.0],
    [0.0, 0.0, 0.0, 1.0]
],
  "dcmmeta_shape": [80, 80, 30, 200],
  "dcmmeta_slice_dim": 2,
  "dcmmeta_version": 0.6,
  "global": {
    "const": {
      "AccessionNumber": "qa",
      "AcquisitionMatrix": [80, 0, 0, 80],
      "AngioFlag": "N",
      "BitsAllocated": 16,
      "BitsStored": 12,
      "BodyPartExamined": "BRAIN",
      "Columns": 480,
      "EchoNumbers": 1,
      "EchoTime": 35.0,
      "EchoTrainLength": 39,
      "FlipAngle": 90.0,
      "HighBit": 11,
      "ImageOrientationPatient": [0.98913376119578, -0.1469608530744, 0.00411219240206, 0.13830958831447, 0.93966109022325, 0.31290173106063],
      "ImagePositionPatient": [-806.14764987217, -557.37499960462, -281.88897142634],
      "ImageType": [
        "ORIGINAL",
        "PRIMARY",
        "M",
        "ND",
        "NORM",
        "MOSAIC"
],
      "ImagedNucleus": "1H",
      "ImagingFrequency": 123.252457,
      "InPlanePhaseEncodingDirection": "COL",
      "MRAcquisitionType": "2D",
      "MagneticFieldStrength": 3.0,
      "Manufacturer": "SIEMENS",
      "ManufacturerModelName": "Prisma",
      "Modality": "MR",
      "NumberOfAverages": 1.0,
      "NumberOfPhaseEncodingSteps": 79,
      "PercentPhaseFieldOfView": 100.0,
      "PercentSampling": 100.0,
      "PerformedProcedureStepStartTime": "094800.514000",
      "PhotometricInterpretation": "MONOCHROME2",
      "PixelBandwidth": 2315.0,
      "PixelRepresentation": 0,
      "PixelSpacing": [3.0, 3.0],
      "ProtocolName": "func-bold_task-rest_acq-p2",
      "RepetitionTime": 2000.0,
      "Rows": 480,
      "SAR": 0.06571507271112,
      "SamplesPerPixel": 1,
      "ScanOptions": "FS",
      "ScanningSequence": "EP",
      "SequenceName": "*epfid2d1_80",
      "SequenceVariant": "SK",
      "SeriesDescription": "func-bold_task-rest_acq-p2",
      "SeriesNumber": 5,
      "SeriesTime": "100721.573000",
      "SliceLocation": -55.354920627818,
      "SliceThickness": 3.5,
      "SmallestImagePixelValue": 0,
      "SoftwareVersions": "syngo MR E11",
      "SpacingBetweenSlices": 3.9899999972994,
      "SpecificCharacterSet": "ISO_IR 100",
      "StudyID": "29",
      "StudyTime": "094800.424000",
      "TransmitCoilName": "Body",
      "VariableFlipAngleFlag": "N",
      "WindowCenterWidthExplanation": "Algo1",
      "dBdt": 0.0},
    "slices": {}
  },
  "time": {
    "samples": {
      "AcquisitionNumber": [1, 2, 3, 4, 5, 6, 7, 8, 9, 10, 11, 12, 13, 14, 15, 16, 17, 18, 19, 20, 21, 22, 23, 24, 25, 26, 27, 28, 29, 30, 31, 32, 33, 34, 35, 36, 37, 38, 39, 40, 41, 42, 43, 44, 45, 46, 47, 48, 49, 50, 51, 52, 53, 54, 55, 56, 57, 58, 59, 60, 61, 62, 63, 64, 65, 66, 67, 68, 69, 70, 71, 72, 73, 74, 75, 76, 77, 78, 79, 80, 81, 82, 83, 84, 85, 86, 87, 88, 89, 90, 91, 92, 93, 94, 95, 96, 97, 98, 99, 100, 101, 102, 103, 104, 105, 106, 107, 108, 109, 110, 111, 112, 113, 114, 115, 116, 117, 118, 119, 120, 121, 122, 123, 124, 125, 126, 127, 128, 129, 130, 131, 132, 133, 134, 135, 136, 137, 138, 139, 140, 141, 142, 143, 144, 145, 146, 147, 148, 149, 150, 151, 152, 153, 154, 155, 156, 157, 158, 159, 160, 161, 162, 163, 164, 165, 166, 167, 168, 169, 170, 171, 172, 173, 174, 175, 176, 177, 178, 179, 180, 181, 182, 183, 184, 185, 186, 187, 188, 189, 190, 191, 192, 193, 194, 195, 196, 197, 198, 199, 200],
      "AcquisitionTime": ["100629.605000", "100631.605000", "100633.605000", "100635.605000", "100637.605000", "100639.605000", "100641.605000", "100643.605000", "100645.605000", "100647.605000", "100649.605000", "100651.605000", "100653.605000", "100655.605000", "100657.605000", "100659.605000", "100701.605000", "100703.605000", "100705.605000", "100707.605000", "100709.605000", "100711.605000", "100713.605000", "100715.605000", "100717.605000", "100719.605000", "100721.605000", "100723.605000", "100725.605000", "100727.605000", "100729.605000", "100731.605000", "100733.605000", "100735.605000", "100737.605000", "100739.605000", "100741.605000", "100743.605000", "100745.605000", "100747.605000", "100749.605000", "100751.605000", "100753.605000", "100755.605000", "100757.605000", "100759.605000", "100801.605000", "100803.605000", "100805.605000", "100807.605000", "100809.605000", "100811.605000", "100813.605000", "100815.605000", "100817.605000", "100819.605000", "100821.605000", "100823.605000", "100825.605000", "100827.605000", "100829.605000", "100831.605000", "100833.605000", "100835.605000", "100837.605000", "100839.605000", "100841.605000", "100843.605000", "100845.605000", "100847.605000", "100849.605000", "100851.605000", "100853.605000", "100855.605000", "100857.605000", "100859.605000", "100901.605000", "100903.605000", "100905.605000", "100907.605000", "100909.605000", "100911.605000", "100913.605000", "100915.605000", "100917.605000", "100919.605000", "100921.605000", "100923.605000", "100925.605000", "100927.605000", "100929.605000", "100931.605000", "100933.605000", "100935.605000", "100937.605000", "100939.605000", "100941.605000", "100943.605000", "100945.605000", "100947.605000", "100949.605000", "100951.605000", "100953.605000", "100955.605000", "100957.605000", "100959.605000", "101001.605000", "101003.605000", "101005.605000", "101007.605000", "101009.605000", "101011.605000", "101013.605000", "101015.605000", "101017.605000", "101019.605000", "101021.605000", "101023.605000", "101025.605000", "101027.605000", "101029.605000", "101031.605000", "101033.605000", "101035.605000", "101037.605000", "101039.605000", "101041.605000", "101043.605000", "101045.605000", "101047.605000", "101049.605000", "101051.605000", "101053.605000", "101055.605000", "101057.605000", "101059.605000", "101101.605000", "101103.605000", "101105.605000", "101107.605000", "101109.605000", "101111.605000", "101113.605000", "101115.605000", "101117.605000", "101119.605000", "101121.605000", "101123.605000", "101125.605000", "101127.605000", "101129.605000", "101131.605000", "101133.605000", "101135.605000", "101137.605000", "101139.605000", "101141.605000", "101143.605000", "101145.605000", "101147.605000", "101149.605000", "101151.605000", "101153.605000", "101155.605000", "101157.605000", "101159.605000", "101201.605000", "101203.605000", "101205.605000", "101207.605000", "101209.605000", "101211.605000", "101213.605000", "101215.605000", "101217.605000", "101219.605000", "101221.605000", "101223.605000", "101225.605000", "101227.605000", "101229.605000", "101231.605000", "101233.605000", "101235.605000", "101237.605000", "101239.605000", "101241.605000", "101243.605000", "101245.605000", "101247.605000", "101249.605000", "101251.605000", "101253.605000", "101255.605000", "101257.605000", "101259.605000", "101301.605000", "101303.605000", "101305.605000", "101307.605000"],
      "ContentTime": ["100721.578000", "100721.583000", "100721.586000", "100721.588000", "100721.591000", "100721.594000", "100721.596000", "100721.602000", "100721.605000", "100721.608000", "100721.610000", "100721.613000", "100721.615000", "100721.618000", "100721.620000", "100721.623000", "100721.625000", "100721.628000", "100721.631000", "100721.633000", "100721.636000", "100721.638000", "100721.641000", "100721.643000", "100721.646000", "100721.649000", "100801.531000", "100801.534000", "100801.537000", "100801.540000", "100801.542000", "100801.545000", "100801.547000", "100801.550000", "100801.552000", "100801.555000", "100801.557000", "100801.560000", "100801.563000", "100801.565000", "100801.568000", "100801.570000", "100801.573000", "100801.576000", "100801.578000", "100801.581000", "100841.532000", "100841.534000", "100841.537000", "100841.540000", "100841.542000", "100841.545000", "100841.547000", "100841.550000", "100841.552000", "100841.555000", "100841.558000", "100841.560000", "100841.563000", "100841.565000", "100841.568000", "100841.571000", "100841.573000", "100841.576000", "100841.578000", "100841.581000", "100921.532000", "100921.535000", "100921.537000", "100921.540000", "100921.542000", "100921.545000", "100921.547000", "100921.550000", "100921.552000", "100921.555000", "100921.558000", "100921.560000", "100921.563000", "100921.565000", "100921.568000", "100921.570000", "100921.573000", "100921.576000", "100921.578000", "100921.581000", "101001.532000", "101001.535000", "101001.538000", "101001.540000", "101001.543000", "101001.545000", "101001.548000", "101001.551000", "101001.553000", "101001.556000", "101001.558000", "101001.561000", "101001.564000", "101001.566000", "101001.569000", "101001.571000", "101001.574000", "101001.577000", "101001.579000", "101001.582000", "101041.532000", "101041.534000", "101041.537000", "101041.540000", "101041.542000", "101041.545000", "101041.547000", "101041.550000", "101041.553000", "101041.555000", "101041.558000", "101041.561000", "101041.563000", "101041.566000", "101041.568000", "101041.571000", "101041.573000", "101041.576000", "101041.579000", "101041.581000", "101121.532000", "101121.535000", "101121.537000", "101121.540000", "101121.542000", "101121.545000", "101121.547000", "101121.550000", "101121.553000", "101121.555000", "101121.558000", "101121.560000", "101121.563000", "101121.565000", "101121.568000", "101121.571000", "101121.573000", "101121.576000", "101121.578000", "101121.581000", "101201.532000", "101201.535000", "101201.538000", "101201.540000", "101201.543000", "101201.546000", "101201.548000", "101201.551000", "101201.553000", "101201.556000", "101201.559000", "101201.561000", "101201.564000", "101201.566000", "101201.569000", "101201.572000", "101201.574000", "101201.577000", "101201.579000", "101201.582000", "101241.532000", "101241.534000", "101241.537000", "101241.540000", "101241.542000", "101241.545000", "101241.547000", "101241.550000", "101241.553000", "101241.555000", "101241.558000", "101241.560000", "101241.563000", "101241.566000", "101241.568000", "101241.571000", "101241.573000", "101241.576000", "101241.578000", "101241.581000", "101309.202000", "101309.205000", "101309.208000", "101309.211000", "101309.214000", "101309.217000", "101309.220000", "101309.223000", "101309.226000", "101309.229000", "101309.250000", "101309.258000", "101309.262000", "101309.266000"],
      "InstanceCreationTime": ["100721.578000", "100721.583000", "100721.586000", "100721.588000", "100721.591000", "100721.594000", "100721.596000", "100721.602000", "100721.605000", "100721.608000", "100721.610000", "100721.613000", "100721.615000", "100721.618000", "100721.620000", "100721.623000", "100721.625000", "100721.628000", "100721.631000", "100721.633000", "100721.636000", "100721.638000", "100721.641000", "100721.643000", "100721.646000", "100721.649000", "100801.531000", "100801.534000", "100801.537000", "100801.540000", "100801.542000", "100801.545000", "100801.547000", "100801.550000", "100801.552000", "100801.555000", "100801.557000", "100801.560000", "100801.563000", "100801.565000", "100801.568000", "100801.570000", "100801.573000", "100801.576000", "100801.578000", "100801.581000", "100841.532000", "100841.534000", "100841.537000", "100841.540000", "100841.542000", "100841.545000", "100841.547000", "100841.550000", "100841.552000", "100841.555000", "100841.558000", "100841.560000", "100841.563000", "100841.565000", "100841.568000", "100841.571000", "100841.573000", "100841.576000", "100841.578000", "100841.581000", "100921.532000", "100921.535000", "100921.537000", "100921.540000", "100921.542000", "100921.545000", "100921.547000", "100921.550000", "100921.552000", "100921.555000", "100921.558000", "100921.560000", "100921.563000", "100921.565000", "100921.568000", "100921.570000", "100921.573000", "100921.576000", "100921.578000", "100921.581000", "101001.532000", "101001.535000", "101001.538000", "101001.540000", "101001.543000", "101001.545000", "101001.548000", "101001.551000", "101001.553000", "101001.556000", "101001.558000", "101001.561000", "101001.564000", "101001.566000", "101001.569000", "101001.571000", "101001.574000", "101001.577000", "101001.579000", "101001.582000", "101041.532000", "101041.534000", "101041.537000", "101041.540000", "101041.542000", "101041.545000", "101041.547000", "101041.550000", "101041.553000", "101041.555000", "101041.558000", "101041.561000", "101041.563000", "101041.566000", "101041.568000", "101041.571000", "101041.573000", "101041.576000", "101041.579000", "101041.581000", "101121.532000", "101121.535000", "101121.537000", "101121.540000", "101121.542000", "101121.545000", "101121.547000", "101121.550000", "101121.553000", "101121.555000", "101121.558000", "101121.560000", "101121.563000", "101121.565000", "101121.568000", "101121.571000", "101121.573000", "101121.576000", "101121.578000", "101121.581000", "101201.532000", "101201.535000", "101201.538000", "101201.540000", "101201.543000", "101201.546000", "101201.548000", "101201.551000", "101201.553000", "101201.556000", "101201.559000", "101201.561000", "101201.564000", "101201.566000", "101201.569000", "101201.572000", "101201.574000", "101201.577000", "101201.579000", "101201.582000", "101241.532000", "101241.534000", "101241.537000", "101241.540000", "101241.542000", "101241.545000", "101241.547000", "101241.550000", "101241.553000", "101241.555000", "101241.558000", "101241.560000", "101241.563000", "101241.566000", "101241.568000", "101241.571000", "101241.573000", "101241.576000", "101241.578000", "101241.581000", "101309.202000", "101309.205000", "101309.208000", "101309.211000", "101309.214000", "101309.217000", "101309.220000", "101309.223000", "101309.226000", "101309.229000", "101309.250000", "101309.258000", "101309.262000", "101309.266000"],
      "InstanceNumber": [1, 2, 3, 4, 5, 6, 7, 8, 9, 10, 11, 12, 13, 14, 15, 16, 17, 18, 19, 20, 21, 22, 23, 24, 25, 26, 27, 28, 29, 30, 31, 32, 33, 34, 35, 36, 37, 38, 39, 40, 41, 42, 43, 44, 45, 46, 47, 48, 49, 50, 51, 52, 53, 54, 55, 56, 57, 58, 59, 60, 61, 62, 63, 64, 65, 66, 67, 68, 69, 70, 71, 72, 73, 74, 75, 76, 77, 78, 79, 80, 81, 82, 83, 84, 85, 86, 87, 88, 89, 90, 91, 92, 93, 94, 95, 96, 97, 98, 99, 100, 101, 102, 103, 104, 105, 106, 107, 108, 109, 110, 111, 112, 113, 114, 115, 116, 117, 118, 119, 120, 121, 122, 123, 124, 125, 126, 127, 128, 129, 130, 131, 132, 133, 134, 135, 136, 137, 138, 139, 140, 141, 142, 143, 144, 145, 146, 147, 148, 149, 150, 151, 152, 153, 154, 155, 156, 157, 158, 159, 160, 161, 162, 163, 164, 165, 166, 167, 168, 169, 170, 171, 172, 173, 174, 175, 176, 177, 178, 179, 180, 181, 182, 183, 184, 185, 186, 187, 188, 189, 190, 191, 192, 193, 194, 195, 196, 197, 198, 199, 200],
      "LargestImagePixelValue": [2065, 2064, 2061, 2066, 2064, 2056, 2069, 2066, 2066, 2063, 2062, 2064, 2056, 2066, 2065, 2053, 2061, 2070, 2061, 2053, 2066, 2062, 2057, 2064, 2063, 2064, 2065, 2062, 2073, 2057, 2067, 2066, 2062, 2067, 2061, 2064, 2058, 2063, 2068, 2062, 2070, 2069, 2060, 2064, 2069, 2061, 2063, 2057, 2055, 2065, 2057, 2063, 2062, 2069, 2067, 2060, 2066, 2063, 2068, 2065, 2068, 2066, 2069, 2071, 2063, 2063, 2069, 2066, 2062, 2065, 2063, 2061, 2071, 2066, 2067, 2062, 2067, 2061, 2066, 2057, 2063, 2057, 2065, 2063, 2067, 2065, 2070, 2064, 2065, 2062, 2068, 2064, 2068, 2060, 2065, 2058, 2067, 2063, 2062, 2075, 2075, 2065, 2060, 2062, 2063, 2055, 2062, 2057, 2066, 2060, 2067, 2067, 2061, 2061, 2069, 2066, 2062, 2066, 2075, 2067, 2070, 2067, 2066, 2065, 2062, 2065, 2069, 2061, 2074, 2064, 2069, 2066, 2065, 2060, 2070, 2061, 2070, 2066, 2070, 2071, 2063, 2071, 2070, 2076, 2059, 2071, 2063, 2070, 2067, 2070, 2068, 2070, 2068, 2065, 2068, 2068, 2071, 2076, 2066, 2066, 2063, 2070, 2076, 2071, 2068, 2059, 2068, 2067, 2066, 2066, 2069, 2066, 2079, 2072, 2068, 2068, 2065, 2067, 2072, 2067, 2075, 2062, 2070, 2069, 2075, 2069, 2067, 2070, 2060, 2061, 2059, 2077, 2074, 2068, 2065, 2071, 2068, 2066, 2064, 2072],
      "WindowCenter": [957.0, 957.0, 957.0, 957.0, 957.0, 957.0, 957.0, 957.0, 957.0, 957.0, 957.0, 957.0, 957.0, 957.0, 957.0, 957.0, 957.0, 957.0, 957.0, 957.0, 957.0, 957.0, 957.0, 957.0, 957.0, 957.0, 957.0, 957.0, 957.0, 957.0, 957.0, 957.0, 957.0, 957.0, 957.0, 957.0, 957.0, 957.0, 957.0, 957.0, 957.0, 957.0, 957.0, 957.0, 957.0, 957.0, 957.0, 957.0, 957.0, 957.0, 957.0, 957.0, 956.0, 956.0, 956.0, 956.0, 956.0, 956.0, 956.0, 956.0, 956.0, 956.0, 956.0, 956.0, 956.0, 956.0, 956.0, 956.0, 956.0, 956.0, 956.0, 956.0, 956.0, 956.0, 956.0, 956.0, 956.0, 956.0, 956.0, 956.0, 956.0, 956.0, 956.0, 956.0, 956.0, 956.0, 956.0, 956.0, 956.0, 956.0, 956.0, 956.0, 956.0, 956.0, 956.0, 956.0, 956.0, 956.0, 956.0, 956.0, 956.0, 956.0, 956.0, 956.0, 956.0, 956.0, 956.0, 956.0, 956.0, 956.0, 956.0, 956.0, 957.0, 956.0, 956.0, 956.0, 956.0, 956.0, 956.0, 956.0, 956.0, 956.0, 956.0, 956.0, 956.0, 956.0, 956.0, 956.0, 956.0, 956.0, 956.0, 956.0, 956.0, 956.0, 956.0, 956.0, 956.0, 956.0, 956.0, 956.0, 956.0, 956.0, 956.0, 956.0, 956.0, 956.0, 956.0, 956.0, 956.0, 956.0, 956.0, 956.0, 956.0, 956.0, 956.0, 956.0, 956.0, 956.0, 956.0, 956.0, 956.0, 956.0, 956.0, 956.0, 956.0, 956.0, 956.0, 956.0, 956.0, 956.0, 956.0, 956.0, 956.0, 956.0, 956.0, 956.0, 956.0, 956.0, 956.0, 956.0, 956.0, 956.0, 956.0, 956.0, 956.0, 956.0, 956.0, 956.0, 956.0, 956.0, 956.0, 956.0, 956.0, 956.0, 956.0, 956.0, 956.0, 956.0, 956.0, 956.0],
      "WindowWidth": [2077.0, 2077.0, 2077.0, 2077.0, 2077.0, 2077.0, 2077.0, 2077.0, 2077.0, 2077.0, 2077.0, 2077.0, 2077.0, 2077.0, 2076.0, 2077.0, 2077.0, 2077.0, 2077.0, 2077.0, 2077.0, 2077.0, 2077.0, 2077.0, 2077.0, 2077.0, 2077.0, 2078.0, 2077.0, 2076.0, 2076.0, 2077.0, 2077.0, 2077.0, 2077.0, 2077.0, 2077.0, 2077.0, 2077.0, 2077.0, 2077.0, 2077.0, 2077.0, 2077.0, 2077.0, 2076.0, 2077.0, 2076.0, 2077.0, 2076.0, 2076.0, 2076.0, 2077.0, 2076.0, 2077.0, 2076.0, 2076.0, 2076.0, 2076.0, 2076.0, 2077.0, 2077.0, 2076.0, 2077.0, 2076.0, 2076.0, 2076.0, 2076.0, 2076.0, 2076.0, 2076.0, 2076.0, 2076.0, 2076.0, 2076.0, 2076.0, 2076.0, 2076.0, 2076.0, 2076.0, 2076.0, 2076.0, 2076.0, 2076.0, 2076.0, 2076.0, 2076.0, 2076.0, 2076.0, 2076.0, 2076.0, 2076.0, 2076.0, 2076.0, 2076.0, 2076.0, 2076.0, 2076.0, 2076.0, 2076.0, 2076.0, 2076.0, 2076.0, 2076.0, 2076.0, 2076.0, 2076.0, 2076.0, 2076.0, 2076.0, 2076.0, 2076.0, 2076.0, 2076.0, 2076.0, 2076.0, 2076.0, 2076.0, 2076.0, 2076.0, 2076.0, 2076.0, 2076.0, 2076.0, 2076.0, 2076.0, 2076.0, 2076.0, 2076.0, 2076.0, 2076.0, 2076.0, 2076.0, 2075.0, 2075.0, 2076.0, 2076.0, 2076.0, 2076.0, 2076.0, 2076.0, 2076.0, 2076.0, 2076.0, 2076.0, 2076.0, 2076.0, 2076.0, 2075.0, 2076.0, 2076.0, 2076.0, 2076.0, 2076.0, 2076.0, 2076.0, 2075.0, 2076.0, 2076.0, 2076.0, 2076.0, 2076.0, 2076.0, 2076.0, 2076.0, 2076.0, 2076.0, 2076.0, 2076.0, 2076.0, 2076.0, 2076.0, 2076.0, 2075.0, 2076.0, 2075.0, 2075.0, 2075.0, 2075.0, 2075.0, 2075.0, 2075.0, 2075.0, 2075.0, 2075.0, 2075.0, 2075.0, 2075.0, 2075.0, 2075.0, 2075.0, 2075.0, 2075.0, 2075.0, 2075.0, 2075.0, 2075.0, 2076.0, 2075.0, 2075.0]
    },
    "slices": {}
  }
}