{
  "AcquisitionMatrixPE": 80,
  "AcquisitionNumber": 1,
  "AcquisitionTime": "11:29:31.487500",
  "BandwidthPerPixelPhaseEncode": 25,
  "BaseResolution": 80,
  "BodyPartExamined": "BRAIN",
  "CoilCombinationMethod": "Sum of Squares",
  "ConsistencyInfo": "N4_VE11E_LATEST_20181129",
  "ConversionSoftware": "dcm2niix",
  "ConversionSoftwareVersion": "v1.0.20220720",
  "DerivedVendorReportedEchoSpacing": 0.0005,
  "DeviceSerialNumber": "66112",
  "DwellTime": 2.7e-06,
  "EchoTime": 0.03,
  "EchoTrainLength": 80,
  "EffectiveEchoSpacing": 0.0005,
  "FlipAngle": 77,
  "HeudiconvVersion": "0.13.1",
  "ImageOrientationPatientDICOM": [0.988402, -0.151861, 0.000362701, 0.144192, 0.939234, 0.311525],
  "ImageOrientationText": "Tra>Cor(18.0)>Sag(2.7)",
  "ImageType": [
    "ORIGINAL",
    "PRIMARY",
    "M",
    "ND",
    "NORM",
    "MOSAIC"
],
  "ImagingFrequency": 123.252,
  "InPlanePhaseEncodingDirectionDICOM": "COL",
  "InstitutionAddress": "Maynard 3,Hanover,NH,US,03755",
  "InstitutionName": "Dartmouth College - PBS",
  "InstitutionalDepartmentName": "Department",
  "MRAcquisitionType": "2D",
  "MagneticFieldStrength": 3,
  "Manufacturer": "Siemens",
  "ManufacturersModelName": "Prisma",
  "MatrixCoilMode": "SENSE",
  "Modality": "MR",
  "NonlinearGradientCorrection": false,
  "PartialFourier": 1,
  "PatientPosition": "HFS",
  "PercentPhaseFOV": 100,
  "PercentSampling": 100,
  "PhaseEncodingDirection": "j-",
  "PhaseEncodingSteps": 80,
  "PhaseResolution": 1,
  "PixelBandwidth": 2315,
  "ProcedureStepDescription": "dbic^QA",
  "ProtocolName": "func-bold_fa-77",
  "PulseSequenceDetails": "%SiemensSeq%\\ep2d_bold",
  "ReceiveCoilActiveElements": "HC1-7;NC1,2",
  "ReceiveCoilName": "HeadNeck_64",
  "ReconMatrixPE": 80,
  "RepetitionTime": 2,
  "SAR": 0.0371348,
  "ScanOptions": "FS",
  "ScanningSequence": "EP",
  "SequenceName": "*epfid2d1_80",
  "SequenceVariant": "SK",
  "SeriesDescription": "func-bold_fa-77",
  "SeriesNumber": 7,
  "ShimSetting": [4143, -7727, -7510, 153, -64, -216, -17, 66],
  "SliceThickness": 3.5,
  "SliceTiming": [0.99, 0, 1.055, 0.065, 1.1225, 0.1325, 1.1875, 0.1975, 1.255, 0.265, 1.32, 0.33, 1.385, 0.395, 1.4525, 0.4625, 1.5175, 0.5275, 1.585, 0.595, 1.65, 0.66, 1.715, 0.725, 1.7825, 0.7925, 1.8475, 0.8575, 1.915, 0.925],
  "SoftwareVersions": "syngo MR E11",
  "SpacingBetweenSlices": 3.99,
  "StationName": "AWP66112",
  "TotalReadoutTime": 0.0395,
  "TxRefAmp": 213.855,
  "dcmmeta_affine": [
    [-2.965205430984497, 0.43257659673690796, 0.1901199221611023, 99.967529296875],
    [0.4555823504924774, 2.817702293395996, 1.2283600568771362, -127.40155029296875],
    [0.0010881031630560756, -0.9345752596855164, 3.7914490699768066, -10.609519004821777],
    [0.0, 0.0, 0.0, 1.0]
],
  "dcmmeta_reorient_transform": [
    [0.0, -1.0, 0.0, 79.0],
    [1.0, 0.0, 0.0, 0.0],
    [0.0, 0.0, 1.0, 0.0],
    [0.0, 0.0, 0.0, 1.0]
],
  "dcmmeta_shape": [80, 80, 30, 200],
  "dcmmeta_slice_dim": 2,
  "dcmmeta_version": 0.6,
  "global": {
    "const": {
      "AccessionNumber": "qa64",
      "AcquisitionMatrix": [80, 0, 0, 80],
      "AngioFlag": "N",
      "BitsAllocated": 16,
      "BitsStored": 12,
      "BodyPartExamined": "BRAIN",
      "Columns": 480,
      "EchoNumbers": 1,
      "EchoTime": 30.0,
      "EchoTrainLength": 80,
      "FlipAngle": 77.0,
      "HighBit": 11,
      "ImageOrientationPatient": [0.98840182710052, -0.1518607804284, 0.00036270103924, 0.14419220148912, 0.93923411613225, 0.31152509388971],
      "ImagePositionPatient": [-813.69749961675, -567.62093970394, -271.5736433486],
      "ImageType": [
        "ORIGINAL",
        "PRIMARY",
        "M",
        "ND",
        "NORM",
        "MOSAIC"
],
      "ImagedNucleus": "1H",
      "ImagingFrequency": 123.252368,
      "InPlanePhaseEncodingDirection": "COL",
      "MRAcquisitionType": "2D",
      "MagneticFieldStrength": 3.0,
      "Manufacturer": "SIEMENS",
      "ManufacturerModelName": "Prisma",
      "Modality": "MR",
      "NumberOfAverages": 1.0,
      "NumberOfPhaseEncodingSteps": 80,
      "PercentPhaseFieldOfView": 100.0,
      "PercentSampling": 100.0,
      "PerformedProcedureStepStartTime": "111955.475000",
      "PhotometricInterpretation": "MONOCHROME2",
      "PixelBandwidth": 2315.0,
      "PixelRepresentation": 0,
      "PixelSpacing": [3.0, 3.0],
      "ProtocolName": "func-bold_fa-77",
      "RepetitionTime": 2000.0,
      "Rows": 480,
      "SAR": 0.03713482204515,
      "SamplesPerPixel": 1,
      "ScanOptions": "FS",
      "ScanningSequence": "EP",
      "SequenceName": "*epfid2d1_80",
      "SequenceVariant": "SK",
      "SeriesDescription": "func-bold_fa-77",
      "SeriesNumber": 7,
      "SeriesTime": "113012.768000",
      "SliceLocation": -44.540002068397,
      "SliceThickness": 3.5,
      "SmallestImagePixelValue": 0,
      "SoftwareVersions": "syngo MR E11",
      "SpacingBetweenSlices": 3.9899999918158,
      "SpecificCharacterSet": "ISO_IR 100",
      "StudyID": "8",
      "StudyTime": "111955.391000",
      "TransmitCoilName": "Body",
      "VariableFlipAngleFlag": "N",
      "WindowCenterWidthExplanation": "Algo1"
    },
    "slices": {}
  },
  "time": {
    "samples": {
      "AcquisitionNumber": [1, 2, 3, 4, 5, 6, 7, 8, 9, 10, 11, 12, 13, 14, 15, 16, 17, 18, 19, 20, 21, 22, 23, 24, 25, 26, 27, 28, 29, 30, 31, 32, 33, 34, 35, 36, 37, 38, 39, 40, 41, 42, 43, 44, 45, 46, 47, 48, 49, 50, 51, 52, 53, 54, 55, 56, 57, 58, 59, 60, 61, 62, 63, 64, 65, 66, 67, 68, 69, 70, 71, 72, 73, 74, 75, 76, 77, 78, 79, 80, 81, 82, 83, 84, 85, 86, 87, 88, 89, 90, 91, 92, 93, 94, 95, 96, 97, 98, 99, 100, 101, 102, 103, 104, 105, 106, 107, 108, 109, 110, 111, 112, 113, 114, 115, 116, 117, 118, 119, 120, 121, 122, 123, 124, 125, 126, 127, 128, 129, 130, 131, 132, 133, 134, 135, 136, 137, 138, 139, 140, 141, 142, 143, 144, 145, 146, 147, 148, 149, 150, 151, 152, 153, 154, 155, 156, 157, 158, 159, 160, 161, 162, 163, 164, 165, 166, 167, 168, 169, 170, 171, 172, 173, 174, 175, 176, 177, 178, 179, 180, 181, 182, 183, 184, 185, 186, 187, 188, 189, 190, 191, 192, 193, 194, 195, 196, 197, 198, 199, 200],
      "AcquisitionTime": ["112931.487500", "112933.487500", "112935.487500", "112937.487500", "112939.487500", "112941.487500", "112943.487500", "112945.487500", "112947.487500", "112949.487500", "112951.487500", "112953.487500", "112955.487500", "112957.487500", "112959.487500", "113001.487500", "113003.487500", "113005.487500", "113007.487500", "113009.487500", "113011.487500", "113013.487500", "113015.487500", "113017.487500", "113019.487500", "113021.487500", "113023.487500", "113025.487500", "113027.487500", "113029.487500", "113031.487500", "113033.487500", "113035.487500", "113037.487500", "113039.487500", "113041.487500", "113043.487500", "113045.487500", "113047.487500", "113049.487500", "113051.487500", "113053.487500", "113055.487500", "113057.487500", "113059.487500", "113101.487500", "113103.487500", "113105.487500", "113107.487500", "113109.487500", "113111.487500", "113113.487500", "113115.487500", "113117.487500", "113119.487500", "113121.487500", "113123.487500", "113125.487500", "113127.487500", "113129.487500", "113131.487500", "113133.487500", "113135.487500", "113137.487500", "113139.487500", "113141.487500", "113143.487500", "113145.487500", "113147.487500", "113149.487500", "113151.487500", "113153.487500", "113155.487500", "113157.487500", "113159.487500", "113201.487500", "113203.487500", "113205.487500", "113207.487500", "113209.487500", "113211.487500", "113213.487500", "113215.487500", "113217.487500", "113219.487500", "113221.487500", "113223.487500", "113225.487500", "113227.487500", "113229.487500", "113231.487500", "113233.487500", "113235.487500", "113237.487500", "113239.487500", "113241.487500", "113243.487500", "113245.487500", "113247.487500", "113249.487500", "113251.487500", "113253.487500", "113255.487500", "113257.487500", "113259.487500", "113301.487500", "113303.487500", "113305.487500", "113307.487500", "113309.487500", "113311.487500", "113313.487500", "113315.487500", "113317.487500", "113319.487500", "113321.487500", "113323.487500", "113325.487500", "113327.487500", "113329.487500", "113331.487500", "113333.487500", "113335.487500", "113337.487500", "113339.487500", "113341.487500", "113343.487500", "113345.487500", "113347.487500", "113349.487500", "113351.487500", "113353.487500", "113355.487500", "113357.487500", "113359.487500", "113401.487500", "113403.487500", "113405.487500", "113407.487500", "113409.487500", "113411.487500", "113413.487500", "113415.487500", "113417.487500", "113419.487500", "113421.487500", "113423.487500", "113425.487500", "113427.487500", "113429.487500", "113431.487500", "113433.487500", "113435.487500", "113437.487500", "113439.487500", "113441.487500", "113443.487500", "113445.487500", "113447.487500", "113449.487500", "113451.487500", "113453.487500", "113455.487500", "113457.487500", "113459.487500", "113501.487500", "113503.487500", "113505.487500", "113507.487500", "113509.487500", "113511.487500", "113513.487500", "113515.487500", "113517.487500", "113519.487500", "113521.487500", "113523.487500", "113525.487500", "113527.487500", "113529.487500", "113531.487500", "113533.487500", "113535.487500", "113537.487500", "113539.487500", "113541.487500", "113543.487500", "113545.487500", "113547.487500", "113549.487500", "113551.487500", "113553.487500", "113555.487500", "113557.487500", "113559.487500", "113601.487500", "113603.487500", "113605.487500", "113607.487500", "113609.487500"],
      "ContentTime": ["113012.772000", "113012.775000", "113012.777000", "113012.780000", "113012.782000", "113012.803000", "113012.812000", "113012.814000", "113012.816000", "113012.819000", "113012.821000", "113012.823000", "113012.826000", "113012.828000", "113012.830000", "113012.832000", "113012.835000", "113012.837000", "113012.839000", "113012.842000", "113052.767000", "113052.770000", "113052.772000", "113052.775000", "113052.777000", "113052.779000", "113052.782000", "113052.784000", "113052.786000", "113052.789000", "113052.791000", "113052.793000", "113052.795000", "113052.799000", "113052.810000", "113052.812000", "113052.815000", "113052.828000", "113052.830000", "113052.832000", "113112.767000", "113112.770000", "113112.772000", "113112.775000", "113112.777000", "113112.779000", "113112.782000", "113112.784000", "113112.786000", "113112.789000", "113152.768000", "113152.771000", "113152.773000", "113152.775000", "113152.778000", "113152.780000", "113152.783000", "113152.785000", "113152.787000", "113152.790000", "113152.792000", "113152.794000", "113152.798000", "113152.800000", "113152.802000", "113152.805000", "113152.807000", "113152.827000", "113152.829000", "113152.832000", "113232.767000", "113232.770000", "113232.772000", "113232.774000", "113232.777000", "113232.779000", "113232.781000", "113232.784000", "113232.786000", "113232.788000", "113232.791000", "113232.793000", "113232.795000", "113232.799000", "113232.801000", "113232.803000", "113232.806000", "113232.808000", "113232.810000", "113232.813000", "113312.767000", "113312.770000", "113312.773000", "113312.775000", "113312.777000", "113312.780000", "113312.782000", "113312.784000", "113312.786000", "113312.789000", "113312.792000", "113312.794000", "113312.798000", "113312.800000", "113312.803000", "113312.805000", "113312.807000", "113312.810000", "113312.812000", "113312.814000", "113352.767000", "113352.770000", "113352.772000", "113352.774000", "113352.777000", "113352.779000", "113352.781000", "113352.784000", "113352.786000", "113352.788000", "113352.790000", "113352.793000", "113352.796000", "113352.799000", "113352.801000", "113352.804000", "113352.806000", "113352.808000", "113352.810000", "113352.813000", "113432.768000", "113432.771000", "113432.773000", "113432.776000", "113432.778000", "113432.780000", "113432.782000", "113432.785000", "113432.787000", "113432.789000", "113432.792000", "113432.794000", "113432.797000", "113432.800000", "113432.802000", "113432.805000", "113432.807000", "113432.810000", "113432.812000", "113432.814000", "113512.767000", "113512.770000", "113512.772000", "113512.774000", "113512.777000", "113512.779000", "113512.781000", "113512.783000", "113512.786000", "113512.788000", "113512.790000", "113512.793000", "113512.796000", "113512.799000", "113512.802000", "113512.804000", "113512.806000", "113512.809000", "113512.811000", "113512.813000", "113552.767000", "113552.770000", "113552.772000", "113552.775000", "113552.777000", "113552.779000", "113552.781000", "113552.784000", "113552.786000", "113552.788000", "113552.791000", "113552.793000", "113552.796000", "113552.799000", "113552.802000", "113552.804000", "113552.806000", "113552.808000", "113552.811000", "113552.813000", "113611.016000", "113611.018000", "113611.021000", "113611.023000", "113611.025000", "113611.028000", "113611.030000", "113611.032000", "113611.035000", "113611.037000"],
      "InstanceCreationTime": ["113012.772000", "113012.775000", "113012.777000", "113012.780000", "113012.782000", "113012.803000", "113012.812000", "113012.814000", "113012.816000", "113012.819000", "113012.821000", "113012.823000", "113012.826000", "113012.828000", "113012.830000", "113012.832000", "113012.835000", "113012.837000", "113012.839000", "113012.842000", "113052.767000", "113052.770000", "113052.772000", "113052.775000", "113052.777000", "113052.779000", "113052.782000", "113052.784000", "113052.786000", "113052.789000", "113052.791000", "113052.793000", "113052.795000", "113052.799000", "113052.810000", "113052.812000", "113052.815000", "113052.828000", "113052.830000", "113052.832000", "113112.767000", "113112.770000", "113112.772000", "113112.775000", "113112.777000", "113112.779000", "113112.782000", "113112.784000", "113112.786000", "113112.789000", "113152.768000", "113152.771000", "113152.773000", "113152.775000", "113152.778000", "113152.780000", "113152.783000", "113152.785000", "113152.787000", "113152.790000", "113152.792000", "113152.794000", "113152.798000", "113152.800000", "113152.802000", "113152.805000", "113152.807000", "113152.827000", "113152.829000", "113152.832000", "113232.767000", "113232.770000", "113232.772000", "113232.774000", "113232.777000", "113232.779000", "113232.781000", "113232.784000", "113232.786000", "113232.788000", "113232.791000", "113232.793000", "113232.795000", "113232.799000", "113232.801000", "113232.803000", "113232.806000", "113232.808000", "113232.810000", "113232.813000", "113312.767000", "113312.770000", "113312.773000", "113312.775000", "113312.777000", "113312.780000", "113312.782000", "113312.784000", "113312.786000", "113312.789000", "113312.792000", "113312.794000", "113312.798000", "113312.800000", "113312.803000", "113312.805000", "113312.807000", "113312.810000", "113312.812000", "113312.814000", "113352.767000", "113352.770000", "113352.772000", "113352.774000", "113352.777000", "113352.779000", "113352.781000", "113352.784000", "113352.786000", "113352.788000", "113352.790000", "113352.793000", "113352.796000", "113352.799000", "113352.801000", "113352.804000", "113352.806000", "113352.808000", "113352.810000", "113352.813000", "113432.768000", "113432.771000", "113432.773000", "113432.776000", "113432.778000", "113432.780000", "113432.782000", "113432.785000", "113432.787000", "113432.789000", "113432.792000", "113432.794000", "113432.797000", "113432.800000", "113432.802000", "113432.805000", "113432.807000", "113432.810000", "113432.812000", "113432.814000", "113512.767000", "113512.770000", "113512.772000", "113512.774000", "113512.777000", "113512.779000", "113512.781000", "113512.783000", "113512.786000", "113512.788000", "113512.790000", "113512.793000", "113512.796000", "113512.799000", "113512.802000", "113512.804000", "113512.806000", "113512.809000", "113512.811000", "113512.813000", "113552.767000", "113552.770000", "113552.772000", "113552.775000", "113552.777000", "113552.779000", "113552.781000", "113552.784000", "113552.786000", "113552.788000", "113552.791000", "113552.793000", "113552.796000", "113552.799000", "113552.802000", "113552.804000", "113552.806000", "113552.808000", "113552.811000", "113552.813000", "113611.016000", "113611.018000", "113611.021000", "113611.023000", "113611.025000", "113611.028000", "113611.030000", "113611.032000", "113611.035000", "113611.037000"],
      "InstanceNumber": [1, 2, 3, 4, 5, 6, 7, 8, 9, 10, 11, 12, 13, 14, 15, 16, 17, 18, 19, 20, 21, 22, 23, 24, 25, 26, 27, 28, 29, 30, 31, 32, 33, 34, 35, 36, 37, 38, 39, 40, 41, 42, 43, 44, 45, 46, 47, 48, 49, 50, 51, 52, 53, 54, 55, 56, 57, 58, 59, 60, 61, 62, 63, 64, 65, 66, 67, 68, 69, 70, 71, 72, 73, 74, 75, 76, 77, 78, 79, 80, 81, 82, 83, 84, 85, 86, 87, 88, 89, 90, 91, 92, 93, 94, 95, 96, 97, 98, 99, 100, 101, 102, 103, 104, 105, 106, 107, 108, 109, 110, 111, 112, 113, 114, 115, 116, 117, 118, 119, 120, 121, 122, 123, 124, 125, 126, 127, 128, 129, 130, 131, 132, 133, 134, 135, 136, 137, 138, 139, 140, 141, 142, 143, 144, 145, 146, 147, 148, 149, 150, 151, 152, 153, 154, 155, 156, 157, 158, 159, 160, 161, 162, 163, 164, 165, 166, 167, 168, 169, 170, 171, 172, 173, 174, 175, 176, 177, 178, 179, 180, 181, 182, 183, 184, 185, 186, 187, 188, 189, 190, 191, 192, 193, 194, 195, 196, 197, 198, 199, 200],
      "LargestImagePixelValue": [3511, 3510, 3506, 3509, 3511, 3506, 3509, 3510, 3510, 3506, 3507, 3504, 3508, 3510, 3507, 3507, 3509, 3508, 3510, 3508, 3508, 3508, 3508, 3510, 3511, 3512, 3510, 3512, 3506, 3511, 3511, 3508, 3513, 3507, 3508, 3508, 3508, 3508, 3504, 3507, 3508, 3508, 3506, 3507, 3508, 3505, 3511, 3506, 3506, 3507, 3506, 3512, 3512, 3511, 3509, 3509, 3509, 3509, 3505, 3509, 3509, 3504, 3507, 3511, 3505, 3511, 3511, 3506, 3504, 3504, 3504, 3504, 3505, 3503, 3499, 3500, 3504, 3511, 3512, 3513, 3508, 3507, 3501, 3501, 3503, 3506, 3505, 3503, 3510, 3509, 3514, 3506, 3506, 3502, 3504, 3504, 3506, 3504, 3505, 3507, 3503, 3507, 3501, 3508, 3506, 3508, 3504, 3507, 3510, 3509, 3505, 3500, 3500, 3500, 3502, 3503, 3506, 3502, 3501, 3503, 3502, 3504, 3506, 3507, 3511, 3512, 3510, 3501, 3499, 3506, 3502, 3513, 3517, 3510, 3511, 3496, 3494, 3495, 3501, 3503, 3517, 3514, 3514, 3510, 3507, 3501, 3495, 3493, 3498, 3500, 3501, 3505, 3504, 3505, 3508, 3511, 3501, 3498, 3496, 3496, 3505, 3509, 3515, 3509, 3500, 3510, 3507, 3506, 3499, 3498, 3503, 3509, 3510, 3513, 3509, 3511, 3501, 3495, 3488, 3496, 3508, 3504, 3505, 3504, 3498, 3499, 3495, 3503, 3497, 3499, 3498, 3497, 3500, 3507, 3508, 3498, 3494, 3501, 3492, 3489],
      "WindowCenter": [1288.0, 1288.0, 1288.0, 1288.0, 1288.0, 1288.0, 1288.0, 1288.0, 1288.0, 1288.0, 1288.0, 1288.0, 1288.0, 1288.0, 1288.0, 1287.0, 1287.0, 1287.0, 1288.0, 1288.0, 1287.0, 1288.0, 1287.0, 1288.0, 1287.0, 1287.0, 1287.0, 1287.0, 1287.0, 1287.0, 1287.0, 1287.0, 1287.0, 1287.0, 1287.0, 1288.0, 1288.0, 1288.0, 1287.0, 1288.0, 1288.0, 1287.0, 1287.0, 1287.0, 1287.0, 1287.0, 1288.0, 1287.0, 1287.0, 1287.0, 1287.0, 1287.0, 1287.0, 1288.0, 1287.0, 1287.0, 1287.0, 1287.0, 1287.0, 1287.0, 1287.0, 1287.0, 1287.0, 1287.0, 1287.0, 1287.0, 1287.0, 1288.0, 1287.0, 1287.0, 1286.0, 1287.0, 1286.0, 1287.0, 1286.0, 1287.0, 1286.0, 1287.0, 1287.0, 1287.0, 1286.0, 1286.0, 1287.0, 1286.0, 1286.0, 1286.0, 1286.0, 1286.0, 1287.0, 1287.0, 1286.0, 1286.0, 1286.0, 1286.0, 1287.0, 1287.0, 1287.0, 1286.0, 1287.0, 1287.0, 1287.0, 1287.0, 1286.0, 1287.0, 1287.0, 1287.0, 1287.0, 1286.0, 1286.0, 1286.0, 1286.0, 1286.0, 1286.0, 1286.0, 1286.0, 1286.0, 1286.0, 1286.0, 1286.0, 1286.0, 1286.0, 1286.0, 1286.0, 1286.0, 1286.0, 1286.0, 1286.0, 1286.0, 1286.0, 1286.0, 1286.0, 1286.0, 1286.0, 1286.0, 1285.0, 1286.0, 1286.0, 1286.0, 1286.0, 1286.0, 1286.0, 1286.0, 1286.0, 1286.0, 1286.0, 1285.0, 1286.0, 1285.0, 1286.0, 1286.0, 1286.0, 1286.0, 1286.0, 1286.0, 1285.0, 1285.0, 1285.0, 1286.0, 1286.0, 1285.0, 1285.0, 1285.0, 1286.0, 1286.0, 1285.0, 1285.0, 1286.0, 1285.0, 1285.0, 1285.0, 1286.0, 1286.0, 1285.0, 1285.0, 1285.0, 1285.0, 1285.0, 1285.0, 1285.0, 1285.0, 1285.0, 1285.0, 1285.0, 1285.0, 1285.0, 1285.0, 1285.0, 1285.0, 1285.0, 1285.0, 1285.0, 1285.0, 1285.0, 1285.0, 1285.0, 1285.0, 1284.0, 1284.0, 1285.0, 1285.0],
      "WindowWidth": [3089.0, 3089.0, 3089.0, 3089.0, 3088.0, 3089.0, 3088.0, 3088.0, 3089.0, 3089.0, 3089.0, 3088.0, 3088.0, 3088.0, 3088.0, 3088.0, 3088.0, 3088.0, 3088.0, 3088.0, 3088.0, 3088.0, 3088.0, 3088.0, 3088.0, 3088.0, 3088.0, 3088.0, 3088.0, 3088.0, 3088.0, 3088.0, 3088.0, 3088.0, 3088.0, 3088.0, 3088.0, 3088.0, 3088.0, 3088.0, 3088.0, 3088.0, 3088.0, 3088.0, 3088.0, 3088.0, 3088.0, 3088.0, 3088.0, 3088.0, 3088.0, 3087.0, 3087.0, 3087.0, 3088.0, 3088.0, 3088.0, 3088.0, 3088.0, 3088.0, 3088.0, 3087.0, 3088.0, 3087.0, 3088.0, 3088.0, 3088.0, 3087.0, 3087.0, 3087.0, 3087.0, 3087.0, 3087.0, 3087.0, 3087.0, 3087.0, 3087.0, 3087.0, 3087.0, 3087.0, 3087.0, 3087.0, 3087.0, 3087.0, 3087.0, 3087.0, 3087.0, 3087.0, 3087.0, 3087.0, 3087.0, 3087.0, 3087.0, 3087.0, 3087.0, 3087.0, 3087.0, 3087.0, 3087.0, 3087.0, 3087.0, 3087.0, 3087.0, 3087.0, 3087.0, 3087.0, 3087.0, 3087.0, 3087.0, 3087.0, 3087.0, 3087.0, 3087.0, 3087.0, 3087.0, 3087.0, 3087.0, 3087.0, 3087.0, 3087.0, 3087.0, 3087.0, 3087.0, 3087.0, 3087.0, 3087.0, 3087.0, 3087.0, 3087.0, 3087.0, 3087.0, 3087.0, 3087.0, 3087.0, 3087.0, 3087.0, 3087.0, 3087.0, 3087.0, 3086.0, 3087.0, 3087.0, 3087.0, 3087.0, 3087.0, 3087.0, 3087.0, 3087.0, 3087.0, 3086.0, 3086.0, 3087.0, 3086.0, 3086.0, 3087.0, 3087.0, 3087.0, 3086.0, 3086.0, 3087.0, 3087.0, 3087.0, 3086.0, 3086.0, 3087.0, 3087.0, 3086.0, 3087.0, 3087.0, 3087.0, 3086.0, 3086.0, 3087.0, 3087.0, 3087.0, 3087.0, 3087.0, 3086.0, 3087.0, 3087.0, 3087.0, 3087.0, 3087.0, 3087.0, 3087.0, 3087.0, 3087.0, 3087.0, 3087.0, 3087.0, 3087.0, 3087.0, 3087.0, 3087.0, 3087.0, 3087.0, 3087.0, 3087.0, 3086.0, 3086.0]
    },
    "slices": {}
  }
}