{
  "AcquisitionMatrixPE": 80,
  "AcquisitionNumber": 1,
  "AcquisitionTime": "11:22:41.747500",
  "BandwidthPerPixelPhaseEncode": 48.077,
  "BaseResolution": 80,
  "BodyPartExamined": "BRAIN",
  "CoilCombinationMethod": "Sum of Squares",
  "ConsistencyInfo": "N4_VE11E_LATEST_20181129",
  "ConversionSoftware": "dcm2niix",
  "ConversionSoftwareVersion": "v1.0.20220720",
  "DerivedVendorReportedEchoSpacing": 0.000519999,
  "DeviceSerialNumber": "66112",
  "DwellTime": 2.7e-06,
  "EchoTime": 0.035,
  "EchoTrainLength": 39,
  "EffectiveEchoSpacing": 0.00026,
  "FlipAngle": 90,
  "HeudiconvVersion": "0.13.1",
  "ImageOrientationPatientDICOM": [0.988377, -0.152025, 0.000308327, 0.144365, 0.939208, 0.311525],
  "ImageOrientationText": "Tra>Cor(18.0)>Sag(2.7)",
  "ImageType": [
    "ORIGINAL",
    "PRIMARY",
    "M",
    "ND",
    "NORM",
    "MOSAIC"
],
  "ImagingFrequency": 123.252,
  "InPlanePhaseEncodingDirectionDICOM": "COL",
  "InstitutionAddress": "Maynard 3,Hanover,NH,US,03755",
  "InstitutionName": "Dartmouth College - PBS",
  "InstitutionalDepartmentName": "Department",
  "MRAcquisitionType": "2D",
  "MagneticFieldStrength": 3,
  "Manufacturer": "Siemens",
  "ManufacturersModelName": "Prisma",
  "MatrixCoilMode": "GRAPPA",
  "Modality": "MR",
  "NonlinearGradientCorrection": false,
  "ParallelReductionFactorInPlane": 2,
  "PartialFourier": 1,
  "PatientPosition": "HFS",
  "PercentPhaseFOV": 100,
  "PercentSampling": 100,
  "PhaseEncodingDirection": "j-",
  "PhaseEncodingSteps": 79,
  "PhaseResolution": 1,
  "PixelBandwidth": 2315,
  "ProcedureStepDescription": "dbic^QA",
  "ProtocolName": "func-bold_task-rest_acq-p2",
  "PulseSequenceDetails": "%SiemensSeq%\\ep2d_bold",
  "ReceiveCoilActiveElements": "HC1-7;NC1,2",
  "ReceiveCoilName": "HeadNeck_64",
  "ReconMatrixPE": 80,
  "RefLinesPE": 24,
  "RepetitionTime": 2,
  "SAR": 0.0472544,
  "ScanOptions": "FS",
  "ScanningSequence": "EP",
  "SequenceName": "*epfid2d1_80",
  "SequenceVariant": "SK",
  "SeriesDescription": "func-bold_task-rest_acq-p2",
  "SeriesNumber": 5,
  "ShimSetting": [4143, -7727, -7511, 152, -63, -211, -16, 66],
  "SliceThickness": 3.5,
  "SliceTiming": [0.99, 0, 1.055, 0.065, 1.1225, 0.1325, 1.1875, 0.1975, 1.255, 0.265, 1.32, 0.33, 1.385, 0.395, 1.4525, 0.4625, 1.5175, 0.5275, 1.585, 0.595, 1.65, 0.66, 1.715, 0.725, 1.7825, 0.7925, 1.8475, 0.8575, 1.9125, 0.925],
  "SoftwareVersions": "syngo MR E11",
  "SpacingBetweenSlices": 3.99,
  "StationName": "AWP66112",
  "TaskName": "rest",
  "TotalReadoutTime": 0.02054,
  "TxRefAmp": 213.855,
  "dcmmeta_affine": [
    [-2.965129852294922, 0.43309420347213745, 0.1901199370622635, 101.50396728515625],
    [0.45607417821884155, 2.8176229000091553, 1.2283600568771362, -129.9073944091797],
    [0.0009249800350517035, -0.9345753788948059, 3.7914490699768066, -11.21981430053711],
    [0.0, 0.0, 0.0, 1.0]
],
  "dcmmeta_reorient_transform": [
    [0.0, -1.0, 0.0, 79.0],
    [1.0, 0.0, 0.0, 0.0],
    [0.0, 0.0, 1.0, 0.0],
    [0.0, 0.0, 0.0, 1.0]
],
  "dcmmeta_shape": [80, 80, 30, 200],
  "dcmmeta_slice_dim": 2,
  "dcmmeta_version": 0.6,
  "global": {
    "const": {
      "AccessionNumber": "qa64",
      "AcquisitionMatrix": [80, 0, 0, 80],
      "AngioFlag": "N",
      "BitsAllocated": 16,
      "BitsStored": 12,
      "BodyPartExamined": "BRAIN",
      "Columns": 480,
      "EchoNumbers": 1,
      "EchoTime": 35.0,
      "EchoTrainLength": 39,
      "FlipAngle": 90.0,
      "HighBit": 11,
      "ImageOrientationPatient": [0.98837664232929, -0.1520247277009, 0.00030832667341, 0.14436473094767, 0.93920759939968, 0.31152513492222],
      "ImagePositionPatient": [-815.36323402554, -564.99453058202, -272.15134845237],
      "ImageType": [
        "ORIGINAL",
        "PRIMARY",
        "M",
        "ND",
        "NORM",
        "MOSAIC"
],
      "ImagedNucleus": "1H",
      "ImagingFrequency": 123.252369,
      "InPlanePhaseEncodingDirection": "COL",
      "MRAcquisitionType": "2D",
      "MagneticFieldStrength": 3.0,
      "Manufacturer": "SIEMENS",
      "ManufacturerModelName": "Prisma",
      "Modality": "MR",
      "NumberOfAverages": 1.0,
      "NumberOfPhaseEncodingSteps": 79,
      "PercentPhaseFieldOfView": 100.0,
      "PercentSampling": 100.0,
      "PerformedProcedureStepStartTime": "111955.475000",
      "PhotometricInterpretation": "MONOCHROME2",
      "PixelBandwidth": 2315.0,
      "PixelRepresentation": 0,
      "PixelSpacing": [3.0, 3.0],
      "ProtocolName": "func-bold_task-rest_acq-p2",
      "RepetitionTime": 2000.0,
      "Rows": 480,
      "SAR": 0.04725435053532,
      "SamplesPerPixel": 1,
      "ScanOptions": "FS",
      "ScanningSequence": "EP",
      "SequenceName": "*epfid2d1_80",
      "SequenceVariant": "SK",
      "SeriesDescription": "func-bold_task-rest_acq-p2",
      "SeriesNumber": 5,
      "SeriesTime": "112332.681000",
      "SliceLocation": -45.818164527881,
      "SliceThickness": 3.5,
      "SmallestImagePixelValue": 0,
      "SoftwareVersions": "syngo MR E11",
      "SpacingBetweenSlices": 3.9899999720291,
      "SpecificCharacterSet": "ISO_IR 100",
      "StudyID": "8",
      "StudyTime": "111955.391000",
      "TransmitCoilName": "Body",
      "VariableFlipAngleFlag": "N",
      "WindowCenterWidthExplanation": "Algo1"
    },
    "slices": {}
  },
  "time": {
    "samples": {
      "AcquisitionNumber": [1, 2, 3, 4, 5, 6, 7, 8, 9, 10, 11, 12, 13, 14, 15, 16, 17, 18, 19, 20, 21, 22, 23, 24, 25, 26, 27, 28, 29, 30, 31, 32, 33, 34, 35, 36, 37, 38, 39, 40, 41, 42, 43, 44, 45, 46, 47, 48, 49, 50, 51, 52, 53, 54, 55, 56, 57, 58, 59, 60, 61, 62, 63, 64, 65, 66, 67, 68, 69, 70, 71, 72, 73, 74, 75, 76, 77, 78, 79, 80, 81, 82, 83, 84, 85, 86, 87, 88, 89, 90, 91, 92, 93, 94, 95, 96, 97, 98, 99, 100, 101, 102, 103, 104, 105, 106, 107, 108, 109, 110, 111, 112, 113, 114, 115, 116, 117, 118, 119, 120, 121, 122, 123, 124, 125, 126, 127, 128, 129, 130, 131, 132, 133, 134, 135, 136, 137, 138, 139, 140, 141, 142, 143, 144, 145, 146, 147, 148, 149, 150, 151, 152, 153, 154, 155, 156, 157, 158, 159, 160, 161, 162, 163, 164, 165, 166, 167, 168, 169, 170, 171, 172, 173, 174, 175, 176, 177, 178, 179, 180, 181, 182, 183, 184, 185, 186, 187, 188, 189, 190, 191, 192, 193, 194, 195, 196, 197, 198, 199, 200],
      "AcquisitionTime": ["112241.747500", "112243.747500", "112245.747500", "112247.747500", "112249.747500", "112251.747500", "112253.747500", "112255.747500", "112257.747500", "112259.747500", "112301.747500", "112303.747500", "112305.747500", "112307.747500", "112309.747500", "112311.747500", "112313.747500", "112315.747500", "112317.747500", "112319.747500", "112321.747500", "112323.747500", "112325.747500", "112327.747500", "112329.747500", "112331.747500", "112333.747500", "112335.747500", "112337.747500", "112339.747500", "112341.747500", "112343.747500", "112345.747500", "112347.747500", "112349.747500", "112351.747500", "112353.747500", "112355.747500", "112357.747500", "112359.747500", "112401.747500", "112403.747500", "112405.747500", "112407.747500", "112409.747500", "112411.747500", "112413.747500", "112415.747500", "112417.747500", "112419.747500", "112421.747500", "112423.747500", "112425.747500", "112427.747500", "112429.747500", "112431.747500", "112433.747500", "112435.747500", "112437.747500", "112439.747500", "112441.747500", "112443.747500", "112445.747500", "112447.747500", "112449.747500", "112451.747500", "112453.747500", "112455.747500", "112457.747500", "112459.747500", "112501.747500", "112503.747500", "112505.747500", "112507.747500", "112509.747500", "112511.747500", "112513.747500", "112515.747500", "112517.747500", "112519.747500", "112521.747500", "112523.747500", "112525.747500", "112527.747500", "112529.747500", "112531.747500", "112533.747500", "112535.747500", "112537.747500", "112539.747500", "112541.747500", "112543.747500", "112545.747500", "112547.747500", "112549.747500", "112551.747500", "112553.747500", "112555.747500", "112557.747500", "112559.747500", "112601.747500", "112603.747500", "112605.747500", "112607.747500", "112609.747500", "112611.747500", "112613.747500", "112615.747500", "112617.747500", "112619.747500", "112621.747500", "112623.747500", "112625.747500", "112627.747500", "112629.747500", "112631.747500", "112633.747500", "112635.747500", "112637.747500", "112639.747500", "112641.747500", "112643.747500", "112645.747500", "112647.747500", "112649.747500", "112651.747500", "112653.747500", "112655.747500", "112657.747500", "112659.747500", "112701.747500", "112703.747500", "112705.747500", "112707.747500", "112709.747500", "112711.747500", "112713.747500", "112715.747500", "112717.747500", "112719.747500", "112721.747500", "112723.747500", "112725.747500", "112727.747500", "112729.747500", "112731.747500", "112733.747500", "112735.747500", "112737.747500", "112739.747500", "112741.747500", "112743.747500", "112745.747500", "112747.747500", "112749.747500", "112751.747500", "112753.747500", "112755.747500", "112757.747500", "112759.747500", "112801.747500", "112803.747500", "112805.747500", "112807.747500", "112809.747500", "112811.747500", "112813.747500", "112815.747500", "112817.747500", "112819.747500", "112821.747500", "112823.747500", "112825.747500", "112827.747500", "112829.747500", "112831.747500", "112833.747500", "112835.747500", "112837.747500", "112839.747500", "112841.747500", "112843.747500", "112845.747500", "112847.747500", "112849.747500", "112851.747500", "112853.747500", "112855.747500", "112857.747500", "112859.747500", "112901.747500", "112903.747500", "112905.747500", "112907.747500", "112909.747500", "112911.747500", "112913.747500", "112915.747500", "112917.747500", "112919.747500"],
      "ContentTime": ["112332.685000", "112332.688000", "112332.691000", "112332.693000", "112332.695000", "112332.698000", "112332.700000", "112332.702000", "112332.705000", "112332.707000", "112332.709000", "112332.712000", "112332.714000", "112332.729000", "112332.731000", "112332.734000", "112332.736000", "112332.738000", "112332.741000", "112332.743000", "112332.745000", "112332.748000", "112332.750000", "112332.752000", "112332.755000", "112412.680000", "112412.683000", "112412.685000", "112412.688000", "112412.690000", "112412.692000", "112412.695000", "112412.697000", "112412.699000", "112412.702000", "112412.704000", "112412.707000", "112412.709000", "112412.711000", "112412.714000", "112412.716000", "112412.718000", "112412.720000", "112412.723000", "112412.725000", "112452.680000", "112452.683000", "112452.685000", "112452.687000", "112452.690000", "112452.692000", "112452.694000", "112452.697000", "112452.699000", "112452.701000", "112452.704000", "112452.706000", "112452.708000", "112452.711000", "112452.713000", "112452.716000", "112452.718000", "112452.720000", "112452.723000", "112452.725000", "112532.680000", "112532.683000", "112532.685000", "112532.687000", "112532.690000", "112532.692000", "112532.694000", "112532.697000", "112532.699000", "112532.701000", "112532.704000", "112532.706000", "112532.708000", "112532.710000", "112532.720000", "112532.722000", "112532.724000", "112532.727000", "112532.729000", "112532.731000", "112612.680000", "112612.683000", "112612.685000", "112612.687000", "112612.690000", "112612.692000", "112612.694000", "112612.697000", "112612.699000", "112612.701000", "112612.704000", "112612.706000", "112612.708000", "112612.711000", "112612.713000", "112612.715000", "112612.718000", "112612.720000", "112612.722000", "112612.725000", "112652.680000", "112652.683000", "112652.685000", "112652.688000", "112652.690000", "112652.692000", "112652.695000", "112652.697000", "112652.699000", "112652.702000", "112652.704000", "112652.706000", "112652.709000", "112652.711000", "112652.713000", "112652.716000", "112652.718000", "112652.720000", "112652.722000", "112652.725000", "112732.681000", "112732.684000", "112732.687000", "112732.689000", "112732.691000", "112732.694000", "112732.696000", "112732.698000", "112732.701000", "112732.703000", "112732.705000", "112732.708000", "112732.710000", "112732.712000", "112732.715000", "112732.717000", "112732.719000", "112732.722000", "112732.724000", "112732.726000", "112812.680000", "112812.683000", "112812.685000", "112812.687000", "112812.690000", "112812.692000", "112812.694000", "112812.697000", "112812.699000", "112812.701000", "112812.704000", "112812.706000", "112812.708000", "112812.711000", "112812.713000", "112812.715000", "112812.718000", "112812.720000", "112812.722000", "112812.724000", "112852.680000", "112852.683000", "112852.685000", "112852.688000", "112852.690000", "112852.692000", "112852.695000", "112852.697000", "112852.699000", "112852.702000", "112852.704000", "112852.707000", "112852.709000", "112852.711000", "112852.714000", "112852.716000", "112852.718000", "112852.721000", "112852.723000", "112852.725000", "112920.938000", "112920.942000", "112920.944000", "112920.948000", "112920.952000", "112920.954000", "112920.958000", "112920.961000", "112920.964000", "112920.971000", "112920.976000", "112920.979000", "112920.982000", "112920.985000", "112920.987000"],
      "InstanceCreationTime": ["112332.685000", "112332.688000", "112332.691000", "112332.693000", "112332.695000", "112332.698000", "112332.700000", "112332.702000", "112332.705000", "112332.707000", "112332.709000", "112332.712000", "112332.714000", "112332.729000", "112332.731000", "112332.734000", "112332.736000", "112332.738000", "112332.741000", "112332.743000", "112332.745000", "112332.748000", "112332.750000", "112332.752000", "112332.755000", "112412.680000", "112412.683000", "112412.685000", "112412.688000", "112412.690000", "112412.692000", "112412.695000", "112412.697000", "112412.699000", "112412.702000", "112412.704000", "112412.707000", "112412.709000", "112412.711000", "112412.714000", "112412.716000", "112412.718000", "112412.720000", "112412.723000", "112412.725000", "112452.680000", "112452.683000", "112452.685000", "112452.687000", "112452.690000", "112452.692000", "112452.694000", "112452.697000", "112452.699000", "112452.701000", "112452.704000", "112452.706000", "112452.708000", "112452.711000", "112452.713000", "112452.716000", "112452.718000", "112452.720000", "112452.723000", "112452.725000", "112532.680000", "112532.683000", "112532.685000", "112532.687000", "112532.690000", "112532.692000", "112532.694000", "112532.697000", "112532.699000", "112532.701000", "112532.704000", "112532.706000", "112532.708000", "112532.710000", "112532.720000", "112532.722000", "112532.724000", "112532.727000", "112532.729000", "112532.731000", "112612.680000", "112612.683000", "112612.685000", "112612.687000", "112612.690000", "112612.692000", "112612.694000", "112612.697000", "112612.699000", "112612.701000", "112612.704000", "112612.706000", "112612.708000", "112612.711000", "112612.713000", "112612.715000", "112612.718000", "112612.720000", "112612.722000", "112612.725000", "112652.680000", "112652.683000", "112652.685000", "112652.688000", "112652.690000", "112652.692000", "112652.695000", "112652.697000", "112652.699000", "112652.702000", "112652.704000", "112652.706000", "112652.709000", "112652.711000", "112652.713000", "112652.716000", "112652.718000", "112652.720000", "112652.722000", "112652.725000", "112732.681000", "112732.684000", "112732.687000", "112732.689000", "112732.691000", "112732.694000", "112732.696000", "112732.698000", "112732.701000", "112732.703000", "112732.705000", "112732.708000", "112732.710000", "112732.712000", "112732.715000", "112732.717000", "112732.719000", "112732.722000", "112732.724000", "112732.726000", "112812.680000", "112812.683000", "112812.685000", "112812.687000", "112812.690000", "112812.692000", "112812.694000", "112812.697000", "112812.699000", "112812.701000", "112812.704000", "112812.706000", "112812.708000", "112812.711000", "112812.713000", "112812.715000", "112812.718000", "112812.720000", "112812.722000", "112812.724000", "112852.680000", "112852.683000", "112852.685000", "112852.688000", "112852.690000", "112852.692000", "112852.695000", "112852.697000", "112852.699000", "112852.702000", "112852.704000", "112852.707000", "112852.709000", "112852.711000", "112852.714000", "112852.716000", "112852.718000", "112852.721000", "112852.723000", "112852.725000", "112920.938000", "112920.942000", "112920.944000", "112920.948000", "112920.952000", "112920.954000", "112920.958000", "112920.961000", "112920.964000", "112920.971000", "112920.976000", "112920.979000", "112920.982000", "112920.985000", "112920.987000"],
      "InstanceNumber": [1, 2, 3, 4, 5, 6, 7, 8, 9, 10, 11, 12, 13, 14, 15, 16, 17, 18, 19, 20, 21, 22, 23, 24, 25, 26, 27, 28, 29, 30, 31, 32, 33, 34, 35, 36, 37, 38, 39, 40, 41, 42, 43, 44, 45, 46, 47, 48, 49, 50, 51, 52, 53, 54, 55, 56, 57, 58, 59, 60, 61, 62, 63, 64, 65, 66, 67, 68, 69, 70, 71, 72, 73, 74, 75, 76, 77, 78, 79, 80, 81, 82, 83, 84, 85, 86, 87, 88, 89, 90, 91, 92, 93, 94, 95, 96, 97, 98, 99, 100, 101, 102, 103, 104, 105, 106, 107, 108, 109, 110, 111, 112, 113, 114, 115, 116, 117, 118, 119, 120, 121, 122, 123, 124, 125, 126, 127, 128, 129, 130, 131, 132, 133, 134, 135, 136, 137, 138, 139, 140, 141, 142, 143, 144, 145, 146, 147, 148, 149, 150, 151, 152, 153, 154, 155, 156, 157, 158, 159, 160, 161, 162, 163, 164, 165, 166, 167, 168, 169, 170, 171, 172, 173, 174, 175, 176, 177, 178, 179, 180, 181, 182, 183, 184, 185, 186, 187, 188, 189, 190, 191, 192, 193, 194, 195, 196, 197, 198, 199, 200],
      "LargestImagePixelValue": [3568, 3573, 3568, 3564, 3578, 3569, 3563, 3571, 3565, 3575, 3562, 3564, 3586, 3567, 3557, 3563, 3564, 3549, 3565, 3565, 3559, 3559, 3559, 3573, 3557, 3575, 3563, 3562, 3572, 3573, 3568, 3567, 3566, 3560, 3567, 3574, 3561, 3564, 3566, 3561, 3560, 3566, 3576, 3565, 3577, 3559, 3569, 3565, 3563, 3563, 3557, 3570, 3563, 3560, 3579, 3565, 3563, 3576, 3568, 3569, 3564, 3567, 3559, 3570, 3558, 3575, 3562, 3566, 3560, 3569, 3562, 3571, 3564, 3566, 3577, 3559, 3565, 3569, 3562, 3558, 3565, 3563, 3563, 3569, 3553, 3574, 3557, 3567, 3571, 3566, 3554, 3560, 3559, 3564, 3571, 3568, 3564, 3564, 3565, 3569, 3557, 3567, 3551, 3565, 3558, 3565, 3562, 3561, 3559, 3562, 3556, 3561, 3566, 3556, 3560, 3556, 3569, 3564, 3561, 3564, 3573, 3558, 3562, 3550, 3563, 3562, 3553, 3553, 3567, 3562, 3559, 3565, 3555, 3566, 3552, 3564, 3558, 3559, 3568, 3554, 3560, 3561, 3553, 3555, 3558, 3555, 3552, 3560, 3561, 3550, 3565, 3553, 3563, 3548, 3549, 3557, 3550, 3555, 3564, 3553, 3559, 3556, 3573, 3564, 3563, 3561, 3559, 3557, 3560, 3566, 3558, 3570, 3561, 3565, 3556, 3557, 3567, 3558, 3558, 3563, 3564, 3559, 3560, 3552, 3563, 3551, 3556, 3565, 3548, 3549, 3551, 3546, 3565, 3552, 3550, 3548, 3552, 3553, 3545, 3557],
      "WindowCenter": [1348.0, 1347.0, 1347.0, 1347.0, 1347.0, 1347.0, 1347.0, 1347.0, 1347.0, 1347.0, 1346.0, 1347.0, 1346.0, 1346.0, 1347.0, 1347.0, 1346.0, 1347.0, 1346.0, 1346.0, 1346.0, 1347.0, 1346.0, 1346.0, 1346.0, 1346.0, 1346.0, 1345.0, 1346.0, 1345.0, 1345.0, 1346.0, 1345.0, 1345.0, 1345.0, 1346.0, 1345.0, 1345.0, 1346.0, 1345.0, 1345.0, 1346.0, 1345.0, 1346.0, 1345.0, 1345.0, 1345.0, 1345.0, 1346.0, 1345.0, 1345.0, 1346.0, 1345.0, 1345.0, 1345.0, 1346.0, 1346.0, 1346.0, 1346.0, 1346.0, 1346.0, 1346.0, 1346.0, 1346.0, 1346.0, 1346.0, 1346.0, 1346.0, 1346.0, 1346.0, 1346.0, 1346.0, 1346.0, 1345.0, 1345.0, 1345.0, 1346.0, 1345.0, 1346.0, 1345.0, 1345.0, 1346.0, 1345.0, 1345.0, 1345.0, 1345.0, 1345.0, 1345.0, 1345.0, 1346.0, 1345.0, 1345.0, 1345.0, 1345.0, 1346.0, 1345.0, 1345.0, 1346.0, 1345.0, 1345.0, 1346.0, 1345.0, 1345.0, 1345.0, 1345.0, 1345.0, 1345.0, 1345.0, 1345.0, 1345.0, 1345.0, 1345.0, 1345.0, 1345.0, 1345.0, 1345.0, 1345.0, 1345.0, 1345.0, 1344.0, 1344.0, 1345.0, 1345.0, 1345.0, 1345.0, 1345.0, 1344.0, 1344.0, 1344.0, 1344.0, 1344.0, 1344.0, 1344.0, 1344.0, 1345.0, 1344.0, 1344.0, 1344.0, 1344.0, 1343.0, 1344.0, 1344.0, 1344.0, 1343.0, 1343.0, 1344.0, 1344.0, 1343.0, 1344.0, 1344.0, 1344.0, 1343.0, 1344.0, 1343.0, 1343.0, 1344.0, 1343.0, 1344.0, 1343.0, 1343.0, 1343.0, 1343.0, 1343.0, 1343.0, 1343.0, 1343.0, 1343.0, 1343.0, 1343.0, 1344.0, 1343.0, 1343.0, 1343.0, 1344.0, 1343.0, 1343.0, 1344.0, 1343.0, 1343.0, 1343.0, 1343.0, 1343.0, 1343.0, 1343.0, 1343.0, 1343.0, 1343.0, 1343.0, 1343.0, 1343.0, 1343.0, 1343.0, 1343.0, 1343.0, 1343.0, 1344.0, 1343.0, 1343.0, 1343.0, 1343.0],
      "WindowWidth": [3129.0, 3128.0, 3128.0, 3128.0, 3128.0, 3128.0, 3128.0, 3128.0, 3127.0, 3127.0, 3127.0, 3127.0, 3127.0, 3127.0, 3127.0, 3127.0, 3127.0, 3127.0, 3127.0, 3127.0, 3127.0, 3126.0, 3126.0, 3126.0, 3126.0, 3126.0, 3126.0, 3126.0, 3126.0, 3126.0, 3126.0, 3126.0, 3126.0, 3126.0, 3126.0, 3126.0, 3126.0, 3126.0, 3126.0, 3126.0, 3126.0, 3126.0, 3126.0, 3126.0, 3126.0, 3126.0, 3126.0, 3126.0, 3126.0, 3126.0, 3126.0, 3126.0, 3126.0, 3126.0, 3126.0, 3126.0, 3126.0, 3126.0, 3126.0, 3126.0, 3126.0, 3125.0, 3126.0, 3126.0, 3126.0, 3126.0, 3125.0, 3125.0, 3126.0, 3126.0, 3126.0, 3126.0, 3126.0, 3126.0, 3126.0, 3126.0, 3125.0, 3126.0, 3126.0, 3126.0, 3126.0, 3125.0, 3126.0, 3126.0, 3126.0, 3126.0, 3126.0, 3126.0, 3126.0, 3125.0, 3126.0, 3126.0, 3126.0, 3126.0, 3126.0, 3125.0, 3126.0, 3125.0, 3125.0, 3125.0, 3126.0, 3126.0, 3125.0, 3125.0, 3125.0, 3125.0, 3125.0, 3125.0, 3125.0, 3125.0, 3125.0, 3125.0, 3125.0, 3125.0, 3125.0, 3125.0, 3124.0, 3124.0, 3124.0, 3125.0, 3125.0, 3124.0, 3124.0, 3124.0, 3124.0, 3124.0, 3124.0, 3124.0, 3124.0, 3124.0, 3124.0, 3124.0, 3124.0, 3124.0, 3123.0, 3124.0, 3124.0, 3124.0, 3124.0, 3123.0, 3124.0, 3123.0, 3123.0, 3123.0, 3123.0, 3123.0, 3123.0, 3123.0, 3123.0, 3123.0, 3123.0, 3123.0, 3123.0, 3123.0, 3123.0, 3123.0, 3123.0, 3123.0, 3123.0, 3123.0, 3123.0, 3123.0, 3123.0, 3123.0, 3123.0, 3123.0, 3123.0, 3123.0, 3123.0, 3122.0, 3123.0, 3123.0, 3123.0, 3122.0, 3123.0, 3123.0, 3122.0, 3123.0, 3123.0, 3123.0, 3123.0, 3123.0, 3123.0, 3123.0, 3123.0, 3122.0, 3123.0, 3123.0, 3123.0, 3123.0, 3122.0, 3122.0, 3123.0, 3123.0, 3123.0, 3122.0, 3122.0, 3123.0, 3122.0, 3123.0]
    },
    "slices": {}
  }
}