{
  "AcquisitionMatrixPE": 122,
  "AcquisitionNumber": 1,
  "AcquisitionTime": "11:03:27.192500",
  "BandwidthPerPixelPhaseEncode": 28.76,
  "BaseResolution": 122,
  "BodyPartExamined": "BRAIN",
  "CoilCombinationMethod": "Adaptive Combine",
  "ConsistencyInfo": "N4_VE11C_LATEST_20160120",
  "ConversionSoftware": "dcm2niix",
  "ConversionSoftwareVersion": "v1.0.20220720",
  "DerivedVendorReportedEchoSpacing": 0.000570008,
  "DeviceSerialNumber": "66112",
  "DiffusionScheme": "Monopolar",
  "DwellTime": 2e-06,
  "EchoTime": 0.075,
  "EchoTrainLength": 61,
  "EffectiveEchoSpacing": 0.000285004,
  "FlipAngle": 90,
  "HeudiconvVersion": "0.13.1",
  "ImageOrientationPatientDICOM": [0.994557, -0.104014, 0.00607494, 0.097342, 0.948389, 0.301799],
  "ImageOrientationText": "Tra>Cor(17.4)>Sag(2.1)",
  "ImageType": [
    "ORIGINAL",
    "PRIMARY",
    "DIFFUSION",
    "NONE",
    "ND",
    "NORM"
],
  "ImagingFrequency": 123.252,
  "InPlanePhaseEncodingDirectionDICOM": "COL",
  "InstitutionAddress": "Maynard 3,Hanover,NH,US,03755",
  "InstitutionName": "Dartmouth College - PBS",
  "InstitutionalDepartmentName": "Department",
  "MRAcquisitionType": "2D",
  "MagneticFieldStrength": 3,
  "Manufacturer": "Siemens",
  "ManufacturersModelName": "Prisma",
  "MatrixCoilMode": "GRAPPA",
  "Modality": "MR",
  "NonlinearGradientCorrection": false,
  "ParallelReductionFactorInPlane": 2,
  "PartialFourier": 1,
  "PatientPosition": "HFS",
  "PercentPhaseFOV": 100,
  "PercentSampling": 100,
  "PhaseEncodingDirection": "j-",
  "PhaseEncodingSteps": 122,
  "PhaseResolution": 1,
  "PixelBandwidth": 2050,
  "ProcedureStepDescription": "dbic^QA",
  "ProtocolName": "dwi_acq-DTI-30-p2",
  "PulseSequenceDetails": "%SiemensSeq%\\ep2d_diff",
  "ReceiveCoilActiveElements": "HEA;HEP",
  "ReceiveCoilName": "Head_32",
  "ReconMatrixPE": 122,
  "RefLinesPE": 38,
  "RepetitionTime": 7.7,
  "SAR": 0.102027,
  "ScanOptions": "FS",
  "ScanningSequence": "EP",
  "SequenceName": "*ep_b0",
  "SequenceVariant": "SK\\SP",
  "SeriesDescription": "dwi_acq-DTI-30-p2",
  "SeriesNumber": 12,
  "ShimSetting": [4147, -7705, -7511, 258, -61, -115, -19, 70],
  "SliceThickness": 2,
  "SliceTiming": [3.84375, 0, 3.95312, 0.10938, 4.0625, 0.21875, 4.17188, 0.32812, 4.28125, 0.4375, 4.39062, 0.54688, 4.5, 0.65625, 4.60938, 0.76562, 4.71875, 0.875, 4.82812, 0.99219, 4.9375, 1.10156, 5.04688, 1.21094, 5.15625, 1.32031, 5.26562, 1.42969, 5.375, 1.53906, 5.48438, 1.64844, 5.59375, 1.75781, 5.70312, 1.86719, 5.8125, 1.97656, 5.92969, 2.08594, 6.03906, 2.19531, 6.14062, 2.30469, 6.25, 2.41406, 6.36719, 2.52344, 6.47656, 2.63281, 6.58594, 2.74219, 6.69531, 2.85156, 6.80469, 2.96094, 6.91406, 3.07031, 7.02344, 3.17969, 7.13281, 3.28906, 7.24219, 3.39844, 7.35156, 3.50781, 7.46094, 3.61719, 7.57031, 3.73438],
  "SoftwareVersions": "syngo MR E11",
  "SpacingBetweenSlices": 2,
  "SpoilingState": true,
  "StationName": "AWP66112",
  "TotalReadoutTime": 0.0344855,
  "TxRefAmp": 225.2,
  "dcmmeta_affine": [
    [-1.9565062522888184, 0.19149237871170044, 0.07430529594421387, 106.70311737060547],
    [0.20461729168891907, 1.8656837940216064, 0.5991287231445312, -138.6119842529297],
    [0.011950693093240261, -0.5937020182609558, 1.906707763671875, -36.803348541259766],
    [0.0, 0.0, 0.0, 1.0]
],
  "dcmmeta_reorient_transform": [
    [0.0, -1.0, 0.0, 121.0],
    [1.0, 0.0, 0.0, 0.0],
    [0.0, 0.0, -1.0, 69.0],
    [0.0, 0.0, 0.0, 1.0]
],
  "dcmmeta_shape": [122, 122, 70, 31],
  "dcmmeta_slice_dim": 2,
  "dcmmeta_version": 0.6,
  "global": {
    "const": {
      "AccessionNumber": "qa",
      "AcquisitionMatrix": [122, 0, 0, 122],
      "AngioFlag": "N",
      "BitsAllocated": 16,
      "BitsStored": 12,
      "BodyPartExamined": "BRAIN",
      "Columns": 122,
      "EchoNumbers": 1,
      "EchoTime": 75.0,
      "EchoTrainLength": 61,
      "FlipAngle": 90.0,
      "HighBit": 11,
      "ImageOrientationPatient": [0.99455730186619, -0.1040137897591, 0.0060749357694, 0.09734195793503, 0.94838926526642, 0.30179851681676],
      "ImageType": [
        "ORIGINAL",
        "PRIMARY",
        "DIFFUSION",
        "NONE",
        "ND",
        "NORM"
],
      "ImagedNucleus": "1H",
      "ImagingFrequency": 123.252347,
      "InPlanePhaseEncodingDirection": "COL",
      "MRAcquisitionType": "2D",
      "MagneticFieldStrength": 3.0,
      "Manufacturer": "SIEMENS",
      "ManufacturerModelName": "Prisma",
      "Modality": "MR",
      "NumberOfAverages": 1.0,
      "NumberOfPhaseEncodingSteps": 122,
      "PercentPhaseFieldOfView": 100.0,
      "PercentSampling": 100.0,
      "PerformedProcedureStepStartTime": "103013.550000",
      "PhotometricInterpretation": "MONOCHROME2",
      "PixelBandwidth": 2050.0,
      "PixelRepresentation": 0,
      "PixelSpacing": [1.9672131538391, 1.9672131538391],
      "ProtocolName": "dwi_acq-DTI-30-p2",
      "RepetitionTime": 7700.0,
      "Rows": 122,
      "SAR": 0.10202682965147,
      "SamplesPerPixel": 1,
      "ScanOptions": "FS",
      "ScanningSequence": "EP",
      "SequenceVariant": [
        "SK",
        "SP"
],
      "SeriesDescription": "dwi_acq-DTI-30-p2",
      "SeriesNumber": 12,
      "SeriesTime": "110343.309000",
      "SliceThickness": 2.0,
      "SmallestImagePixelValue": 0,
      "SoftwareVersions": "syngo MR E11",
      "SpacingBetweenSlices": 2.0,
      "SpecificCharacterSet": "ISO_IR 100",
      "StudyID": "62",
      "StudyTime": "103013.518000",
      "TransmitCoilName": "Body",
      "VariableFlipAngleFlag": "N",
      "WindowCenterWidthExplanation": "Algo1",
      "dBdt": 0.0},
    "slices": {
      "AcquisitionTime": ["110327.192500", "110323.352500", "110327.302500", "110323.462500", "110327.412500", "110323.572500", "110327.522500", "110323.682500", "110327.630000", "110323.792500", "110327.740000", "110323.900000", "110327.850000", "110324.010000", "110327.960000", "110324.120000", "110328.070000", "110324.230000", "110328.180000", "110324.340000", "110328.290000", "110324.450000", "110328.400000", "110324.560000", "110328.510000", "110324.670000", "110328.617500", "110324.777500", "110328.727500", "110324.887500", "110328.837500", "110324.997500", "110328.947500", "110325.107500", "110329.057500", "110325.217500", "110329.167500", "110325.327500", "110329.277500", "110325.437500", "110329.387500", "110325.547500", "110329.495000", "110325.657500", "110329.605000", "110325.765000", "110329.715000", "110325.875000", "110329.825000", "110325.985000", "110329.935000", "110326.095000", "110330.045000", "110326.205000", "110330.155000", "110326.315000", "110330.265000", "110326.425000", "110330.375000", "110326.535000", "110330.482500", "110326.642500", "110330.592500", "110326.752500", "110330.702500", "110326.862500", "110330.812500", "110326.972500", "110330.922500", "110327.082500", "110334.892500", "110331.052500", "110335.002500", "110331.162500", "110335.112500", "110331.272500", "110335.222500", "110331.382500", "110335.330000", "110331.492500", "110335.440000", "110331.600000", "110335.550000", "110331.710000", "110335.660000", "110331.820000", "110335.770000", "110331.930000", "110335.880000", "110332.040000", "110335.990000", "110332.150000", "110336.100000", "110332.260000", "110336.210000", "110332.370000", "110336.317500", "110332.477500", "110336.427500", "110332.587500", "110336.537500", "110332.697500", "110336.647500", "110332.807500", "110336.757500", "110332.917500", "110336.867500", "110333.027500", "110336.977500", "110333.137500", "110337.087500", "110333.247500", "110337.195000", "110333.357500", "110337.305000", "110333.465000", "110337.415000", "110333.575000", "110337.525000", "110333.685000", "110337.635000", "110333.795000", "110337.745000", "110333.905000", "110337.855000", "110334.015000", "110337.965000", "110334.125000", "110338.075000", "110334.235000", "110338.182500", "110334.342500", "110338.292500", "110334.452500", "110338.402500", "110334.562500", "110338.512500", "110334.672500", "110338.622500", "110334.782500", "110342.592500", "110338.752500", "110342.702500", "110338.862500", "110342.812500", "110338.972500", "110342.922500", "110339.082500", "110343.030000", "110339.192500", "110343.140000", "110339.300000", "110343.250000", "110339.410000", "110343.360000", "110339.520000", "110343.470000", "110339.630000", "110343.580000", "110339.740000", "110343.690000", "110339.850000", "110343.800000", "110339.960000", "110343.910000", "110340.070000", "110344.017500", "110340.177500", "110344.127500", "110340.287500", "110344.237500", "110340.397500", "110344.347500", "110340.507500", "110344.457500", "110340.617500", "110344.567500", "110340.727500", "110344.677500", "110340.837500", "110344.787500", "110340.947500", "110344.895000", "110341.057500", "110345.005000", "110341.165000", "110345.115000", "110341.275000", "110345.225000", "110341.385000", "110345.335000", "110341.495000", "110345.445000", "110341.605000", "110345.555000", "110341.715000", "110345.665000", "110341.825000", "110345.775000", "110341.935000", "110345.882500", "110342.042500", "110345.992500", "110342.152500", "110346.102500", "110342.262500", "110346.212500", "110342.372500", "110346.322500", "110342.482500", "110350.292500", "110346.452500", "110350.402500", "110346.562500", "110350.512500", "110346.672500", "110350.622500", "110346.782500", "110350.730000", "110346.892500", "110350.840000", "110347.000000", "110350.950000", "110347.110000", "110351.060000", "110347.220000", "110351.170000", "110347.330000", "110351.280000", "110347.440000", "110351.390000", "110347.550000", "110351.500000", "110347.660000", "110351.610000", "110347.770000", "110351.717500", "110347.877500", "110351.827500", "110347.987500", "110351.937500", "110348.097500", "110352.047500", "110348.207500", "110352.157500", "110348.317500", "110352.267500", "110348.427500", "110352.377500", "110348.537500", "110352.487500", "110348.647500", "110352.595000", "110348.757500", "110352.705000", "110348.865000", "110352.815000", "110348.975000", "110352.925000", "110349.085000", "110353.035000", "110349.195000", "110353.145000", "110349.305000", "110353.255000", "110349.415000", "110353.365000", "110349.525000", "110353.475000", "110349.635000", "110353.582500", "110349.742500", "110353.692500", "110349.852500", "110353.802500", "110349.962500", "110353.912500", "110350.072500", "110354.022500", "110350.182500", "110357.992500", "110354.152500", "110358.102500", "110354.262500", "110358.212500", "110354.372500", "110358.322500", "110354.482500", "110358.430000", "110354.592500", "110358.540000", "110354.700000", "110358.650000", "110354.810000", "110358.760000", "110354.920000", "110358.870000", "110355.030000", "110358.980000", "110355.140000", "110359.090000", "110355.250000", "110359.200000", "110355.360000", "110359.310000", "110355.470000", "110359.417500", "110355.577500", "110359.527500", "110355.687500", "110359.637500", "110355.797500", "110359.747500", "110355.907500", "110359.857500", "110356.017500", "110359.967500", "110356.127500", "110400.077500", "110356.237500", "110400.187500", "110356.347500", "110400.295000", "110356.457500", "110400.405000", "110356.565000", "110400.515000", "110356.675000", "110400.625000", "110356.785000", "110400.735000", "110356.895000", "110400.845000", "110357.005000", "110400.955000", "110357.115000", "110401.065000", "110357.225000", "110401.175000", "110357.335000", "110401.282500", "110357.442500", "110401.392500", "110357.552500", "110401.502500", "110357.662500", "110401.612500", "110357.772500", "110401.722500", "110357.882500", "110405.692500", "110401.852500", "110405.802500", "110401.962500", "110405.912500", "110402.072500", "110406.022500", "110402.182500", "110406.130000", "110402.292500", "110406.240000", "110402.400000", "110406.350000", "110402.510000", "110406.460000", "110402.620000", "110406.570000", "110402.730000", "110406.680000", "110402.840000", "110406.790000", "110402.950000", "110406.900000", "110403.060000", "110407.010000", "110403.170000", "110407.117500", "110403.277500", "110407.227500", "110403.387500", "110407.337500", "110403.497500", "110407.447500", "110403.607500", "110407.557500", "110403.717500", "110407.667500", "110403.827500", "110407.777500", "110403.937500", "110407.887500", "110404.047500", "110407.995000", "110404.157500", "110408.105000", "110404.265000", "110408.215000", "110404.375000", "110408.325000", "110404.485000", "110408.435000", "110404.595000", "110408.545000", "110404.705000", "110408.655000", "110404.815000", "110408.765000", "110404.925000", "110408.875000", "110405.035000", "110408.982500", "110405.142500", "110409.092500", "110405.252500", "110409.202500", "110405.362500", "110409.312500", "110405.472500", "110409.422500", "110405.582500", "110413.392500", "110409.552500", "110413.502500", "110409.662500", "110413.612500", "110409.772500", "110413.722500", "110409.882500", "110413.830000", "110409.992500", "110413.940000", "110410.100000", "110414.050000", "110410.210000", "110414.160000", "110410.320000", "110414.270000", "110410.430000", "110414.380000", "110410.540000", "110414.490000", "110410.650000", "110414.600000", "110410.760000", "110414.710000", "110410.870000", "110414.817500", "110410.977500", "110414.927500", "110411.087500", "110415.037500", "110411.197500", "110415.147500", "110411.307500", "110415.257500", "110411.417500", "110415.367500", "110411.527500", "110415.477500", "110411.637500", "110415.587500", "110411.747500", "110415.695000", "110411.857500", "110415.805000", "110411.965000", "110415.915000", "110412.075000", "110416.025000", "110412.185000", "110416.135000", "110412.295000", "110416.245000", "110412.405000", "110416.355000", "110412.515000", "110416.465000", "110412.625000", "110416.575000", "110412.735000", "110416.682500", "110412.842500", "110416.792500", "110412.952500", "110416.902500", "110413.062500", "110417.012500", "110413.172500", "110417.122500", "110413.282500", "110421.092500", "110417.252500", "110421.202500", "110417.362500", "110421.312500", "110417.472500", "110421.422500", "110417.582500", "110421.530000", "110417.692500", "110421.640000", "110417.800000", "110421.750000", "110417.910000", "110421.860000", "110418.020000", "110421.970000", "110418.130000", "110422.080000", "110418.240000", "110422.190000", "110418.350000", "110422.300000", "110418.460000", "110422.410000", "110418.570000", "110422.517500", "110418.677500", "110422.627500", "110418.787500", "110422.737500", "110418.897500", "110422.847500", "110419.007500", "110422.957500", "110419.117500", "110423.067500", "110419.227500", "110423.177500", "110419.337500", "110423.287500", "110419.447500", "110423.395000", "110419.557500", "110423.505000", "110419.665000", "110423.615000", "110419.775000", "110423.725000", "110419.885000", "110423.835000", "110419.995000", "110423.945000", "110420.105000", "110424.055000", "110420.215000", "110424.165000", "110420.325000", "110424.275000", "110420.435000", "110424.382500", "110420.542500", "110424.492500", "110420.652500", "110424.602500", "110420.762500", "110424.712500", "110420.872500", "110424.822500", "110420.982500", "110428.792500", "110424.952500", "110428.902500", "110425.062500", "110429.012500", "110425.172500", "110429.122500", "110425.282500", "110429.230000", "110425.392500", "110429.340000", "110425.500000", "110429.450000", "110425.610000", "110429.560000", "110425.720000", "110429.670000", "110425.830000", "110429.780000", "110425.940000", "110429.890000", "110426.050000", "110430.000000", "110426.160000", "110430.110000", "110426.270000", "110430.217500", "110426.377500", "110430.327500", "110426.487500", "110430.437500", "110426.597500", "110430.547500", "110426.707500", "110430.657500", "110426.817500", "110430.767500", "110426.927500", "110430.877500", "110427.037500", "110430.987500", "110427.147500", "110431.095000", "110427.257500", "110431.205000", "110427.365000", "110431.315000", "110427.475000", "110431.425000", "110427.585000", "110431.535000", "110427.695000", "110431.645000", "110427.805000", "110431.755000", "110427.915000", "110431.865000", "110428.025000", "110431.975000", "110428.135000", "110432.082500", "110428.242500", "110432.192500", "110428.352500", "110432.302500", "110428.462500", "110432.412500", "110428.572500", "110432.522500", "110428.682500", "110436.492500", "110432.652500", "110436.602500", "110432.762500", "110436.712500", "110432.872500", "110436.822500", "110432.982500", "110436.930000", "110433.092500", "110437.040000", "110433.200000", "110437.150000", "110433.310000", "110437.260000", "110433.420000", "110437.370000", "110433.530000", "110437.480000", "110433.640000", "110437.590000", "110433.750000", "110437.700000", "110433.860000", "110437.810000", "110433.970000", "110437.917500", "110434.077500", "110438.027500", "110434.187500", "110438.137500", "110434.297500", "110438.247500", "110434.407500", "110438.357500", "110434.517500", "110438.467500", "110434.627500", "110438.577500", "110434.737500", "110438.687500", "110434.847500", "110438.795000", "110434.957500", "110438.905000", "110435.065000", "110439.015000", "110435.175000", "110439.125000", "110435.285000", "110439.235000", "110435.395000", "110439.345000", "110435.505000", "110439.455000", "110435.615000", "110439.565000", "110435.725000", "110439.675000", "110435.835000", "110439.782500", "110435.942500", "110439.892500", "110436.052500", "110440.002500", "110436.162500", "110440.112500", "110436.272500", "110440.222500", "110436.382500", "110444.192500", "110440.352500", "110444.302500", "110440.462500", "110444.412500", "110440.572500", "110444.522500", "110440.682500", "110444.630000", "110440.792500", "110444.740000", "110440.900000", "110444.850000", "110441.010000", "110444.960000", "110441.120000", "110445.070000", "110441.230000", "110445.180000", "110441.340000", "110445.290000", "110441.450000", "110445.400000", "110441.560000", "110445.510000", "110441.670000", "110445.617500", "110441.777500", "110445.727500", "110441.887500", "110445.837500", "110441.997500", "110445.947500", "110442.107500", "110446.057500", "110442.217500", "110446.167500", "110442.327500", "110446.277500", "110442.437500", "110446.387500", "110442.547500", "110446.495000", "110442.657500", "110446.605000", "110442.765000", "110446.715000", "110442.875000", "110446.825000", "110442.985000", "110446.935000", "110443.095000", "110447.045000", "110443.205000", "110447.155000", "110443.315000", "110447.265000", "110443.425000", "110447.375000", "110443.535000", "110447.482500", "110443.642500", "110447.592500", "110443.752500", "110447.702500", "110443.862500", "110447.812500", "110443.972500", "110447.922500", "110444.082500", "110451.892500", "110448.052500", "110452.002500", "110448.162500", "110452.112500", "110448.272500", "110452.222500", "110448.382500", "110452.330000", "110448.492500", "110452.440000", "110448.600000", "110452.550000", "110448.710000", "110452.660000", "110448.820000", "110452.770000", "110448.930000", "110452.880000", "110449.040000", "110452.990000", "110449.150000", "110453.100000", "110449.260000", "110453.210000", "110449.370000", "110453.317500", "110449.477500", "110453.427500", "110449.587500", "110453.537500", "110449.697500", "110453.647500", "110449.807500", "110453.757500", "110449.917500", "110453.867500", "110450.027500", "110453.977500", "110450.137500", "110454.087500", "110450.247500", "110454.195000", "110450.357500", "110454.305000", "110450.465000", "110454.415000", "110450.575000", "110454.525000", "110450.685000", "110454.635000", "110450.795000", "110454.745000", "110450.905000", "110454.855000", "110451.015000", "110454.965000", "110451.125000", "110455.075000", "110451.235000", "110455.182500", "110451.342500", "110455.292500", "110451.452500", "110455.402500", "110451.562500", "110455.512500", "110451.672500", "110455.622500", "110451.782500", "110459.592500", "110455.752500", "110459.702500", "110455.862500", "110459.812500", "110455.972500", "110459.922500", "110456.082500", "110500.030000", "110456.192500", "110500.140000", "110456.300000", "110500.250000", "110456.410000", "110500.360000", "110456.520000", "110500.470000", "110456.630000", "110500.580000", "110456.740000", "110500.690000", "110456.850000", "110500.800000", "110456.960000", "110500.910000", "110457.070000", "110501.017500", "110457.177500", "110501.127500", "110457.287500", "110501.237500", "110457.397500", "110501.347500", "110457.507500", "110501.457500", "110457.617500", "110501.567500", "110457.727500", "110501.677500", "110457.837500", "110501.787500", "110457.947500", "110501.895000", "110458.057500", "110502.005000", "110458.165000", "110502.115000", "110458.275000", "110502.225000", "110458.385000", "110502.335000", "110458.495000", "110502.445000", "110458.605000", "110502.555000", "110458.715000", "110502.665000", "110458.825000", "110502.775000", "110458.935000", "110502.882500", "110459.042500", "110502.992500", "110459.152500", "110503.102500", "110459.262500", "110503.212500", "110459.372500", "110503.322500", "110459.482500", "110507.292500", "110503.452500", "110507.402500", "110503.562500", "110507.512500", "110503.672500", "110507.622500", "110503.782500", "110507.730000", "110503.892500", "110507.840000", "110504.000000", "110507.950000", "110504.110000", "110508.060000", "110504.220000", "110508.170000", "110504.330000", "110508.280000", "110504.440000", "110508.390000", "110504.550000", "110508.500000", "110504.660000", "110508.610000", "110504.770000", "110508.717500", "110504.877500", "110508.827500", "110504.987500", "110508.937500", "110505.097500", "110509.047500", "110505.207500", "110509.157500", "110505.317500", "110509.267500", "110505.427500", "110509.377500", "110505.537500", "110509.487500", "110505.647500", "110509.595000", "110505.757500", "110509.705000", "110505.865000", "110509.815000", "110505.975000", "110509.925000", "110506.085000", "110510.035000", "110506.195000", "110510.145000", "110506.305000", "110510.255000", "110506.415000", "110510.365000", "110506.525000", "110510.475000", "110506.635000", "110510.582500", "110506.742500", "110510.692500", "110506.852500", "110510.802500", "110506.962500", "110510.912500", "110507.072500", "110511.022500", "110507.182500", "110514.992500", "110511.152500", "110515.102500", "110511.262500", "110515.212500", "110511.372500", "110515.322500", "110511.482500", "110515.430000", "110511.592500", "110515.540000", "110511.700000", "110515.650000", "110511.810000", "110515.760000", "110511.920000", "110515.870000", "110512.030000", "110515.980000", "110512.140000", "110516.090000", "110512.250000", "110516.200000", "110512.360000", "110516.310000", "110512.470000", "110516.417500", "110512.577500", "110516.527500", "110512.687500", "110516.637500", "110512.797500", "110516.747500", "110512.907500", "110516.857500", "110513.017500", "110516.967500", "110513.127500", "110517.077500", "110513.237500", "110517.187500", "110513.347500", "110517.295000", "110513.457500", "110517.405000", "110513.565000", "110517.515000", "110513.675000", "110517.625000", "110513.785000", "110517.735000", "110513.895000", "110517.845000", "110514.005000", "110517.955000", "110514.115000", "110518.065000", "110514.225000", "110518.175000", "110514.335000", "110518.282500", "110514.442500", "110518.392500", "110514.552500", "110518.502500", "110514.662500", "110518.612500", "110514.772500", "110518.722500", "110514.882500", "110522.692500", "110518.852500", "110522.802500", "110518.962500", "110522.912500", "110519.072500", "110523.022500", "110519.182500", "110523.130000", "110519.292500", "110523.240000", "110519.400000", "110523.350000", "110519.510000", "110523.460000", "110519.620000", "110523.570000", "110519.730000", "110523.680000", "110519.840000", "110523.790000", "110519.950000", "110523.900000", "110520.060000", "110524.010000", "110520.170000", "110524.117500", "110520.277500", "110524.227500", "110520.387500", "110524.337500", "110520.497500", "110524.447500", "110520.607500", "110524.557500", "110520.717500", "110524.667500", "110520.827500", "110524.777500", "110520.937500", "110524.887500", "110521.047500", "110524.995000", "110521.157500", "110525.105000", "110521.265000", "110525.215000", "110521.375000", "110525.325000", "110521.485000", "110525.435000", "110521.595000", "110525.545000", "110521.705000", "110525.655000", "110521.815000", "110525.765000", "110521.925000", "110525.875000", "110522.035000", "110525.982500", "110522.142500", "110526.092500", "110522.252500", "110526.202500", "110522.362500", "110526.312500", "110522.472500", "110526.422500", "110522.582500", "110530.392500", "110526.552500", "110530.502500", "110526.662500", "110530.612500", "110526.772500", "110530.722500", "110526.882500", "110530.830000", "110526.992500", "110530.940000", "110527.100000", "110531.050000", "110527.210000", "110531.160000", "110527.320000", "110531.270000", "110527.430000", "110531.380000", "110527.540000", "110531.490000", "110527.650000", "110531.600000", "110527.760000", "110531.710000", "110527.870000", "110531.817500", "110527.977500", "110531.927500", "110528.087500", "110532.037500", "110528.197500", "110532.147500", "110528.307500", "110532.257500", "110528.417500", "110532.367500", "110528.527500", "110532.477500", "110528.637500", "110532.587500", "110528.747500", "110532.695000", "110528.857500", "110532.805000", "110528.965000", "110532.915000", "110529.075000", "110533.025000", "110529.185000", "110533.135000", "110529.295000", "110533.245000", "110529.405000", "110533.355000", "110529.515000", "110533.465000", "110529.625000", "110533.575000", "110529.735000", "110533.682500", "110529.842500", "110533.792500", "110529.952500", "110533.902500", "110530.062500", "110534.012500", "110530.172500", "110534.122500", "110530.282500", "110538.092500", "110534.252500", "110538.202500", "110534.362500", "110538.312500", "110534.472500", "110538.422500", "110534.582500", "110538.530000", "110534.692500", "110538.640000", "110534.800000", "110538.750000", "110534.910000", "110538.860000", "110535.020000", "110538.970000", "110535.130000", "110539.080000", "110535.240000", "110539.190000", "110535.350000", "110539.300000", "110535.460000", "110539.410000", "110535.570000", "110539.517500", "110535.677500", "110539.627500", "110535.787500", "110539.737500", "110535.897500", "110539.847500", "110536.007500", "110539.957500", "110536.117500", "110540.067500", "110536.227500", "110540.177500", "110536.337500", "110540.287500", "110536.447500", "110540.395000", "110536.557500", "110540.505000", "110536.665000", "110540.615000", "110536.775000", "110540.725000", "110536.885000", "110540.835000", "110536.995000", "110540.945000", "110537.105000", "110541.055000", "110537.215000", "110541.165000", "110537.325000", "110541.275000", "110537.435000", "110541.382500", "110537.542500", "110541.492500", "110537.652500", "110541.602500", "110537.762500", "110541.712500", "110537.872500", "110541.822500", "110537.982500", "110545.792500", "110541.952500", "110545.902500", "110542.062500", "110546.012500", "110542.172500", "110546.122500", "110542.282500", "110546.230000", "110542.392500", "110546.340000", "110542.500000", "110546.450000", "110542.610000", "110546.560000", "110542.720000", "110546.670000", "110542.830000", "110546.780000", "110542.940000", "110546.890000", "110543.050000", "110547.000000", "110543.160000", "110547.110000", "110543.270000", "110547.217500", "110543.377500", "110547.327500", "110543.487500", "110547.437500", "110543.597500", "110547.547500", "110543.707500", "110547.657500", "110543.817500", "110547.767500", "110543.927500", "110547.877500", "110544.037500", "110547.987500", "110544.147500", "110548.095000", "110544.257500", "110548.205000", "110544.365000", "110548.315000", "110544.475000", "110548.425000", "110544.585000", "110548.535000", "110544.695000", "110548.645000", "110544.805000", "110548.755000", "110544.915000", "110548.865000", "110545.025000", "110548.975000", "110545.135000", "110549.082500", "110545.242500", "110549.192500", "110545.352500", "110549.302500", "110545.462500", "110549.412500", "110545.572500", "110549.522500", "110545.682500", "110553.492500", "110549.652500", "110553.602500", "110549.762500", "110553.712500", "110549.872500", "110553.822500", "110549.982500", "110553.930000", "110550.092500", "110554.040000", "110550.200000", "110554.150000", "110550.310000", "110554.260000", "110550.420000", "110554.370000", "110550.530000", "110554.480000", "110550.640000", "110554.590000", "110550.750000", "110554.700000", "110550.860000", "110554.810000", "110550.970000", "110554.917500", "110551.077500", "110555.027500", "110551.187500", "110555.137500", "110551.297500", "110555.247500", "110551.407500", "110555.357500", "110551.517500", "110555.467500", "110551.627500", "110555.577500", "110551.737500", "110555.687500", "110551.847500", "110555.795000", "110551.957500", "110555.905000", "110552.065000", "110556.015000", "110552.175000", "110556.125000", "110552.285000", "110556.235000", "110552.395000", "110556.345000", "110552.505000", "110556.455000", "110552.615000", "110556.565000", "110552.725000", "110556.675000", "110552.835000", "110556.782500", "110552.942500", "110556.892500", "110553.052500", "110557.002500", "110553.162500", "110557.112500", "110553.272500", "110557.222500", "110553.382500", "110601.192500", "110557.352500", "110601.302500", "110557.462500", "110601.412500", "110557.572500", "110601.522500", "110557.682500", "110601.630000", "110557.792500", "110601.740000", "110557.900000", "110601.850000", "110558.010000", "110601.960000", "110558.120000", "110602.070000", "110558.230000", "110602.180000", "110558.340000", "110602.290000", "110558.450000", "110602.400000", "110558.560000", "110602.510000", "110558.670000", "110602.617500", "110558.777500", "110602.727500", "110558.887500", "110602.837500", "110558.997500", "110602.947500", "110559.107500", "110603.057500", 