{
  "AcquisitionMatrixPE": 80,
  "AcquisitionNumber": 1,
  "AcquisitionTime": "09:56:50.497500",
  "BandwidthPerPixelPhaseEncode": 25,
  "BaseResolution": 80,
  "BodyPartExamined": "BRAIN",
  "CoilCombinationMethod": "Sum of Squares",
  "ConsistencyInfo": "N4_VE11C_LATEST_20160120",
  "ConversionSoftware": "dcm2niix",
  "ConversionSoftwareVersion": "v1.0.20220720",
  "DerivedVendorReportedEchoSpacing": 0.0005,
  "DeviceSerialNumber": "66112",
  "DwellTime": 2.7e-06,
  "EchoTime": 0.03,
  "EchoTrainLength": 80,
  "EffectiveEchoSpacing": 0.0005,
  "FlipAngle": 10,
  "HeudiconvVersion": "0.13.1",
  "ImageOrientationPatientDICOM": [0.979194, 0.202387, 0.0148088, -0.19744, 0.933317, 0.299895],
  "ImageOrientationText": "Tra>Cor(17.3)>Sag(-2.7)",
  "ImageType": [
    "ORIGINAL",
    "PRIMARY",
    "M",
    "ND",
    "NORM",
    "MOSAIC"
],
  "ImagingFrequency": 123.252,
  "InPlanePhaseEncodingDirectionDICOM": "COL",
  "InstitutionAddress": "Maynard 3,Hanover,NH,US,03755",
  "InstitutionName": "Dartmouth College - PBS",
  "InstitutionalDepartmentName": "Department",
  "MRAcquisitionType": "2D",
  "MagneticFieldStrength": 3,
  "Manufacturer": "Siemens",
  "ManufacturersModelName": "Prisma",
  "MatrixCoilMode": "SENSE",
  "Modality": "MR",
  "NonlinearGradientCorrection": false,
  "PartialFourier": 1,
  "PatientPosition": "HFS",
  "PercentPhaseFOV": 100,
  "PercentSampling": 100,
  "PhaseEncodingDirection": "j-",
  "PhaseEncodingSteps": 80,
  "PhaseResolution": 1,
  "PixelBandwidth": 2315,
  "ProcedureStepDescription": "dbic^QA",
  "ProtocolName": "func-bold_acq-32ch-10flip",
  "PulseSequenceDetails": "%SiemensSeq%\\ep2d_bold",
  "ReceiveCoilActiveElements": "HEA;HEP",
  "ReceiveCoilName": "Head_32",
  "ReconMatrixPE": 80,
  "RepetitionTime": 2,
  "SAR": 0.0117614,
  "ScanOptions": "FS",
  "ScanningSequence": "EP",
  "SequenceName": "*epfid2d1_80",
  "SequenceVariant": "SK",
  "SeriesDescription": "func-bold_acq-32ch-10flip",
  "SeriesNumber": 10,
  "ShimSetting": [4145, -7688, -7516, 270, -32, -134, -31, 48],
  "SliceThickness": 3.5,
  "SliceTiming": [0.99, 0, 1.0575, 0.0675, 1.1225, 0.1325, 1.19, 0.2, 1.255, 0.265, 1.32, 0.33, 1.3875, 0.3975, 1.4525, 0.4625, 1.52, 0.53, 1.585, 0.595, 1.65, 0.66, 1.7175, 0.7275, 1.7825, 0.7925, 1.8475, 0.86, 1.915, 0.925],
  "SoftwareVersions": "syngo MR E11",
  "SpacingBetweenSlices": 3.99,
  "StationName": "AWP66112",
  "TotalReadoutTime": 0.0395,
  "TxRefAmp": 232.131,
  "dcmmeta_affine": [
    [-2.9375810623168945, -0.5923203825950623, -0.18702512979507446, 149.07568359375],
    [-0.6071604490280151, 2.7999508380889893, 1.1833503246307373, -97.11767578125],
    [0.044426415115594864, -0.8996846675872803, 3.8058905601501465, -19.497955322265625],
    [0.0, 0.0, 0.0, 1.0]
],
  "dcmmeta_reorient_transform": [
    [0.0, -1.0, 0.0, 79.0],
    [1.0, 0.0, 0.0, 0.0],
    [0.0, 0.0, 1.0, 0.0],
    [0.0, 0.0, 0.0, 1.0]
],
  "dcmmeta_shape": [80, 80, 30, 200],
  "dcmmeta_slice_dim": 2,
  "dcmmeta_version": 0.6,
  "global": {
    "const": {
      "AccessionNumber": "qa",
      "AcquisitionMatrix": [80, 0, 0, 80],
      "AngioFlag": "N",
      "BitsAllocated": 16,
      "BitsStored": 12,
      "BodyPartExamined": "BRAIN",
      "Columns": 480,
      "EchoNumbers": 1,
      "EchoTime": 30.0,
      "EchoTrainLength": 80,
      "FlipAngle": 10.0,
      "HighBit": 11,
      "ImageOrientationPatient": [0.97919368553918, 0.20238682148023, 0.01480880452078, -0.1974401288146, 0.93331690907062, 0.29989488621276],
      "ImagePositionPatient": [-571.33450183598, -805.50067136343, -279.39525870754],
      "ImageType": [
        "ORIGINAL",
        "PRIMARY",
        "M",
        "ND",
        "NORM",
        "MOSAIC"
],
      "ImagedNucleus": "1H",
      "ImagingFrequency": 123.252422,
      "InPlanePhaseEncodingDirection": "COL",
      "MRAcquisitionType": "2D",
      "MagneticFieldStrength": 3.0,
      "Manufacturer": "SIEMENS",
      "ManufacturerModelName": "Prisma",
      "Modality": "MR",
      "NumberOfAverages": 1.0,
      "NumberOfPhaseEncodingSteps": 80,
      "PercentPhaseFieldOfView": 100.0,
      "PercentSampling": 100.0,
      "PerformedProcedureStepStartTime": "093419.738000",
      "PhotometricInterpretation": "MONOCHROME2",
      "PixelBandwidth": 2315.0,
      "PixelRepresentation": 0,
      "PixelSpacing": [3.0, 3.0],
      "ProtocolName": "func-bold_acq-32ch-10flip",
      "RepetitionTime": 2000.0,
      "Rows": 480,
      "SAR": 0.01176142213229,
      "SamplesPerPixel": 1,
      "ScanOptions": "FS",
      "ScanningSequence": "EP",
      "SequenceName": "*epfid2d1_80",
      "SequenceVariant": "SK",
      "SeriesDescription": "func-bold_acq-32ch-10flip",
      "SeriesNumber": 10,
      "SeriesTime": "095739.061000",
      "SliceLocation": -54.389027368854,
      "SliceThickness": 3.5,
      "SmallestImagePixelValue": 0,
      "SoftwareVersions": "syngo MR E11",
      "SpacingBetweenSlices": 3.9899999345068,
      "SpecificCharacterSet": "ISO_IR 100",
      "StudyID": "105",
      "StudyTime": "093419.651000",
      "TransmitCoilName": "Body",
      "VariableFlipAngleFlag": "N",
      "WindowCenterWidthExplanation": "Algo1",
      "dBdt": 0.0},
    "slices": {}
  },
  "time": {
    "samples": {
      "AcquisitionNumber": [1, 2, 3, 4, 5, 6, 7, 8, 9, 10, 11, 12, 13, 14, 15, 16, 17, 18, 19, 20, 21, 22, 23, 24, 25, 26, 27, 28, 29, 30, 31, 32, 33, 34, 35, 36, 37, 38, 39, 40, 41, 42, 43, 44, 45, 46, 47, 48, 49, 50, 51, 52, 53, 54, 55, 56, 57, 58, 59, 60, 61, 62, 63, 64, 65, 66, 67, 68, 69, 70, 71, 72, 73, 74, 75, 76, 77, 78, 79, 80, 81, 82, 83, 84, 85, 86, 87, 88, 89, 90, 91, 92, 93, 94, 95, 96, 97, 98, 99, 100, 101, 102, 103, 104, 105, 106, 107, 108, 109, 110, 111, 112, 113, 114, 115, 116, 117, 118, 119, 120, 121, 122, 123, 124, 125, 126, 127, 128, 129, 130, 131, 132, 133, 134, 135, 136, 137, 138, 139, 140, 141, 142, 143, 144, 145, 146, 147, 148, 149, 150, 151, 152, 153, 154, 155, 156, 157, 158, 159, 160, 161, 162, 163, 164, 165, 166, 167, 168, 169, 170, 171, 172, 173, 174, 175, 176, 177, 178, 179, 180, 181, 182, 183, 184, 185, 186, 187, 188, 189, 190, 191, 192, 193, 194, 195, 196, 197, 198, 199, 200],
      "AcquisitionTime": ["095650.497500", "095652.497500", "095654.497500", "095656.497500", "095658.497500", "095700.497500", "095702.497500", "095704.497500", "095706.497500", "095708.497500", "095710.497500", "095712.497500", "095714.497500", "095716.497500", "095718.497500", "095720.497500", "095722.497500", "095724.497500", "095726.497500", "095728.497500", "095730.497500", "095732.497500", "095734.497500", "095736.497500", "095738.497500", "095740.497500", "095742.497500", "095744.497500", "095746.497500", "095748.497500", "095750.497500", "095752.497500", "095754.497500", "095756.497500", "095758.497500", "095800.497500", "095802.497500", "095804.497500", "095806.497500", "095808.497500", "095810.497500", "095812.497500", "095814.497500", "095816.497500", "095818.497500", "095820.497500", "095822.497500", "095824.497500", "095826.497500", "095828.497500", "095830.497500", "095832.497500", "095834.497500", "095836.497500", "095838.497500", "095840.497500", "095842.497500", "095844.497500", "095846.497500", "095848.497500", "095850.497500", "095852.497500", "095854.497500", "095856.497500", "095858.497500", "095900.497500", "095902.497500", "095904.497500", "095906.497500", "095908.497500", "095910.497500", "095912.497500", "095914.497500", "095916.497500", "095918.497500", "095920.497500", "095922.497500", "095924.497500", "095926.497500", "095928.497500", "095930.497500", "095932.497500", "095934.497500", "095936.497500", "095938.497500", "095940.497500", "095942.497500", "095944.497500", "095946.497500", "095948.497500", "095950.497500", "095952.497500", "095954.497500", "095956.497500", "095958.497500", "100000.497500", "100002.497500", "100004.497500", "100006.497500", "100008.497500", "100010.497500", "100012.497500", "100014.497500", "100016.497500", "100018.497500", "100020.497500", "100022.497500", "100024.497500", "100026.497500", "100028.497500", "100030.497500", "100032.497500", "100034.497500", "100036.497500", "100038.497500", "100040.497500", "100042.497500", "100044.497500", "100046.497500", "100048.497500", "100050.497500", "100052.497500", "100054.497500", "100056.497500", "100058.497500", "100100.497500", "100102.497500", "100104.497500", "100106.497500", "100108.497500", "100110.497500", "100112.497500", "100114.497500", "100116.497500", "100118.497500", "100120.497500", "100122.497500", "100124.497500", "100126.497500", "100128.497500", "100130.497500", "100132.497500", "100134.497500", "100136.497500", "100138.497500", "100140.497500", "100142.497500", "100144.497500", "100146.497500", "100148.497500", "100150.497500", "100152.497500", "100154.497500", "100156.497500", "100158.497500", "100200.497500", "100202.497500", "100204.497500", "100206.497500", "100208.497500", "100210.497500", "100212.497500", "100214.497500", "100216.497500", "100218.497500", "100220.497500", "100222.497500", "100224.497500", "100226.497500", "100228.497500", "100230.497500", "100232.497500", "100234.497500", "100236.497500", "100238.497500", "100240.497500", "100242.497500", "100244.497500", "100246.497500", "100248.497500", "100250.497500", "100252.497500", "100254.497500", "100256.497500", "100258.497500", "100300.497500", "100302.497500", "100304.497500", "100306.497500", "100308.497500", "100310.497500", "100312.497500", "100314.497500", "100316.497500", "100318.497500", "100320.497500", "100322.497500", "100324.497500", "100326.497500", "100328.497500"],
      "ContentTime": ["095739.064000", "095739.068000", "095739.070000", "095739.073000", "095739.075000", "095739.078000", "095739.081000", "095739.083000", "095739.086000", "095739.088000", "095739.091000", "095739.099000", "095739.102000", "095739.104000", "095739.107000", "095739.109000", "095739.112000", "095739.114000", "095739.117000", "095739.119000", "095739.122000", "095739.125000", "095739.127000", "095739.130000", "095819.059000", "095819.069000", "095819.072000", "095819.074000", "095819.077000", "095819.079000", "095819.082000", "095819.084000", "095819.087000", "095819.089000", "095819.092000", "095819.095000", "095819.097000", "095819.100000", "095819.102000", "095819.105000", "095819.117000", "095819.119000", "095819.122000", "095819.124000", "095859.059000", "095859.074000", "095859.076000", "095859.079000", "095859.081000", "095859.084000", "095859.086000", "095859.089000", "095859.091000", "095859.094000", "095859.096000", "095859.099000", "095859.101000", "095859.104000", "095859.106000", "095859.109000", "095859.112000", "095859.114000", "095859.116000", "095859.119000", "095939.059000", "095939.062000", "095939.065000", "095939.067000", "095939.070000", "095939.072000", "095939.075000", "095939.078000", "095939.080000", "095939.082000", "095939.085000", "095939.088000", "095939.090000", "095939.093000", "095939.095000", "095939.098000", "095939.100000", "095939.103000", "095939.105000", "095939.108000", "100019.059000", "100019.062000", "100019.065000", "100019.067000", "100019.070000", "100019.073000", "100019.075000", "100019.078000", "100019.080000", "100019.083000", "100019.085000", "100019.088000", "100019.090000", "100019.093000", "100019.095000", "100019.098000", "100019.100000", "100019.103000", "100019.105000", "100019.108000", "100059.060000", "100059.062000", "100059.065000", "100059.068000", "100059.070000", "100059.073000", "100059.075000", "100059.078000", "100059.081000", "100059.083000", "100059.085000", "100059.088000", "100059.091000", "100059.093000", "100059.095000", "100059.098000", "100059.101000", "100059.103000", "100059.106000", "100059.108000", "100139.058000", "100139.061000", "100139.064000", "100139.067000", "100139.069000", "100139.072000", "100139.074000", "100139.077000", "100139.079000", "100139.082000", "100139.084000", "100139.087000", "100139.090000", "100139.092000", "100139.095000", "100139.097000", "100139.100000", "100139.102000", "100139.105000", "100139.107000", "100219.059000", "100219.062000", "100219.065000", "100219.067000", "100219.070000", "100219.072000", "100219.075000", "100219.077000", "100219.080000", "100219.082000", "100219.085000", "100219.087000", "100219.090000", "100219.092000", "100219.095000", "100219.097000", "100219.100000", "100219.102000", "100219.110000", "100219.112000", "100259.060000", "100259.062000", "100259.065000", "100259.067000", "100259.070000", "100259.072000", "100259.075000", "100259.077000", "100259.080000", "100259.082000", "100259.085000", "100259.087000", "100259.090000", "100259.092000", "100259.095000", "100259.098000", "100259.100000", "100259.103000", "100259.105000", "100259.108000", "100330.424000", "100330.427000", "100330.430000", "100330.432000", "100330.435000", "100330.437000", "100330.440000", "100330.443000", "100330.445000", "100330.449000", "100330.454000", "100330.458000", "100330.460000", "100330.467000", "100330.470000", "100330.473000"],
      "InstanceCreationTime": ["095739.064000", "095739.068000", "095739.070000", "095739.073000", "095739.075000", "095739.078000", "095739.081000", "095739.083000", "095739.086000", "095739.088000", "095739.091000", "095739.099000", "095739.102000", "095739.104000", "095739.107000", "095739.109000", "095739.112000", "095739.114000", "095739.117000", "095739.119000", "095739.122000", "095739.125000", "095739.127000", "095739.130000", "095819.059000", "095819.069000", "095819.072000", "095819.074000", "095819.077000", "095819.079000", "095819.082000", "095819.084000", "095819.087000", "095819.089000", "095819.092000", "095819.095000", "095819.097000", "095819.100000", "095819.102000", "095819.105000", "095819.117000", "095819.119000", "095819.122000", "095819.124000", "095859.059000", "095859.074000", "095859.076000", "095859.079000", "095859.081000", "095859.084000", "095859.086000", "095859.089000", "095859.091000", "095859.094000", "095859.096000", "095859.099000", "095859.101000", "095859.104000", "095859.106000", "095859.109000", "095859.112000", "095859.114000", "095859.116000", "095859.119000", "095939.059000", "095939.062000", "095939.065000", "095939.067000", "095939.070000", "095939.072000", "095939.075000", "095939.078000", "095939.080000", "095939.082000", "095939.085000", "095939.088000", "095939.090000", "095939.093000", "095939.095000", "095939.098000", "095939.100000", "095939.103000", "095939.105000", "095939.108000", "100019.059000", "100019.062000", "100019.065000", "100019.067000", "100019.070000", "100019.073000", "100019.075000", "100019.078000", "100019.080000", "100019.083000", "100019.085000", "100019.088000", "100019.090000", "100019.093000", "100019.095000", "100019.098000", "100019.100000", "100019.103000", "100019.105000", "100019.108000", "100059.060000", "100059.062000", "100059.065000", "100059.068000", "100059.070000", "100059.073000", "100059.075000", "100059.078000", "100059.081000", "100059.083000", "100059.085000", "100059.088000", "100059.091000", "100059.093000", "100059.095000", "100059.098000", "100059.101000", "100059.103000", "100059.106000", "100059.108000", "100139.058000", "100139.061000", "100139.064000", "100139.067000", "100139.069000", "100139.072000", "100139.074000", "100139.077000", "100139.079000", "100139.082000", "100139.084000", "100139.087000", "100139.090000", "100139.092000", "100139.095000", "100139.097000", "100139.100000", "100139.102000", "100139.105000", "100139.107000", "100219.059000", "100219.062000", "100219.065000", "100219.067000", "100219.070000", "100219.072000", "100219.075000", "100219.077000", "100219.080000", "100219.082000", "100219.085000", "100219.087000", "100219.090000", "100219.092000", "100219.095000", "100219.097000", "100219.100000", "100219.102000", "100219.110000", "100219.112000", "100259.060000", "100259.062000", "100259.065000", "100259.067000", "100259.070000", "100259.072000", "100259.075000", "100259.077000", "100259.080000", "100259.082000", "100259.085000", "100259.087000", "100259.090000", "100259.092000", "100259.095000", "100259.098000", "100259.100000", "100259.103000", "100259.105000", "100259.108000", "100330.424000", "100330.427000", "100330.430000", "100330.432000", "100330.435000", "100330.437000", "100330.440000", "100330.443000", "100330.445000", "100330.449000", "100330.454000", "100330.458000", "100330.460000", "100330.467000", "100330.470000", "100330.473000"],
      "InstanceNumber": [1, 2, 3, 4, 5, 6, 7, 8, 9, 10, 11, 12, 13, 14, 15, 16, 17, 18, 19, 20, 21, 22, 23, 24, 25, 26, 27, 28, 29, 30, 31, 32, 33, 34, 35, 36, 37, 38, 39, 40, 41, 42, 43, 44, 45, 46, 47, 48, 49, 50, 51, 52, 53, 54, 55, 56, 57, 58, 59, 60, 61, 62, 63, 64, 65, 66, 67, 68, 69, 70, 71, 72, 73, 74, 75, 76, 77, 78, 79, 80, 81, 82, 83, 84, 85, 86, 87, 88, 89, 90, 91, 92, 93, 94, 95, 96, 97, 98, 99, 100, 101, 102, 103, 104, 105, 106, 107, 108, 109, 110, 111, 112, 113, 114, 115, 116, 117, 118, 119, 120, 121, 122, 123, 124, 125, 126, 127, 128, 129, 130, 131, 132, 133, 134, 135, 136, 137, 138, 139, 140, 141, 142, 143, 144, 145, 146, 147, 148, 149, 150, 151, 152, 153, 154, 155, 156, 157, 158, 159, 160, 161, 162, 163, 164, 165, 166, 167, 168, 169, 170, 171, 172, 173, 174, 175, 176, 177, 178, 179, 180, 181, 182, 183, 184, 185, 186, 187, 188, 189, 190, 191, 192, 193, 194, 195, 196, 197, 198, 199, 200],
      "LargestImagePixelValue": [376, 376, 375, 378, 375, 376, 376, 375, 376, 375, 375, 376, 374, 376, 375, 376, 376, 376, 375, 376, 375, 376, 376, 375, 376, 375, 375, 375, 375, 376, 375, 375, 375, 375, 376, 375, 375, 375, 374, 377, 375, 377, 375, 374, 375, 374, 375, 375, 375, 374, 374, 376, 377, 376, 375, 376, 375, 375, 375, 375, 375, 374, 375, 374, 376, 375, 375, 375, 375, 375, 375, 374, 375, 375, 376, 373, 375, 376, 373, 374, 375, 374, 375, 376, 377, 375, 375, 375, 376, 376, 377, 376, 375, 375, 375, 374, 375, 376, 375, 374, 374, 375, 375, 374, 375, 375, 374, 375, 376, 374, 376, 375, 375, 375, 374, 374, 376, 375, 376, 375, 374, 375, 374, 376, 376, 376, 373, 375, 375, 375, 375, 375, 374, 376, 376, 375, 376, 375, 374, 374, 375, 374, 375, 375, 374, 376, 375, 375, 374, 375, 377, 375, 373, 374, 376, 374, 374, 376, 374, 375, 375, 375, 375, 375, 377, 375, 375, 374, 375, 375, 374, 375, 374, 375, 375, 374, 375, 375, 375, 376, 377, 376, 373, 375, 375, 373, 375, 374, 377, 375, 375, 374, 373, 375, 373, 375, 375, 375, 374, 375],
      "WindowCenter": [294.0, 294.0, 294.0, 294.0, 294.0, 293.0, 293.0, 294.0, 293.0, 293.0, 294.0, 293.0, 294.0, 293.0, 294.0, 293.0, 293.0, 293.0, 294.0, 293.0, 293.0, 294.0, 293.0, 294.0, 293.0, 294.0, 293.0, 294.0, 293.0, 294.0, 293.0, 293.0, 294.0, 293.0, 293.0, 294.0, 293.0, 293.0, 294.0, 294.0, 294.0, 293.0, 293.0, 294.0, 293.0, 294.0, 294.0, 293.0, 294.0, 294.0, 293.0, 293.0, 293.0, 293.0, 294.0, 293.0, 293.0, 294.0, 294.0, 293.0, 293.0, 294.0, 294.0, 294.0, 293.0, 294.0, 293.0, 293.0, 294.0, 293.0, 293.0, 294.0, 293.0, 293.0, 293.0, 293.0, 293.0, 293.0, 293.0, 293.0, 293.0, 294.0, 294.0, 293.0, 293.0, 293.0, 293.0, 293.0, 294.0, 293.0, 293.0, 293.0, 293.0, 293.0, 293.0, 294.0, 293.0, 293.0, 293.0, 293.0, 293.0, 293.0, 293.0, 293.0, 293.0, 293.0, 293.0, 293.0, 293.0, 293.0, 293.0, 293.0, 293.0, 293.0, 294.0, 293.0, 293.0, 294.0, 293.0, 293.0, 293.0, 293.0, 293.0, 293.0, 293.0, 293.0, 294.0, 293.0, 293.0, 293.0, 293.0, 293.0, 293.0, 293.0, 293.0, 293.0, 293.0, 293.0, 294.0, 293.0, 293.0, 293.0, 293.0, 293.0, 293.0, 294.0, 293.0, 293.0, 293.0, 293.0, 294.0, 293.0, 293.0, 293.0, 293.0, 293.0, 293.0, 293.0, 293.0, 293.0, 293.0, 293.0, 293.0, 293.0, 293.0, 293.0, 293.0, 293.0, 293.0, 293.0, 293.0, 293.0, 293.0, 293.0, 293.0, 293.0, 293.0, 293.0, 293.0, 293.0, 293.0, 293.0, 293.0, 293.0, 293.0, 293.0, 293.0, 293.0, 293.0, 293.0, 293.0, 293.0, 293.0, 293.0, 293.0, 293.0, 293.0, 293.0, 293.0, 293.0],
      "WindowWidth": [638.0, 638.0, 638.0, 638.0, 637.0, 637.0, 637.0, 637.0, 637.0, 637.0, 637.0, 637.0, 637.0, 637.0, 637.0, 637.0, 637.0, 637.0, 637.0, 637.0, 637.0, 637.0, 637.0, 637.0, 637.0, 637.0, 637.0, 637.0, 637.0, 637.0, 637.0, 637.0, 637.0, 637.0, 637.0, 637.0, 637.0, 637.0, 637.0, 637.0, 637.0, 637.0, 637.0, 637.0, 637.0, 637.0, 637.0, 637.0, 637.0, 637.0, 637.0, 637.0, 637.0, 637.0, 637.0, 637.0, 637.0, 637.0, 637.0, 637.0, 637.0, 637.0, 637.0, 637.0, 637.0, 637.0, 637.0, 637.0, 637.0, 637.0, 637.0, 637.0, 637.0, 637.0, 637.0, 637.0, 637.0, 637.0, 637.0, 637.0, 637.0, 637.0, 637.0, 637.0, 637.0, 637.0, 637.0, 637.0, 637.0, 637.0, 637.0, 637.0, 637.0, 637.0, 637.0, 637.0, 637.0, 636.0, 637.0, 637.0, 637.0, 637.0, 637.0, 637.0, 637.0, 637.0, 637.0, 637.0, 637.0, 636.0, 637.0, 637.0, 637.0, 637.0, 637.0, 637.0, 636.0, 637.0, 637.0, 637.0, 637.0, 637.0, 637.0, 637.0, 637.0, 637.0, 637.0, 637.0, 636.0, 637.0, 637.0, 637.0, 637.0, 637.0, 637.0, 637.0, 637.0, 636.0, 637.0, 637.0, 637.0, 637.0, 637.0, 637.0, 636.0, 637.0, 637.0, 637.0, 637.0, 637.0, 637.0, 637.0, 637.0, 636.0, 636.0, 637.0, 637.0, 637.0, 636.0, 637.0, 637.0, 636.0, 637.0, 636.0, 637.0, 637.0, 637.0, 637.0, 637.0, 637.0, 636.0, 637.0, 636.0, 637.0, 636.0, 636.0, 637.0, 637.0, 637.0, 636.0, 637.0, 637.0, 636.0, 636.0, 636.0, 636.0, 637.0, 637.0, 636.0, 636.0, 637.0, 637.0, 636.0, 637.0, 636.0, 636.0, 637.0, 637.0, 636.0, 636.0]
    },
    "slices": {}
  }
}