{
  "AcquisitionMatrixPE": 80,
  "AcquisitionNumber": 1,
  "AcquisitionTime": "09:50:4.477500",
  "BandwidthPerPixelPhaseEncode": 25,
  "BaseResolution": 80,
  "BodyPartExamined": "BRAIN",
  "CoilCombinationMethod": "Sum of Squares",
  "ConsistencyInfo": "N4_VE11C_LATEST_20160120",
  "ConversionSoftware": "dcm2niix",
  "ConversionSoftwareVersion": "v1.0.20220720",
  "DerivedVendorReportedEchoSpacing": 0.0005,
  "DeviceSerialNumber": "66112",
  "DwellTime": 2.7e-06,
  "EchoTime": 0.03,
  "EchoTrainLength": 80,
  "EffectiveEchoSpacing": 0.0005,
  "FlipAngle": 77,
  "HeudiconvVersion": "0.13.1",
  "ImageOrientationPatientDICOM": [0.979194, 0.202387, 0.0148088, -0.19744, 0.933317, 0.299895],
  "ImageOrientationText": "Tra>Cor(17.3)>Sag(-2.7)",
  "ImageType": [
    "ORIGINAL",
    "PRIMARY",
    "M",
    "ND",
    "NORM",
    "MOSAIC"
],
  "ImagingFrequency": 123.252,
  "InPlanePhaseEncodingDirectionDICOM": "COL",
  "InstitutionAddress": "Maynard 3,Hanover,NH,US,03755",
  "InstitutionName": "Dartmouth College - PBS",
  "InstitutionalDepartmentName": "Department",
  "MRAcquisitionType": "2D",
  "MagneticFieldStrength": 3,
  "Manufacturer": "Siemens",
  "ManufacturersModelName": "Prisma",
  "MatrixCoilMode": "SENSE",
  "Modality": "MR",
  "NonlinearGradientCorrection": false,
  "PartialFourier": 1,
  "PatientPosition": "HFS",
  "PercentPhaseFOV": 100,
  "PercentSampling": 100,
  "PhaseEncodingDirection": "j-",
  "PhaseEncodingSteps": 80,
  "PhaseResolution": 1,
  "PixelBandwidth": 2315,
  "ProcedureStepDescription": "dbic^QA",
  "ProtocolName": "func-bold_acq-32ch-77flip",
  "PulseSequenceDetails": "%SiemensSeq%\\ep2d_bold",
  "ReceiveCoilActiveElements": "HEA;HEP",
  "ReceiveCoilName": "Head_32",
  "ReconMatrixPE": 80,
  "RepetitionTime": 2,
  "SAR": 0.0438451,
  "ScanOptions": "FS",
  "ScanningSequence": "EP",
  "SequenceName": "*epfid2d1_80",
  "SequenceVariant": "SK",
  "SeriesDescription": "func-bold_acq-32ch-77flip",
  "SeriesNumber": 8,
  "ShimSetting": [4145, -7688, -7516, 270, -32, -134, -31, 48],
  "SliceThickness": 3.5,
  "SliceTiming": [0.99, 0, 1.0575, 0.0675, 1.1225, 0.1325, 1.1875, 0.1975, 1.255, 0.265, 1.32, 0.33, 1.3875, 0.3975, 1.4525, 0.4625, 1.5175, 0.5275, 1.585, 0.595, 1.65, 0.66, 1.7175, 0.7275, 1.7825, 0.7925, 1.8475, 0.8575, 1.915, 0.925],
  "SoftwareVersions": "syngo MR E11",
  "SpacingBetweenSlices": 3.99,
  "StationName": "AWP66112",
  "TotalReadoutTime": 0.0395,
  "TxRefAmp": 232.131,
  "dcmmeta_affine": [
    [-2.9375810623168945, -0.5923203825950623, -0.18702512979507446, 149.07568359375],
    [-0.6071604490280151, 2.7999508380889893, 1.1833503246307373, -97.11767578125],
    [0.044426415115594864, -0.8996846675872803, 3.8058905601501465, -19.497955322265625],
    [0.0, 0.0, 0.0, 1.0]
],
  "dcmmeta_reorient_transform": [
    [0.0, -1.0, 0.0, 79.0],
    [1.0, 0.0, 0.0, 0.0],
    [0.0, 0.0, 1.0, 0.0],
    [0.0, 0.0, 0.0, 1.0]
],
  "dcmmeta_shape": [80, 80, 30, 200],
  "dcmmeta_slice_dim": 2,
  "dcmmeta_version": 0.6,
  "global": {
    "const": {
      "AccessionNumber": "qa",
      "AcquisitionMatrix": [80, 0, 0, 80],
      "AngioFlag": "N",
      "BitsAllocated": 16,
      "BitsStored": 12,
      "BodyPartExamined": "BRAIN",
      "Columns": 480,
      "EchoNumbers": 1,
      "EchoTime": 30.0,
      "EchoTrainLength": 80,
      "FlipAngle": 77.0,
      "HighBit": 11,
      "ImageOrientationPatient": [0.97919368553918, 0.20238682148023, 0.01480880452078, -0.1974401288146, 0.93331690907062, 0.29989488621276],
      "ImagePositionPatient": [-571.33450183598, -805.50067136343, -279.39525870754],
      "ImageType": [
        "ORIGINAL",
        "PRIMARY",
        "M",
        "ND",
        "NORM",
        "MOSAIC"
],
      "ImagedNucleus": "1H",
      "ImagingFrequency": 123.252419,
      "InPlanePhaseEncodingDirection": "COL",
      "MRAcquisitionType": "2D",
      "MagneticFieldStrength": 3.0,
      "Manufacturer": "SIEMENS",
      "ManufacturerModelName": "Prisma",
      "Modality": "MR",
      "NumberOfAverages": 1.0,
      "NumberOfPhaseEncodingSteps": 80,
      "PercentPhaseFieldOfView": 100.0,
      "PercentSampling": 100.0,
      "PerformedProcedureStepStartTime": "093419.738000",
      "PhotometricInterpretation": "MONOCHROME2",
      "PixelBandwidth": 2315.0,
      "PixelRepresentation": 0,
      "PixelSpacing": [3.0, 3.0],
      "ProtocolName": "func-bold_acq-32ch-77flip",
      "RepetitionTime": 2000.0,
      "Rows": 480,
      "SAR": 0.04384514789935,
      "SamplesPerPixel": 1,
      "ScanOptions": "FS",
      "ScanningSequence": "EP",
      "SequenceName": "*epfid2d1_80",
      "SequenceVariant": "SK",
      "SeriesDescription": "func-bold_acq-32ch-77flip",
      "SeriesNumber": 8,
      "SeriesTime": "095059.203000",
      "SliceLocation": -54.389027368854,
      "SliceThickness": 3.5,
      "SmallestImagePixelValue": 0,
      "SoftwareVersions": "syngo MR E11",
      "SpacingBetweenSlices": 3.9899999345068,
      "SpecificCharacterSet": "ISO_IR 100",
      "StudyID": "105",
      "StudyTime": "093419.651000",
      "TransmitCoilName": "Body",
      "VariableFlipAngleFlag": "N",
      "WindowCenterWidthExplanation": "Algo1",
      "dBdt": 0.0},
    "slices": {}
  },
  "time": {
    "samples": {
      "AcquisitionNumber": [1, 2, 3, 4, 5, 6, 7, 8, 9, 10, 11, 12, 13, 14, 15, 16, 17, 18, 19, 20, 21, 22, 23, 24, 25, 26, 27, 28, 29, 30, 31, 32, 33, 34, 35, 36, 37, 38, 39, 40, 41, 42, 43, 44, 45, 46, 47, 48, 49, 50, 51, 52, 53, 54, 55, 56, 57, 58, 59, 60, 61, 62, 63, 64, 65, 66, 67, 68, 69, 70, 71, 72, 73, 74, 75, 76, 77, 78, 79, 80, 81, 82, 83, 84, 85, 86, 87, 88, 89, 90, 91, 92, 93, 94, 95, 96, 97, 98, 99, 100, 101, 102, 103, 104, 105, 106, 107, 108, 109, 110, 111, 112, 113, 114, 115, 116, 117, 118, 119, 120, 121, 122, 123, 124, 125, 126, 127, 128, 129, 130, 131, 132, 133, 134, 135, 136, 137, 138, 139, 140, 141, 142, 143, 144, 145, 146, 147, 148, 149, 150, 151, 152, 153, 154, 155, 156, 157, 158, 159, 160, 161, 162, 163, 164, 165, 166, 167, 168, 169, 170, 171, 172, 173, 174, 175, 176, 177, 178, 179, 180, 181, 182, 183, 184, 185, 186, 187, 188, 189, 190, 191, 192, 193, 194, 195, 196, 197, 198, 199, 200],
      "AcquisitionTime": ["095004.477500", "095006.477500", "095008.477500", "095010.477500", "095012.477500", "095014.477500", "095016.477500", "095018.477500", "095020.477500", "095022.477500", "095024.477500", "095026.477500", "095028.477500", "095030.477500", "095032.477500", "095034.477500", "095036.477500", "095038.477500", "095040.477500", "095042.477500", "095044.477500", "095046.477500", "095048.477500", "095050.477500", "095052.477500", "095054.477500", "095056.477500", "095058.477500", "095100.477500", "095102.477500", "095104.477500", "095106.477500", "095108.477500", "095110.477500", "095112.477500", "095114.477500", "095116.477500", "095118.477500", "095120.477500", "095122.477500", "095124.477500", "095126.477500", "095128.477500", "095130.477500", "095132.477500", "095134.477500", "095136.477500", "095138.477500", "095140.477500", "095142.477500", "095144.477500", "095146.477500", "095148.477500", "095150.477500", "095152.477500", "095154.477500", "095156.477500", "095158.477500", "095200.477500", "095202.477500", "095204.477500", "095206.477500", "095208.477500", "095210.477500", "095212.477500", "095214.477500", "095216.477500", "095218.477500", "095220.477500", "095222.477500", "095224.477500", "095226.477500", "095228.477500", "095230.477500", "095232.477500", "095234.477500", "095236.477500", "095238.477500", "095240.477500", "095242.477500", "095244.477500", "095246.477500", "095248.477500", "095250.477500", "095252.477500", "095254.477500", "095256.477500", "095258.477500", "095300.477500", "095302.477500", "095304.477500", "095306.477500", "095308.477500", "095310.477500", "095312.477500", "095314.477500", "095316.477500", "095318.477500", "095320.477500", "095322.477500", "095324.477500", "095326.477500", "095328.477500", "095330.477500", "095332.477500", "095334.477500", "095336.477500", "095338.477500", "095340.477500", "095342.477500", "095344.477500", "095346.477500", "095348.477500", "095350.477500", "095352.477500", "095354.477500", "095356.477500", "095358.477500", "095400.477500", "095402.477500", "095404.477500", "095406.477500", "095408.477500", "095410.477500", "095412.477500", "095414.477500", "095416.477500", "095418.477500", "095420.477500", "095422.477500", "095424.477500", "095426.477500", "095428.477500", "095430.477500", "095432.477500", "095434.477500", "095436.477500", "095438.477500", "095440.477500", "095442.477500", "095444.477500", "095446.477500", "095448.477500", "095450.477500", "095452.477500", "095454.477500", "095456.477500", "095458.477500", "095500.477500", "095502.477500", "095504.477500", "095506.477500", "095508.477500", "095510.477500", "095512.477500", "095514.477500", "095516.477500", "095518.477500", "095520.477500", "095522.477500", "095524.477500", "095526.477500", "095528.477500", "095530.477500", "095532.477500", "095534.477500", "095536.477500", "095538.477500", "095540.477500", "095542.477500", "095544.477500", "095546.477500", "095548.477500", "095550.477500", "095552.477500", "095554.477500", "095556.477500", "095558.477500", "095600.477500", "095602.477500", "095604.477500", "095606.477500", "095608.477500", "095610.477500", "095612.477500", "095614.477500", "095616.477500", "095618.477500", "095620.477500", "095622.477500", "095624.477500", "095626.477500", "095628.477500", "095630.477500", "095632.477500", "095634.477500", "095636.477500", "095638.477500", "095640.477500", "095642.477500"],
      "ContentTime": ["095059.206000", "095059.210000", "095059.212000", "095059.215000", "095059.217000", "095059.220000", "095059.223000", "095059.225000", "095059.228000", "095059.230000", "095059.233000", "095059.235000", "095059.238000", "095059.240000", "095059.243000", "095059.245000", "095059.248000", "095059.251000", "095059.253000", "095059.256000", "095059.258000", "095059.261000", "095059.263000", "095059.266000", "095059.268000", "095059.271000", "095059.282000", "095119.201000", "095119.204000", "095119.207000", "095119.209000", "095119.212000", "095119.215000", "095119.217000", "095119.220000", "095119.222000", "095119.225000", "095159.201000", "095159.204000", "095159.207000", "095159.209000", "095159.212000", "095159.215000", "095159.217000", "095159.220000", "095159.222000", "095159.225000", "095159.227000", "095159.230000", "095159.232000", "095159.235000", "095159.238000", "095159.240000", "095159.242000", "095159.245000", "095159.248000", "095159.250000", "095239.201000", "095239.205000", "095239.207000", "095239.210000", "095239.212000", "095239.215000", "095239.217000", "095239.220000", "095239.222000", "095239.225000", "095239.227000", "095239.230000", "095239.232000", "095239.235000", "095239.237000", "095239.240000", "095239.242000", "095239.245000", "095239.247000", "095239.249000", "095319.201000", "095319.204000", "095319.207000", "095319.209000", "095319.212000", "095319.214000", "095319.217000", "095319.219000", "095319.222000", "095319.224000", "095319.227000", "095319.229000", "095319.232000", "095319.234000", "095319.237000", "095319.239000", "095319.242000", "095319.244000", "095319.247000", "095319.249000", "095359.201000", "095359.214000", "095359.216000", "095359.219000", "095359.221000", "095359.224000", "095359.226000", "095359.229000", "095359.231000", "095359.234000", "095359.236000", "095359.239000", "095359.241000", "095359.244000", "095359.246000", "095359.249000", "095359.251000", "095359.254000", "095359.256000", "095359.259000", "095439.201000", "095439.203000", "095439.206000", "095439.208000", "095439.221000", "095439.223000", "095439.226000", "095439.228000", "095439.231000", "095439.233000", "095439.236000", "095439.238000", "095439.241000", "095439.243000", "095439.246000", "095439.248000", "095439.251000", "095439.253000", "095439.256000", "095439.259000", "095519.202000", "095519.204000", "095519.217000", "095519.220000", "095519.222000", "095519.225000", "095519.227000", "095519.230000", "095519.233000", "095519.235000", "095519.237000", "095519.240000", "095519.243000", "095519.245000", "095519.248000", "095519.250000", "095519.253000", "095519.255000", "095519.258000", "095519.260000", "095559.202000", "095559.204000", "095559.207000", "095559.209000", "095559.212000", "095559.215000", "095559.217000", "095559.220000", "095559.222000", "095559.225000", "095559.227000", "095559.230000", "095559.233000", "095559.235000", "095559.238000", "095559.240000", "095559.243000", "095559.245000", "095559.248000", "095559.250000", "095639.202000", "095639.204000", "095639.207000", "095639.209000", "095639.212000", "095639.215000", "095639.217000", "095639.220000", "095639.223000", "095639.225000", "095639.228000", "095639.230000", "095639.233000", "095639.235000", "095639.238000", "095639.240000", "095639.243000", "095639.246000", "095639.248000", "095639.250000", "095644.133000", "095644.136000", "095644.139000"],
      "InstanceCreationTime": ["095059.206000", "095059.210000", "095059.212000", "095059.215000", "095059.217000", "095059.220000", "095059.223000", "095059.225000", "095059.228000", "095059.230000", "095059.233000", "095059.235000", "095059.238000", "095059.240000", "095059.243000", "095059.245000", "095059.248000", "095059.251000", "095059.253000", "095059.256000", "095059.258000", "095059.261000", "095059.263000", "095059.266000", "095059.268000", "095059.271000", "095059.282000", "095119.201000", "095119.204000", "095119.207000", "095119.209000", "095119.212000", "095119.215000", "095119.217000", "095119.220000", "095119.222000", "095119.225000", "095159.201000", "095159.204000", "095159.207000", "095159.209000", "095159.212000", "095159.215000", "095159.217000", "095159.220000", "095159.222000", "095159.225000", "095159.227000", "095159.230000", "095159.232000", "095159.235000", "095159.238000", "095159.240000", "095159.242000", "095159.245000", "095159.248000", "095159.250000", "095239.201000", "095239.205000", "095239.207000", "095239.210000", "095239.212000", "095239.215000", "095239.217000", "095239.220000", "095239.222000", "095239.225000", "095239.227000", "095239.230000", "095239.232000", "095239.235000", "095239.237000", "095239.240000", "095239.242000", "095239.245000", "095239.247000", "095239.249000", "095319.201000", "095319.204000", "095319.207000", "095319.209000", "095319.212000", "095319.214000", "095319.217000", "095319.219000", "095319.222000", "095319.224000", "095319.227000", "095319.229000", "095319.232000", "095319.234000", "095319.237000", "095319.239000", "095319.242000", "095319.244000", "095319.247000", "095319.249000", "095359.201000", "095359.214000", "095359.216000", "095359.219000", "095359.221000", "095359.224000", "095359.226000", "095359.229000", "095359.231000", "095359.234000", "095359.236000", "095359.239000", "095359.241000", "095359.244000", "095359.246000", "095359.249000", "095359.251000", "095359.254000", "095359.256000", "095359.259000", "095439.201000", "095439.203000", "095439.206000", "095439.208000", "095439.221000", "095439.223000", "095439.226000", "095439.228000", "095439.231000", "095439.233000", "095439.236000", "095439.238000", "095439.241000", "095439.243000", "095439.246000", "095439.248000", "095439.251000", "095439.253000", "095439.256000", "095439.259000", "095519.202000", "095519.204000", "095519.217000", "095519.220000", "095519.222000", "095519.225000", "095519.227000", "095519.230000", "095519.233000", "095519.235000", "095519.237000", "095519.240000", "095519.243000", "095519.245000", "095519.248000", "095519.250000", "095519.253000", "095519.255000", "095519.258000", "095519.260000", "095559.202000", "095559.204000", "095559.207000", "095559.209000", "095559.212000", "095559.215000", "095559.217000", "095559.220000", "095559.222000", "095559.225000", "095559.227000", "095559.230000", "095559.233000", "095559.235000", "095559.238000", "095559.240000", "095559.243000", "095559.245000", "095559.248000", "095559.250000", "095639.202000", "095639.204000", "095639.207000", "095639.209000", "095639.212000", "095639.215000", "095639.217000", "095639.220000", "095639.223000", "095639.225000", "095639.228000", "095639.230000", "095639.233000", "095639.235000", "095639.238000", "095639.240000", "095639.243000", "095639.246000", "095639.248000", "095639.250000", "095644.133000", "095644.136000", "095644.139000"],
      "InstanceNumber": [1, 2, 3, 4, 5, 6, 7, 8, 9, 10, 11, 12, 13, 14, 15, 16, 17, 18, 19, 20, 21, 22, 23, 24, 25, 26, 27, 28, 29, 30, 31, 32, 33, 34, 35, 36, 37, 38, 39, 40, 41, 42, 43, 44, 45, 46, 47, 48, 49, 50, 51, 52, 53, 54, 55, 56, 57, 58, 59, 60, 61, 62, 63, 64, 65, 66, 67, 68, 69, 70, 71, 72, 73, 74, 75, 76, 77, 78, 79, 80, 81, 82, 83, 84, 85, 86, 87, 88, 89, 90, 91, 92, 93, 94, 95, 96, 97, 98, 99, 100, 101, 102, 103, 104, 105, 106, 107, 108, 109, 110, 111, 112, 113, 114, 115, 116, 117, 118, 119, 120, 121, 122, 123, 124, 125, 126, 127, 128, 129, 130, 131, 132, 133, 134, 135, 136, 137, 138, 139, 140, 141, 142, 143, 144, 145, 146, 147, 148, 149, 150, 151, 152, 153, 154, 155, 156, 157, 158, 159, 160, 161, 162, 163, 164, 165, 166, 167, 168, 169, 170, 171, 172, 173, 174, 175, 176, 177, 178, 179, 180, 181, 182, 183, 184, 185, 186, 187, 188, 189, 190, 191, 192, 193, 194, 195, 196, 197, 198, 199, 200],
      "LargestImagePixelValue": [2173, 2175, 2174, 2174, 2174, 2174, 2174, 2175, 2174, 2175, 2174, 2177, 2175, 2175, 2173, 2173, 2176, 2175, 2176, 2176, 2173, 2172, 2174, 2175, 2175, 2172, 2174, 2174, 2173, 2174, 2174, 2174, 2173, 2176, 2173, 2173, 2173, 2174, 2175, 2175, 2175, 2174, 2174, 2176, 2175, 2174, 2175, 2176, 2174, 2175, 2176, 2175, 2173, 2176, 2172, 2175, 2174, 2172, 2175, 2174, 2175, 2173, 2173, 2173, 2171, 2173, 2174, 2173, 2173, 2175, 2171, 2173, 2173, 2172, 2172, 2173, 2173, 2174, 2175, 2174, 2172, 2174, 2174, 2173, 2174, 2172, 2172, 2171, 2172, 2174, 2175, 2173, 2173, 2173, 2173, 2173, 2173, 2172, 2174, 2174, 2173, 2174, 2174, 2176, 2174, 2174, 2173, 2174, 2174, 2175, 2173, 2175, 2175, 2174, 2173, 2176, 2173, 2175, 2176, 2174, 2175, 2176, 2175, 2176, 2175, 2177, 2174, 2175, 2175, 2174, 2175, 2174, 2174, 2173, 2173, 2173, 2174, 2173, 2175, 2174, 2174, 2174, 2174, 2174, 2174, 2172, 2172, 2172, 2173, 2174, 2172, 2174, 2175, 2174, 2174, 2174, 2172, 2174, 2175, 2175, 2175, 2174, 2174, 2174, 2175, 2173, 2172, 2175, 2173, 2174, 2174, 2172, 2174, 2175, 2174, 2173, 2174, 2172, 2173, 2173, 2175, 2174, 2174, 2174, 2174, 2174, 2175, 2174, 2175, 2175, 2174, 2175, 2174, 2171, 2175, 2172, 2175, 2174, 2175, 2173],
      "WindowCenter": [1003.0, 1004.0, 1004.0, 1004.0, 1005.0, 1003.0, 1004.0, 1004.0, 1004.0, 1003.0, 1003.0, 1003.0, 1003.0, 1004.0, 1004.0, 1003.0, 1004.0, 1004.0, 1004.0, 1004.0, 1004.0, 1006.0, 1005.0, 1004.0, 1003.0, 1004.0, 1005.0, 1003.0, 1003.0, 1004.0, 1004.0, 1002.0, 1003.0, 1002.0, 1004.0, 1003.0, 1002.0, 1003.0, 1003.0, 1004.0, 1006.0, 1003.0, 1004.0, 1005.0, 1005.0, 1004.0, 1004.0, 1004.0, 1003.0, 1003.0, 1005.0, 1003.0, 1003.0, 1003.0, 1004.0, 1004.0, 1004.0, 1003.0, 1004.0, 1003.0, 1003.0, 1004.0, 1003.0, 1003.0, 1003.0, 1004.0, 1003.0, 1004.0, 1004.0, 1005.0, 1003.0, 1003.0, 1002.0, 1003.0, 1003.0, 1004.0, 1003.0, 1003.0, 1004.0, 1004.0, 1003.0, 1004.0, 1003.0, 1004.0, 1003.0, 1002.0, 1003.0, 1003.0, 1004.0, 1003.0, 1004.0, 1003.0, 1004.0, 1003.0, 1003.0, 1002.0, 1002.0, 1003.0, 1004.0, 1003.0, 1002.0, 1003.0, 1004.0, 1004.0, 1003.0, 1004.0, 1003.0, 1003.0, 1003.0, 1002.0, 1003.0, 1003.0, 1004.0, 1003.0, 1003.0, 1002.0, 1003.0, 1003.0, 1004.0, 1003.0, 1003.0, 1003.0, 1002.0, 1002.0, 1003.0, 1003.0, 1004.0, 1003.0, 1002.0, 1003.0, 1002.0, 1002.0, 1002.0, 1002.0, 1002.0, 1003.0, 1003.0, 1004.0, 1002.0, 1002.0, 1003.0, 1003.0, 1002.0, 1001.0, 1001.0, 1002.0, 1002.0, 1001.0, 1002.0, 1003.0, 1002.0, 1003.0, 1002.0, 1002.0, 1002.0, 1002.0, 1003.0, 1002.0, 1002.0, 1003.0, 1002.0, 1004.0, 1002.0, 1002.0, 1003.0, 1002.0, 1001.0, 1002.0, 1003.0, 1001.0, 1002.0, 1003.0, 1002.0, 1002.0, 1003.0, 1002.0, 1002.0, 1003.0, 1002.0, 1002.0, 1001.0, 1002.0, 1003.0, 1002.0, 1003.0, 1003.0, 1003.0, 1003.0, 1003.0, 1002.0, 1003.0, 1002.0, 1002.0, 1002.0, 1003.0, 1003.0, 1001.0, 1003.0, 1003.0, 1003.0],
      "WindowWidth": [2221.0, 2222.0, 2223.0, 2223.0, 2223.0, 2221.0, 2222.0, 2222.0, 2222.0, 2221.0, 2221.0, 2221.0, 2221.0, 2222.0, 2222.0, 2221.0, 2222.0, 2222.0, 2223.0, 2222.0, 2222.0, 2223.0, 2223.0, 2222.0, 2221.0, 2222.0, 2223.0, 2221.0, 2221.0, 2222.0, 2222.0, 2220.0, 2221.0, 2220.0, 2221.0, 2221.0, 2220.0, 2221.0, 2221.0, 2222.0, 2223.0, 2221.0, 2221.0, 2222.0, 2222.0, 2222.0, 2222.0, 2222.0, 2221.0, 2221.0, 2222.0, 2221.0, 2221.0, 2221.0, 2222.0, 2222.0, 2222.0, 2221.0, 2222.0, 2221.0, 2221.0, 2221.0, 2221.0, 2221.0, 2221.0, 2222.0, 2220.0, 2221.0, 2221.0, 2222.0, 2220.0, 2221.0, 2220.0, 2220.0, 2220.0, 2221.0, 2221.0, 2221.0, 2221.0, 2221.0, 2220.0, 2221.0, 2221.0, 2221.0, 2220.0, 2220.0, 2221.0, 2221.0, 2221.0, 2221.0, 2221.0, 2220.0, 2221.0, 2221.0, 2221.0, 2219.0, 2219.0, 2220.0, 2221.0, 2221.0, 2220.0, 2221.0, 2221.0, 2221.0, 2221.0, 2221.0, 2220.0, 2220.0, 2220.0, 2219.0, 2221.0, 2221.0, 2221.0, 2221.0, 2220.0, 2220.0, 2220.0, 2221.0, 2221.0, 2220.0, 2220.0, 2221.0, 2220.0, 2220.0, 2220.0, 2220.0, 2221.0, 2220.0, 2220.0, 2220.0, 2220.0, 2219.0, 2220.0, 2220.0, 2220.0, 2220.0, 2220.0, 2221.0, 2220.0, 2220.0, 2220.0, 2220.0, 2220.0, 2219.0, 2219.0, 2219.0, 2220.0, 2219.0, 2220.0, 2220.0, 2220.0, 2220.0, 2220.0, 2220.0, 2219.0, 2219.0, 2220.0, 2220.0, 2220.0, 2220.0, 2220.0, 2221.0, 2219.0, 2220.0, 2220.0, 2219.0, 2219.0, 2219.0, 2220.0, 2219.0, 2219.0, 2220.0, 2220.0, 2219.0, 2220.0, 2219.0, 2219.0, 2220.0, 2219.0, 2219.0, 2218.0, 2219.0, 2219.0, 2219.0, 2220.0, 2219.0, 2219.0, 2220.0, 2219.0, 2219.0, 2220.0, 2219.0, 2219.0, 2219.0, 2219.0, 2219.0, 2218.0, 2220.0, 2219.0, 2219.0]
    },
    "slices": {}
  }
}