{
  "AcquisitionMatrixPE": 80,
  "AcquisitionNumber": 1,
  "AcquisitionTime": "09:36:20.207500",
  "BandwidthPerPixelPhaseEncode": 48.077,
  "BaseResolution": 80,
  "BodyPartExamined": "BRAIN",
  "CoilCombinationMethod": "Sum of Squares",
  "ConsistencyInfo": "N4_VE11C_LATEST_20160120",
  "ConversionSoftware": "dcm2niix",
  "ConversionSoftwareVersion": "v1.0.20220720",
  "DerivedVendorReportedEchoSpacing": 0.000519999,
  "DeviceSerialNumber": "66112",
  "DwellTime": 2.7e-06,
  "EchoTime": 0.035,
  "EchoTrainLength": 39,
  "EffectiveEchoSpacing": 0.00026,
  "FlipAngle": 90,
  "HeudiconvVersion": "0.13.1",
  "ImageOrientationPatientDICOM": [0.979194, 0.202387, 0.0148088, -0.19744, 0.933317, 0.299895],
  "ImageOrientationText": "Tra>Cor(17.3)>Sag(-2.7)",
  "ImageType": [
    "ORIGINAL",
    "PRIMARY",
    "M",
    "ND",
    "NORM",
    "MOSAIC"
],
  "ImagingFrequency": 123.252,
  "InPlanePhaseEncodingDirectionDICOM": "COL",
  "InstitutionAddress": "Maynard 3,Hanover,NH,US,03755",
  "InstitutionName": "Dartmouth College - PBS",
  "InstitutionalDepartmentName": "Department",
  "MRAcquisitionType": "2D",
  "MagneticFieldStrength": 3,
  "Manufacturer": "Siemens",
  "ManufacturersModelName": "Prisma",
  "MatrixCoilMode": "GRAPPA",
  "Modality": "MR",
  "NonlinearGradientCorrection": false,
  "ParallelReductionFactorInPlane": 2,
  "PartialFourier": 1,
  "PatientPosition": "HFS",
  "PercentPhaseFOV": 100,
  "PercentSampling": 100,
  "PhaseEncodingDirection": "j-",
  "PhaseEncodingSteps": 79,
  "PhaseResolution": 1,
  "PixelBandwidth": 2315,
  "ProcedureStepDescription": "dbic^QA",
  "ProtocolName": "func-bold_task-rest_acq-p2",
  "PulseSequenceDetails": "%SiemensSeq%\\ep2d_bold",
  "ReceiveCoilActiveElements": "HEA;HEP",
  "ReceiveCoilName": "Head_32",
  "ReconMatrixPE": 80,
  "RefLinesPE": 24,
  "RepetitionTime": 2,
  "SAR": 0.0557933,
  "ScanOptions": "FS",
  "ScanningSequence": "EP",
  "SequenceName": "*epfid2d1_80",
  "SequenceVariant": "SK",
  "SeriesDescription": "func-bold_task-rest_acq-p2",
  "SeriesNumber": 5,
  "ShimSetting": [4145, -7689, -7516, 272, -31, -135, -31, 47],
  "SliceThickness": 3.5,
  "SliceTiming": [0.99, 0, 1.055, 0.065, 1.1225, 0.1325, 1.1875, 0.1975, 1.2525, 0.265, 1.32, 0.33, 1.385, 0.395, 1.4525, 0.4625, 1.5175, 0.5275, 1.5825, 0.5925, 1.65, 0.66, 1.715, 0.725, 1.7825, 0.7925, 1.8475, 0.8575, 1.9125, 0.9225],
  "SoftwareVersions": "syngo MR E11",
  "SpacingBetweenSlices": 3.99,
  "StationName": "AWP66112",
  "TaskName": "rest",
  "TotalReadoutTime": 0.02054,
  "TxRefAmp": 232.131,
  "dcmmeta_affine": [
    [-2.9375810623168945, -0.5923203825950623, -0.18702512979507446, 149.7976837158203],
    [-0.6071604490280151, 2.7999508380889893, 1.1833503246307373, -100.67389678955078],
    [0.044426415115594864, -0.8996846675872803, 3.8058907985687256, -20.3677978515625],
    [0.0, 0.0, 0.0, 1.0]
],
  "dcmmeta_reorient_transform": [
    [0.0, -1.0, 0.0, 79.0],
    [1.0, 0.0, 0.0, 0.0],
    [0.0, 0.0, 1.0, 0.0],
    [0.0, 0.0, 0.0, 1.0]
],
  "dcmmeta_shape": [80, 80, 30, 200],
  "dcmmeta_slice_dim": 2,
  "dcmmeta_version": 0.6,
  "global": {
    "const": {
      "AccessionNumber": "qa",
      "AcquisitionMatrix": [80, 0, 0, 80],
      "AngioFlag": "N",
      "BitsAllocated": 16,
      "BitsStored": 12,
      "BodyPartExamined": "BRAIN",
      "Columns": 480,
      "EchoNumbers": 1,
      "EchoTime": 35.0,
      "EchoTrainLength": 39,
      "FlipAngle": 90.0,
      "HighBit": 11,
      "ImageOrientationPatient": [0.97919368553918, 0.20238682148023, 0.01480880452078, -0.1974401288146, 0.93331690907062, 0.29989488621276],
      "ImagePositionPatient": [-572.05651244847, -801.94444654044, -280.26510123684],
      "ImageType": [
        "ORIGINAL",
        "PRIMARY",
        "M",
        "ND",
        "NORM",
        "MOSAIC"
],
      "ImagedNucleus": "1H",
      "ImagingFrequency": 123.252419,
      "InPlanePhaseEncodingDirection": "COL",
      "MRAcquisitionType": "2D",
      "MagneticFieldStrength": 3.0,
      "Manufacturer": "SIEMENS",
      "ManufacturerModelName": "Prisma",
      "Modality": "MR",
      "NumberOfAverages": 1.0,
      "NumberOfPhaseEncodingSteps": 79,
      "PercentPhaseFieldOfView": 100.0,
      "PercentSampling": 100.0,
      "PerformedProcedureStepStartTime": "093419.738000",
      "PhotometricInterpretation": "MONOCHROME2",
      "PixelBandwidth": 2315.0,
      "PixelRepresentation": 0,
      "PixelSpacing": [3.0, 3.0],
      "ProtocolName": "func-bold_task-rest_acq-p2",
      "RepetitionTime": 2000.0,
      "Rows": 480,
      "SAR": 0.05579328802066,
      "SamplesPerPixel": 1,
      "ScanOptions": "FS",
      "ScanningSequence": "EP",
      "SequenceName": "*epfid2d1_80",
      "SequenceVariant": "SK",
      "SeriesDescription": "func-bold_task-rest_acq-p2",
      "SeriesNumber": 5,
      "SeriesTime": "093719.061000",
      "SliceLocation": -56.307277870742,
      "SliceThickness": 3.5,
      "SmallestImagePixelValue": 0,
      "SoftwareVersions": "syngo MR E11",
      "SpacingBetweenSlices": 3.9900000595931,
      "SpecificCharacterSet": "ISO_IR 100",
      "StudyID": "105",
      "StudyTime": "093419.651000",
      "TransmitCoilName": "Body",
      "VariableFlipAngleFlag": "N",
      "WindowCenterWidthExplanation": "Algo1",
      "dBdt": 0.0},
    "slices": {}
  },
  "time": {
    "samples": {
      "AcquisitionNumber": [1, 2, 3, 4, 5, 6, 7, 8, 9, 10, 11, 12, 13, 14, 15, 16, 17, 18, 19, 20, 21, 22, 23, 24, 25, 26, 27, 28, 29, 30, 31, 32, 33, 34, 35, 36, 37, 38, 39, 40, 41, 42, 43, 44, 45, 46, 47, 48, 49, 50, 51, 52, 53, 54, 55, 56, 57, 58, 59, 60, 61, 62, 63, 64, 65, 66, 67, 68, 69, 70, 71, 72, 73, 74, 75, 76, 77, 78, 79, 80, 81, 82, 83, 84, 85, 86, 87, 88, 89, 90, 91, 92, 93, 94, 95, 96, 97, 98, 99, 100, 101, 102, 103, 104, 105, 106, 107, 108, 109, 110, 111, 112, 113, 114, 115, 116, 117, 118, 119, 120, 121, 122, 123, 124, 125, 126, 127, 128, 129, 130, 131, 132, 133, 134, 135, 136, 137, 138, 139, 140, 141, 142, 143, 144, 145, 146, 147, 148, 149, 150, 151, 152, 153, 154, 155, 156, 157, 158, 159, 160, 161, 162, 163, 164, 165, 166, 167, 168, 169, 170, 171, 172, 173, 174, 175, 176, 177, 178, 179, 180, 181, 182, 183, 184, 185, 186, 187, 188, 189, 190, 191, 192, 193, 194, 195, 196, 197, 198, 199, 200],
      "AcquisitionTime": ["093620.207500", "093622.207500", "093624.207500", "093626.207500", "093628.207500", "093630.207500", "093632.207500", "093634.207500", "093636.207500", "093638.207500", "093640.207500", "093642.207500", "093644.207500", "093646.207500", "093648.207500", "093650.207500", "093652.207500", "093654.207500", "093656.207500", "093658.207500", "093700.207500", "093702.207500", "093704.207500", "093706.207500", "093708.207500", "093710.207500", "093712.207500", "093714.207500", "093716.207500", "093718.207500", "093720.207500", "093722.207500", "093724.207500", "093726.207500", "093728.207500", "093730.207500", "093732.207500", "093734.207500", "093736.207500", "093738.207500", "093740.207500", "093742.207500", "093744.207500", "093746.207500", "093748.207500", "093750.207500", "093752.207500", "093754.207500", "093756.207500", "093758.207500", "093800.207500", "093802.207500", "093804.207500", "093806.207500", "093808.207500", "093810.207500", "093812.207500", "093814.207500", "093816.207500", "093818.207500", "093820.207500", "093822.207500", "093824.207500", "093826.207500", "093828.207500", "093830.207500", "093832.207500", "093834.207500", "093836.207500", "093838.207500", "093840.207500", "093842.207500", "093844.207500", "093846.207500", "093848.207500", "093850.207500", "093852.207500", "093854.207500", "093856.207500", "093858.207500", "093900.207500", "093902.207500", "093904.207500", "093906.207500", "093908.207500", "093910.207500", "093912.207500", "093914.207500", "093916.207500", "093918.207500", "093920.207500", "093922.207500", "093924.207500", "093926.207500", "093928.207500", "093930.207500", "093932.207500", "093934.207500", "093936.207500", "093938.207500", "093940.207500", "093942.207500", "093944.207500", "093946.207500", "093948.207500", "093950.207500", "093952.207500", "093954.207500", "093956.207500", "093958.207500", "094000.207500", "094002.207500", "094004.207500", "094006.207500", "094008.207500", "094010.207500", "094012.207500", "094014.207500", "094016.207500", "094018.207500", "094020.207500", "094022.207500", "094024.207500", "094026.207500", "094028.207500", "094030.207500", "094032.207500", "094034.207500", "094036.207500", "094038.207500", "094040.207500", "094042.207500", "094044.207500", "094046.207500", "094048.207500", "094050.207500", "094052.207500", "094054.207500", "094056.207500", "094058.207500", "094100.207500", "094102.207500", "094104.207500", "094106.207500", "094108.207500", "094110.207500", "094112.207500", "094114.207500", "094116.207500", "094118.207500", "094120.207500", "094122.207500", "094124.207500", "094126.207500", "094128.207500", "094130.207500", "094132.207500", "094134.207500", "094136.207500", "094138.207500", "094140.207500", "094142.207500", "094144.207500", "094146.207500", "094148.207500", "094150.207500", "094152.207500", "094154.207500", "094156.207500", "094158.207500", "094200.207500", "094202.207500", "094204.207500", "094206.207500", "094208.207500", "094210.207500", "094212.207500", "094214.207500", "094216.207500", "094218.207500", "094220.207500", "094222.207500", "094224.207500", "094226.207500", "094228.207500", "094230.207500", "094232.207500", "094234.207500", "094236.207500", "094238.207500", "094240.207500", "094242.207500", "094244.207500", "094246.207500", "094248.207500", "094250.207500", "094252.207500", "094254.207500", "094256.207500", "094258.207500"],
      "ContentTime": ["093719.065000", "093719.068000", "093719.071000", "093719.073000", "093719.076000", "093719.079000", "093719.081000", "093719.084000", "093719.094000", "093719.097000", "093719.100000", "093719.102000", "093719.105000", "093719.108000", "093719.110000", "093719.113000", "093719.116000", "093719.124000", "093719.127000", "093719.130000", "093719.132000", "093719.135000", "093719.138000", "093719.140000", "093719.143000", "093719.145000", "093719.148000", "093719.150000", "093719.153000", "093759.060000", "093759.062000", "093759.065000", "093759.068000", "093759.070000", "093759.073000", "093759.075000", "093759.078000", "093759.080000", "093759.083000", "093759.086000", "093759.088000", "093759.091000", "093759.094000", "093759.097000", "093759.100000", "093759.102000", "093759.105000", "093759.107000", "093759.110000", "093839.058000", "093839.061000", "093839.064000", "093839.066000", "093839.069000", "093839.071000", "093839.074000", "093839.085000", "093839.088000", "093839.090000", "093839.093000", "093839.095000", "093839.098000", "093839.101000", "093839.103000", "093839.106000", "093839.108000", "093839.111000", "093839.114000", "093839.116000", "093919.059000", "093919.062000", "093919.065000", "093919.067000", "093919.070000", "093919.073000", "093919.075000", "093919.078000", "093919.080000", "093919.083000", "093919.100000", "093919.103000", "093919.105000", "093919.108000", "093919.110000", "093919.113000", "093919.136000", "093919.139000", "093919.141000", "093919.144000", "093959.059000", "093959.062000", "093959.065000", "093959.068000", "093959.070000", "093959.073000", "093959.075000", "093959.078000", "093959.080000", "093959.083000", "093959.085000", "093959.088000", "093959.090000", "093959.093000", "093959.096000", "093959.108000", "093959.110000", "093959.113000", "093959.115000", "093959.118000", "094039.058000", "094039.061000", "094039.064000", "094039.066000", "094039.069000", "094039.072000", "094039.074000", "094039.077000", "094039.079000", "094039.082000", "094039.084000", "094039.087000", "094039.089000", "094039.092000", "094039.094000", "094039.097000", "094039.099000", "094039.102000", "094039.104000", "094039.107000", "094059.058000", "094059.061000", "094059.064000", "094059.066000", "094059.069000", "094059.071000", "094059.074000", "094059.077000", "094059.090000", "094059.092000", "094139.060000", "094139.062000", "094139.065000", "094139.067000", "094139.070000", "094139.073000", "094139.075000", "094139.078000", "094139.080000", "094139.083000", "094139.085000", "094139.088000", "094139.090000", "094139.093000", "094139.105000", "094139.108000", "094139.111000", "094139.113000", "094139.116000", "094139.118000", "094219.060000", "094219.062000", "094219.065000", "094219.067000", "094219.070000", "094219.073000", "094219.075000", "094219.078000", "094219.080000", "094219.083000", "094219.085000", "094219.088000", "094219.090000", "094219.093000", "094219.095000", "094219.098000", "094219.101000", "094219.103000", "094219.106000", "094219.108000", "094259.059000", "094259.061000", "094259.064000", "094259.067000", "094259.069000", "094259.072000", "094259.074000", "094259.077000", "094259.079000", "094259.082000", "094259.084000", "094259.087000", "094259.089000", "094259.092000", "094259.094000", "094259.097000", "094259.099000", "094259.102000", "094259.105000", "094259.107000", "094259.941000"],
      "InstanceCreationTime": ["093719.065000", "093719.068000", "093719.071000", "093719.073000", "093719.076000", "093719.079000", "093719.081000", "093719.084000", "093719.094000", "093719.097000", "093719.100000", "093719.102000", "093719.105000", "093719.108000", "093719.110000", "093719.113000", "093719.116000", "093719.124000", "093719.127000", "093719.130000", "093719.132000", "093719.135000", "093719.138000", "093719.140000", "093719.143000", "093719.145000", "093719.148000", "093719.150000", "093719.153000", "093759.060000", "093759.062000", "093759.065000", "093759.068000", "093759.070000", "093759.073000", "093759.075000", "093759.078000", "093759.080000", "093759.083000", "093759.086000", "093759.088000", "093759.091000", "093759.094000", "093759.097000", "093759.100000", "093759.102000", "093759.105000", "093759.107000", "093759.110000", "093839.058000", "093839.061000", "093839.064000", "093839.066000", "093839.069000", "093839.071000", "093839.074000", "093839.085000", "093839.088000", "093839.090000", "093839.093000", "093839.095000", "093839.098000", "093839.101000", "093839.103000", "093839.106000", "093839.108000", "093839.111000", "093839.114000", "093839.116000", "093919.059000", "093919.062000", "093919.065000", "093919.067000", "093919.070000", "093919.073000", "093919.075000", "093919.078000", "093919.080000", "093919.083000", "093919.100000", "093919.103000", "093919.105000", "093919.108000", "093919.110000", "093919.113000", "093919.136000", "093919.139000", "093919.141000", "093919.144000", "093959.059000", "093959.062000", "093959.065000", "093959.068000", "093959.070000", "093959.073000", "093959.075000", "093959.078000", "093959.080000", "093959.083000", "093959.085000", "093959.088000", "093959.090000", "093959.093000", "093959.096000", "093959.108000", "093959.110000", "093959.113000", "093959.115000", "093959.118000", "094039.058000", "094039.061000", "094039.064000", "094039.066000", "094039.069000", "094039.072000", "094039.074000", "094039.077000", "094039.079000", "094039.082000", "094039.084000", "094039.087000", "094039.089000", "094039.092000", "094039.094000", "094039.097000", "094039.099000", "094039.102000", "094039.104000", "094039.107000", "094059.058000", "094059.061000", "094059.064000", "094059.066000", "094059.069000", "094059.071000", "094059.074000", "094059.077000", "094059.090000", "094059.092000", "094139.060000", "094139.062000", "094139.065000", "094139.067000", "094139.070000", "094139.073000", "094139.075000", "094139.078000", "094139.080000", "094139.083000", "094139.085000", "094139.088000", "094139.090000", "094139.093000", "094139.105000", "094139.108000", "094139.111000", "094139.113000", "094139.116000", "094139.118000", "094219.060000", "094219.062000", "094219.065000", "094219.067000", "094219.070000", "094219.073000", "094219.075000", "094219.078000", "094219.080000", "094219.083000", "094219.085000", "094219.088000", "094219.090000", "094219.093000", "094219.095000", "094219.098000", "094219.101000", "094219.103000", "094219.106000", "094219.108000", "094259.059000", "094259.061000", "094259.064000", "094259.067000", "094259.069000", "094259.072000", "094259.074000", "094259.077000", "094259.079000", "094259.082000", "094259.084000", "094259.087000", "094259.089000", "094259.092000", "094259.094000", "094259.097000", "094259.099000", "094259.102000", "094259.105000", "094259.107000", "094259.941000"],
      "InstanceNumber": [1, 2, 3, 4, 5, 6, 7, 8, 9, 10, 11, 12, 13, 14, 15, 16, 17, 18, 19, 20, 21, 22, 23, 24, 25, 26, 27, 28, 29, 30, 31, 32, 33, 34, 35, 36, 37, 38, 39, 40, 41, 42, 43, 44, 45, 46, 47, 48, 49, 50, 51, 52, 53, 54, 55, 56, 57, 58, 59, 60, 61, 62, 63, 64, 65, 66, 67, 68, 69, 70, 71, 72, 73, 74, 75, 76, 77, 78, 79, 80, 81, 82, 83, 84, 85, 86, 87, 88, 89, 90, 91, 92, 93, 94, 95, 96, 97, 98, 99, 100, 101, 102, 103, 104, 105, 106, 107, 108, 109, 110, 111, 112, 113, 114, 115, 116, 117, 118, 119, 120, 121, 122, 123, 124, 125, 126, 127, 128, 129, 130, 131, 132, 133, 134, 135, 136, 137, 138, 139, 140, 141, 142, 143, 144, 145, 146, 147, 148, 149, 150, 151, 152, 153, 154, 155, 156, 157, 158, 159, 160, 161, 162, 163, 164, 165, 166, 167, 168, 169, 170, 171, 172, 173, 174, 175, 176, 177, 178, 179, 180, 181, 182, 183, 184, 185, 186, 187, 188, 189, 190, 191, 192, 193, 194, 195, 196, 197, 198, 199, 200],
      "LargestImagePixelValue": [2211, 2222, 2227, 2218, 2223, 2220, 2220, 2213, 2220, 2214, 2218, 2219, 2222, 2219, 2213, 2210, 2218, 2212, 2214, 2215, 2214, 2220, 2216, 2216, 2213, 2223, 2217, 2224, 2211, 2216, 2215, 2229, 2214, 2211, 2209, 2220, 2222, 2221, 2215, 2219, 2210, 2216, 2215, 2217, 2214, 2214, 2215, 2219, 2211, 2210, 2213, 2221, 2214, 2216, 2213, 2219, 2211, 2222, 2211, 2219, 2207, 2214, 2225, 2211, 2216, 2228, 2211, 2217, 2217, 2213, 2216, 2217, 2211, 2209, 2210, 2210, 2216, 2214, 2221, 2216, 2219, 2217, 2212, 2214, 2221, 2212, 2210, 2218, 2214, 2209, 2211, 2219, 2211, 2209, 2211, 2217, 2215, 2220, 2214, 2219, 2217, 2213, 2216, 2212, 2212, 2209, 2216, 2215, 2214, 2215, 2219, 2215, 2212, 2218, 2215, 2213, 2210, 2205, 2219, 2215, 2213, 2216, 2214, 2210, 2221, 2215, 2216, 2208, 2211, 2212, 2216, 2206, 2222, 2215, 2218, 2207, 2211, 2210, 2216, 2211, 2215, 2212, 2212, 2207, 2213, 2216, 2213, 2206, 2216, 2217, 2216, 2208, 2215, 2217, 2207, 2207, 2211, 2207, 2208, 2212, 2217, 2217, 2209, 2212, 2204, 2202, 2204, 2205, 2209, 2210, 2207, 2208, 2213, 2217, 2213, 2214, 2208, 2210, 2213, 2220, 2206, 2208, 2212, 2212, 2213, 2213, 2212, 2214, 2204, 2204, 2208, 2208, 2210, 2218, 2213, 2211, 2220, 2213, 2212, 2203],
      "WindowCenter": [1017.0, 1016.0, 1016.0, 1017.0, 1016.0, 1016.0, 1016.0, 1016.0, 1016.0, 1016.0, 1016.0, 1016.0, 1016.0, 1016.0, 1016.0, 1016.0, 1016.0, 1016.0, 1016.0, 1016.0, 1016.0, 1016.0, 1016.0, 1016.0, 1016.0, 1016.0, 1016.0, 1016.0, 1016.0, 1016.0, 1016.0, 1016.0, 1016.0, 1016.0, 1016.0, 1016.0, 1016.0, 1016.0, 1016.0, 1016.0, 1017.0, 1016.0, 1016.0, 1016.0, 1016.0, 1016.0, 1016.0, 1016.0, 1016.0, 1016.0, 1016.0, 1016.0, 1016.0, 1016.0, 1016.0, 1016.0, 1016.0, 1016.0, 1016.0, 1016.0, 1016.0, 1016.0, 1016.0, 1016.0, 1016.0, 1016.0, 1016.0, 1016.0, 1016.0, 1016.0, 1016.0, 1016.0, 1016.0, 1016.0, 1016.0, 1016.0, 1016.0, 1016.0, 1016.0, 1016.0, 1016.0, 1016.0, 1016.0, 1016.0, 1016.0, 1016.0, 1016.0, 1016.0, 1016.0, 1016.0, 1016.0, 1016.0, 1016.0, 1016.0, 1016.0, 1016.0, 1016.0, 1016.0, 1016.0, 1016.0, 1016.0, 1016.0, 1016.0, 1016.0, 1016.0, 1016.0, 1016.0, 1016.0, 1016.0, 1017.0, 1016.0, 1016.0, 1016.0, 1016.0, 1016.0, 1016.0, 1017.0, 1016.0, 1016.0, 1016.0, 1016.0, 1016.0, 1016.0, 1016.0, 1016.0, 1016.0, 1016.0, 1016.0, 1016.0, 1016.0, 1016.0, 1016.0, 1016.0, 1016.0, 1016.0, 1016.0, 1016.0, 1016.0, 1015.0, 1016.0, 1016.0, 1016.0, 1015.0, 1015.0, 1016.0, 1015.0, 1015.0, 1015.0, 1015.0, 1015.0, 1015.0, 1015.0, 1016.0, 1015.0, 1016.0, 1016.0, 1015.0, 1016.0, 1016.0, 1015.0, 1015.0, 1015.0, 1015.0, 1015.0, 1016.0, 1015.0, 1016.0, 1015.0, 1015.0, 1015.0, 1015.0, 1016.0, 1015.0, 1015.0, 1015.0, 1015.0, 1015.0, 1015.0, 1015.0, 1015.0, 1015.0, 1015.0, 1015.0, 1015.0, 1015.0, 1015.0, 1015.0, 1015.0, 1015.0, 1015.0, 1015.0, 1016.0, 1015.0, 1015.0, 1015.0, 1015.0, 1016.0, 1015.0, 1016.0, 1016.0],
      "WindowWidth": [2245.0, 2244.0, 2245.0, 2244.0, 2244.0, 2244.0, 2245.0, 2244.0, 2244.0, 2244.0, 2245.0, 2244.0, 2244.0, 2244.0, 2244.0, 2244.0, 2245.0, 2244.0, 2244.0, 2244.0, 2245.0, 2244.0, 2244.0, 2244.0, 2244.0, 2244.0, 2244.0, 2244.0, 2244.0, 2244.0, 2244.0, 2244.0, 2244.0, 2244.0, 2244.0, 2244.0, 2244.0, 2244.0, 2244.0, 2244.0, 2244.0, 2244.0, 2244.0, 2244.0, 2244.0, 2244.0, 2244.0, 2244.0, 2244.0, 2244.0, 2244.0, 2244.0, 2244.0, 2244.0, 2244.0, 2244.0, 2244.0, 2244.0, 2244.0, 2244.0, 2244.0, 2243.0, 2243.0, 2243.0, 2244.0, 2244.0, 2243.0, 2243.0, 2243.0, 2243.0, 2244.0, 2243.0, 2243.0, 2243.0, 2243.0, 2243.0, 2243.0, 2243.0, 2243.0, 2243.0, 2243.0, 2243.0, 2243.0, 2243.0, 2243.0, 2243.0, 2243.0, 2243.0, 2243.0, 2243.0, 2243.0, 2243.0, 2243.0, 2243.0, 2243.0, 2243.0, 2243.0, 2243.0, 2243.0, 2243.0, 2243.0, 2243.0, 2243.0, 2243.0, 2243.0, 2243.0, 2243.0, 2243.0, 2243.0, 2244.0, 2243.0, 2243.0, 2243.0, 2243.0, 2243.0, 2243.0, 2244.0, 2243.0, 2243.0, 2243.0, 2243.0, 2243.0, 2243.0, 2243.0, 2243.0, 2243.0, 2243.0, 2243.0, 2243.0, 2243.0, 2243.0, 2243.0, 2243.0, 2243.0, 2243.0, 2243.0, 2243.0, 2243.0, 2242.0, 2243.0, 2242.0, 2242.0, 2242.0, 2242.0, 2242.0, 2242.0, 2242.0, 2242.0, 2242.0, 2242.0, 2242.0, 2242.0, 2242.0, 2242.0, 2242.0, 2242.0, 2242.0, 2242.0, 2242.0, 2242.0, 2242.0, 2242.0, 2242.0, 2242.0, 2242.0, 2242.0, 2243.0, 2242.0, 2242.0, 2242.0, 2242.0, 2242.0, 2242.0, 2242.0, 2242.0, 2242.0, 2242.0, 2242.0, 2242.0, 2242.0, 2242.0, 2242.0, 2242.0, 2242.0, 2242.0, 2242.0, 2242.0, 2242.0, 2242.0, 2241.0, 2242.0, 2242.0, 2241.0, 2242.0, 2242.0, 2242.0, 2242.0, 2242.0, 2242.0, 2242.0]
    },
    "slices": {}
  }
}