{
  "AcquisitionMatrixPE": 80,
  "AcquisitionNumber": 1,
  "AcquisitionTime": "08:41:32.530000",
  "BandwidthPerPixelPhaseEncode": 25,
  "BaseResolution": 80,
  "BodyPartExamined": "BRAIN",
  "CoilCombinationMethod": "Sum of Squares",
  "ConsistencyInfo": "N4_VE11C_LATEST_20160120",
  "ConversionSoftware": "dcm2niix",
  "ConversionSoftwareVersion": "v1.0.20220720",
  "DerivedVendorReportedEchoSpacing": 0.0005,
  "DeviceSerialNumber": "66112",
  "DwellTime": 2.7e-06,
  "EchoTime": 0.03,
  "EchoTrainLength": 80,
  "EffectiveEchoSpacing": 0.0005,
  "FlipAngle": 10,
  "HeudiconvVersion": "0.13.1",
  "ImageOrientationPatientDICOM": [0.999559, -0.0295565, 0.00280167, 0.0272219, 0.95007, 0.310847],
  "ImageOrientationText": "Tra>Cor(18.1)>Sag(0.7)",
  "ImageType": [
    "ORIGINAL",
    "PRIMARY",
    "M",
    "ND",
    "NORM",
    "MOSAIC"
],
  "ImagingFrequency": 123.252,
  "InPlanePhaseEncodingDirectionDICOM": "COL",
  "InstitutionAddress": "Maynard 3,Hanover,NH,US,03755",
  "InstitutionName": "Dartmouth College - PBS",
  "InstitutionalDepartmentName": "Department",
  "MRAcquisitionType": "2D",
  "MagneticFieldStrength": 3,
  "Manufacturer": "Siemens",
  "ManufacturersModelName": "Prisma",
  "MatrixCoilMode": "SENSE",
  "Modality": "MR",
  "NonlinearGradientCorrection": false,
  "PartialFourier": 1,
  "PatientPosition": "HFS",
  "PercentPhaseFOV": 100,
  "PercentSampling": 100,
  "PhaseEncodingDirection": "j-",
  "PhaseEncodingSteps": 80,
  "PhaseResolution": 1,
  "PixelBandwidth": 2315,
  "ProcedureStepDescription": "dbic^QA",
  "ProtocolName": "func-bold_fa-10",
  "PulseSequenceDetails": "%SiemensSeq%\\ep2d_bold",
  "ReceiveCoilActiveElements": "HC1-7;NC1,2",
  "ReceiveCoilName": "HeadNeck_64",
  "ReconMatrixPE": 80,
  "RepetitionTime": 2,
  "SAR": 0.00762533,
  "ScanOptions": "FS",
  "ScanningSequence": "EP",
  "SequenceName": "*epfid2d1_80",
  "SequenceVariant": "SK",
  "SeriesDescription": "func-bold_fa-10",
  "SeriesNumber": 9,
  "ShimSetting": [4144, -7687, -7502, 159, -62, -254, -74, 79],
  "SliceThickness": 3.5,
  "SliceTiming": [0.99, 0, 1.055, 0.065, 1.1225, 0.1325, 1.1875, 0.1975, 1.2525, 0.2625, 1.32, 0.33, 1.385, 0.395, 1.4525, 0.4625, 1.5175, 0.5275, 1.5825, 0.5925, 1.65, 0.66, 1.715, 0.725, 1.7825, 0.7925, 1.8475, 0.8575, 1.9125, 0.9225],
  "SoftwareVersions": "syngo MR E11",
  "SpacingBetweenSlices": 3.99,
  "StationName": "AWP66112",
  "TotalReadoutTime": 0.0395,
  "TxRefAmp": 218.427,
  "dcmmeta_affine": [
    [-2.9986774921417236, 0.08166565001010895, 0.047278910875320435, 117.33439636230469],
    [0.08866960555315018, 2.8502097129821777, 1.2394298315048218, -119.43926239013672],
    [0.008405005559325218, -0.9325420260429382, 3.792318344116211, -33.55251693725586],
    [0.0, 0.0, 0.0, 1.0]
],
  "dcmmeta_reorient_transform": [
    [0.0, -1.0, 0.0, 79.0],
    [1.0, 0.0, 0.0, 0.0],
    [0.0, 0.0, 1.0, 0.0],
    [0.0, 0.0, 0.0, 1.0]
],
  "dcmmeta_shape": [80, 80, 30, 200],
  "dcmmeta_slice_dim": 2,
  "dcmmeta_version": 0.6,
  "global": {
    "const": {
      "AccessionNumber": "qa64",
      "AcquisitionMatrix": [80, 0, 0, 80],
      "AngioFlag": "N",
      "BitsAllocated": 16,
      "BitsStored": 12,
      "BodyPartExamined": "BRAIN",
      "Columns": 480,
      "EchoNumbers": 1,
      "EchoTime": 30.0,
      "EchoTrainLength": 80,
      "FlipAngle": 10.0,
      "HighBit": 11,
      "ImageOrientationPatient": [0.99955918379901, -0.0295565345914, 0.00280166843112, 0.02722188380897, 0.95006994360234, 0.31084734405385],
      "ImagePositionPatient": [-739.85462029565, -658.03535816603, -295.41274583732],
      "ImageType": [
        "ORIGINAL",
        "PRIMARY",
        "M",
        "ND",
        "NORM",
        "MOSAIC"
],
      "ImagedNucleus": "1H",
      "ImagingFrequency": 123.252418,
      "InPlanePhaseEncodingDirection": "COL",
      "MRAcquisitionType": "2D",
      "MagneticFieldStrength": 3.0,
      "Manufacturer": "SIEMENS",
      "ManufacturerModelName": "Prisma",
      "Modality": "MR",
      "NumberOfAverages": 1.0,
      "NumberOfPhaseEncodingSteps": 80,
      "PercentPhaseFieldOfView": 100.0,
      "PercentSampling": 100.0,
      "PerformedProcedureStepStartTime": "082628.248000",
      "PhotometricInterpretation": "MONOCHROME2",
      "PixelBandwidth": 2315.0,
      "PixelRepresentation": 0,
      "PixelSpacing": [3.0, 3.0],
      "ProtocolName": "func-bold_fa-10",
      "RepetitionTime": 2000.0,
      "Rows": 480,
      "SAR": 0.00762532532979,
      "SamplesPerPixel": 1,
      "ScanOptions": "FS",
      "ScanningSequence": "EP",
      "SequenceName": "*epfid2d1_80",
      "SequenceVariant": "SK",
      "SeriesDescription": "func-bold_fa-10",
      "SeriesNumber": 9,
      "SeriesTime": "084213.209000",
      "SliceLocation": -67.601748458207,
      "SliceThickness": 3.5,
      "SmallestImagePixelValue": 0,
      "SoftwareVersions": "syngo MR E11",
      "SpacingBetweenSlices": 3.9900000716495,
      "SpecificCharacterSet": "ISO_IR 100",
      "StudyID": "22",
      "StudyTime": "082628.127000",
      "TransmitCoilName": "Body",
      "VariableFlipAngleFlag": "N",
      "WindowCenterWidthExplanation": "Algo1",
      "dBdt": 0.0},
    "slices": {}
  },
  "time": {
    "samples": {
      "AcquisitionNumber": [1, 2, 3, 4, 5, 6, 7, 8, 9, 10, 11, 12, 13, 14, 15, 16, 17, 18, 19, 20, 21, 22, 23, 24, 25, 26, 27, 28, 29, 30, 31, 32, 33, 34, 35, 36, 37, 38, 39, 40, 41, 42, 43, 44, 45, 46, 47, 48, 49, 50, 51, 52, 53, 54, 55, 56, 57, 58, 59, 60, 61, 62, 63, 64, 65, 66, 67, 68, 69, 70, 71, 72, 73, 74, 75, 76, 77, 78, 79, 80, 81, 82, 83, 84, 85, 86, 87, 88, 89, 90, 91, 92, 93, 94, 95, 96, 97, 98, 99, 100, 101, 102, 103, 104, 105, 106, 107, 108, 109, 110, 111, 112, 113, 114, 115, 116, 117, 118, 119, 120, 121, 122, 123, 124, 125, 126, 127, 128, 129, 130, 131, 132, 133, 134, 135, 136, 137, 138, 139, 140, 141, 142, 143, 144, 145, 146, 147, 148, 149, 150, 151, 152, 153, 154, 155, 156, 157, 158, 159, 160, 161, 162, 163, 164, 165, 166, 167, 168, 169, 170, 171, 172, 173, 174, 175, 176, 177, 178, 179, 180, 181, 182, 183, 184, 185, 186, 187, 188, 189, 190, 191, 192, 193, 194, 195, 196, 197, 198, 199, 200],
      "AcquisitionTime": ["084132.530000", "084134.530000", "084136.530000", "084138.530000", "084140.530000", "084142.530000", "084144.530000", "084146.530000", "084148.530000", "084150.530000", "084152.530000", "084154.530000", "084156.530000", "084158.530000", "084200.530000", "084202.530000", "084204.530000", "084206.530000", "084208.530000", "084210.530000", "084212.530000", "084214.530000", "084216.530000", "084218.530000", "084220.530000", "084222.530000", "084224.530000", "084226.530000", "084228.530000", "084230.530000", "084232.530000", "084234.530000", "084236.530000", "084238.530000", "084240.530000", "084242.530000", "084244.530000", "084246.530000", "084248.530000", "084250.530000", "084252.530000", "084254.530000", "084256.530000", "084258.530000", "084300.530000", "084302.530000", "084304.530000", "084306.530000", "084308.530000", "084310.530000", "084312.530000", "084314.530000", "084316.530000", "084318.530000", "084320.530000", "084322.530000", "084324.530000", "084326.530000", "084328.530000", "084330.530000", "084332.530000", "084334.530000", "084336.530000", "084338.530000", "084340.530000", "084342.530000", "084344.530000", "084346.530000", "084348.530000", "084350.530000", "084352.530000", "084354.530000", "084356.530000", "084358.530000", "084400.530000", "084402.530000", "084404.530000", "084406.530000", "084408.530000", "084410.530000", "084412.530000", "084414.530000", "084416.530000", "084418.530000", "084420.530000", "084422.530000", "084424.530000", "084426.530000", "084428.530000", "084430.530000", "084432.530000", "084434.530000", "084436.530000", "084438.530000", "084440.530000", "084442.530000", "084444.530000", "084446.530000", "084448.530000", "084450.530000", "084452.530000", "084454.530000", "084456.530000", "084458.530000", "084500.530000", "084502.530000", "084504.530000", "084506.530000", "084508.530000", "084510.530000", "084512.530000", "084514.530000", "084516.530000", "084518.530000", "084520.530000", "084522.530000", "084524.530000", "084526.530000", "084528.530000", "084530.530000", "084532.530000", "084534.530000", "084536.530000", "084538.530000", "084540.530000", "084542.530000", "084544.530000", "084546.530000", "084548.530000", "084550.530000", "084552.530000", "084554.530000", "084556.530000", "084558.530000", "084600.530000", "084602.530000", "084604.530000", "084606.530000", "084608.530000", "084610.530000", "084612.530000", "084614.530000", "084616.530000", "084618.530000", "084620.530000", "084622.530000", "084624.530000", "084626.530000", "084628.530000", "084630.530000", "084632.530000", "084634.530000", "084636.530000", "084638.530000", "084640.530000", "084642.530000", "084644.530000", "084646.530000", "084648.530000", "084650.530000", "084652.530000", "084654.530000", "084656.530000", "084658.530000", "084700.530000", "084702.530000", "084704.530000", "084706.530000", "084708.530000", "084710.530000", "084712.530000", "084714.530000", "084716.530000", "084718.530000", "084720.530000", "084722.530000", "084724.530000", "084726.530000", "084728.530000", "084730.530000", "084732.530000", "084734.530000", "084736.530000", "084738.530000", "084740.530000", "084742.530000", "084744.530000", "084746.530000", "084748.530000", "084750.530000", "084752.530000", "084754.530000", "084756.530000", "084758.530000", "084800.530000", "084802.530000", "084804.530000", "084806.530000", "084808.530000", "084810.530000"],
      "ContentTime": ["084213.212000", "084213.216000", "084213.218000", "084213.221000", "084213.223000", "084213.226000", "084213.228000", "084213.231000", "084213.233000", "084213.244000", "084213.247000", "084213.249000", "084213.252000", "084213.254000", "084213.257000", "084213.259000", "084213.262000", "084213.264000", "084213.267000", "084213.269000", "084253.207000", "084253.209000", "084253.212000", "084253.214000", "084253.217000", "084253.219000", "084253.222000", "084253.224000", "084253.227000", "084253.229000", "084253.232000", "084253.234000", "084253.237000", "084253.239000", "084253.241000", "084253.244000", "084253.246000", "084253.249000", "084253.251000", "084253.254000", "084333.206000", "084333.209000", "084333.212000", "084333.214000", "084333.217000", "084333.219000", "084333.222000", "084333.224000", "084333.227000", "084333.229000", "084333.232000", "084333.234000", "084333.236000", "084333.239000", "084333.241000", "084333.244000", "084333.246000", "084333.249000", "084333.251000", "084333.254000", "084413.207000", "084413.210000", "084413.213000", "084413.215000", "084413.217000", "084413.220000", "084413.222000", "084413.234000", "084413.237000", "084413.239000", "084413.242000", "084413.244000", "084413.247000", "084413.249000", "084413.252000", "084413.254000", "084413.256000", "084413.259000", "084413.261000", "084413.264000", "084453.206000", "084453.209000", "084453.212000", "084453.214000", "084453.217000", "084453.219000", "084453.222000", "084453.224000", "084453.227000", "084453.229000", "084453.232000", "084453.234000", "084453.237000", "084453.239000", "084453.242000", "084453.244000", "084453.247000", "084453.259000", "084453.261000", "084453.264000", "084533.206000", "084533.209000", "084533.212000", "084533.214000", "084533.217000", "084533.219000", "084533.222000", "084533.224000", "084533.227000", "084533.229000", "084533.232000", "084533.234000", "084533.237000", "084533.239000", "084533.252000", "084533.254000", "084533.257000", "084533.259000", "084533.262000", "084533.264000", "084613.207000", "084613.210000", "084613.213000", "084613.215000", "084613.218000", "084613.220000", "084613.223000", "084613.225000", "084613.228000", "084613.230000", "084613.233000", "084613.235000", "084613.237000", "084613.240000", "084613.242000", "084613.245000", "084613.247000", "084613.250000", "084613.252000", "084613.255000", "084653.207000", "084653.210000", "084653.213000", "084653.215000", "084653.218000", "084653.220000", "084653.223000", "084653.225000", "084653.228000", "084653.230000", "084653.233000", "084653.235000", "084653.238000", "084653.240000", "084653.243000", "084653.245000", "084653.248000", "084653.250000", "084653.253000", "084653.255000", "084733.206000", "084733.209000", "084733.212000", "084733.214000", "084733.217000", "084733.219000", "084733.222000", "084733.224000", "084733.235000", "084733.238000", "084733.240000", "084733.243000", "084733.245000", "084733.248000", "084733.250000", "084733.253000", "084733.255000", "084733.258000", "084733.260000", "084733.263000", "084812.132000", "084812.135000", "084812.137000", "084812.140000", "084812.142000", "084812.145000", "084812.147000", "084812.150000", "084812.152000", "084812.155000", "084812.157000", "084812.160000", "084812.163000", "084812.167000", "084812.170000", "084812.174000", "084812.177000", "084812.180000", "084812.183000", "084812.186000"],
      "InstanceCreationTime": ["084213.212000", "084213.216000", "084213.218000", "084213.221000", "084213.223000", "084213.226000", "084213.228000", "084213.231000", "084213.233000", "084213.244000", "084213.247000", "084213.249000", "084213.252000", "084213.254000", "084213.257000", "084213.259000", "084213.262000", "084213.264000", "084213.267000", "084213.269000", "084253.207000", "084253.209000", "084253.212000", "084253.214000", "084253.217000", "084253.219000", "084253.222000", "084253.224000", "084253.227000", "084253.229000", "084253.232000", "084253.234000", "084253.237000", "084253.239000", "084253.241000", "084253.244000", "084253.246000", "084253.249000", "084253.251000", "084253.254000", "084333.206000", "084333.209000", "084333.212000", "084333.214000", "084333.217000", "084333.219000", "084333.222000", "084333.224000", "084333.227000", "084333.229000", "084333.232000", "084333.234000", "084333.236000", "084333.239000", "084333.241000", "084333.244000", "084333.246000", "084333.249000", "084333.251000", "084333.254000", "084413.207000", "084413.210000", "084413.213000", "084413.215000", "084413.217000", "084413.220000", "084413.222000", "084413.234000", "084413.237000", "084413.239000", "084413.242000", "084413.244000", "084413.247000", "084413.249000", "084413.252000", "084413.254000", "084413.256000", "084413.259000", "084413.261000", "084413.264000", "084453.206000", "084453.209000", "084453.212000", "084453.214000", "084453.217000", "084453.219000", "084453.222000", "084453.224000", "084453.227000", "084453.229000", "084453.232000", "084453.234000", "084453.237000", "084453.239000", "084453.242000", "084453.244000", "084453.247000", "084453.259000", "084453.261000", "084453.264000", "084533.206000", "084533.209000", "084533.212000", "084533.214000", "084533.217000", "084533.219000", "084533.222000", "084533.224000", "084533.227000", "084533.229000", "084533.232000", "084533.234000", "084533.237000", "084533.239000", "084533.252000", "084533.254000", "084533.257000", "084533.259000", "084533.262000", "084533.264000", "084613.207000", "084613.210000", "084613.213000", "084613.215000", "084613.218000", "084613.220000", "084613.223000", "084613.225000", "084613.228000", "084613.230000", "084613.233000", "084613.235000", "084613.237000", "084613.240000", "084613.242000", "084613.245000", "084613.247000", "084613.250000", "084613.252000", "084613.255000", "084653.207000", "084653.210000", "084653.213000", "084653.215000", "084653.218000", "084653.220000", "084653.223000", "084653.225000", "084653.228000", "084653.230000", "084653.233000", "084653.235000", "084653.238000", "084653.240000", "084653.243000", "084653.245000", "084653.248000", "084653.250000", "084653.253000", "084653.255000", "084733.206000", "084733.209000", "084733.212000", "084733.214000", "084733.217000", "084733.219000", "084733.222000", "084733.224000", "084733.235000", "084733.238000", "084733.240000", "084733.243000", "084733.245000", "084733.248000", "084733.250000", "084733.253000", "084733.255000", "084733.258000", "084733.260000", "084733.263000", "084812.132000", "084812.135000", "084812.137000", "084812.140000", "084812.142000", "084812.145000", "084812.147000", "084812.150000", "084812.152000", "084812.155000", "084812.157000", "084812.160000", "084812.163000", "084812.167000", "084812.170000", "084812.174000", "084812.177000", "084812.180000", "084812.183000", "084812.186000"],
      "InstanceNumber": [1, 2, 3, 4, 5, 6, 7, 8, 9, 10, 11, 12, 13, 14, 15, 16, 17, 18, 19, 20, 21, 22, 23, 24, 25, 26, 27, 28, 29, 30, 31, 32, 33, 34, 35, 36, 37, 38, 39, 40, 41, 42, 43, 44, 45, 46, 47, 48, 49, 50, 51, 52, 53, 54, 55, 56, 57, 58, 59, 60, 61, 62, 63, 64, 65, 66, 67, 68, 69, 70, 71, 72, 73, 74, 75, 76, 77, 78, 79, 80, 81, 82, 83, 84, 85, 86, 87, 88, 89, 90, 91, 92, 93, 94, 95, 96, 97, 98, 99, 100, 101, 102, 103, 104, 105, 106, 107, 108, 109, 110, 111, 112, 113, 114, 115, 116, 117, 118, 119, 120, 121, 122, 123, 124, 125, 126, 127, 128, 129, 130, 131, 132, 133, 134, 135, 136, 137, 138, 139, 140, 141, 142, 143, 144, 145, 146, 147, 148, 149, 150, 151, 152, 153, 154, 155, 156, 157, 158, 159, 160, 161, 162, 163, 164, 165, 166, 167, 168, 169, 170, 171, 172, 173, 174, 175, 176, 177, 178, 179, 180, 181, 182, 183, 184, 185, 186, 187, 188, 189, 190, 191, 192, 193, 194, 195, 196, 197, 198, 199, 200],
      "LargestImagePixelValue": [636, 635, 634, 636, 636, 635, 634, 633, 634, 637, 636, 639, 636, 636, 636, 635, 637, 637, 641, 635, 638, 634, 636, 632, 638, 635, 634, 635, 635, 635, 633, 637, 637, 638, 638, 638, 637, 637, 636, 638, 636, 635, 637, 639, 636, 635, 634, 634, 634, 638, 637, 635, 636, 637, 635, 638, 637, 639, 632, 635, 631, 635, 637, 638, 634, 633, 637, 636, 639, 634, 634, 632, 637, 636, 634, 638, 631, 637, 632, 638, 634, 634, 637, 636, 636, 638, 637, 634, 635, 638, 638, 634, 635, 635, 635, 636, 631, 636, 636, 638, 636, 638, 633, 636, 633, 636, 635, 638, 636, 636, 633, 637, 635, 635, 634, 635, 638, 633, 633, 633, 637, 636, 635, 633, 636, 637, 636, 636, 633, 635, 634, 635, 632, 635, 633, 634, 633, 633, 635, 636, 637, 636, 635, 636, 635, 637, 637, 639, 635, 633, 638, 633, 633, 634, 635, 634, 636, 633, 633, 635, 637, 636, 634, 634, 633, 637, 632, 635, 636, 634, 635, 634, 633, 633, 634, 636, 634, 638, 637, 633, 635, 635, 636, 635, 633, 633, 637, 635, 634, 633, 634, 636, 635, 636, 632, 636, 635, 631, 636, 633],
      "WindowCenter": [442.0, 442.0, 442.0, 442.0, 442.0, 442.0, 441.0, 441.0, 441.0, 441.0, 441.0, 441.0, 441.0, 441.0, 441.0, 441.0, 441.0, 441.0, 441.0, 441.0, 441.0, 441.0, 441.0, 441.0, 441.0, 441.0, 441.0, 441.0, 441.0, 441.0, 441.0, 441.0, 441.0, 441.0, 441.0, 441.0, 441.0, 441.0, 441.0, 441.0, 441.0, 441.0, 441.0, 441.0, 441.0, 441.0, 441.0, 441.0, 441.0, 441.0, 441.0, 441.0, 441.0, 441.0, 441.0, 441.0, 441.0, 441.0, 441.0, 441.0, 441.0, 441.0, 441.0, 441.0, 441.0, 441.0, 441.0, 441.0, 441.0, 441.0, 441.0, 441.0, 441.0, 441.0, 441.0, 441.0, 441.0, 441.0, 441.0, 441.0, 441.0, 441.0, 441.0, 441.0, 441.0, 441.0, 441.0, 441.0, 441.0, 441.0, 441.0, 441.0, 441.0, 441.0, 441.0, 441.0, 441.0, 441.0, 441.0, 441.0, 441.0, 441.0, 441.0, 441.0, 441.0, 441.0, 441.0, 441.0, 441.0, 441.0, 441.0, 441.0, 441.0, 441.0, 441.0, 441.0, 440.0, 440.0, 440.0, 441.0, 440.0, 441.0, 441.0, 440.0, 441.0, 441.0, 440.0, 440.0, 440.0, 440.0, 441.0, 441.0, 440.0, 440.0, 440.0, 440.0, 440.0, 440.0, 440.0, 440.0, 440.0, 440.0, 440.0, 440.0, 440.0, 440.0, 440.0, 440.0, 440.0, 440.0, 440.0, 440.0, 440.0, 440.0, 440.0, 440.0, 440.0, 440.0, 440.0, 440.0, 440.0, 440.0, 440.0, 440.0, 440.0, 440.0, 440.0, 440.0, 440.0, 440.0, 440.0, 440.0, 440.0, 440.0, 440.0, 440.0, 440.0, 440.0, 440.0, 440.0, 440.0, 440.0, 440.0, 440.0, 440.0, 440.0, 440.0, 440.0, 440.0, 440.0, 440.0, 440.0, 440.0, 440.0, 440.0, 440.0, 440.0, 440.0, 440.0, 440.0],
      "WindowWidth": [918.0, 918.0, 918.0, 918.0, 918.0, 918.0, 918.0, 918.0, 918.0, 918.0, 918.0, 918.0, 918.0, 918.0, 918.0, 918.0, 918.0, 917.0, 917.0, 918.0, 918.0, 918.0, 917.0, 917.0, 917.0, 917.0, 917.0, 917.0, 917.0, 917.0, 918.0, 917.0, 917.0, 917.0, 918.0, 918.0, 917.0, 917.0, 917.0, 917.0, 917.0, 917.0, 918.0, 917.0, 917.0, 917.0, 917.0, 917.0, 917.0, 917.0, 917.0, 917.0, 917.0, 917.0, 917.0, 917.0, 917.0, 917.0, 917.0, 917.0, 917.0, 917.0, 917.0, 917.0, 917.0, 917.0, 917.0, 917.0, 917.0, 917.0, 917.0, 917.0, 917.0, 917.0, 917.0, 917.0, 917.0, 917.0, 917.0, 917.0, 917.0, 917.0, 917.0, 917.0, 917.0, 917.0, 917.0, 917.0, 917.0, 917.0, 917.0, 917.0, 917.0, 917.0, 917.0, 917.0, 916.0, 917.0, 917.0, 916.0, 916.0, 917.0, 916.0, 916.0, 916.0, 916.0, 916.0, 916.0, 916.0, 916.0, 916.0, 916.0, 916.0, 916.0, 916.0, 916.0, 916.0, 916.0, 916.0, 916.0, 916.0, 916.0, 916.0, 916.0, 916.0, 916.0, 916.0, 916.0, 916.0, 916.0, 916.0, 916.0, 916.0, 916.0, 915.0, 915.0, 915.0, 916.0, 915.0, 915.0, 915.0, 915.0, 915.0, 915.0, 915.0, 915.0, 915.0, 915.0, 915.0, 915.0, 915.0, 915.0, 915.0, 915.0, 915.0, 915.0, 915.0, 915.0, 915.0, 915.0, 915.0, 915.0, 915.0, 915.0, 915.0, 915.0, 915.0, 915.0, 915.0, 915.0, 915.0, 915.0, 915.0, 915.0, 915.0, 915.0, 915.0, 915.0, 915.0, 915.0, 915.0, 915.0, 915.0, 915.0, 915.0, 915.0, 915.0, 915.0, 915.0, 915.0, 915.0, 915.0, 915.0, 915.0, 915.0, 915.0, 915.0, 915.0, 915.0, 915.0]
    },
    "slices": {}
  }
}