{
  "AcquisitionMatrixPE": 122,
  "AcquisitionNumber": 1,
  "AcquisitionTime": "09:06:23.200000",
  "BandwidthPerPixelPhaseEncode": 28.76,
  "BaseResolution": 122,
  "BodyPartExamined": "BRAIN",
  "CoilCombinationMethod": "Adaptive Combine",
  "ConsistencyInfo": "N4_VE11C_LATEST_20160120",
  "ConversionSoftware": "dcm2niix",
  "ConversionSoftwareVersion": "v1.0.20220720",
  "DerivedVendorReportedEchoSpacing": 0.000570008,
  "DeviceSerialNumber": "66112",
  "DiffusionScheme": "Monopolar",
  "DwellTime": 2e-06,
  "EchoTime": 0.075,
  "EchoTrainLength": 61,
  "EffectiveEchoSpacing": 0.000285004,
  "FlipAngle": 90,
  "HeudiconvVersion": "0.13.1",
  "ImageOrientationPatientDICOM": [0.976117, -0.217242, -0.000866168, 0.207124, 0.929438, 0.305359],
  "ImageOrientationText": "Tra>Cor(17.4)>Sag(3.8)",
  "ImageType": [
    "ORIGINAL",
    "PRIMARY",
    "DIFFUSION",
    "NONE",
    "ND",
    "NORM"
],
  "ImagingFrequency": 123.253,
  "InPlanePhaseEncodingDirectionDICOM": "COL",
  "InstitutionAddress": "Maynard 3,Hanover,NH,US,03755",
  "InstitutionName": "Dartmouth College - PBS",
  "InstitutionalDepartmentName": "Department",
  "MRAcquisitionType": "2D",
  "MagneticFieldStrength": 3,
  "Manufacturer": "Siemens",
  "ManufacturersModelName": "Prisma",
  "MatrixCoilMode": "GRAPPA",
  "Modality": "MR",
  "NonlinearGradientCorrection": false,
  "ParallelReductionFactorInPlane": 2,
  "PartialFourier": 1,
  "PatientPosition": "HFS",
  "PercentPhaseFOV": 100,
  "PercentSampling": 100,
  "PhaseEncodingDirection": "j-",
  "PhaseEncodingSteps": 122,
  "PhaseResolution": 1,
  "PixelBandwidth": 2050,
  "ProcedureStepDescription": "dbic^QA",
  "ProtocolName": "DTI_30_p2",
  "PulseSequenceDetails": "%SiemensSeq%\\ep2d_diff",
  "ReceiveCoilActiveElements": "HEA;HEP",
  "ReceiveCoilName": "Head_32",
  "ReconMatrixPE": 122,
  "RefLinesPE": 38,
  "RepetitionTime": 7.7,
  "SAR": 0.102125,
  "ScanOptions": "FS",
  "ScanningSequence": "EP",
  "SequenceName": "*ep_b0",
  "SequenceVariant": "SK\\SP",
  "SeriesDescription": "DTI_30_p2",
  "SeriesNumber": 8,
  "ShimSetting": [4146, -7691, -7499, 260, -112, -219, -51, 101],
  "SliceThickness": 2,
  "SliceTiming": [3.84375, 0, 3.95312, 0.10938, 4.0625, 0.21875, 4.17188, 0.32812, 4.28125, 0.4375, 4.39062, 0.54688, 4.5, 0.65625, 4.60938, 0.76562, 4.71875, 0.875, 4.82812, 0.98438, 4.9375, 1.10156, 5.04688, 1.21094, 5.15625, 1.32031, 5.26562, 1.42188, 5.375, 1.53906, 5.48438, 1.64844, 5.59375, 1.75781, 5.70312, 1.86719, 5.8125, 1.97656, 5.92188, 2.08594, 6.03906, 2.19531, 6.14062, 2.30469, 6.25, 2.41406, 6.35938, 2.52344, 6.47656, 2.63281, 6.58594, 2.74219, 6.69531, 2.85156, 6.80469, 2.96094, 6.91406, 3.07031, 7.02344, 3.17969, 7.13281, 3.28906, 7.24219, 3.39844, 7.35156, 3.50781, 7.46094, 3.61719, 7.57031, 3.73438],
  "SoftwareVersions": "syngo MR E11",
  "SpacingBetweenSlices": 2,
  "SpoilingState": true,
  "StationName": "AWP66112",
  "TotalReadoutTime": 0.0344855,
  "TxRefAmp": 230.8,
  "dcmmeta_affine": [
    [-1.9202309846878052, 0.40745726227760315, 0.13106322288513184, 80.33531951904297],
    [0.4273611605167389, 1.8284032344818115, 0.5964908599853516, -145.57315063476562],
    [-0.0017039377707988024, -0.6007060408592224, 1.9044761657714844, -37.07508850097656],
    [0.0, 0.0, 0.0, 1.0]
],
  "dcmmeta_reorient_transform": [
    [0.0, -1.0, 0.0, 121.0],
    [1.0, 0.0, 0.0, 0.0],
    [0.0, 0.0, -1.0, 69.0],
    [0.0, 0.0, 0.0, 1.0]
],
  "dcmmeta_shape": [122, 122, 70, 31],
  "dcmmeta_slice_dim": 2,
  "dcmmeta_version": 0.6,
  "global": {
    "const": {
      "AccessionNumber": "qa",
      "AcquisitionMatrix": [122, 0, 0, 122],
      "AngioFlag": "N",
      "BitsAllocated": 16,
      "BitsStored": 12,
      "BodyPartExamined": "BRAIN",
      "Columns": 122,
      "EchoNumbers": 1,
      "EchoTime": 75.0,
      "EchoTrainLength": 61,
      "FlipAngle": 90.0,
      "HighBit": 11,
      "ImageOrientationPatient": [0.97611741140062, -0.2172419133431, -0.0008661683255, 0.2071241052374, 0.92943829356233, 0.30535890930109],
      "ImageType": [
        "ORIGINAL",
        "PRIMARY",
        "DIFFUSION",
        "NONE",
        "ND",
        "NORM"
],
      "ImagedNucleus": "1H",
      "ImagingFrequency": 123.252567,
      "InPlanePhaseEncodingDirection": "COL",
      "MRAcquisitionType": "2D",
      "MagneticFieldStrength": 3.0,
      "Manufacturer": "SIEMENS",
      "ManufacturerModelName": "Prisma",
      "Modality": "MR",
      "NumberOfAverages": 1.0,
      "NumberOfPhaseEncodingSteps": 122,
      "PercentPhaseFieldOfView": 100.0,
      "PercentSampling": 100.0,
      "PerformedProcedureStepStartTime": "085204.987000",
      "PhotometricInterpretation": "MONOCHROME2",
      "PixelBandwidth": 2050.0,
      "PixelRepresentation": 0,
      "PixelSpacing": [1.9672131538391, 1.9672131538391],
      "ProtocolName": "DTI_30_p2",
      "RepetitionTime": 7700.0,
      "Rows": 122,
      "SAR": 0.10212493937376,
      "SamplesPerPixel": 1,
      "ScanOptions": "FS",
      "ScanningSequence": "EP",
      "SequenceVariant": [
        "SK",
        "SP"
],
      "SeriesDescription": "DTI_30_p2",
      "SeriesNumber": 8,
      "SeriesTime": "090629.953000",
      "SliceThickness": 2.0,
      "SmallestImagePixelValue": 0,
      "SoftwareVersions": "syngo MR E11",
      "SpacingBetweenSlices": 2.0,
      "SpecificCharacterSet": "ISO_IR 100",
      "StudyID": "23",
      "StudyTime": "085204.907000",
      "TransmitCoilName": "Body",
      "VariableFlipAngleFlag": "N",
      "WindowCenterWidthExplanation": "Algo1",
      "dBdt": 0.0},
    "slices": {
      "AcquisitionTime": ["090623.200000", "090619.360000", "090623.310000", "090619.470000", "090623.420000", "090619.580000", "090623.530000", "090619.690000", "090623.637500", "090619.800000", "090623.747500", "090619.907500", "090623.857500", "090620.017500", "090623.967500", "090620.127500", "090624.077500", "090620.237500", "090624.187500", "090620.347500", "090624.297500", "090620.457500", "090624.407500", "090620.567500", "090624.517500", "090620.677500", "090624.625000", "090620.785000", "090624.735000", "090620.895000", "090624.845000", "090621.005000", "090624.955000", "090621.115000", "090625.065000", "090621.225000", "090625.175000", "090621.335000", "090625.285000", "090621.445000", "090625.395000", "090621.555000", "090625.502500", "090621.665000", "090625.612500", "090621.772500", "090625.722500", "090621.882500", "090625.832500", "090621.992500", "090625.942500", "090622.102500", "090626.052500", "090622.212500", "090626.162500", "090622.322500", "090626.272500", "090622.432500", "090626.382500", "090622.542500", "090626.490000", "090622.650000", "090626.600000", "090622.760000", "090626.710000", "090622.870000", "090626.820000", "090622.980000", "090626.930000", "090623.090000", "090630.900000", "090627.060000", "090631.010000", "090627.170000", "090631.120000", "090627.280000", "090631.230000", "090627.390000", "090631.337500", "090627.500000", "090631.447500", "090627.607500", "090631.557500", "090627.717500", "090631.667500", "090627.827500", "090631.777500", "090627.937500", "090631.887500", "090628.047500", "090631.997500", "090628.157500", "090632.107500", "090628.267500", "090632.217500", "090628.377500", "090632.325000", "090628.485000", "090632.435000", "090628.595000", "090632.545000", "090628.705000", "090632.655000", "090628.815000", "090632.765000", "090628.925000", "090632.875000", "090629.035000", "090632.985000", "090629.145000", "090633.095000", "090629.255000", "090633.202500", "090629.365000", "090633.312500", "090629.472500", "090633.422500", "090629.582500", "090633.532500", "090629.692500", "090633.642500", "090629.802500", "090633.752500", "090629.912500", "090633.862500", "090630.022500", "090633.972500", "090630.132500", "090634.082500", "090630.242500", "090634.190000", "090630.350000", "090634.300000", "090630.460000", "090634.410000", "090630.570000", "090634.520000", "090630.680000", "090634.630000", "090630.790000", "090638.600000", "090634.760000", "090638.710000", "090634.870000", "090638.820000", "090634.980000", "090638.930000", "090635.090000", "090639.037500", "090635.200000", "090639.147500", "090635.307500", "090639.257500", "090635.417500", "090639.367500", "090635.527500", "090639.477500", "090635.637500", "090639.587500", "090635.747500", "090639.697500", "090635.857500", "090639.807500", "090635.967500", "090639.917500", "090636.077500", "090640.025000", "090636.185000", "090640.135000", "090636.295000", "090640.245000", "090636.405000", "090640.355000", "090636.515000", "090640.465000", "090636.625000", "090640.575000", "090636.735000", "090640.685000", "090636.845000", "090640.795000", "090636.955000", "090640.902500", "090637.065000", "090641.012500", "090637.172500", "090641.122500", "090637.282500", "090641.232500", "090637.392500", "090641.342500", "090637.502500", "090641.452500", "090637.612500", "090641.562500", "090637.722500", "090641.672500", "090637.832500", "090641.782500", "090637.942500", "090641.890000", "090638.050000", "090642.000000", "090638.160000", "090642.110000", "090638.270000", "090642.220000", "090638.380000", "090642.330000", "090638.490000", "090646.300000", "090642.460000", "090646.410000", "090642.570000", "090646.520000", "090642.680000", "090646.630000", "090642.790000", "090646.737500", "090642.900000", "090646.847500", "090643.007500", "090646.957500", "090643.117500", "090647.067500", "090643.227500", "090647.177500", "090643.337500", "090647.287500", "090643.447500", "090647.397500", "090643.557500", "090647.507500", "090643.667500", "090647.617500", "090643.777500", "090647.725000", "090643.885000", "090647.835000", "090643.995000", "090647.945000", "090644.105000", "090648.055000", "090644.215000", "090648.165000", "090644.325000", "090648.275000", "090644.435000", "090648.385000", "090644.545000", "090648.495000", "090644.655000", "090648.602500", "090644.765000", "090648.712500", "090644.872500", "090648.822500", "090644.982500", "090648.932500", "090645.092500", "090649.042500", "090645.202500", "090649.152500", "090645.312500", "090649.262500", "090645.422500", "090649.372500", "090645.532500", "090649.482500", "090645.642500", "090649.590000", "090645.750000", "090649.700000", "090645.860000", "090649.810000", "090645.970000", "090649.920000", "090646.080000", "090650.030000", "090646.190000", "090654.000000", "090650.160000", "090654.110000", "090650.270000", "090654.220000", "090650.380000", "090654.330000", "090650.490000", "090654.437500", "090650.600000", "090654.547500", "090650.707500", "090654.657500", "090650.817500", "090654.767500", "090650.927500", "090654.877500", "090651.037500", "090654.987500", "090651.147500", "090655.097500", "090651.257500", "090655.207500", "090651.367500", "090655.317500", "090651.477500", "090655.425000", "090651.585000", "090655.535000", "090651.695000", "090655.645000", "090651.805000", "090655.755000", "090651.915000", "090655.865000", "090652.025000", "090655.975000", "090652.135000", "090656.085000", "090652.245000", "090656.195000", "090652.355000", "090656.302500", "090652.465000", "090656.412500", "090652.572500", "090656.522500", "090652.682500", "090656.632500", "090652.792500", "090656.742500", "090652.902500", "090656.852500", "090653.012500", "090656.962500", "090653.122500", "090657.072500", "090653.232500", "090657.182500", "090653.342500", "090657.290000", "090653.450000", "090657.400000", "090653.560000", "090657.510000", "090653.670000", "090657.620000", "090653.780000", "090657.730000", "090653.890000", "090701.700000", "090657.860000", "090701.810000", "090657.970000", "090701.920000", "090658.080000", "090702.030000", "090658.190000", "090702.137500", "090658.300000", "090702.247500", "090658.407500", "090702.357500", "090658.517500", "090702.467500", "090658.627500", "090702.577500", "090658.737500", "090702.687500", "090658.847500", "090702.797500", "090658.957500", "090702.907500", "090659.067500", "090703.017500", "090659.177500", "090703.125000", "090659.285000", "090703.235000", "090659.395000", "090703.345000", "090659.505000", "090703.455000", "090659.615000", "090703.565000", "090659.725000", "090703.675000", "090659.835000", "090703.785000", "090659.945000", "090703.895000", "090700.055000", "090704.002500", "090700.165000", "090704.112500", "090700.272500", "090704.222500", "090700.382500", "090704.332500", "090700.492500", "090704.442500", "090700.602500", "090704.552500", "090700.712500", "090704.662500", "090700.822500", "090704.772500", "090700.932500", "090704.882500", "090701.042500", "090704.990000", "090701.150000", "090705.100000", "090701.260000", "090705.210000", "090701.370000", "090705.320000", "090701.480000", "090705.430000", "090701.590000", "090709.400000", "090705.560000", "090709.510000", "090705.670000", "090709.620000", "090705.780000", "090709.730000", "090705.890000", "090709.837500", "090706.000000", "090709.947500", "090706.107500", "090710.057500", "090706.217500", "090710.167500", "090706.327500", "090710.277500", "090706.437500", "090710.387500", "090706.547500", "090710.497500", "090706.657500", "090710.607500", "090706.767500", "090710.717500", "090706.877500", "090710.825000", "090706.985000", "090710.935000", "090707.095000", "090711.045000", "090707.205000", "090711.155000", "090707.315000", "090711.265000", "090707.425000", "090711.375000", "090707.535000", "090711.485000", "090707.645000", "090711.595000", "090707.755000", "090711.702500", "090707.865000", "090711.812500", "090707.972500", "090711.922500", "090708.082500", "090712.032500", "090708.192500", "090712.142500", "090708.302500", "090712.252500", "090708.412500", "090712.362500", "090708.522500", "090712.472500", "090708.632500", "090712.582500", "090708.742500", "090712.690000", "090708.850000", "090712.800000", "090708.960000", "090712.910000", "090709.070000", "090713.020000", "090709.180000", "090713.130000", "090709.290000", "090717.100000", "090713.260000", "090717.210000", "090713.370000", "090717.320000", "090713.480000", "090717.430000", "090713.590000", "090717.537500", "090713.700000", "090717.647500", "090713.807500", "090717.757500", "090713.917500", "090717.867500", "090714.027500", "090717.977500", "090714.137500", "090718.087500", "090714.247500", "090718.197500", "090714.357500", "090718.307500", "090714.467500", "090718.417500", "090714.577500", "090718.525000", "090714.685000", "090718.635000", "090714.795000", "090718.745000", "090714.905000", "090718.855000", "090715.015000", "090718.965000", "090715.125000", "090719.075000", "090715.235000", "090719.185000", "090715.345000", "090719.295000", "090715.455000", "090719.402500", "090715.565000", "090719.512500", "090715.672500", "090719.622500", "090715.782500", "090719.732500", "090715.892500", "090719.842500", "090716.002500", "090719.952500", "090716.112500", "090720.062500", "090716.222500", "090720.172500", "090716.332500", "090720.282500", "090716.442500", "090720.390000", "090716.550000", "090720.500000", "090716.660000", "090720.610000", "090716.770000", "090720.720000", "090716.880000", "090720.830000", "090716.990000", "090724.800000", "090720.960000", "090724.910000", "090721.070000", "090725.020000", "090721.180000", "090725.130000", "090721.290000", "090725.237500", "090721.400000", "090725.347500", "090721.507500", "090725.457500", "090721.617500", "090725.567500", "090721.727500", "090725.677500", "090721.837500", "090725.787500", "090721.947500", "090725.897500", "090722.057500", "090726.007500", "090722.167500", "090726.117500", "090722.277500", "090726.225000", "090722.385000", "090726.335000", "090722.495000", "090726.445000", "090722.605000", "090726.555000", "090722.715000", "090726.665000", "090722.825000", "090726.775000", "090722.935000", "090726.885000", "090723.045000", "090726.995000", "090723.155000", "090727.102500", "090723.265000", "090727.212500", "090723.372500", "090727.322500", "090723.482500", "090727.432500", "090723.592500", "090727.542500", "090723.702500", "090727.652500", "090723.812500", "090727.762500", "090723.922500", "090727.872500", "090724.032500", "090727.982500", "090724.142500", "090728.090000", "090724.250000", "090728.200000", "090724.360000", "090728.310000", "090724.470000", "090728.420000", "090724.580000", "090728.530000", "090724.690000", "090732.500000", "090728.660000", "090732.610000", "090728.770000", "090732.720000", "090728.880000", "090732.830000", "090728.990000", "090732.937500", "090729.100000", "090733.047500", "090729.207500", "090733.157500", "090729.317500", "090733.267500", "090729.427500", "090733.377500", "090729.537500", "090733.487500", "090729.647500", "090733.597500", "090729.757500", "090733.707500", "090729.867500", "090733.817500", "090729.977500", "090733.925000", "090730.085000", "090734.035000", "090730.195000", "090734.145000", "090730.305000", "090734.255000", "090730.415000", "090734.365000", "090730.525000", "090734.475000", "090730.635000", "090734.585000", "090730.745000", "090734.695000", "090730.855000", "090734.802500", "090730.965000", "090734.912500", "090731.072500", "090735.022500", "090731.182500", "090735.132500", "090731.292500", "090735.242500", "090731.402500", "090735.352500", "090731.512500", "090735.462500", "090731.622500", "090735.572500", "090731.732500", "090735.682500", "090731.842500", "090735.790000", "090731.950000", "090735.900000", "090732.060000", "090736.010000", "090732.170000", "090736.120000", "090732.280000", "090736.230000", "090732.390000", "090740.200000", "090736.360000", "090740.310000", "090736.470000", "090740.420000", "090736.580000", "090740.530000", "090736.690000", "090740.637500", "090736.800000", "090740.747500", "090736.907500", "090740.857500", "090737.017500", "090740.967500", "090737.127500", "090741.077500", "090737.237500", "090741.187500", "090737.347500", "090741.297500", "090737.457500", "090741.407500", "090737.567500", "090741.517500", "090737.677500", "090741.625000", "090737.785000", "090741.735000", "090737.895000", "090741.845000", "090738.005000", "090741.955000", "090738.115000", "090742.065000", "090738.225000", "090742.175000", "090738.335000", "090742.285000", "090738.445000", "090742.395000", "090738.555000", "090742.502500", "090738.665000", "090742.612500", "090738.772500", "090742.722500", "090738.882500", "090742.832500", "090738.992500", "090742.942500", "090739.102500", "090743.052500", "090739.212500", "090743.162500", "090739.322500", "090743.272500", "090739.432500", "090743.382500", "090739.542500", "090743.490000", "090739.650000", "090743.600000", "090739.760000", "090743.710000", "090739.870000", "090743.820000", "090739.980000", "090743.930000", "090740.090000", "090747.900000", "090744.060000", "090748.010000", "090744.170000", "090748.120000", "090744.280000", "090748.230000", "090744.390000", "090748.337500", "090744.500000", "090748.447500", "090744.607500", "090748.557500", "090744.717500", "090748.667500", "090744.827500", "090748.777500", "090744.937500", "090748.887500", "090745.047500", "090748.997500", "090745.157500", "090749.107500", "090745.267500", "090749.217500", "090745.377500", "090749.325000", "090745.485000", "090749.435000", "090745.595000", "090749.545000", "090745.705000", "090749.655000", "090745.815000", "090749.765000", "090745.925000", "090749.875000", "090746.035000", "090749.985000", "090746.145000", "090750.095000", "090746.255000", "090750.202500", "090746.365000", "090750.312500", "090746.472500", "090750.422500", "090746.582500", "090750.532500", "090746.692500", "090750.642500", "090746.802500", "090750.752500", "090746.912500", "090750.862500", "090747.022500", "090750.972500", "090747.132500", "090751.082500", "090747.242500", "090751.190000", "090747.350000", "090751.300000", "090747.460000", "090751.410000", "090747.570000", "090751.520000", "090747.680000", "090751.630000", "090747.790000", "090755.600000", "090751.760000", "090755.710000", "090751.870000", "090755.820000", "090751.980000", "090755.930000", "090752.090000", "090756.037500", "090752.200000", "090756.147500", "090752.307500", "090756.257500", "090752.417500", "090756.367500", "090752.527500", "090756.477500", "090752.637500", "090756.587500", "090752.747500", "090756.697500", "090752.857500", "090756.807500", "090752.967500", "090756.917500", "090753.077500", "090757.025000", "090753.185000", "090757.135000", "090753.295000", "090757.245000", "090753.405000", "090757.355000", "090753.515000", "090757.465000", "090753.625000", "090757.575000", "090753.735000", "090757.685000", "090753.845000", "090757.795000", "090753.955000", "090757.902500", "090754.065000", "090758.012500", "090754.172500", "090758.122500", "090754.282500", "090758.232500", "090754.392500", "090758.342500", "090754.502500", "090758.452500", "090754.612500", "090758.562500", "090754.722500", "090758.672500", "090754.832500", "090758.782500", "090754.942500", "090758.890000", "090755.050000", "090759.000000", "090755.160000", "090759.110000", "090755.270000", "090759.220000", "090755.380000", "090759.330000", "090755.490000", "090803.300000", "090759.460000", "090803.410000", "090759.570000", "090803.520000", "090759.680000", "090803.630000", "090759.790000", "090803.737500", "090759.900000", "090803.847500", "090800.007500", "090803.957500", "090800.117500", "090804.067500", "090800.227500", "090804.177500", "090800.337500", "090804.287500", "090800.447500", "090804.397500", "090800.557500", "090804.507500", "090800.667500", "090804.617500", "090800.777500", "090804.725000", "090800.885000", "090804.835000", "090800.995000", "090804.945000", "090801.105000", "090805.055000", "090801.215000", "090805.165000", "090801.325000", "090805.275000", "090801.435000", "090805.385000", "090801.545000", "090805.495000", "090801.655000", "090805.602500", "090801.765000", "090805.712500", "090801.872500", "090805.822500", "090801.982500", "090805.932500", "090802.092500", "090806.042500", "090802.202500", "090806.152500", "090802.312500", "090806.262500", "090802.422500", "090806.372500", "090802.532500", "090806.482500", "090802.642500", "090806.590000", "090802.750000", "090806.700000", "090802.860000", "090806.810000", "090802.970000", "090806.920000", "090803.080000", "090807.030000", "090803.190000", "090811.000000", "090807.160000", "090811.110000", "090807.270000", "090811.220000", "090807.380000", "090811.330000", "090807.490000", "090811.437500", "090807.600000", "090811.547500", "090807.707500", "090811.657500", "090807.817500", "090811.767500", "090807.927500", "090811.877500", "090808.037500", "090811.987500", "090808.147500", "090812.097500", "090808.257500", "090812.207500", "090808.367500", "090812.317500", "090808.477500", "090812.425000", "090808.585000", "090812.535000", "090808.695000", "090812.645000", "090808.805000", "090812.755000", "090808.915000", "090812.865000", "090809.025000", "090812.975000", "090809.135000", "090813.085000", "090809.245000", "090813.195000", "090809.355000", "090813.302500", "090809.465000", "090813.412500", "090809.572500", "090813.522500", "090809.682500", "090813.632500", "090809.792500", "090813.742500", "090809.902500", "090813.852500", "090810.012500", "090813.962500", "090810.122500", "090814.072500", "090810.232500", "090814.182500", "090810.342500", "090814.290000", "090810.450000", "090814.400000", "090810.560000", "090814.510000", "090810.670000", "090814.620000", "090810.780000", "090814.730000", "090810.890000", "090818.700000", "090814.860000", "090818.810000", "090814.970000", "090818.920000", "090815.080000", "090819.030000", "090815.190000", "090819.137500", "090815.300000", "090819.247500", "090815.407500", "090819.357500", "090815.517500", "090819.467500", "090815.627500", "090819.577500", "090815.737500", "090819.687500", "090815.847500", "090819.797500", "090815.957500", "090819.907500", "090816.067500", "090820.017500", "090816.177500", "090820.125000", "090816.285000", "090820.235000", "090816.395000", "090820.345000", "090816.505000", "090820.455000", "090816.615000", "090820.565000", "090816.725000", "090820.675000", "090816.835000", "090820.785000", "090816.945000", "090820.895000", "090817.055000", "090821.002500", "090817.165000", "090821.112500", "090817.272500", "090821.222500", "090817.382500", "090821.332500", "090817.492500", "090821.442500", "090817.602500", "090821.552500", "090817.712500", "090821.662500", "090817.822500", "090821.772500", "090817.932500", "090821.882500", "090818.042500", "090821.990000", "090818.150000", "090822.100000", "090818.260000", "090822.210000", "090818.370000", "090822.320000", "090818.480000", "090822.430000", "090818.590000", "090826.400000", "090822.560000", "090826.510000", "090822.670000", "090826.620000", "090822.780000", "090826.730000", "090822.890000", "090826.837500", "090823.000000", "090826.947500", "090823.107500", "090827.057500", "090823.217500", "090827.167500", "090823.327500", "090827.277500", "090823.437500", "090827.387500", "090823.547500", "090827.497500", "090823.657500", "090827.607500", "090823.767500", "090827.717500", "090823.877500", "090827.825000", "090823.985000", "090827.935000", "090824.095000", "090828.045000", "090824.205000", "090828.155000", "090824.315000", "090828.265000", "090824.425000", "090828.375000", "090824.535000", "090828.485000", "090824.645000", "090828.595000", "090824.755000", "090828.702500", "090824.865000", "090828.812500", "090824.972500", "090828.922500", "090825.082500", "090829.032500", "090825.192500", "090829.142500", "090825.302500", "090829.252500", "090825.412500", "090829.362500", "090825.522500", "090829.472500", "090825.632500", "090829.582500", "090825.742500", "090829.690000", "090825.850000", "090829.800000", "090825.960000", "090829.910000", "090826.070000", "090830.020000", "090826.180000", "090830.130000", "090826.290000", "090834.100000", "090830.260000", "090834.210000", "090830.370000", "090834.320000", "090830.480000", "090834.430000", "090830.590000", "090834.537500", "090830.700000", "090834.647500", "090830.807500", "090834.757500", "090830.917500", "090834.867500", "090831.027500", "090834.977500", "090831.137500", "090835.087500", "090831.247500", "090835.197500", "090831.357500", "090835.307500", "090831.467500", "090835.417500", "090831.577500", "090835.525000", "090831.685000", "090835.635000", "090831.795000", "090835.745000", "090831.905000", "090835.855000", "090832.015000", "090835.965000", "090832.125000", "090836.075000", "090832.235000", "090836.185000", "090832.345000", "090836.295000", "090832.455000", "090836.402500", "090832.565000", "090836.512500", "090832.672500", "090836.622500", "090832.782500", "090836.732500", "090832.892500", "090836.842500", "090833.002500", "090836.952500", "090833.112500", "090837.062500", "090833.222500", "090837.172500", "090833.332500", "090837.282500", "090833.442500", "090837.390000", "090833.550000", "090837.500000", "090833.660000", "090837.610000", "090833.770000", "090837.720000", "090833.880000", "090837.830000", "090833.990000", "090841.800000", "090837.960000", "090841.910000", "090838.070000", "090842.020000", "090838.180000", "090842.130000", "090838.290000", "090842.237500", "090838.400000", "090842.347500", "090838.507500", "090842.457500", "090838.617500", "090842.567500", "090838.727500", "090842.677500", "090838.837500", "090842.787500", "090838.947500", "090842.897500", "090839.057500", "090843.007500", "090839.167500", "090843.117500", "090839.277500", "090843.225000", "090839.385000", "090843.335000", "090839.495000", "090843.445000", "090839.605000", "090843.555000", "090839.715000", "090843.665000", "090839.825000", "090843.775000", "090839.935000", "090843.885000", "090840.045000", "090843.995000", "090840.155000", "090844.102500", "090840.265000", "090844.212500", "090840.372500", "090844.322500", "090840.482500", "090844.432500", "090840.592500", "090844.542500", "090840.702500", "090844.652500", "090840.812500", "090844.762500", "090840.922500", "090844.872500", "090841.032500", "090844.982500", "090841.142500", "090845.090000", "090841.250000", "090845.200000", "090841.360000", "090845.310000", "090841.470000", "090845.420000", "090841.580000", "090845.530000", "090841.690000", "090849.500000", "090845.660000", "090849.610000", "090845.770000", "090849.720000", "090845.880000", "090849.830000", "090845.990000", "090849.937500", "090846.100000", "090850.047500", "090846.207500", "090850.157500", "090846.317500", "090850.267500", "090846.427500", "090850.377500", "090846.537500", "090850.487500", "090846.647500", "090850.597500", "090846.757500", "090850.707500", "090846.867500", "090850.817500", "090846.977500", "090850.925000", "090847.085000", "090851.035000", "090847.195000", "090851.145000", "090847.305000", "090851.255000", "090847.415000", "090851.365000", "090847.525000", "090851.475000", "090847.635000", "090851.585000", "090847.745000", "090851.695000", "090847.855000", "090851.802500", "090847.965000", "090851.912500", "090848.072500", "090852.022500", "090848.182500", "090852.132500", "090848.292500", "090852.242500", "090848.402500", "090852.352500", "090848.512500", "090852.462500", "090848.622500", "090852.572500", "090848.732500", "090852.682500", "090848.842500", "090852.790000", "090848.950000", "090852.900000", "090849.060000", "090853.010000", "090849.170000", "090853.120000", "090849.280000", "090853.230000", "090849.390000", "090857.200000", "090853.360000", "090857.310000", "090853.470000", "090857.420000", "090853.580000", "090857.530000", "090853.690000", "090857.637500", "090853.800000", "090857.747500", "090853.907500", "090857.857500", "090854.017500", "090857.967500", "090854.127500", "090858.077500", "090854.237500", "090858.187500", "090854.347500", "090858.297500", "090854.457500", "090858.407500", "090854.567500", "090858.517500", "090854.677500", "090858.625000", "090854.785000", "090858.735000", "090854.895000", "090858.845000", "090855.005000", "090858.955000", "090855.115000", "090859.065000", "090855.225000", "090859.1750