{
  "AcquisitionMatrixPE": 80,
  "AcquisitionNumber": 1,
  "AcquisitionTime": "10:46:53.077500",
  "BandwidthPerPixelPhaseEncode": 46.296,
  "BaseResolution": 80,
  "BodyPartExamined": "BRAIN",
  "CoilCombinationMethod": "Sum of Squares",
  "ConsistencyInfo": "N4_VE11E_LATEST_20181129",
  "ConversionSoftware": "dcm2niix",
  "ConversionSoftwareVersion": "v1.0.20220720",
  "DerivedVendorReportedEchoSpacing": 0.000540003,
  "DeviceSerialNumber": "66112",
  "DwellTime": 2.7e-06,
  "EchoTime": 0.035,
  "EchoTrainLength": 39,
  "EffectiveEchoSpacing": 0.000270002,
  "FlipAngle": 90,
  "HeudiconvVersion": "0.13.1",
  "ImageOrientationPatientDICOM": [0.994529, -0.104296, 0.00585004, 0.0976897, 0.948448, 0.301501],
  "ImageOrientationText": "Tra>Cor(17.4)>Sag(2.1)",
  "ImageType": [
    "ORIGINAL",
    "PRIMARY",
    "M",
    "ND",
    "NORM",
    "MOSAIC"
],
  "ImagingFrequency": 123.261,
  "InPlanePhaseEncodingDirectionDICOM": "COL",
  "InstitutionAddress": "Maynard 3,Hanover,NH,US,03755",
  "InstitutionName": "Dartmouth College - PBS",
  "InstitutionalDepartmentName": "Department",
  "MRAcquisitionType": "2D",
  "MagneticFieldStrength": 3,
  "Manufacturer": "Siemens",
  "ManufacturersModelName": "Prisma",
  "Modality": "MR",
  "MultibandAccelerationFactor": 4,
  "NonlinearGradientCorrection": false,
  "ParallelReductionFactorInPlane": 2,
  "PartialFourier": 1,
  "PatientPosition": "HFS",
  "PercentPhaseFOV": 100,
  "PercentSampling": 100,
  "PhaseEncodingDirection": "j-",
  "PhaseEncodingSteps": 79,
  "PhaseResolution": 1,
  "PixelBandwidth": 2315,
  "ProcedureStepDescription": "dbic^QA",
  "ProtocolName": "func-bold_task-rest_acq-p2-s4-3.5mm",
  "PulseSequenceDetails": "%SiemensSeq%\\ep2d_bold",
  "ReceiveCoilActiveElements": "HEA;HEP",
  "ReceiveCoilName": "Head_32",
  "ReconMatrixPE": 80,
  "RefLinesPE": 24,
  "RepetitionTime": 2,
  "SAR": 0.0206727,
  "ScanOptions": "FS",
  "ScanningSequence": "EP",
  "SequenceName": "*epfid2d1_80",
  "SequenceVariant": "SK",
  "SeriesDescription": "func-bold_task-rest_acq-p2-s4-3.5mm",
  "SeriesNumber": 6,
  "ShimSetting": [4245, -7727, -7486, -29, -184, -39, -1, 84],
  "SliceThickness": 3.5,
  "SliceTiming": [1.485, 0, 0.99, 0.2475, 1.2375, 0.7425, 1.7325, 0.495, 1.485, 0, 0.99, 0.2475, 1.2375, 0.7425, 1.7325, 0.495, 1.485, 0, 0.99, 0.2475, 1.2375, 0.7425, 1.7325, 0.495, 1.485, 0, 0.99, 0.2475, 1.2375, 0.7425, 1.7325, 0.495],
  "SoftwareVersions": "syngo MR E11",
  "SpacingBetweenSlices": 3.99,
  "StationName": "AWP66112",
  "TaskName": "rest",
  "TotalReadoutTime": 0.0213301,
  "TxRefAmp": 221.481,
  "dcmmeta_affine": [
    [-2.9835875034332275, 0.2930689752101898, 0.14760485291481018, 106.63328552246094],
    [0.31288692355155945, 2.8453445434570312, 1.1941273212432861, -140.4259796142578],
    [0.017550120130181313, -0.9045029878616333, 3.8042571544647217, -26.367801666259766],
    [0.0, 0.0, 0.0, 1.0]
],
  "dcmmeta_reorient_transform": [
    [0.0, -1.0, 0.0, 79.0],
    [1.0, 0.0, 0.0, 0.0],
    [0.0, 0.0, 1.0, 0.0],
    [0.0, 0.0, 0.0, 1.0]
],
  "dcmmeta_shape": [80, 80, 32, 200],
  "dcmmeta_slice_dim": 2,
  "dcmmeta_version": 0.6,
  "global": {
    "const": {
      "AccessionNumber": "qa",
      "AcquisitionMatrix": [80, 0, 0, 80],
      "AngioFlag": "N",
      "BitsAllocated": 16,
      "BitsStored": 12,
      "BodyPartExamined": "BRAIN",
      "Columns": 480,
      "EchoNumbers": 1,
      "EchoTime": 35.0,
      "EchoTrainLength": 39,
      "FlipAngle": 90.0,
      "HighBit": 11,
      "ImageOrientationPatient": [0.99452913318117, -0.104295638848, 0.00585004027427, 0.09768965920467, 0.94844814357016, 0.30150099409917],
      "ImagePositionPatient": [-785.11700912498, -590.84773148532, -282.23415862827],
      "ImageType": [
        "ORIGINAL",
        "PRIMARY",
        "M",
        "ND",
        "NORM",
        "MOSAIC"
],
      "ImagedNucleus": "1H",
      "ImagingFrequency": 123.261296,
      "InPlanePhaseEncodingDirection": "COL",
      "MRAcquisitionType": "2D",
      "MagneticFieldStrength": 3.0,
      "Manufacturer": "SIEMENS",
      "ManufacturerModelName": "Prisma",
      "Modality": "MR",
      "NumberOfAverages": 1.0,
      "NumberOfPhaseEncodingSteps": 79,
      "PercentPhaseFieldOfView": 100.0,
      "PercentSampling": 100.0,
      "PerformedProcedureStepStartTime": "103549.473000",
      "PhotometricInterpretation": "MONOCHROME2",
      "PixelBandwidth": 2315.0,
      "PixelRepresentation": 0,
      "PixelSpacing": [3.0, 3.0],
      "ProtocolName": "func-bold_task-rest_acq-p2-s4-3.5mm",
      "RepetitionTime": 2000.0,
      "Rows": 480,
      "SAR": 0.02067273547853,
      "SamplesPerPixel": 1,
      "ScanOptions": "FS",
      "ScanningSequence": "EP",
      "SequenceName": "*epfid2d1_80",
      "SequenceVariant": "SK",
      "SeriesDescription": "func-bold_task-rest_acq-p2-s4-3.5mm",
      "SeriesNumber": 6,
      "SeriesTime": "104741.522000",
      "SliceLocation": -63.222259110417,
      "SliceThickness": 3.5,
      "SmallestImagePixelValue": 0,
      "SoftwareVersions": "syngo MR E11",
      "SpacingBetweenSlices": 3.9900000042532,
      "SpecificCharacterSet": "ISO_IR 100",
      "StudyID": "34",
      "StudyTime": "103549.405000",
      "TransmitCoilName": "Body",
      "VariableFlipAngleFlag": "N",
      "WindowCenterWidthExplanation": "Algo1"
    },
    "slices": {}
  },
  "time": {
    "samples": {
      "AcquisitionNumber": [1, 2, 3, 4, 5, 6, 7, 8, 9, 10, 11, 12, 13, 14, 15, 16, 17, 18, 19, 20, 21, 22, 23, 24, 25, 26, 27, 28, 29, 30, 31, 32, 33, 34, 35, 36, 37, 38, 39, 40, 41, 42, 43, 44, 45, 46, 47, 48, 49, 50, 51, 52, 53, 54, 55, 56, 57, 58, 59, 60, 61, 62, 63, 64, 65, 66, 67, 68, 69, 70, 71, 72, 73, 74, 75, 76, 77, 78, 79, 80, 81, 82, 83, 84, 85, 86, 87, 88, 89, 90, 91, 92, 93, 94, 95, 96, 97, 98, 99, 100, 101, 102, 103, 104, 105, 106, 107, 108, 109, 110, 111, 112, 113, 114, 115, 116, 117, 118, 119, 120, 121, 122, 123, 124, 125, 126, 127, 128, 129, 130, 131, 132, 133, 134, 135, 136, 137, 138, 139, 140, 141, 142, 143, 144, 145, 146, 147, 148, 149, 150, 151, 152, 153, 154, 155, 156, 157, 158, 159, 160, 161, 162, 163, 164, 165, 166, 167, 168, 169, 170, 171, 172, 173, 174, 175, 176, 177, 178, 179, 180, 181, 182, 183, 184, 185, 186, 187, 188, 189, 190, 191, 192, 193, 194, 195, 196, 197, 198, 199, 200],
      "AcquisitionTime": ["104653.077500", "104655.077500", "104657.077500", "104659.077500", "104701.077500", "104703.077500", "104705.077500", "104707.077500", "104709.077500", "104711.077500", "104713.077500", "104715.077500", "104717.077500", "104719.077500", "104721.077500", "104723.077500", "104725.077500", "104727.077500", "104729.077500", "104731.077500", "104733.077500", "104735.077500", "104737.077500", "104739.077500", "104741.077500", "104743.077500", "104745.077500", "104747.077500", "104749.077500", "104751.077500", "104753.077500", "104755.077500", "104757.077500", "104759.077500", "104801.077500", "104803.077500", "104805.077500", "104807.077500", "104809.077500", "104811.077500", "104813.077500", "104815.077500", "104817.077500", "104819.077500", "104821.077500", "104823.077500", "104825.077500", "104827.077500", "104829.077500", "104831.077500", "104833.077500", "104835.077500", "104837.077500", "104839.077500", "104841.077500", "104843.077500", "104845.077500", "104847.077500", "104849.077500", "104851.077500", "104853.077500", "104855.077500", "104857.077500", "104859.077500", "104901.077500", "104903.077500", "104905.077500", "104907.077500", "104909.077500", "104911.077500", "104913.077500", "104915.077500", "104917.077500", "104919.077500", "104921.077500", "104923.077500", "104925.077500", "104927.077500", "104929.077500", "104931.077500", "104933.077500", "104935.077500", "104937.077500", "104939.077500", "104941.077500", "104943.077500", "104945.077500", "104947.077500", "104949.077500", "104951.077500", "104953.077500", "104955.077500", "104957.077500", "104959.077500", "105001.077500", "105003.077500", "105005.077500", "105007.077500", "105009.077500", "105011.077500", "105013.077500", "105015.077500", "105017.077500", "105019.077500", "105021.077500", "105023.077500", "105025.077500", "105027.077500", "105029.077500", "105031.077500", "105033.077500", "105035.077500", "105037.077500", "105039.077500", "105041.077500", "105043.077500", "105045.077500", "105047.077500", "105049.077500", "105051.077500", "105053.077500", "105055.077500", "105057.077500", "105059.077500", "105101.077500", "105103.077500", "105105.077500", "105107.077500", "105109.077500", "105111.077500", "105113.077500", "105115.077500", "105117.077500", "105119.077500", "105121.077500", "105123.077500", "105125.077500", "105127.077500", "105129.077500", "105131.077500", "105133.077500", "105135.077500", "105137.077500", "105139.077500", "105141.077500", "105143.077500", "105145.077500", "105147.077500", "105149.077500", "105151.077500", "105153.077500", "105155.077500", "105157.077500", "105159.077500", "105201.077500", "105203.077500", "105205.077500", "105207.077500", "105209.077500", "105211.077500", "105213.077500", "105215.077500", "105217.077500", "105219.077500", "105221.077500", "105223.077500", "105225.077500", "105227.077500", "105229.077500", "105231.077500", "105233.077500", "105235.077500", "105237.077500", "105239.077500", "105241.077500", "105243.077500", "105245.077500", "105247.077500", "105249.077500", "105251.077500", "105253.077500", "105255.077500", "105257.077500", "105259.077500", "105301.077500", "105303.077500", "105305.077500", "105307.077500", "105309.077500", "105311.077500", "105313.077500", "105315.077500", "105317.077500", "105319.077500", "105321.077500", "105323.077500", "105325.077500", "105327.077500", "105329.077500", "105331.077500"],
      "ContentTime": ["104741.525000", "104741.528000", "104741.531000", "104741.533000", "104741.540000", "104741.543000", "104741.545000", "104741.548000", "104741.550000", "104741.552000", "104741.555000", "104741.557000", "104741.559000", "104741.562000", "104741.564000", "104741.567000", "104741.576000", "104741.578000", "104741.589000", "104741.591000", "104741.593000", "104741.596000", "104741.598000", "104741.601000", "104821.520000", "104821.523000", "104821.526000", "104821.528000", "104821.530000", "104821.533000", "104821.535000", "104821.537000", "104821.540000", "104821.542000", "104821.545000", "104821.547000", "104821.549000", "104821.552000", "104821.554000", "104821.556000", "104821.559000", "104821.561000", "104821.573000", "104821.575000", "104901.520000", "104901.523000", "104901.525000", "104901.528000", "104901.530000", "104901.532000", "104901.535000", "104901.537000", "104901.539000", "104901.542000", "104901.544000", "104901.547000", "104901.549000", "104901.551000", "104901.565000", "104901.567000", "104901.570000", "104901.572000", "104901.575000", "104901.577000", "104941.521000", "104941.524000", "104941.526000", "104941.529000", "104941.531000", "104941.533000", "104941.535000", "104941.538000", "104941.540000", "104941.542000", "104941.545000", "104941.547000", "104941.549000", "104941.552000", "104941.554000", "104941.556000", "104941.559000", "104941.561000", "104941.563000", "104941.565000", "105021.520000", "105021.523000", "105021.526000", "105021.528000", "105021.530000", "105021.533000", "105021.535000", "105021.538000", "105021.540000", "105021.543000", "105021.545000", "105021.547000", "105021.550000", "105021.552000", "105021.555000", "105021.557000", "105021.559000", "105021.562000", "105021.564000", "105021.566000", "105101.520000", "105101.523000", "105101.525000", "105101.528000", "105101.530000", "105101.532000", "105101.535000", "105101.537000", "105101.539000", "105101.542000", "105101.544000", "105101.546000", "105101.549000", "105101.551000", "105101.553000", "105101.555000", "105101.558000", "105101.560000", "105101.562000", "105101.565000", "105141.521000", "105141.524000", "105141.526000", "105141.528000", "105141.531000", "105141.533000", "105141.535000", "105141.538000", "105141.540000", "105141.542000", "105141.545000", "105141.547000", "105141.549000", "105141.552000", "105141.554000", "105141.556000", "105141.559000", "105141.561000", "105141.563000", "105141.566000", "105221.520000", "105221.523000", "105221.525000", "105221.528000", "105221.530000", "105221.533000", "105221.535000", "105221.537000", "105221.540000", "105221.542000", "105221.544000", "105221.546000", "105221.549000", "105221.551000", "105221.553000", "105221.556000", "105221.558000", "105221.560000", "105221.563000", "105221.565000", "105301.520000", "105301.523000", "105301.525000", "105301.528000", "105301.530000", "105301.532000", "105301.535000", "105301.537000", "105301.539000", "105301.542000", "105301.544000", "105301.546000", "105301.549000", "105301.551000", "105301.554000", "105301.556000", "105301.558000", "105301.561000", "105301.563000", "105301.565000", "105332.493000", "105332.496000", "105332.498000", "105332.501000", "105332.503000", "105332.506000", "105332.508000", "105332.511000", "105332.513000", "105332.516000", "105332.519000", "105332.521000", "105332.523000", "105332.526000", "105332.528000", "105332.530000"],
      "InstanceCreationTime": ["104741.525000", "104741.528000", "104741.531000", "104741.533000", "104741.540000", "104741.543000", "104741.545000", "104741.548000", "104741.550000", "104741.552000", "104741.555000", "104741.557000", "104741.559000", "104741.562000", "104741.564000", "104741.567000", "104741.576000", "104741.578000", "104741.589000", "104741.591000", "104741.593000", "104741.596000", "104741.598000", "104741.601000", "104821.520000", "104821.523000", "104821.526000", "104821.528000", "104821.530000", "104821.533000", "104821.535000", "104821.537000", "104821.540000", "104821.542000", "104821.545000", "104821.547000", "104821.549000", "104821.552000", "104821.554000", "104821.556000", "104821.559000", "104821.561000", "104821.573000", "104821.575000", "104901.520000", "104901.523000", "104901.525000", "104901.528000", "104901.530000", "104901.532000", "104901.535000", "104901.537000", "104901.539000", "104901.542000", "104901.544000", "104901.547000", "104901.549000", "104901.551000", "104901.565000", "104901.567000", "104901.570000", "104901.572000", "104901.575000", "104901.577000", "104941.521000", "104941.524000", "104941.526000", "104941.529000", "104941.531000", "104941.533000", "104941.535000", "104941.538000", "104941.540000", "104941.542000", "104941.545000", "104941.547000", "104941.549000", "104941.552000", "104941.554000", "104941.556000", "104941.559000", "104941.561000", "104941.563000", "104941.565000", "105021.520000", "105021.523000", "105021.526000", "105021.528000", "105021.530000", "105021.533000", "105021.535000", "105021.538000", "105021.540000", "105021.543000", "105021.545000", "105021.547000", "105021.550000", "105021.552000", "105021.555000", "105021.557000", "105021.559000", "105021.562000", "105021.564000", "105021.566000", "105101.520000", "105101.523000", "105101.525000", "105101.528000", "105101.530000", "105101.532000", "105101.535000", "105101.537000", "105101.539000", "105101.542000", "105101.544000", "105101.546000", "105101.549000", "105101.551000", "105101.553000", "105101.555000", "105101.558000", "105101.560000", "105101.562000", "105101.565000", "105141.521000", "105141.524000", "105141.526000", "105141.528000", "105141.531000", "105141.533000", "105141.535000", "105141.538000", "105141.540000", "105141.542000", "105141.545000", "105141.547000", "105141.549000", "105141.552000", "105141.554000", "105141.556000", "105141.559000", "105141.561000", "105141.563000", "105141.566000", "105221.520000", "105221.523000", "105221.525000", "105221.528000", "105221.530000", "105221.533000", "105221.535000", "105221.537000", "105221.540000", "105221.542000", "105221.544000", "105221.546000", "105221.549000", "105221.551000", "105221.553000", "105221.556000", "105221.558000", "105221.560000", "105221.563000", "105221.565000", "105301.520000", "105301.523000", "105301.525000", "105301.528000", "105301.530000", "105301.532000", "105301.535000", "105301.537000", "105301.539000", "105301.542000", "105301.544000", "105301.546000", "105301.549000", "105301.551000", "105301.554000", "105301.556000", "105301.558000", "105301.561000", "105301.563000", "105301.565000", "105332.493000", "105332.496000", "105332.498000", "105332.501000", "105332.503000", "105332.506000", "105332.508000", "105332.511000", "105332.513000", "105332.516000", "105332.519000", "105332.521000", "105332.523000", "105332.526000", "105332.528000", "105332.530000"],
      "InstanceNumber": [1, 2, 3, 4, 5, 6, 7, 8, 9, 10, 11, 12, 13, 14, 15, 16, 17, 18, 19, 20, 21, 22, 23, 24, 25, 26, 27, 28, 29, 30, 31, 32, 33, 34, 35, 36, 37, 38, 39, 40, 41, 42, 43, 44, 45, 46, 47, 48, 49, 50, 51, 52, 53, 54, 55, 56, 57, 58, 59, 60, 61, 62, 63, 64, 65, 66, 67, 68, 69, 70, 71, 72, 73, 74, 75, 76, 77, 78, 79, 80, 81, 82, 83, 84, 85, 86, 87, 88, 89, 90, 91, 92, 93, 94, 95, 96, 97, 98, 99, 100, 101, 102, 103, 104, 105, 106, 107, 108, 109, 110, 111, 112, 113, 114, 115, 116, 117, 118, 119, 120, 121, 122, 123, 124, 125, 126, 127, 128, 129, 130, 131, 132, 133, 134, 135, 136, 137, 138, 139, 140, 141, 142, 143, 144, 145, 146, 147, 148, 149, 150, 151, 152, 153, 154, 155, 156, 157, 158, 159, 160, 161, 162, 163, 164, 165, 166, 167, 168, 169, 170, 171, 172, 173, 174, 175, 176, 177, 178, 179, 180, 181, 182, 183, 184, 185, 186, 187, 188, 189, 190, 191, 192, 193, 194, 195, 196, 197, 198, 199, 200],
      "LargestImagePixelValue": [2115, 2118, 2110, 2114, 2115, 2116, 2120, 2117, 2114, 2111, 2114, 2113, 2114, 2113, 2111, 2116, 2117, 2112, 2113, 2112, 2109, 2113, 2115, 2112, 2114, 2114, 2113, 2119, 2117, 2116, 2115, 2118, 2115, 2117, 2120, 2114, 2115, 2113, 2116, 2115, 2115, 2115, 2114, 2113, 2115, 2115, 2118, 2114, 2112, 2115, 2116, 2117, 2115, 2117, 2120, 2115, 2117, 2115, 2115, 2117, 2115, 2117, 2119, 2118, 2110, 2117, 2121, 2118, 2116, 2115, 2112, 2117, 2113, 2119, 2116, 2116, 2114, 2113, 2115, 2117, 2110, 2115, 2113, 2118, 2116, 2111, 2117, 2114, 2116, 2112, 2116, 2120, 2117, 2119, 2112, 2117, 2117, 2118, 2115, 2117, 2113, 2115, 2114, 2117, 2116, 2116, 2116, 2118, 2116, 2115, 2115, 2115, 2114, 2116, 2117, 2114, 2115, 2119, 2117, 2118, 2114, 2115, 2114, 2114, 2118, 2117, 2114, 2116, 2114, 2118, 2120, 2115, 2121, 2118, 2118, 2118, 2116, 2115, 2116, 2112, 2112, 2118, 2120, 2115, 2110, 2111, 2120, 2120, 2117, 2116, 2115, 2115, 2111, 2118, 2118, 2115, 2115, 2116, 2115, 2116, 2122, 2113, 2114, 2119, 2118, 2115, 2114, 2115, 2115, 2120, 2118, 2115, 2113, 2117, 2113, 2111, 2116, 2115, 2117, 2118, 2119, 2115, 2122, 2113, 2118, 2121, 2116, 2118, 2116, 2115, 2118, 2114, 2116, 2117, 2114, 2117, 2114, 2120, 2120, 2115],
      "WindowCenter": [953.0, 953.0, 954.0, 954.0, 955.0, 954.0, 954.0, 953.0, 954.0, 955.0, 953.0, 954.0, 954.0, 953.0, 953.0, 954.0, 954.0, 953.0, 953.0, 954.0, 954.0, 954.0, 954.0, 954.0, 954.0, 954.0, 953.0, 954.0, 953.0, 955.0, 954.0, 954.0, 955.0, 954.0, 953.0, 955.0, 953.0, 953.0, 953.0, 953.0, 953.0, 954.0, 955.0, 953.0, 953.0, 953.0, 954.0, 954.0, 955.0, 953.0, 953.0, 954.0, 955.0, 953.0, 955.0, 954.0, 954.0, 953.0, 955.0, 954.0, 953.0, 955.0, 953.0, 953.0, 954.0, 954.0, 955.0, 954.0, 953.0, 954.0, 954.0, 953.0, 954.0, 953.0, 954.0, 954.0, 953.0, 954.0, 953.0, 952.0, 954.0, 954.0, 953.0, 954.0, 954.0, 952.0, 954.0, 953.0, 955.0, 953.0, 953.0, 952.0, 954.0, 954.0, 952.0, 954.0, 953.0, 953.0, 953.0, 953.0, 954.0, 953.0, 953.0, 954.0, 955.0, 954.0, 955.0, 954.0, 954.0, 952.0, 954.0, 954.0, 952.0, 953.0, 953.0, 954.0, 955.0, 954.0, 954.0, 952.0, 952.0, 954.0, 953.0, 954.0, 953.0, 954.0, 955.0, 955.0, 953.0, 954.0, 952.0, 955.0, 954.0, 953.0, 953.0, 954.0, 955.0, 955.0, 954.0, 954.0, 954.0, 954.0, 954.0, 953.0, 954.0, 954.0, 954.0, 954.0, 952.0, 955.0, 954.0, 954.0, 952.0, 954.0, 954.0, 952.0, 954.0, 955.0, 955.0, 953.0, 953.0, 953.0, 953.0, 953.0, 954.0, 954.0, 954.0, 952.0, 954.0, 954.0, 955.0, 952.0, 954.0, 954.0, 955.0, 954.0, 955.0, 954.0, 954.0, 954.0, 954.0, 954.0, 952.0, 954.0, 953.0, 953.0, 954.0, 953.0, 954.0, 954.0, 954.0, 953.0, 954.0, 954.0, 953.0, 953.0, 955.0, 954.0, 953.0, 954.0],
      "WindowWidth": [2236.0, 2236.0, 2237.0, 2237.0, 2237.0, 2236.0, 2236.0, 2235.0, 2236.0, 2237.0, 2236.0, 2236.0, 2235.0, 2235.0, 2235.0, 2236.0, 2236.0, 2234.0, 2234.0, 2235.0, 2236.0, 2236.0, 2235.0, 2235.0, 2236.0, 2235.0, 2235.0, 2235.0, 2234.0, 2237.0, 2236.0, 2236.0, 2237.0, 2235.0, 2235.0, 2237.0, 2235.0, 2235.0, 2235.0, 2234.0, 2235.0, 2235.0, 2237.0, 2235.0, 2235.0, 2235.0, 2236.0, 2235.0, 2237.0, 2234.0, 2234.0, 2235.0, 2236.0, 2234.0, 2236.0, 2235.0, 2235.0, 2234.0, 2236.0, 2235.0, 2234.0, 2236.0, 2235.0, 2234.0, 2235.0, 2235.0, 2237.0, 2235.0, 2235.0, 2235.0, 2236.0, 2235.0, 2235.0, 2234.0, 2235.0, 2235.0, 2234.0, 2235.0, 2234.0, 2233.0, 2235.0, 2234.0, 2234.0, 2235.0, 2234.0, 2233.0, 2234.0, 2233.0, 2235.0, 2233.0, 2233.0, 2232.0, 2234.0, 2234.0, 2233.0, 2234.0, 2234.0, 2233.0, 2233.0, 2234.0, 2234.0, 2234.0, 2234.0, 2235.0, 2236.0, 2234.0, 2235.0, 2234.0, 2234.0, 2233.0, 2234.0, 2234.0, 2233.0, 2233.0, 2233.0, 2234.0, 2235.0, 2234.0, 2234.0, 2233.0, 2232.0, 2234.0, 2233.0, 2234.0, 2233.0, 2234.0, 2234.0, 2235.0, 2234.0, 2234.0, 2233.0, 2235.0, 2234.0, 2233.0, 2233.0, 2235.0, 2235.0, 2235.0, 2234.0, 2234.0, 2234.0, 2234.0, 2233.0, 2233.0, 2234.0, 2234.0, 2234.0, 2234.0, 2232.0, 2234.0, 2233.0, 2233.0, 2232.0, 2233.0, 2233.0, 2232.0, 2233.0, 2234.0, 2234.0, 2232.0, 2233.0, 2233.0, 2233.0, 2233.0, 2233.0, 2234.0, 2234.0, 2232.0, 2234.0, 2234.0, 2235.0, 2232.0, 2233.0, 2234.0, 2234.0, 2234.0, 2234.0, 2233.0, 2233.0, 2233.0, 2233.0, 2234.0, 2231.0, 2233.0, 2232.0, 2232.0, 2233.0, 2232.0, 2233.0, 2232.0, 2233.0, 2232.0, 2233.0, 2233.0, 2232.0, 2232.0, 2234.0, 2233.0, 2233.0, 2233.0]
    },
    "slices": {}
  }
}