{
  "AcquisitionMatrixPE": 80,
  "AcquisitionNumber": 1,
  "AcquisitionTime": "09:37:21.197500",
  "BandwidthPerPixelPhaseEncode": 48.077,
  "BaseResolution": 80,
  "BodyPartExamined": "BRAIN",
  "CoilCombinationMethod": "Sum of Squares",
  "ConsistencyInfo": "N4_VE11C_LATEST_20160120",
  "ConversionSoftware": "dcm2niix",
  "ConversionSoftwareVersion": "v1.0.20220720",
  "DerivedVendorReportedEchoSpacing": 0.000519999,
  "DeviceSerialNumber": "66112",
  "DwellTime": 2.7e-06,
  "EchoTime": 0.035,
  "EchoTrainLength": 39,
  "EffectiveEchoSpacing": 0.00026,
  "FlipAngle": 90,
  "HeudiconvVersion": "0.13.1",
  "ImageOrientationPatientDICOM": [0.987474, 0.157602, 0.00749388, -0.152163, 0.938683, 0.309386],
  "ImageOrientationText": "Tra>Cor(17.9)>Sag(-2.4)",
  "ImageType": [
    "ORIGINAL",
    "PRIMARY",
    "M",
    "ND",
    "NORM",
    "MOSAIC"
],
  "ImagingFrequency": 123.252,
  "InPlanePhaseEncodingDirectionDICOM": "COL",
  "InstitutionAddress": "Maynard 3,Hanover,NH,US,03755",
  "InstitutionName": "Dartmouth College - PBS",
  "InstitutionalDepartmentName": "Department",
  "MRAcquisitionType": "2D",
  "MagneticFieldStrength": 3,
  "Manufacturer": "Siemens",
  "ManufacturersModelName": "Prisma",
  "MatrixCoilMode": "GRAPPA",
  "Modality": "MR",
  "NonlinearGradientCorrection": false,
  "ParallelReductionFactorInPlane": 2,
  "PartialFourier": 1,
  "PatientPosition": "HFS",
  "PercentPhaseFOV": 100,
  "PercentSampling": 100,
  "PhaseEncodingDirection": "j-",
  "PhaseEncodingSteps": 79,
  "PhaseResolution": 1,
  "PixelBandwidth": 2315,
  "ProcedureStepDescription": "dbic^QA",
  "ProtocolName": "func-bold_task-rest_acq-p2",
  "PulseSequenceDetails": "%SiemensSeq%\\ep2d_bold",
  "ReceiveCoilActiveElements": "HC1-7;NC1,2",
  "ReceiveCoilName": "HeadNeck_64",
  "ReconMatrixPE": 80,
  "RefLinesPE": 24,
  "RepetitionTime": 2,
  "SAR": 0.0409074,
  "ScanOptions": "FS",
  "ScanningSequence": "EP",
  "SequenceName": "*epfid2d1_80",
  "SequenceVariant": "SK",
  "SeriesDescription": "func-bold_task-rest_acq-p2",
  "SeriesNumber": 5,
  "ShimSetting": [4141, -7703, -7514, 195, -59, -297, -92, 77],
  "SliceThickness": 3.5,
  "SliceTiming": [0.99, 0, 1.055, 0.065, 1.1225, 0.1325, 1.1875, 0.1975, 1.2525, 0.265, 1.32, 0.33, 1.385, 0.395, 1.4525, 0.4625, 1.5175, 0.5275, 1.5825, 0.5925, 1.65, 0.66, 1.715, 0.725, 1.7825, 0.7925, 1.8475, 0.8575, 1.9125, 0.9225],
  "SoftwareVersions": "syngo MR E11",
  "SpacingBetweenSlices": 3.99,
  "StationName": "AWP66112",
  "TaskName": "rest",
  "TotalReadoutTime": 0.02054,
  "TxRefAmp": 211.896,
  "dcmmeta_affine": [
    [-2.9624226093292236, -0.4564896523952484, -0.16648529469966888, 143.16305541992188],
    [-0.4728071987628937, 2.8160500526428223, 1.2235385179519653, -105.49957275390625],
    [0.022481629624962807, -0.9281588196754456, 3.794118642807007, -21.977115631103516],
    [0.0, 0.0, 0.0, 1.0]
],
  "dcmmeta_reorient_transform": [
    [0.0, -1.0, 0.0, 79.0],
    [1.0, 0.0, 0.0, 0.0],
    [0.0, 0.0, 1.0, 0.0],
    [0.0, 0.0, 0.0, 1.0]
],
  "dcmmeta_shape": [80, 80, 30, 200],
  "dcmmeta_slice_dim": 2,
  "dcmmeta_version": 0.6,
  "global": {
    "const": {
      "AccessionNumber": "qa64",
      "AcquisitionMatrix": [80, 0, 0, 80],
      "AngioFlag": "N",
      "BitsAllocated": 16,
      "BitsStored": 12,
      "BodyPartExamined": "BRAIN",
      "Columns": 480,
      "EchoNumbers": 1,
      "EchoTime": 35.0,
      "EchoTrainLength": 39,
      "FlipAngle": 90.0,
      "HighBit": 11,
      "ImageOrientationPatient": [0.98747421584922, 0.15760239481082, 0.00749387635739, -0.1521632152226, 0.9386833835122, 0.30938626577663],
      "ImagePositionPatient": [-608.28696757411, -774.73985245648, -285.42974527473],
      "ImageType": [
        "ORIGINAL",
        "PRIMARY",
        "M",
        "ND",
        "NORM",
        "MOSAIC"
],
      "ImagedNucleus": "1H",
      "ImagingFrequency": 123.25236,
      "InPlanePhaseEncodingDirection": "COL",
      "MRAcquisitionType": "2D",
      "MagneticFieldStrength": 3.0,
      "Manufacturer": "SIEMENS",
      "ManufacturerModelName": "Prisma",
      "Modality": "MR",
      "NumberOfAverages": 1.0,
      "NumberOfPhaseEncodingSteps": 79,
      "PercentPhaseFieldOfView": 100.0,
      "PercentSampling": 100.0,
      "PerformedProcedureStepStartTime": "092545.655000",
      "PhotometricInterpretation": "MONOCHROME2",
      "PixelBandwidth": 2315.0,
      "PixelRepresentation": 0,
      "PixelSpacing": [3.0, 3.0],
      "ProtocolName": "func-bold_task-rest_acq-p2",
      "RepetitionTime": 2000.0,
      "Rows": 480,
      "SAR": 0.04090735803688,
      "SamplesPerPixel": 1,
      "ScanOptions": "FS",
      "ScanningSequence": "EP",
      "SequenceName": "*epfid2d1_80",
      "SequenceVariant": "SK",
      "SeriesDescription": "func-bold_task-rest_acq-p2",
      "SeriesNumber": 5,
      "SeriesTime": "093810.755000",
      "SliceLocation": -59.223337842859,
      "SliceThickness": 3.5,
      "SmallestImagePixelValue": 0,
      "SoftwareVersions": "syngo MR E11",
      "SpacingBetweenSlices": 3.9900000202846,
      "SpecificCharacterSet": "ISO_IR 100",
      "StudyID": "44",
      "StudyTime": "092545.570000",
      "TransmitCoilName": "Body",
      "VariableFlipAngleFlag": "N",
      "WindowCenterWidthExplanation": "Algo1",
      "dBdt": 0.0},
    "slices": {}
  },
  "time": {
    "samples": {
      "AcquisitionNumber": [1, 2, 3, 4, 5, 6, 7, 8, 9, 10, 11, 12, 13, 14, 15, 16, 17, 18, 19, 20, 21, 22, 23, 24, 25, 26, 27, 28, 29, 30, 31, 32, 33, 34, 35, 36, 37, 38, 39, 40, 41, 42, 43, 44, 45, 46, 47, 48, 49, 50, 51, 52, 53, 54, 55, 56, 57, 58, 59, 60, 61, 62, 63, 64, 65, 66, 67, 68, 69, 70, 71, 72, 73, 74, 75, 76, 77, 78, 79, 80, 81, 82, 83, 84, 85, 86, 87, 88, 89, 90, 91, 92, 93, 94, 95, 96, 97, 98, 99, 100, 101, 102, 103, 104, 105, 106, 107, 108, 109, 110, 111, 112, 113, 114, 115, 116, 117, 118, 119, 120, 121, 122, 123, 124, 125, 126, 127, 128, 129, 130, 131, 132, 133, 134, 135, 136, 137, 138, 139, 140, 141, 142, 143, 144, 145, 146, 147, 148, 149, 150, 151, 152, 153, 154, 155, 156, 157, 158, 159, 160, 161, 162, 163, 164, 165, 166, 167, 168, 169, 170, 171, 172, 173, 174, 175, 176, 177, 178, 179, 180, 181, 182, 183, 184, 185, 186, 187, 188, 189, 190, 191, 192, 193, 194, 195, 196, 197, 198, 199, 200],
      "AcquisitionTime": ["093721.197500", "093723.197500", "093725.197500", "093727.197500", "093729.197500", "093731.197500", "093733.197500", "093735.197500", "093737.197500", "093739.197500", "093741.197500", "093743.197500", "093745.197500", "093747.197500", "093749.197500", "093751.197500", "093753.197500", "093755.197500", "093757.197500", "093759.197500", "093801.197500", "093803.197500", "093805.197500", "093807.197500", "093809.197500", "093811.197500", "093813.197500", "093815.197500", "093817.197500", "093819.197500", "093821.197500", "093823.197500", "093825.197500", "093827.197500", "093829.197500", "093831.197500", "093833.197500", "093835.197500", "093837.197500", "093839.197500", "093841.197500", "093843.197500", "093845.197500", "093847.197500", "093849.197500", "093851.197500", "093853.197500", "093855.197500", "093857.197500", "093859.197500", "093901.197500", "093903.197500", "093905.197500", "093907.197500", "093909.197500", "093911.197500", "093913.197500", "093915.197500", "093917.197500", "093919.197500", "093921.197500", "093923.197500", "093925.197500", "093927.197500", "093929.197500", "093931.197500", "093933.197500", "093935.197500", "093937.197500", "093939.197500", "093941.197500", "093943.197500", "093945.197500", "093947.197500", "093949.197500", "093951.197500", "093953.197500", "093955.197500", "093957.197500", "093959.197500", "094001.197500", "094003.197500", "094005.197500", "094007.197500", "094009.197500", "094011.197500", "094013.197500", "094015.197500", "094017.197500", "094019.197500", "094021.197500", "094023.197500", "094025.197500", "094027.197500", "094029.197500", "094031.197500", "094033.197500", "094035.197500", "094037.197500", "094039.197500", "094041.197500", "094043.197500", "094045.197500", "094047.197500", "094049.197500", "094051.197500", "094053.197500", "094055.197500", "094057.197500", "094059.197500", "094101.197500", "094103.197500", "094105.197500", "094107.197500", "094109.197500", "094111.197500", "094113.197500", "094115.197500", "094117.197500", "094119.197500", "094121.197500", "094123.197500", "094125.197500", "094127.197500", "094129.197500", "094131.197500", "094133.197500", "094135.197500", "094137.197500", "094139.197500", "094141.197500", "094143.197500", "094145.197500", "094147.197500", "094149.197500", "094151.197500", "094153.197500", "094155.197500", "094157.197500", "094159.197500", "094201.197500", "094203.197500", "094205.197500", "094207.197500", "094209.197500", "094211.197500", "094213.197500", "094215.197500", "094217.197500", "094219.197500", "094221.197500", "094223.197500", "094225.197500", "094227.197500", "094229.197500", "094231.197500", "094233.197500", "094235.197500", "094237.197500", "094239.197500", "094241.197500", "094243.197500", "094245.197500", "094247.197500", "094249.197500", "094251.197500", "094253.197500", "094255.197500", "094257.197500", "094259.197500", "094301.197500", "094303.197500", "094305.197500", "094307.197500", "094309.197500", "094311.197500", "094313.197500", "094315.197500", "094317.197500", "094319.197500", "094321.197500", "094323.197500", "094325.197500", "094327.197500", "094329.197500", "094331.197500", "094333.197500", "094335.197500", "094337.197500", "094339.197500", "094341.197500", "094343.197500", "094345.197500", "094347.197500", "094349.197500", "094351.197500", "094353.197500", "094355.197500", "094357.197500", "094359.197500"],
      "ContentTime": ["093810.759000", "093810.762000", "093810.765000", "093810.767000", "093810.770000", "093810.772000", "093810.775000", "093810.777000", "093810.780000", "093810.783000", "093810.785000", "093810.788000", "093810.796000", "093810.799000", "093810.801000", "093810.804000", "093810.806000", "093810.809000", "093810.811000", "093810.817000", "093810.820000", "093810.822000", "093810.825000", "093810.827000", "093810.835000", "093850.753000", "093850.756000", "093850.759000", "093850.761000", "093850.764000", "093850.766000", "093850.769000", "093850.772000", "093850.774000", "093850.777000", "093850.779000", "093850.782000", "093850.784000", "093850.787000", "093850.789000", "093850.792000", "093850.794000", "093850.797000", "093850.800000", "093850.802000", "093930.754000", "093930.757000", "093930.759000", "093930.762000", "093930.764000", "093930.767000", "093930.769000", "093930.772000", "093930.774000", "093930.777000", "093930.779000", "093930.782000", "093930.784000", "093930.787000", "093930.789000", "093930.792000", "093930.794000", "093930.797000", "093930.799000", "093930.802000", "094010.754000", "094010.756000", "094010.759000", "094010.761000", "094010.764000", "094010.766000", "094010.787000", "094010.789000", "094010.792000", "094010.794000", "094010.797000", "094010.799000", "094010.802000", "094010.804000", "094010.807000", "094010.809000", "094010.812000", "094010.814000", "094010.817000", "094010.819000", "094050.752000", "094050.755000", "094050.758000", "094050.760000", "094050.763000", "094050.765000", "094050.796000", "094050.798000", "094050.801000", "094050.803000", "094050.806000", "094050.808000", "094050.811000", "094050.813000", "094050.816000", "094050.818000", "094050.821000", "094050.823000", "094050.826000", "094050.828000", "094130.754000", "094130.756000", "094130.772000", "094130.789000", "094130.792000", "094130.794000", "094130.797000", "094130.799000", "094130.802000", "094130.804000", "094130.807000", "094130.809000", "094130.812000", "094130.814000", "094130.817000", "094130.819000", "094130.822000", "094130.825000", "094130.827000", "094130.830000", "094210.754000", "094210.756000", "094210.759000", "094210.761000", "094210.764000", "094210.767000", "094210.816000", "094210.818000", "094210.821000", "094210.823000", "094210.826000", "094210.828000", "094210.831000", "094210.833000", "094210.836000", "094210.838000", "094210.841000", "094210.843000", "094210.846000", "094210.848000", "094250.752000", "094250.755000", "094250.758000", "094250.760000", "094250.763000", "094250.765000", "094250.785000", "094250.788000", "094250.790000", "094250.793000", "094250.795000", "094250.798000", "094250.800000", "094250.803000", "094250.805000", "094250.808000", "094250.810000", "094250.813000", "094250.815000", "094250.818000", "094330.754000", "094330.756000", "094330.759000", "094330.761000", "094330.764000", "094330.767000", "094330.801000", "094330.804000", "094330.806000", "094330.809000", "094330.811000", "094330.814000", "094330.816000", "094330.819000", "094330.821000", "094330.824000", "094330.827000", "094330.829000", "094330.832000", "094330.834000", "094400.396000", "094400.399000", "094400.402000", "094400.404000", "094400.407000", "094400.409000", "094400.412000", "094400.415000", "094400.417000", "094400.420000", "094400.422000", "094400.427000", "094400.432000", "094400.436000", "094400.440000"],
      "InstanceCreationTime": ["093810.759000", "093810.762000", "093810.765000", "093810.767000", "093810.770000", "093810.772000", "093810.775000", "093810.777000", "093810.780000", "093810.783000", "093810.785000", "093810.788000", "093810.796000", "093810.799000", "093810.801000", "093810.804000", "093810.806000", "093810.809000", "093810.811000", "093810.817000", "093810.820000", "093810.822000", "093810.825000", "093810.827000", "093810.835000", "093850.753000", "093850.756000", "093850.759000", "093850.761000", "093850.764000", "093850.766000", "093850.769000", "093850.772000", "093850.774000", "093850.777000", "093850.779000", "093850.782000", "093850.784000", "093850.787000", "093850.789000", "093850.792000", "093850.794000", "093850.797000", "093850.800000", "093850.802000", "093930.754000", "093930.757000", "093930.759000", "093930.762000", "093930.764000", "093930.767000", "093930.769000", "093930.772000", "093930.774000", "093930.777000", "093930.779000", "093930.782000", "093930.784000", "093930.787000", "093930.789000", "093930.792000", "093930.794000", "093930.797000", "093930.799000", "093930.802000", "094010.754000", "094010.756000", "094010.759000", "094010.761000", "094010.764000", "094010.766000", "094010.787000", "094010.789000", "094010.792000", "094010.794000", "094010.797000", "094010.799000", "094010.802000", "094010.804000", "094010.807000", "094010.809000", "094010.812000", "094010.814000", "094010.817000", "094010.819000", "094050.752000", "094050.755000", "094050.758000", "094050.760000", "094050.763000", "094050.765000", "094050.796000", "094050.798000", "094050.801000", "094050.803000", "094050.806000", "094050.808000", "094050.811000", "094050.813000", "094050.816000", "094050.818000", "094050.821000", "094050.823000", "094050.826000", "094050.828000", "094130.754000", "094130.756000", "094130.772000", "094130.789000", "094130.792000", "094130.794000", "094130.797000", "094130.799000", "094130.802000", "094130.804000", "094130.807000", "094130.809000", "094130.812000", "094130.814000", "094130.817000", "094130.819000", "094130.822000", "094130.825000", "094130.827000", "094130.830000", "094210.754000", "094210.756000", "094210.759000", "094210.761000", "094210.764000", "094210.767000", "094210.816000", "094210.818000", "094210.821000", "094210.823000", "094210.826000", "094210.828000", "094210.831000", "094210.833000", "094210.836000", "094210.838000", "094210.841000", "094210.843000", "094210.846000", "094210.848000", "094250.752000", "094250.755000", "094250.758000", "094250.760000", "094250.763000", "094250.765000", "094250.785000", "094250.788000", "094250.790000", "094250.793000", "094250.795000", "094250.798000", "094250.800000", "094250.803000", "094250.805000", "094250.808000", "094250.810000", "094250.813000", "094250.815000", "094250.818000", "094330.754000", "094330.756000", "094330.759000", "094330.761000", "094330.764000", "094330.767000", "094330.801000", "094330.804000", "094330.806000", "094330.809000", "094330.811000", "094330.814000", "094330.816000", "094330.819000", "094330.821000", "094330.824000", "094330.827000", "094330.829000", "094330.832000", "094330.834000", "094400.396000", "094400.399000", "094400.402000", "094400.404000", "094400.407000", "094400.409000", "094400.412000", "094400.415000", "094400.417000", "094400.420000", "094400.422000", "094400.427000", "094400.432000", "094400.436000", "094400.440000"],
      "InstanceNumber": [1, 2, 3, 4, 5, 6, 7, 8, 9, 10, 11, 12, 13, 14, 15, 16, 17, 18, 19, 20, 21, 22, 23, 24, 25, 26, 27, 28, 29, 30, 31, 32, 33, 34, 35, 36, 37, 38, 39, 40, 41, 42, 43, 44, 45, 46, 47, 48, 49, 50, 51, 52, 53, 54, 55, 56, 57, 58, 59, 60, 61, 62, 63, 64, 65, 66, 67, 68, 69, 70, 71, 72, 73, 74, 75, 76, 77, 78, 79, 80, 81, 82, 83, 84, 85, 86, 87, 88, 89, 90, 91, 92, 93, 94, 95, 96, 97, 98, 99, 100, 101, 102, 103, 104, 105, 106, 107, 108, 109, 110, 111, 112, 113, 114, 115, 116, 117, 118, 119, 120, 121, 122, 123, 124, 125, 126, 127, 128, 129, 130, 131, 132, 133, 134, 135, 136, 137, 138, 139, 140, 141, 142, 143, 144, 145, 146, 147, 148, 149, 150, 151, 152, 153, 154, 155, 156, 157, 158, 159, 160, 161, 162, 163, 164, 165, 166, 167, 168, 169, 170, 171, 172, 173, 174, 175, 176, 177, 178, 179, 180, 181, 182, 183, 184, 185, 186, 187, 188, 189, 190, 191, 192, 193, 194, 195, 196, 197, 198, 199, 200],
      "LargestImagePixelValue": [4023, 4018, 4021, 4015, 4015, 4023, 4017, 4024, 4018, 4021, 4027, 4030, 4016, 4020, 4015, 4016, 4020, 4016, 4022, 4021, 4029, 4021, 4018, 4026, 4025, 4021, 4025, 4022, 4020, 4024, 4016, 4024, 4022, 4014, 4022, 4021, 4016, 4021, 4015, 4018, 4006, 4009, 4024, 4028, 4026, 4016, 4024, 4015, 4030, 4021, 4027, 4020, 4019, 4014, 4018, 4023, 4024, 4031, 4021, 4029, 4015, 4014, 4018, 4022, 4017, 4016, 4010, 4019, 4015, 4020, 4012, 4027, 4024, 4016, 4016, 4019, 4020, 4020, 4035, 4020, 4026, 4024, 4022, 4014, 4012, 4015, 4015, 4028, 4029, 4016, 4024, 4021, 4027, 4024, 4024, 4032, 4022, 4023, 4022, 4017, 4019, 4013, 4014, 4026, 4031, 4015, 4023, 4018, 4019, 4021, 4022, 4029, 4016, 4035, 4020, 4032, 4026, 4024, 4038, 4035, 4035, 4030, 4022, 4022, 4019, 4017, 4023, 4025, 4028, 4030, 4017, 4018, 4029, 4020, 4022, 4021, 4022, 4026, 4013, 4011, 4020, 4013, 4019, 4017, 4012, 4015, 4021, 4024, 4024, 4022, 4025, 4022, 4029, 4034, 4028, 4017, 4025, 4021, 4021, 4019, 4019, 4024, 4023, 4027, 4028, 4021, 4024, 4025, 4030, 4028, 4021, 4011, 4024, 4028, 4019, 4015, 4024, 4028, 4037, 4026, 4033, 4025, 4042, 4038, 4028, 4030, 4024, 4031, 4024, 4030, 4022, 4025, 4029, 4026, 4026, 4030, 4026, 4024, 4032, 4024],
      "WindowCenter": [1494.0, 1493.0, 1493.0, 1492.0, 1492.0, 1493.0, 1492.0, 1493.0, 1493.0, 1493.0, 1493.0, 1493.0, 1492.0, 1493.0, 1493.0, 1493.0, 1493.0, 1492.0, 1492.0, 1492.0, 1492.0, 1492.0, 1493.0, 1493.0, 1492.0, 1493.0, 1492.0, 1493.0, 1492.0, 1493.0, 1492.0, 1492.0, 1492.0, 1492.0, 1491.0, 1492.0, 1492.0, 1491.0, 1491.0, 1491.0, 1492.0, 1492.0, 1491.0, 1491.0, 1491.0, 1491.0, 1491.0, 1492.0, 1491.0, 1491.0, 1490.0, 1491.0, 1491.0, 1492.0, 1491.0, 1492.0, 1492.0, 1491.0, 1491.0, 1490.0, 1490.0, 1491.0, 1490.0, 1490.0, 1491.0, 1490.0, 1491.0, 1490.0, 1491.0, 1490.0, 1491.0, 1490.0, 1490.0, 1491.0, 1490.0, 1490.0, 1490.0, 1491.0, 1491.0, 1490.0, 1490.0, 1490.0, 1490.0, 1490.0, 1490.0, 1491.0, 1490.0, 1490.0, 1491.0, 1490.0, 1490.0, 1490.0, 1490.0, 1490.0, 1489.0, 1490.0, 1489.0, 1490.0, 1490.0, 1489.0, 1490.0, 1489.0, 1490.0, 1489.0, 1489.0, 1490.0, 1489.0, 1490.0, 1490.0, 1489.0, 1489.0, 1489.0, 1489.0, 1490.0, 1489.0, 1489.0, 1489.0, 1490.0, 1488.0, 1489.0, 1488.0, 1489.0, 1489.0, 1489.0, 1489.0, 1489.0, 1489.0, 1488.0, 1489.0, 1489.0, 1489.0, 1488.0, 1489.0, 1489.0, 1490.0, 1488.0, 1488.0, 1488.0, 1489.0, 1488.0, 1488.0, 1488.0, 1489.0, 1488.0, 1488.0, 1488.0, 1488.0, 1488.0, 1489.0, 1488.0, 1489.0, 1488.0, 1489.0, 1489.0, 1489.0, 1488.0, 1488.0, 1489.0, 1488.0, 1488.0, 1488.0, 1488.0, 1488.0, 1489.0, 1488.0, 1489.0, 1487.0, 1488.0, 1488.0, 1488.0, 1488.0, 1489.0, 1488.0, 1489.0, 1488.0, 1488.0, 1489.0, 1488.0, 1487.0, 1487.0, 1487.0, 1488.0, 1487.0, 1488.0, 1488.0, 1488.0, 1488.0, 1487.0, 1487.0, 1488.0, 1487.0, 1487.0, 1488.0, 1487.0, 1487.0, 1488.0, 1487.0, 1487.0, 1487.0, 1487.0],
      "WindowWidth": [3387.0, 3386.0, 3386.0, 3386.0, 3386.0, 3385.0, 3385.0, 3386.0, 3386.0, 3386.0, 3386.0, 3386.0, 3386.0, 3385.0, 3386.0, 3386.0, 3385.0, 3386.0, 3386.0, 3385.0, 3386.0, 3386.0, 3385.0, 3385.0, 3385.0, 3385.0, 3385.0, 3385.0, 3385.0, 3385.0, 3385.0, 3385.0, 3385.0, 3385.0, 3385.0, 3385.0, 3385.0, 3385.0, 3385.0, 3385.0, 3385.0, 3384.0, 3384.0, 3385.0, 3385.0, 3385.0, 3384.0, 3384.0, 3384.0, 3384.0, 3384.0, 3384.0, 3384.0, 3383.0, 3384.0, 3383.0, 3383.0, 3384.0, 3384.0, 3384.0, 3384.0, 3383.0, 3384.0, 3384.0, 3384.0, 3383.0, 3384.0, 3383.0, 3383.0, 3383.0, 3383.0, 3383.0, 3383.0, 3383.0, 3383.0, 3383.0, 3383.0, 3382.0, 3382.0, 3383.0, 3383.0, 3383.0, 3382.0, 3383.0, 3383.0, 3382.0, 3383.0, 3383.0, 3382.0, 3383.0, 3382.0, 3383.0, 3383.0, 3383.0, 3383.0, 3383.0, 3383.0, 3383.0, 3383.0, 3383.0, 3383.0, 3383.0, 3382.0, 3383.0, 3383.0, 3382.0, 3383.0, 3382.0, 3382.0, 3383.0, 3383.0, 3382.0, 3382.0, 3381.0, 3382.0, 3382.0, 3382.0, 3382.0, 3382.0, 3382.0, 3382.0, 3382.0, 3382.0, 3382.0, 3382.0, 3382.0, 3382.0, 3382.0, 3381.0, 3381.0, 3382.0, 3382.0, 3382.0, 3382.0, 3382.0, 3382.0, 3382.0, 3382.0, 3381.0, 3382.0, 3382.0, 3382.0, 3381.0, 3382.0, 3382.0, 3382.0, 3382.0, 3382.0, 3381.0, 3382.0, 3381.0, 3382.0, 3381.0, 3381.0, 3381.0, 3381.0, 3382.0, 3381.0, 3382.0, 3381.0, 3381.0, 3381.0, 3381.0, 3381.0, 3381.0, 3381.0, 3382.0, 3381.0, 3381.0, 3381.0, 3381.0, 3381.0, 3381.0, 3381.0, 3380.0, 3381.0, 3381.0, 3380.0, 3381.0, 3381.0, 3381.0, 3381.0, 3381.0, 3381.0, 3381.0, 3380.0, 3380.0, 3380.0, 3380.0, 3380.0, 3380.0, 3381.0, 3380.0, 3381.0, 3381.0, 3380.0, 3380.0, 3380.0, 3381.0, 3380.0]
    },
    "slices": {}
  }
}