{
  "AcquisitionMatrixPE": 122,
  "AcquisitionNumber": 1,
  "AcquisitionTime": "10:41:12.067500",
  "BandwidthPerPixelPhaseEncode": 28.76,
  "BaseResolution": 122,
  "BodyPartExamined": "BRAIN",
  "CoilCombinationMethod": "Adaptive Combine",
  "ConsistencyInfo": "N4_VE11C_LATEST_20160120",
  "ConversionSoftware": "dcm2niix",
  "ConversionSoftwareVersion": "v1.0.20220720",
  "DerivedVendorReportedEchoSpacing": 0.000570008,
  "DeviceSerialNumber": "66112",
  "DiffusionScheme": "Monopolar",
  "DwellTime": 2e-06,
  "EchoTime": 0.075,
  "EchoTrainLength": 61,
  "EffectiveEchoSpacing": 0.000285004,
  "FlipAngle": 90,
  "HeudiconvVersion": "0.13.1",
  "ImageOrientationPatientDICOM": [0.988339, 0.1521, 0.00721166, -0.147003, 0.940727, 0.305651],
  "ImageOrientationText": "Tra>Cor(17.7)>Sag(-2.3)",
  "ImageType": [
    "ORIGINAL",
    "PRIMARY",
    "DIFFUSION",
    "NONE",
    "ND",
    "NORM"
],
  "ImagingFrequency": 123.252,
  "InPlanePhaseEncodingDirectionDICOM": "COL",
  "InstitutionAddress": "Maynard 3,Hanover,NH,US,03755",
  "InstitutionName": "Dartmouth College - PBS",
  "InstitutionalDepartmentName": "Department",
  "MRAcquisitionType": "2D",
  "MagneticFieldStrength": 3,
  "Manufacturer": "Siemens",
  "ManufacturersModelName": "Prisma",
  "MatrixCoilMode": "GRAPPA",
  "Modality": "MR",
  "NonlinearGradientCorrection": false,
  "ParallelReductionFactorInPlane": 2,
  "PartialFourier": 1,
  "PatientPosition": "HFS",
  "PercentPhaseFOV": 100,
  "PercentSampling": 100,
  "PhaseEncodingDirection": "j-",
  "PhaseEncodingSteps": 122,
  "PhaseResolution": 1,
  "PixelBandwidth": 2050,
  "ProcedureStepDescription": "dbic^QA",
  "ProtocolName": "dwi_acq-DTI-30-p2",
  "PulseSequenceDetails": "%SiemensSeq%\\ep2d_diff",
  "ReceiveCoilActiveElements": "HEA;HEP",
  "ReceiveCoilName": "Head_32",
  "ReconMatrixPE": 122,
  "RefLinesPE": 38,
  "RepetitionTime": 7.7,
  "SAR": 0.0869472,
  "ScanOptions": "FS",
  "ScanningSequence": "EP",
  "SequenceName": "*ep_b0",
  "SequenceVariant": "SK\\SP",
  "SeriesDescription": "dwi_acq-DTI-30-p2",
  "SeriesNumber": 12,
  "ShimSetting": [4141, -7700, -7521, 254, -50, -114, -80, 63],
  "SliceThickness": 2,
  "SliceTiming": [3.84375, 0, 3.95312, 0.10938, 4.0625, 0.21875, 4.17188, 0.32812, 4.28125, 0.4375, 4.39062, 0.55469, 4.5, 0.66406, 4.60938, 0.76562, 4.71875, 0.875, 4.82812, 0.99219, 4.9375, 1.10156, 5.04688, 1.21094, 5.15625, 1.32031, 5.26562, 1.42969, 5.375, 1.53906, 5.48438, 1.64844, 5.59375, 1.75781, 5.70312, 1.86719, 5.8125, 1.97656, 5.92969, 2.08594, 6.03906, 2.19531, 6.14844, 2.30469, 6.25781, 2.41406, 6.36719, 2.52344, 6.47656, 2.63281, 6.58594, 2.74219, 6.69531, 2.85156, 6.80469, 2.96094, 6.91406, 3.07031, 7.02344, 3.17969, 7.13281, 3.29688, 7.24219, 3.40625, 7.35156, 3.51562, 7.46094, 3.61719, 7.57031, 3.73438],
  "SoftwareVersions": "syngo MR E11",
  "SpacingBetweenSlices": 2,
  "SpoilingState": true,
  "StationName": "AWP66112",
  "TotalReadoutTime": 0.0344855,
  "TxRefAmp": 220.359,
  "dcmmeta_affine": [
    [-1.9442731142044067, -0.2891859710216522, -0.07941055297851562, 140.44509887695312],
    [-0.29921266436576843, 1.8506107330322266, 0.6062946319580078, -116.77039337158203],
    [0.014186878688633442, -0.6012811660766602, 1.9042320251464844, -35.35169219970703],
    [0.0, 0.0, 0.0, 1.0]
],
  "dcmmeta_reorient_transform": [
    [0.0, -1.0, 0.0, 121.0],
    [1.0, 0.0, 0.0, 0.0],
    [0.0, 0.0, -1.0, 69.0],
    [0.0, 0.0, 0.0, 1.0]
],
  "dcmmeta_shape": [122, 122, 70, 31],
  "dcmmeta_slice_dim": 2,
  "dcmmeta_version": 0.6,
  "global": {
    "const": {
      "AccessionNumber": "qa",
      "AcquisitionMatrix": [122, 0, 0, 122],
      "AngioFlag": "N",
      "BitsAllocated": 16,
      "BitsStored": 12,
      "BodyPartExamined": "BRAIN",
      "Columns": 122,
      "EchoNumbers": 1,
      "EchoTime": 75.0,
      "EchoTrainLength": 61,
      "FlipAngle": 90.0,
      "HighBit": 11,
      "ImageOrientationPatient": [0.9883388338294, 0.15209977468329, 0.00721166319511, -0.1470028587523, 0.94072710165385, 0.3056512387225],
      "ImageType": [
        "ORIGINAL",
        "PRIMARY",
        "DIFFUSION",
        "NONE",
        "ND",
        "NORM"
],
      "ImagedNucleus": "1H",
      "ImagingFrequency": 123.252369,
      "InPlanePhaseEncodingDirection": "COL",
      "MRAcquisitionType": "2D",
      "MagneticFieldStrength": 3.0,
      "Manufacturer": "SIEMENS",
      "ManufacturerModelName": "Prisma",
      "Modality": "MR",
      "NumberOfAverages": 1.0,
      "NumberOfPhaseEncodingSteps": 122,
      "PercentPhaseFieldOfView": 100.0,
      "PercentSampling": 100.0,
      "PerformedProcedureStepStartTime": "100455.421000",
      "PhotometricInterpretation": "MONOCHROME2",
      "PixelBandwidth": 2050.0,
      "PixelRepresentation": 0,
      "PixelSpacing": [1.9672131538391, 1.9672131538391],
      "ProtocolName": "dwi_acq-DTI-30-p2",
      "RepetitionTime": 7700.0,
      "Rows": 122,
      "SAR": 0.08694718330643,
      "SamplesPerPixel": 1,
      "ScanOptions": "FS",
      "ScanningSequence": "EP",
      "SequenceVariant": [
        "SK",
        "SP"
],
      "SeriesDescription": "dwi_acq-DTI-30-p2",
      "SeriesNumber": 12,
      "SeriesTime": "104122.810000",
      "SliceThickness": 2.0,
      "SmallestImagePixelValue": 0,
      "SoftwareVersions": "syngo MR E11",
      "SpacingBetweenSlices": 2.0,
      "SpecificCharacterSet": "ISO_IR 100",
      "StudyID": "28",
      "StudyTime": "100455.369000",
      "TransmitCoilName": "Body",
      "VariableFlipAngleFlag": "N",
      "WindowCenterWidthExplanation": "Algo1",
      "dBdt": 0.0},
    "slices": {
      "AcquisitionTime": ["104112.067500", "104108.227500", "104112.177500", "104108.337500", "104112.287500", "104108.447500", "104112.397500", "104108.557500", "104112.507500", "104108.667500", "104112.617500", "104108.777500", "104112.727500", "104108.887500", "104112.835000", "104108.995000", "104112.945000", "104109.105000", "104113.055000", "104109.215000", "104113.165000", "104109.325000", "104113.275000", "104109.435000", "104113.385000", "104109.545000", "104113.495000", "104109.655000", "104113.605000", "104109.765000", "104113.712500", "104109.875000", "104113.822500", "104109.982500", "104113.932500", "104110.092500", "104114.042500", "104110.202500", "104114.152500", "104110.312500", "104114.262500", "104110.422500", "104114.372500", "104110.532500", "104114.482500", "104110.642500", "104114.592500", "104110.752500", "104114.700000", "104110.862500", "104114.810000", "104110.970000", "104114.920000", "104111.080000", "104115.030000", "104111.190000", "104115.140000", "104111.300000", "104115.250000", "104111.410000", "104115.360000", "104111.520000", "104115.470000", "104111.630000", "104115.580000", "104111.740000", "104115.687500", "104111.847500", "104115.797500", "104111.957500", "104119.767500", "104115.927500", "104119.877500", "104116.037500", "104119.987500", "104116.147500", "104120.097500", "104116.257500", "104120.207500", "104116.367500", "104120.317500", "104116.477500", "104120.427500", "104116.587500", "104120.535000", "104116.695000", "104120.645000", "104116.805000", "104120.755000", "104116.915000", "104120.865000", "104117.025000", "104120.975000", "104117.135000", "104121.085000", "104117.245000", "104121.195000", "104117.355000", "104121.305000", "104117.465000", "104121.412500", "104117.575000", "104121.522500", "104117.682500", "104121.632500", "104117.792500", "104121.742500", "104117.902500", "104121.852500", "104118.012500", "104121.962500", "104118.122500", "104122.072500", "104118.232500", "104122.182500", "104118.342500", "104122.292500", "104118.452500", "104122.400000", "104118.562500", "104122.510000", "104118.670000", "104122.620000", "104118.780000", "104122.730000", "104118.890000", "104122.840000", "104119.000000", "104122.950000", "104119.110000", "104123.060000", "104119.220000", "104123.170000", "104119.330000", "104123.280000", "104119.440000", "104123.387500", "104119.547500", "104123.497500", "104119.657500", "104127.467500", "104123.627500", "104127.577500", "104123.737500", "104127.687500", "104123.847500", "104127.797500", "104123.957500", "104127.907500", "104124.067500", "104128.017500", "104124.177500", "104128.127500", "104124.287500", "104128.235000", "104124.395000", "104128.345000", "104124.505000", "104128.455000", "104124.615000", "104128.565000", "104124.725000", "104128.675000", "104124.835000", "104128.785000", "104124.945000", "104128.895000", "104125.055000", "104129.005000", "104125.165000", "104129.112500", "104125.275000", "104129.222500", "104125.382500", "104129.332500", "104125.492500", "104129.442500", "104125.602500", "104129.552500", "104125.712500", "104129.662500", "104125.822500", "104129.772500", "104125.932500", "104129.882500", "104126.042500", "104129.992500", "104126.152500", "104130.100000", "104126.262500", "104130.210000", "104126.370000", "104130.320000", "104126.480000", "104130.430000", "104126.590000", "104130.540000", "104126.700000", "104130.650000", "104126.810000", "104130.760000", "104126.920000", "104130.870000", "104127.030000", "104130.980000", "104127.140000", "104131.087500", "104127.247500", "104131.197500", "104127.357500", "104135.167500", "104131.327500", "104135.277500", "104131.437500", "104135.387500", "104131.547500", "104135.497500", "104131.657500", "104135.607500", "104131.767500", "104135.717500", "104131.877500", "104135.827500", "104131.987500", "104135.935000", "104132.095000", "104136.045000", "104132.205000", "104136.155000", "104132.315000", "104136.265000", "104132.425000", "104136.375000", "104132.535000", "104136.485000", "104132.645000", "104136.595000", "104132.755000", "104136.705000", "104132.865000", "104136.812500", "104132.975000", "104136.922500", "104133.082500", "104137.032500", "104133.192500", "104137.142500", "104133.302500", "104137.252500", "104133.412500", "104137.362500", "104133.522500", "104137.472500", "104133.632500", "104137.582500", "104133.742500", "104137.692500", "104133.852500", "104137.800000", "104133.962500", "104137.910000", "104134.070000", "104138.020000", "104134.180000", "104138.130000", "104134.290000", "104138.240000", "104134.400000", "104138.350000", "104134.510000", "104138.460000", "104134.620000", "104138.570000", "104134.730000", "104138.680000", "104134.840000", "104138.787500", "104134.947500", "104138.897500", "104135.057500", "104142.867500", "104139.027500", "104142.977500", "104139.137500", "104143.087500", "104139.247500", "104143.197500", "104139.357500", "104143.307500", "104139.467500", "104143.417500", "104139.577500", "104143.527500", "104139.687500", "104143.635000", "104139.795000", "104143.745000", "104139.905000", "104143.855000", "104140.015000", "104143.965000", "104140.125000", "104144.075000", "104140.235000", "104144.185000", "104140.345000", "104144.295000", "104140.455000", "104144.405000", "104140.565000", "104144.512500", "104140.675000", "104144.622500", "104140.782500", "104144.732500", "104140.892500", "104144.842500", "104141.002500", "104144.952500", "104141.112500", "104145.062500", "104141.222500", "104145.172500", "104141.332500", "104145.282500", "104141.442500", "104145.392500", "104141.552500", "104145.500000", "104141.662500", "104145.610000", "104141.770000", "104145.720000", "104141.880000", "104145.830000", "104141.990000", "104145.940000", "104142.100000", "104146.050000", "104142.210000", "104146.160000", "104142.320000", "104146.270000", "104142.430000", "104146.380000", "104142.540000", "104146.487500", "104142.647500", "104146.597500", "104142.757500", "104150.567500", "104146.727500", "104150.677500", "104146.837500", "104150.787500", "104146.947500", "104150.897500", "104147.057500", "104151.007500", "104147.167500", "104151.117500", "104147.277500", "104151.227500", "104147.387500", "104151.335000", "104147.495000", "104151.445000", "104147.605000", "104151.555000", "104147.715000", "104151.665000", "104147.825000", "104151.775000", "104147.935000", "104151.885000", "104148.045000", "104151.995000", "104148.155000", "104152.105000", "104148.265000", "104152.212500", "104148.375000", "104152.322500", "104148.482500", "104152.432500", "104148.592500", "104152.542500", "104148.702500", "104152.652500", "104148.812500", "104152.762500", "104148.922500", "104152.872500", "104149.032500", "104152.982500", "104149.142500", "104153.092500", "104149.252500", "104153.200000", "104149.362500", "104153.310000", "104149.470000", "104153.420000", "104149.580000", "104153.530000", "104149.690000", "104153.640000", "104149.800000", "104153.750000", "104149.910000", "104153.860000", "104150.020000", "104153.970000", "104150.130000", "104154.080000", "104150.240000", "104154.187500", "104150.347500", "104154.297500", "104150.457500", "104158.267500", "104154.427500", "104158.377500", "104154.537500", "104158.487500", "104154.647500", "104158.597500", "104154.757500", "104158.707500", "104154.867500", "104158.817500", "104154.977500", "104158.927500", "104155.087500", "104159.035000", "104155.195000", "104159.145000", "104155.305000", "104159.255000", "104155.415000", "104159.365000", "104155.525000", "104159.475000", "104155.635000", "104159.585000", "104155.745000", "104159.695000", "104155.855000", "104159.805000", "104155.965000", "104159.912500", "104156.075000", "104200.022500", "104156.182500", "104200.132500", "104156.292500", "104200.242500", "104156.402500", "104200.352500", "104156.512500", "104200.462500", "104156.622500", "104200.572500", "104156.732500", "104200.682500", "104156.842500", "104200.792500", "104156.952500", "104200.900000", "104157.062500", "104201.010000", "104157.170000", "104201.120000", "104157.280000", "104201.230000", "104157.390000", "104201.340000", "104157.500000", "104201.450000", "104157.610000", "104201.560000", "104157.720000", "104201.670000", "104157.830000", "104201.780000", "104157.940000", "104201.887500", "104158.047500", "104201.997500", "104158.157500", "104205.967500", "104202.127500", "104206.077500", "104202.237500", "104206.187500", "104202.347500", "104206.297500", "104202.457500", "104206.407500", "104202.567500", "104206.517500", "104202.677500", "104206.627500", "104202.787500", "104206.735000", "104202.895000", "104206.845000", "104203.005000", "104206.955000", "104203.115000", "104207.065000", "104203.225000", "104207.175000", "104203.335000", "104207.285000", "104203.445000", "104207.395000", "104203.555000", "104207.505000", "104203.665000", "104207.612500", "104203.775000", "104207.722500", "104203.882500", "104207.832500", "104203.992500", "104207.942500", "104204.102500", "104208.052500", "104204.212500", "104208.162500", "104204.322500", "104208.272500", "104204.432500", "104208.382500", "104204.542500", "104208.492500", "104204.652500", "104208.600000", "104204.762500", "104208.710000", "104204.870000", "104208.820000", "104204.980000", "104208.930000", "104205.090000", "104209.040000", "104205.200000", "104209.150000", "104205.310000", "104209.260000", "104205.420000", "104209.370000", "104205.530000", "104209.480000", "104205.640000", "104209.587500", "104205.747500", "104209.697500", "104205.857500", "104213.667500", "104209.827500", "104213.777500", "104209.937500", "104213.887500", "104210.047500", "104213.997500", "104210.157500", "104214.107500", "104210.267500", "104214.217500", "104210.377500", "104214.327500", "104210.487500", "104214.435000", "104210.595000", "104214.545000", "104210.705000", "104214.655000", "104210.815000", "104214.765000", "104210.925000", "104214.875000", "104211.035000", "104214.985000", "104211.145000", "104215.095000", "104211.255000", "104215.205000", "104211.365000", "104215.312500", "104211.475000", "104215.422500", "104211.582500", "104215.532500", "104211.692500", "104215.642500", "104211.802500", "104215.752500", "104211.912500", "104215.862500", "104212.022500", "104215.972500", "104212.132500", "104216.082500", "104212.242500", "104216.192500", "104212.352500", "104216.300000", "104212.462500", "104216.410000", "104212.570000", "104216.520000", "104212.680000", "104216.630000", "104212.790000", "104216.740000", "104212.900000", "104216.850000", "104213.010000", "104216.960000", "104213.120000", "104217.070000", "104213.230000", "104217.180000", "104213.340000", "104217.287500", "104213.447500", "104217.397500", "104213.557500", "104221.367500", "104217.527500", "104221.477500", "104217.637500", "104221.587500", "104217.747500", "104221.697500", "104217.857500", "104221.807500", "104217.967500", "104221.917500", "104218.077500", "104222.027500", "104218.187500", "104222.135000", "104218.295000", "104222.245000", "104218.405000", "104222.355000", "104218.515000", "104222.465000", "104218.625000", "104222.575000", "104218.735000", "104222.685000", "104218.845000", "104222.795000", "104218.955000", "104222.905000", "104219.065000", "104223.012500", "104219.175000", "104223.122500", "104219.282500", "104223.232500", "104219.392500", "104223.342500", "104219.502500", "104223.452500", "104219.612500", "104223.562500", "104219.722500", "104223.672500", "104219.832500", "104223.782500", "104219.942500", "104223.892500", "104220.052500", "104224.000000", "104220.162500", "104224.110000", "104220.270000", "104224.220000", "104220.380000", "104224.330000", "104220.490000", "104224.440000", "104220.600000", "104224.550000", "104220.710000", "104224.660000", "104220.820000", "104224.770000", "104220.930000", "104224.880000", "104221.040000", "104224.987500", "104221.147500", "104225.097500", "104221.257500", "104229.067500", "104225.227500", "104229.177500", "104225.337500", "104229.287500", "104225.447500", "104229.397500", "104225.557500", "104229.507500", "104225.667500", "104229.617500", "104225.777500", "104229.727500", "104225.887500", "104229.835000", "104225.995000", "104229.945000", "104226.105000", "104230.055000", "104226.215000", "104230.165000", "104226.325000", "104230.275000", "104226.435000", "104230.385000", "104226.545000", "104230.495000", "104226.655000", "104230.605000", "104226.765000", "104230.712500", "104226.875000", "104230.822500", "104226.982500", "104230.932500", "104227.092500", "104231.042500", "104227.202500", "104231.152500", "104227.312500", "104231.262500", "104227.422500", "104231.372500", "104227.532500", "104231.482500", "104227.642500", "104231.592500", "104227.752500", "104231.700000", "104227.862500", "104231.810000", "104227.970000", "104231.920000", "104228.080000", "104232.030000", "104228.190000", "104232.140000", "104228.300000", "104232.250000", "104228.410000", "104232.360000", "104228.520000", "104232.470000", "104228.630000", "104232.580000", "104228.740000", "104232.687500", "104228.847500", "104232.797500", "104228.957500", "104236.767500", "104232.927500", "104236.877500", "104233.037500", "104236.987500", "104233.147500", "104237.097500", "104233.257500", "104237.207500", "104233.367500", "104237.317500", "104233.477500", "104237.427500", "104233.587500", "104237.535000", "104233.695000", "104237.645000", "104233.805000", "104237.755000", "104233.915000", "104237.865000", "104234.025000", "104237.975000", "104234.135000", "104238.085000", "104234.245000", "104238.195000", "104234.355000", "104238.305000", "104234.465000", "104238.412500", "104234.575000", "104238.522500", "104234.682500", "104238.632500", "104234.792500", "104238.742500", "104234.902500", "104238.852500", "104235.012500", "104238.962500", "104235.122500", "104239.072500", "104235.232500", "104239.182500", "104235.342500", "104239.292500", "104235.452500", "104239.400000", "104235.562500", "104239.510000", "104235.670000", "104239.620000", "104235.780000", "104239.730000", "104235.890000", "104239.840000", "104236.000000", "104239.950000", "104236.110000", "104240.060000", "104236.220000", "104240.170000", "104236.330000", "104240.280000", "104236.440000", "104240.387500", "104236.547500", "104240.497500", "104236.657500", "104244.467500", "104240.627500", "104244.577500", "104240.737500", "104244.687500", "104240.847500", "104244.797500", "104240.957500", "104244.907500", "104241.067500", "104245.017500", "104241.177500", "104245.127500", "104241.287500", "104245.235000", "104241.395000", "104245.345000", "104241.505000", "104245.455000", "104241.615000", "104245.565000", "104241.725000", "104245.675000", "104241.835000", "104245.785000", "104241.945000", "104245.895000", "104242.055000", "104246.005000", "104242.165000", "104246.112500", "104242.275000", "104246.222500", "104242.382500", "104246.332500", "104242.492500", "104246.442500", "104242.602500", "104246.552500", "104242.712500", "104246.662500", "104242.822500", "104246.772500", "104242.932500", "104246.882500", "104243.042500", "104246.992500", "104243.152500", "104247.100000", "104243.262500", "104247.210000", "104243.370000", "104247.320000", "104243.480000", "104247.430000", "104243.590000", "104247.540000", "104243.700000", "104247.650000", "104243.810000", "104247.760000", "104243.920000", "104247.870000", "104244.030000", "104247.980000", "104244.140000", "104248.087500", "104244.247500", "104248.197500", "104244.357500", "104252.167500", "104248.327500", "104252.277500", "104248.437500", "104252.387500", "104248.547500", "104252.497500", "104248.657500", "104252.607500", "104248.767500", "104252.717500", "104248.877500", "104252.827500", "104248.987500", "104252.935000", "104249.095000", "104253.045000", "104249.205000", "104253.155000", "104249.315000", "104253.265000", "104249.425000", "104253.375000", "104249.535000", "104253.485000", "104249.645000", "104253.595000", "104249.755000", "104253.705000", "104249.865000", "104253.812500", "104249.975000", "104253.922500", "104250.082500", "104254.032500", "104250.192500", "104254.142500", "104250.302500", "104254.252500", "104250.412500", "104254.362500", "104250.522500", "104254.472500", "104250.632500", "104254.582500", "104250.742500", "104254.692500", "104250.852500", "104254.800000", "104250.962500", "104254.910000", "104251.070000", "104255.020000", "104251.180000", "104255.130000", "104251.290000", "104255.240000", "104251.400000", "104255.350000", "104251.510000", "104255.460000", "104251.620000", "104255.570000", "104251.730000", "104255.680000", "104251.840000", "104255.787500", "104251.947500", "104255.897500", "104252.057500", "104259.867500", "104256.027500", "104259.977500", "104256.137500", "104300.087500", "104256.247500", "104300.197500", "104256.357500", "104300.307500", "104256.467500", "104300.417500", "104256.577500", "104300.527500", "104256.687500", "104300.635000", "104256.795000", "104300.745000", "104256.905000", "104300.855000", "104257.015000", "104300.965000", "104257.125000", "104301.075000", "104257.235000", "104301.185000", "104257.345000", "104301.295000", "104257.455000", "104301.405000", "104257.565000", "104301.512500", "104257.675000", "104301.622500", "104257.782500", "104301.732500", "104257.892500", "104301.842500", "104258.002500", "104301.952500", "104258.112500", "104302.062500", "104258.222500", "104302.172500", "104258.332500", "104302.282500", "104258.442500", "104302.392500", "104258.552500", "104302.500000", "104258.662500", "104302.610000", "104258.770000", "104302.720000", "104258.880000", "104302.830000", "104258.990000", "104302.940000", "104259.100000", "104303.050000", "104259.210000", "104303.160000", "104259.320000", "104303.270000", "104259.430000", "104303.380000", "104259.540000", "104303.487500", "104259.647500", "104303.597500", "104259.757500", "104307.567500", "104303.727500", "104307.677500", "104303.837500", "104307.787500", "104303.947500", "104307.897500", "104304.057500", "104308.007500", "104304.167500", "104308.117500", "104304.277500", "104308.227500", "104304.387500", "104308.335000", "104304.495000", "104308.445000", "104304.605000", "104308.555000", "104304.715000", "104308.665000", "104304.825000", "104308.775000", "104304.935000", "104308.885000", "104305.045000", "104308.995000", "104305.155000", "104309.105000", "104305.265000", "104309.212500", "104305.375000", "104309.322500", "104305.482500", "104309.432500", "104305.592500", "104309.542500", "104305.702500", "104309.652500", "104305.812500", "104309.762500", "104305.922500", "104309.872500", "104306.032500", "104309.982500", "104306.142500", "104310.092500", "104306.252500", "104310.200000", "104306.362500", "104310.310000", "104306.470000", "104310.420000", "104306.580000", "104310.530000", "104306.690000", "104310.640000", "104306.800000", "104310.750000", "104306.910000", "104310.860000", "104307.020000", "104310.970000", "104307.130000", "104311.080000", "104307.240000", "104311.187500", "104307.347500", "104311.297500", "104307.457500", "104315.267500", "104311.427500", "104315.377500", "104311.537500", "104315.487500", "104311.647500", "104315.597500", "104311.757500", "104315.707500", "104311.867500", "104315.817500", "104311.977500", "104315.927500", "104312.087500", "104316.035000", "104312.195000", "104316.145000", "104312.305000", "104316.255000", "104312.415000", "104316.365000", "104312.525000", "104316.475000", "104312.635000", "104316.585000", "104312.745000", "104316.695000", "104312.855000", "104316.805000", "104312.965000", "104316.912500", "104313.075000", "104317.022500", "104313.182500", "104317.132500", "104313.292500", "104317.242500", "104313.402500", "104317.352500", "104313.512500", "104317.462500", "104313.622500", "104317.572500", "104313.732500", "104317.682500", "104313.842500", "104317.792500", "104313.952500", "104317.900000", "104314.062500", "104318.010000", "104314.170000", "104318.120000", "104314.280000", "104318.230000", "104314.390000", "104318.340000", "104314.500000", "104318.450000", "104314.610000", "104318.560000", "104314.720000", "104318.670000", "104314.830000", "104318.780000", "104314.940000", "104318.887500", "104315.047500", "104318.997500", "104315.157500", "104322.967500", "104319.127500", "104323.077500", "104319.237500", "104323.187500", "104319.347500", "104323.297500", "104319.457500", "104323.407500", "104319.567500", "104323.517500", "104319.677500", "104323.627500", "104319.787500", "104323.735000", "104319.895000", "104323.845000", "104320.005000", "104323.955000", "104320.115000", "104324.065000", "104320.225000", "104324.175000", "104320.335000", "104324.285000", "104320.445000", "104324.395000", "104320.555000", "104324.505000", "104320.665000", "104324.612500", "104320.775000", "104324.722500", "104320.882500", "104324.832500", "104320.992500", "104324.942500", "104321.102500", "104325.052500", "104321.212500", "104325.162500", "104321.322500", "104325.272500", "104321.432500", "104325.382500", "104321.542500", "104325.492500", "104321.652500", "104325.600000", "104321.762500", "104325.710000", "104321.870000", "104325.820000", "104321.980000", "104325.930000", "104322.090000", "104326.040000", "104322.200000", "104326.150000", "104322.310000", "104326.260000", "104322.420000", "104326.370000", "104322.530000", "104326.480000", "104322.640000", "104326.587500", "104322.747500", "104326.697500", "104322.857500", "104330.667500", "104326.827500", "104330.777500", "104326.937500", "104330.887500", "104327.047500", "104330.997500", "104327.157500", "104331.107500", "104327.267500", "104331.217500", "104327.377500", "104331.327500", "104327.487500", "104331.435000", "104327.595000", "104331.545000", "104327.705000", "104331.655000", "104327.815000", "104331.765000", "104327.925000", "104331.875000", "104328.035000", "104331.985000", "104328.145000", "104332.095000", "104328.255000", "104332.205000", "104328.365000", "104332.312500", "104328.475000", "104332.422500", "104328.582500", "104332.532500", "104328.692500", "104332.642500", "104328.802500", "104332.752500", "104328.912500", "104332.862500", "104329.022500", "104332.972500", "104329.132500", "104333.082500", "104329.242500", "104333.192500", "104329.352500", "104333.300000", "104329.462500", "104333.410000", "104329.570000", "104333.520000", "104329.680000", "104333.630000", "104329.790000", "104333.740000", "104329.900000", "104333.850000", "104330.010000", "104333.960000", "104330.120000", "104334.070000", "104330.230000", "104334.180000", "104330.340000", "104334.287500", "104330.447500", "104334.397500", "104330.557500", "104338.367500", "104334.527500", "104338.477500", "104334.637500", "104338.587500", "104334.747500", "104338.697500", "104334.857500", "104338.807500", "104334.967500", "104338.917500", "104335.077500", "104339.027500", "104335.187500", "104339.135000", "104335.295000", "104339.245000", "104335.405000", "104339.355000", "104335.515000", "104339.465000", "104335.625000", "104339.575000", "104335.735000", "104339.685000", "104335.845000", "104339.795000", "104335.955000", "104339.905000", "104336.065000", "104340.012500", "104336.175000", "104340.122500", "104336.282500", "104340.232500", "104336.392500", "104340.342500", "104336.502500", "104340.452500", "104336.612500", "104340.562500", "104336.722500", "104340.672500", "104336.832500", "104340.782500", "104336.942500", "104340.892500", "104337.052500", "104341.000000", "104337.162500", "104341.110000", "104337.270000", "104341.220000", "104337.380000", "104341.330000", "104337.490000", "104341.440000", "104337.600000", "104341.550000", "104337.710000", "104341.660000", "104337.820000", "104341.770000", "104337.930000", "104341.880000", "104338.040000", "104341.987500", "104338.147500", "104342.097500", "104338.257500", "104346.067500", "104342.227500", "104346.177500", "104342.337500", "104346.287500", "104342.447500", "104346.397500", "104342.557500", "104346.507500", "104342.667500", "104346.617500", "104342.777500", "104346.727500", "104342.887500", "104346.835000", "104342.995000", "104346.945000", "104343.105000", "104347.055000", "104343.215000", "104347.165000", "104343.325000", "104347.275000", "104343.435000", "104347.385000", "104343.545000", "104347.495000", "104343.655000", "104347.605000", "104343.765000", "104347.712500", "104343.875000", "104347.822500", "104343.982500", "104347.93