{
  "AcquisitionMatrixPE": 122,
  "AcquisitionNumber": 1,
  "AcquisitionTime": "10:45:31.462500",
  "BandwidthPerPixelPhaseEncode": 27.785,
  "BaseResolution": 122,
  "BodyPartExamined": "BRAIN",
  "CoilCombinationMethod": "Adaptive Combine",
  "ConsistencyInfo": "N4_VE11C_LATEST_20160120",
  "ConversionSoftware": "dcm2niix",
  "ConversionSoftwareVersion": "v1.0.20220720",
  "DerivedVendorReportedEchoSpacing": 0.000590011,
  "DeviceSerialNumber": "66112",
  "DiffusionScheme": "Monopolar",
  "DwellTime": 2e-06,
  "EchoTime": 0.068,
  "EchoTrainLength": 61,
  "EffectiveEchoSpacing": 0.000295005,
  "FlipAngle": 90,
  "HeudiconvVersion": "0.13.1",
  "ImageOrientationPatientDICOM": [0.988339, 0.1521, 0.00721166, -0.147003, 0.940727, 0.305651],
  "ImageOrientationText": "Tra>Cor(17.7)>Sag(-2.3)",
  "ImageType": [
    "ORIGINAL",
    "PRIMARY",
    "DIFFUSION",
    "NONE",
    "ND",
    "NORM"
],
  "ImagingFrequency": 123.252,
  "InPlanePhaseEncodingDirectionDICOM": "COL",
  "InstitutionAddress": "Maynard 3,Hanover,NH,US,03755",
  "InstitutionName": "Dartmouth College - PBS",
  "InstitutionalDepartmentName": "Department",
  "MRAcquisitionType": "2D",
  "MagneticFieldStrength": 3,
  "Manufacturer": "Siemens",
  "ManufacturersModelName": "Prisma",
  "Modality": "MR",
  "MultibandAccelerationFactor": 4,
  "NonlinearGradientCorrection": false,
  "ParallelReductionFactorInPlane": 2,
  "PartialFourier": 1,
  "PatientPosition": "HFS",
  "PercentPhaseFOV": 100,
  "PercentSampling": 100,
  "PhaseEncodingDirection": "j-",
  "PhaseEncodingSteps": 122,
  "PhaseResolution": 1,
  "PixelBandwidth": 2050,
  "ProcedureStepDescription": "dbic^QA",
  "ProtocolName": "dwi_acq-DTI-30-p2-s4",
  "PulseSequenceDetails": "%SiemensSeq%\\ep2d_diff",
  "ReceiveCoilActiveElements": "HEA;HEP",
  "ReceiveCoilName": "Head_32",
  "ReconMatrixPE": 122,
  "RefLinesPE": 38,
  "RepetitionTime": 3.6,
  "SAR": 0.136112,
  "ScanOptions": "FS",
  "ScanningSequence": "EP",
  "SequenceName": "*ep_b0",
  "SequenceVariant": "SK\\SP",
  "SeriesDescription": "dwi_acq-DTI-30-p2-s4",
  "SeriesNumber": 13,
  "ShimSetting": [4141, -7700, -7521, 253, -51, -113, -79, 63],
  "SliceThickness": 2,
  "SliceTiming": [2.58594, 0, 1.78906, 0.20312, 1.99219, 0.39844, 2.1875, 0.60156, 2.39062, 1, 2.78906, 1.19531, 2.98438, 1.39844, 3.1875, 1.59375, 3.38281, 0.79688, 2.58594, 0, 1.78906, 0.20312, 1.99219, 0.39844, 2.1875, 0.60156, 2.39062, 1, 2.78906, 1.19531, 2.98438, 1.39844, 3.1875, 1.59375, 3.38281, 0.79688, 2.58594, 0, 1.78906, 0.20312, 1.99219, 0.39844, 2.1875, 0.60156, 2.39062, 1, 2.78906, 1.19531, 2.98438, 1.39844, 3.1875, 1.59375, 3.38281, 0.79688, 2.58594, 0, 1.78906, 0.20312, 1.99219, 0.39844, 2.1875, 0.60156, 2.39062, 1, 2.78906, 1.19531, 2.98438, 1.39844, 3.1875, 1.59375, 3.38281, 0.79688],
  "SoftwareVersions": "syngo MR E11",
  "SpacingBetweenSlices": 2,
  "SpoilingState": true,
  "StationName": "AWP66112",
  "TotalReadoutTime": 0.0356956,
  "TxRefAmp": 220.359,
  "dcmmeta_affine": [
    [-1.9442731142044067, -0.2891859710216522, -0.07941049337387085, 140.52450561523438],
    [-0.29921266436576843, 1.8506107330322266, 0.606292724609375, -117.37655639648438],
    [0.014186878688633442, -0.6012811660766602, 1.9042320251464844, -37.255924224853516],
    [0.0, 0.0, 0.0, 1.0]
],
  "dcmmeta_reorient_transform": [
    [0.0, -1.0, 0.0, 121.0],
    [1.0, 0.0, 0.0, 0.0],
    [0.0, 0.0, -1.0, 71.0],
    [0.0, 0.0, 0.0, 1.0]
],
  "dcmmeta_shape": [122, 122, 72, 31],
  "dcmmeta_slice_dim": 2,
  "dcmmeta_version": 0.6,
  "global": {
    "const": {
      "AccessionNumber": "qa",
      "AcquisitionMatrix": [122, 0, 0, 122],
      "AngioFlag": "N",
      "BitsAllocated": 16,
      "BitsStored": 12,
      "BodyPartExamined": "BRAIN",
      "Columns": 122,
      "EchoNumbers": 1,
      "EchoTime": 68.0,
      "EchoTrainLength": 61,
      "FlipAngle": 90.0,
      "HighBit": 11,
      "ImageOrientationPatient": [0.9883388338294, 0.15209977468329, 0.00721166319511, -0.1470028587523, 0.94072710165385, 0.3056512387225],
      "ImageType": [
        "ORIGINAL",
        "PRIMARY",
        "DIFFUSION",
        "NONE",
        "ND",
        "NORM"
],
      "ImagedNucleus": "1H",
      "ImagingFrequency": 123.25237,
      "InPlanePhaseEncodingDirection": "COL",
      "MRAcquisitionType": "2D",
      "MagneticFieldStrength": 3.0,
      "Manufacturer": "SIEMENS",
      "ManufacturerModelName": "Prisma",
      "Modality": "MR",
      "NumberOfAverages": 1.0,
      "NumberOfPhaseEncodingSteps": 122,
      "PercentPhaseFieldOfView": 100.0,
      "PercentSampling": 100.0,
      "PerformedProcedureStepStartTime": "100455.421000",
      "PhotometricInterpretation": "MONOCHROME2",
      "PixelBandwidth": 2050.0,
      "PixelRepresentation": 0,
      "PixelSpacing": [1.9672131538391, 1.9672131538391],
      "ProtocolName": "dwi_acq-DTI-30-p2-s4",
      "RepetitionTime": 3600.0,
      "Rows": 122,
      "SAR": 0.13611152603228,
      "SamplesPerPixel": 1,
      "ScanOptions": "FS",
      "ScanningSequence": "EP",
      "SequenceVariant": [
        "SK",
        "SP"
],
      "SeriesDescription": "dwi_acq-DTI-30-p2-s4",
      "SeriesNumber": 13,
      "SeriesTime": "104540.127000",
      "SliceThickness": 2.0,
      "SmallestImagePixelValue": 0,
      "SoftwareVersions": "syngo MR E11",
      "SpacingBetweenSlices": 2.0,
      "SpecificCharacterSet": "ISO_IR 100",
      "StudyID": "28",
      "StudyTime": "100455.369000",
      "TransmitCoilName": "Body",
      "VariableFlipAngleFlag": "N",
      "WindowCenterWidthExplanation": "Algo1",
      "dBdt": 0.0},
    "slices": {
      "AcquisitionTime": ["104531.462500", "104528.877500", "104530.667500", "104529.077500", "104530.867500", "104529.275000", "104531.065000", "104529.475000", "104531.265000", "104529.872500", "104531.662500", "104530.070000", "104531.860000", "104530.270000", "104532.060000", "104530.470000", "104532.257500", "104529.672500", "104531.462500", "104528.877500", "104530.667500", "104529.077500", "104530.867500", "104529.275000", "104531.065000", "104529.475000", "104531.265000", "104529.872500", "104531.662500", "104530.070000", "104531.860000", "104530.270000", "104532.060000", "104530.470000", "104532.257500", "104529.672500", "104531.462500", "104528.877500", "104530.667500", "104529.077500", "104530.867500", "104529.275000", "104531.065000", "104529.475000", "104531.265000", "104529.872500", "104531.662500", "104530.070000", "104531.860000", "104530.270000", "104532.060000", "104530.470000", "104532.257500", "104529.672500", "104531.462500", "104528.877500", "104530.667500", "104529.077500", "104530.867500", "104529.275000", "104531.065000", "104529.475000", "104531.265000", "104529.872500", "104531.662500", "104530.070000", "104531.860000", "104530.270000", "104532.060000", "104530.470000", "104532.257500", "104529.672500", "104535.062500", "104532.477500", "104534.267500", "104532.677500", "104534.467500", "104532.875000", "104534.665000", "104533.075000", "104534.865000", "104533.472500", "104535.262500", "104533.670000", "104535.460000", "104533.870000", "104535.660000", "104534.070000", "104535.857500", "104533.272500", "104535.062500", "104532.477500", "104534.267500", "104532.677500", "104534.467500", "104532.875000", "104534.665000", "104533.075000", "104534.865000", "104533.472500", "104535.262500", "104533.670000", "104535.460000", "104533.870000", "104535.660000", "104534.070000", "104535.857500", "104533.272500", "104535.062500", "104532.477500", "104534.267500", "104532.677500", "104534.467500", "104532.875000", "104534.665000", "104533.075000", "104534.865000", "104533.472500", "104535.262500", "104533.670000", "104535.460000", "104533.870000", "104535.660000", "104534.070000", "104535.857500", "104533.272500", "104535.062500", "104532.477500", "104534.267500", "104532.677500", "104534.467500", "104532.875000", "104534.665000", "104533.075000", "104534.865000", "104533.472500", "104535.262500", "104533.670000", "104535.460000", "104533.870000", "104535.660000", "104534.070000", "104535.857500", "104533.272500", "104538.662500", "104536.077500", "104537.867500", "104536.277500", "104538.067500", "104536.475000", "104538.265000", "104536.675000", "104538.465000", "104537.072500", "104538.862500", "104537.270000", "104539.060000", "104537.470000", "104539.260000", "104537.670000", "104539.457500", "104536.872500", "104538.662500", "104536.077500", "104537.867500", "104536.277500", "104538.067500", "104536.475000", "104538.265000", "104536.675000", "104538.465000", "104537.072500", "104538.862500", "104537.270000", "104539.060000", "104537.470000", "104539.260000", "104537.670000", "104539.457500", "104536.872500", "104538.662500", "104536.077500", "104537.867500", "104536.277500", "104538.067500", "104536.475000", "104538.265000", "104536.675000", "104538.465000", "104537.072500", "104538.862500", "104537.270000", "104539.060000", "104537.470000", "104539.260000", "104537.670000", "104539.457500", "104536.872500", "104538.662500", "104536.077500", "104537.867500", "104536.277500", "104538.067500", "104536.475000", "104538.265000", "104536.675000", "104538.465000", "104537.072500", "104538.862500", "104537.270000", "104539.060000", "104537.470000", "104539.260000", "104537.670000", "104539.457500", "104536.872500", "104542.262500", "104539.677500", "104541.467500", "104539.877500", "104541.667500", "104540.075000", "104541.865000", "104540.275000", "104542.065000", "104540.672500", "104542.462500", "104540.870000", "104542.660000", "104541.070000", "104542.860000", "104541.270000", "104543.057500", "104540.472500", "104542.262500", "104539.677500", "104541.467500", "104539.877500", "104541.667500", "104540.075000", "104541.865000", "104540.275000", "104542.065000", "104540.672500", "104542.462500", "104540.870000", "104542.660000", "104541.070000", "104542.860000", "104541.270000", "104543.057500", "104540.472500", "104542.262500", "104539.677500", "104541.467500", "104539.877500", "104541.667500", "104540.075000", "104541.865000", "104540.275000", "104542.065000", "104540.672500", "104542.462500", "104540.870000", "104542.660000", "104541.070000", "104542.860000", "104541.270000", "104543.057500", "104540.472500", "104542.262500", "104539.677500", "104541.467500", "104539.877500", "104541.667500", "104540.075000", "104541.865000", "104540.275000", "104542.065000", "104540.672500", "104542.462500", "104540.870000", "104542.660000", "104541.070000", "104542.860000", "104541.270000", "104543.057500", "104540.472500", "104545.862500", "104543.277500", "104545.067500", "104543.477500", "104545.267500", "104543.675000", "104545.465000", "104543.875000", "104545.665000", "104544.272500", "104546.062500", "104544.470000", "104546.260000", "104544.670000", "104546.460000", "104544.870000", "104546.657500", "104544.072500", "104545.862500", "104543.277500", "104545.067500", "104543.477500", "104545.267500", "104543.675000", "104545.465000", "104543.875000", "104545.665000", "104544.272500", "104546.062500", "104544.470000", "104546.260000", "104544.670000", "104546.460000", "104544.870000", "104546.657500", "104544.072500", "104545.862500", "104543.277500", "104545.067500", "104543.477500", "104545.267500", "104543.675000", "104545.465000", "104543.875000", "104545.665000", "104544.272500", "104546.062500", "104544.470000", "104546.260000", "104544.670000", "104546.460000", "104544.870000", "104546.657500", "104544.072500", "104545.862500", "104543.277500", "104545.067500", "104543.477500", "104545.267500", "104543.675000", "104545.465000", "104543.875000", "104545.665000", "104544.272500", "104546.062500", "104544.470000", "104546.260000", "104544.670000", "104546.460000", "104544.870000", "104546.657500", "104544.072500", "104549.462500", "104546.877500", "104548.667500", "104547.077500", "104548.867500", "104547.275000", "104549.065000", "104547.475000", "104549.265000", "104547.872500", "104549.662500", "104548.070000", "104549.860000", "104548.270000", "104550.060000", "104548.470000", "104550.257500", "104547.672500", "104549.462500", "104546.877500", "104548.667500", "104547.077500", "104548.867500", "104547.275000", "104549.065000", "104547.475000", "104549.265000", "104547.872500", "104549.662500", "104548.070000", "104549.860000", "104548.270000", "104550.060000", "104548.470000", "104550.257500", "104547.672500", "104549.462500", "104546.877500", "104548.667500", "104547.077500", "104548.867500", "104547.275000", "104549.065000", "104547.475000", "104549.265000", "104547.872500", "104549.662500", "104548.070000", "104549.860000", "104548.270000", "104550.060000", "104548.470000", "104550.257500", "104547.672500", "104549.462500", "104546.877500", "104548.667500", "104547.077500", "104548.867500", "104547.275000", "104549.065000", "104547.475000", "104549.265000", "104547.872500", "104549.662500", "104548.070000", "104549.860000", "104548.270000", "104550.060000", "104548.470000", "104550.257500", "104547.672500", "104553.062500", "104550.477500", "104552.267500", "104550.677500", "104552.467500", "104550.875000", "104552.665000", "104551.075000", "104552.865000", "104551.472500", "104553.262500", "104551.670000", "104553.460000", "104551.870000", "104553.660000", "104552.070000", "104553.857500", "104551.272500", "104553.062500", "104550.477500", "104552.267500", "104550.677500", "104552.467500", "104550.875000", "104552.665000", "104551.075000", "104552.865000", "104551.472500", "104553.262500", "104551.670000", "104553.460000", "104551.870000", "104553.660000", "104552.070000", "104553.857500", "104551.272500", "104553.062500", "104550.477500", "104552.267500", "104550.677500", "104552.467500", "104550.875000", "104552.665000", "104551.075000", "104552.865000", "104551.472500", "104553.262500", "104551.670000", "104553.460000", "104551.870000", "104553.660000", "104552.070000", "104553.857500", "104551.272500", "104553.062500", "104550.477500", "104552.267500", "104550.677500", "104552.467500", "104550.875000", "104552.665000", "104551.075000", "104552.865000", "104551.472500", "104553.262500", "104551.670000", "104553.460000", "104551.870000", "104553.660000", "104552.070000", "104553.857500", "104551.272500", "104556.662500", "104554.077500", "104555.867500", "104554.277500", "104556.067500", "104554.475000", "104556.265000", "104554.675000", "104556.465000", "104555.072500", "104556.862500", "104555.270000", "104557.060000", "104555.470000", "104557.260000", "104555.670000", "104557.457500", "104554.872500", "104556.662500", "104554.077500", "104555.867500", "104554.277500", "104556.067500", "104554.475000", "104556.265000", "104554.675000", "104556.465000", "104555.072500", "104556.862500", "104555.270000", "104557.060000", "104555.470000", "104557.260000", "104555.670000", "104557.457500", "104554.872500", "104556.662500", "104554.077500", "104555.867500", "104554.277500", "104556.067500", "104554.475000", "104556.265000", "104554.675000", "104556.465000", "104555.072500", "104556.862500", "104555.270000", "104557.060000", "104555.470000", "104557.260000", "104555.670000", "104557.457500", "104554.872500", "104556.662500", "104554.077500", "104555.867500", "104554.277500", "104556.067500", "104554.475000", "104556.265000", "104554.675000", "104556.465000", "104555.072500", "104556.862500", "104555.270000", "104557.060000", "104555.470000", "104557.260000", "104555.670000", "104557.457500", "104554.872500", "104600.262500", "104557.677500", "104559.467500", "104557.877500", "104559.667500", "104558.075000", "104559.865000", "104558.275000", "104600.065000", "104558.672500", "104600.462500", "104558.870000", "104600.660000", "104559.070000", "104600.860000", "104559.270000", "104601.057500", "104558.472500", "104600.262500", "104557.677500", "104559.467500", "104557.877500", "104559.667500", "104558.075000", "104559.865000", "104558.275000", "104600.065000", "104558.672500", "104600.462500", "104558.870000", "104600.660000", "104559.070000", "104600.860000", "104559.270000", "104601.057500", "104558.472500", "104600.262500", "104557.677500", "104559.467500", "104557.877500", "104559.667500", "104558.075000", "104559.865000", "104558.275000", "104600.065000", "104558.672500", "104600.462500", "104558.870000", "104600.660000", "104559.070000", "104600.860000", "104559.270000", "104601.057500", "104558.472500", "104600.262500", "104557.677500", "104559.467500", "104557.877500", "104559.667500", "104558.075000", "104559.865000", "104558.275000", "104600.065000", "104558.672500", "104600.462500", "104558.870000", "104600.660000", "104559.070000", "104600.860000", "104559.270000", "104601.057500", "104558.472500", "104603.862500", "104601.277500", "104603.067500", "104601.477500", "104603.267500", "104601.675000", "104603.465000", "104601.875000", "104603.665000", "104602.272500", "104604.062500", "104602.470000", "104604.260000", "104602.670000", "104604.460000", "104602.870000", "104604.657500", "104602.072500", "104603.862500", "104601.277500", "104603.067500", "104601.477500", "104603.267500", "104601.675000", "104603.465000", "104601.875000", "104603.665000", "104602.272500", "104604.062500", "104602.470000", "104604.260000", "104602.670000", "104604.460000", "104602.870000", "104604.657500", "104602.072500", "104603.862500", "104601.277500", "104603.067500", "104601.477500", "104603.267500", "104601.675000", "104603.465000", "104601.875000", "104603.665000", "104602.272500", "104604.062500", "104602.470000", "104604.260000", "104602.670000", "104604.460000", "104602.870000", "104604.657500", "104602.072500", "104603.862500", "104601.277500", "104603.067500", "104601.477500", "104603.267500", "104601.675000", "104603.465000", "104601.875000", "104603.665000", "104602.272500", "104604.062500", "104602.470000", "104604.260000", "104602.670000", "104604.460000", "104602.870000", "104604.657500", "104602.072500", "104607.462500", "104604.877500", "104606.667500", "104605.077500", "104606.867500", "104605.275000", "104607.065000", "104605.475000", "104607.265000", "104605.872500", "104607.662500", "104606.070000", "104607.860000", "104606.270000", "104608.060000", "104606.470000", "104608.257500", "104605.672500", "104607.462500", "104604.877500", "104606.667500", "104605.077500", "104606.867500", "104605.275000", "104607.065000", "104605.475000", "104607.265000", "104605.872500", "104607.662500", "104606.070000", "104607.860000", "104606.270000", "104608.060000", "104606.470000", "104608.257500", "104605.672500", "104607.462500", "104604.877500", "104606.667500", "104605.077500", "104606.867500", "104605.275000", "104607.065000", "104605.475000", "104607.265000", "104605.872500", "104607.662500", "104606.070000", "104607.860000", "104606.270000", "104608.060000", "104606.470000", "104608.257500", "104605.672500", "104607.462500", "104604.877500", "104606.667500", "104605.077500", "104606.867500", "104605.275000", "104607.065000", "104605.475000", "104607.265000", "104605.872500", "104607.662500", "104606.070000", "104607.860000", "104606.270000", "104608.060000", "104606.470000", "104608.257500", "104605.672500", "104611.062500", "104608.477500", "104610.267500", "104608.677500", "104610.467500", "104608.875000", "104610.665000", "104609.075000", "104610.865000", "104609.472500", "104611.262500", "104609.670000", "104611.460000", "104609.870000", "104611.660000", "104610.070000", "104611.857500", "104609.272500", "104611.062500", "104608.477500", "104610.267500", "104608.677500", "104610.467500", "104608.875000", "104610.665000", "104609.075000", "104610.865000", "104609.472500", "104611.262500", "104609.670000", "104611.460000", "104609.870000", "104611.660000", "104610.070000", "104611.857500", "104609.272500", "104611.062500", "104608.477500", "104610.267500", "104608.677500", "104610.467500", "104608.875000", "104610.665000", "104609.075000", "104610.865000", "104609.472500", "104611.262500", "104609.670000", "104611.460000", "104609.870000", "104611.660000", "104610.070000", "104611.857500", "104609.272500", "104611.062500", "104608.477500", "104610.267500", "104608.677500", "104610.467500", "104608.875000", "104610.665000", "104609.075000", "104610.865000", "104609.472500", "104611.262500", "104609.670000", "104611.460000", "104609.870000", "104611.660000", "104610.070000", "104611.857500", "104609.272500", "104614.662500", "104612.077500", "104613.867500", "104612.277500", "104614.067500", "104612.475000", "104614.265000", "104612.675000", "104614.465000", "104613.072500", "104614.862500", "104613.270000", "104615.060000", "104613.470000", "104615.260000", "104613.670000", "104615.457500", "104612.872500", "104614.662500", "104612.077500", "104613.867500", "104612.277500", "104614.067500", "104612.475000", "104614.265000", "104612.675000", "104614.465000", "104613.072500", "104614.862500", "104613.270000", "104615.060000", "104613.470000", "104615.260000", "104613.670000", "104615.457500", "104612.872500", "104614.662500", "104612.077500", "104613.867500", "104612.277500", "104614.067500", "104612.475000", "104614.265000", "104612.675000", "104614.465000", "104613.072500", "104614.862500", "104613.270000", "104615.060000", "104613.470000", "104615.260000", "104613.670000", "104615.457500", "104612.872500", "104614.662500", "104612.077500", "104613.867500", "104612.277500", "104614.067500", "104612.475000", "104614.265000", "104612.675000", "104614.465000", "104613.072500", "104614.862500", "104613.270000", "104615.060000", "104613.470000", "104615.260000", "104613.670000", "104615.457500", "104612.872500", "104618.262500", "104615.677500", "104617.467500", "104615.877500", "104617.667500", "104616.075000", "104617.865000", "104616.275000", "104618.065000", "104616.672500", "104618.462500", "104616.870000", "104618.660000", "104617.070000", "104618.860000", "104617.270000", "104619.057500", "104616.472500", "104618.262500", "104615.677500", "104617.467500", "104615.877500", "104617.667500", "104616.075000", "104617.865000", "104616.275000", "104618.065000", "104616.672500", "104618.462500", "104616.870000", "104618.660000", "104617.070000", "104618.860000", "104617.270000", "104619.057500", "104616.472500", "104618.262500", "104615.677500", "104617.467500", "104615.877500", "104617.667500", "104616.075000", "104617.865000", "104616.275000", "104618.065000", "104616.672500", "104618.462500", "104616.870000", "104618.660000", "104617.070000", "104618.860000", "104617.270000", "104619.057500", "104616.472500", "104618.262500", "104615.677500", "104617.467500", "104615.877500", "104617.667500", "104616.075000", "104617.865000", "104616.275000", "104618.065000", "104616.672500", "104618.462500", "104616.870000", "104618.660000", "104617.070000", "104618.860000", "104617.270000", "104619.057500", "104616.472500", "104621.862500", "104619.277500", "104621.067500", "104619.477500", "104621.267500", "104619.675000", "104621.465000", "104619.875000", "104621.665000", "104620.272500", "104622.062500", "104620.470000", "104622.260000", "104620.670000", "104622.460000", "104620.870000", "104622.657500", "104620.072500", "104621.862500", "104619.277500", "104621.067500", "104619.477500", "104621.267500", "104619.675000", "104621.465000", "104619.875000", "104621.665000", "104620.272500", "104622.062500", "104620.470000", "104622.260000", "104620.670000", "104622.460000", "104620.870000", "104622.657500", "104620.072500", "104621.862500", "104619.277500", "104621.067500", "104619.477500", "104621.267500", "104619.675000", "104621.465000", "104619.875000", "104621.665000", "104620.272500", "104622.062500", "104620.470000", "104622.260000", "104620.670000", "104622.460000", "104620.870000", "104622.657500", "104620.072500", "104621.862500", "104619.277500", "104621.067500", "104619.477500", "104621.267500", "104619.675000", "104621.465000", "104619.875000", "104621.665000", "104620.272500", "104622.062500", "104620.470000", "104622.260000", "104620.670000", "104622.460000", "104620.870000", "104622.657500", "104620.072500", "104625.462500", "104622.877500", "104624.667500", "104623.077500", "104624.867500", "104623.275000", "104625.065000", "104623.475000", "104625.265000", "104623.872500", "104625.662500", "104624.070000", "104625.860000", "104624.270000", "104626.060000", "104624.470000", "104626.257500", "104623.672500", "104625.462500", "104622.877500", "104624.667500", "104623.077500", "104624.867500", "104623.275000", "104625.065000", "104623.475000", "104625.265000", "104623.872500", "104625.662500", "104624.070000", "104625.860000", "104624.270000", "104626.060000", "104624.470000", "104626.257500", "104623.672500", "104625.462500", "104622.877500", "104624.667500", "104623.077500", "104624.867500", "104623.275000", "104625.065000", "104623.475000", "104625.265000", "104623.872500", "104625.662500", "104624.070000", "104625.860000", "104624.270000", "104626.060000", "104624.470000", "104626.257500", "104623.672500", "104625.462500", "104622.877500", "104624.667500", "104623.077500", "104624.867500", "104623.275000", "104625.065000", "104623.475000", "104625.265000", "104623.872500", "104625.662500", "104624.070000", "104625.860000", "104624.270000", "104626.060000", "104624.470000", "104626.257500", "104623.672500", "104629.062500", "104626.477500", "104628.267500", "104626.677500", "104628.467500", "104626.875000", "104628.665000", "104627.075000", "104628.865000", "104627.472500", "104629.262500", "104627.670000", "104629.460000", "104627.870000", "104629.660000", "104628.070000", "104629.857500", "104627.272500", "104629.062500", "104626.477500", "104628.267500", "104626.677500", "104628.467500", "104626.875000", "104628.665000", "104627.075000", "104628.865000", "104627.472500", "104629.262500", "104627.670000", "104629.460000", "104627.870000", "104629.660000", "104628.070000", "104629.857500", "104627.272500", "104629.062500", "104626.477500", "104628.267500", "104626.677500", "104628.467500", "104626.875000", "104628.665000", "104627.075000", "104628.865000", "104627.472500", "104629.262500", "104627.670000", "104629.460000", "104627.870000", "104629.660000", "104628.070000", "104629.857500", "104627.272500", "104629.062500", "104626.477500", "104628.267500", "104626.677500", "104628.467500", "104626.875000", "104628.665000", "104627.075000", "104628.865000", "104627.472500", "104629.262500", "104627.670000", "104629.460000", "104627.870000", "104629.660000", "104628.070000", "104629.857500", "104627.272500", "104632.662500", "104630.077500", "104631.867500", "104630.277500", "104632.067500", "104630.475000", "104632.265000", "104630.675000", "104632.465000", "104631.072500", "104632.862500", "104631.270000", "104633.060000", "104631.470000", "104633.260000", "104631.670000", "104633.457500", "104630.872500", "104632.662500", "104630.077500", "104631.867500", "104630.277500", "104632.067500", "104630.475000", "104632.265000", "104630.675000", "104632.465000", "104631.072500", "104632.862500", "104631.270000", "104633.060000", "104631.470000", "104633.260000", "104631.670000", "104633.457500", "104630.872500", "104632.662500", "104630.077500", "104631.867500", "104630.277500", "104632.067500", "104630.475000", "104632.265000", "104630.675000", "104632.465000", "104631.072500", "104632.862500", "104631.270000", "104633.060000", "104631.470000", "104633.260000", "104631.670000", "104633.457500", "104630.872500", "104632.662500", "104630.077500", "104631.867500", "104630.277500", "104632.067500", "104630.475000", "104632.265000", "104630.675000", "104632.465000", "104631.072500", "104632.862500", "104631.270000", "104633.060000", "104631.470000", "104633.260000", "104631.670000", "104633.457500", "104630.872500", "104636.262500", "104633.677500", "104635.467500", "104633.877500", "104635.667500", "104634.075000", "104635.865000", "104634.275000", "104636.065000", "104634.672500", "104636.462500", "104634.870000", "104636.660000", "104635.070000", "104636.860000", "104635.270000", "104637.057500", "104634.472500", "104636.262500", "104633.677500", "104635.467500", "104633.877500", "104635.667500", "104634.075000", "104635.865000", "104634.275000", "104636.065000", "104634.672500", "104636.462500", "104634.870000", "104636.660000", "104635.070000", "104636.860000", "104635.270000", "104637.057500", "104634.472500", "104636.262500", "104633.677500", "104635.467500", "104633.877500", "104635.667500", "104634.075000", "104635.865000", "104634.275000", "104636.065000", "104634.672500", "104636.462500", "104634.870000", "104636.660000", "104635.070000", "104636.860000", "104635.270000", "104637.057500", "104634.472500", "104636.262500", "104633.677500", "104635.467500", "104633.877500", "104635.667500", "104634.075000", "104635.865000", "104634.275000", "104636.065000", "104634.672500", "104636.462500", "104634.870000", "104636.660000", "104635.070000", "104636.860000", "104635.270000", "104637.057500", "104634.472500", "104639.862500", "104637.277500", "104639.067500", "104637.477500", "104639.267500", "104637.675000", "104639.465000", "104637.875000", "104639.665000", "104638.272500", "104640.062500", "104638.470000", "104640.260000", "104638.670000", "104640.460000", "104638.870000", "104640.657500", "104638.072500", "104639.862500", "104637.277500", "104639.067500", "104637.477500", "104639.267500", "104637.675000", "104639.465000", "104637.875000", "104639.665000", "104638.272500", "104640.062500", "104638.470000", "104640.260000", "104638.670000", "104640.460000", "104638.870000", "104640.657500", "104638.072500", "104639.862500", "104637.277500", "104639.067500", "104637.477500", "104639.267500", "104637.675000", "104639.465000", "104637.875000", "104639.665000", "104638.272500", "104640.062500", "104638.470000", "104640.260000", "104638.670000", "104640.460000", "104638.870000", "104640.657500", "104638.072500", "104639.862500", "104637.277500", "104639.067500", "104637.477500", "104639.267500", "104637.675000", "104639.465000", "104637.875000", "104639.665000", "104638.272500", "104640.062500", "104638.470000", "104640.26000