{
  "AcquisitionMatrixPE": 80,
  "AcquisitionNumber": 1,
  "AcquisitionTime": "09:38:31.095000",
  "BandwidthPerPixelPhaseEncode": 46.296,
  "BaseResolution": 80,
  "BodyPartExamined": "BRAIN",
  "CoilCombinationMethod": "Sum of Squares",
  "ConsistencyInfo": "N4_VE11E_LATEST_20181129",
  "ConversionSoftware": "dcm2niix",
  "ConversionSoftwareVersion": "v1.0.20220720",
  "DerivedVendorReportedEchoSpacing": 0.000540003,
  "DeviceSerialNumber": "66112",
  "DwellTime": 2.7e-06,
  "EchoTime": 0.035,
  "EchoTrainLength": 39,
  "EffectiveEchoSpacing": 0.000270002,
  "FlipAngle": 90,
  "HeudiconvVersion": "0.13.1",
  "ImageOrientationPatientDICOM": [0.998648, 0.00779049, -0.0514031, 0.00819216, 0.952778, 0.303556],
  "ImageOrientationText": "Tra>Cor(17.7)>Sag(-2.9)",
  "ImageType": [
    "ORIGINAL",
    "PRIMARY",
    "M",
    "ND",
    "NORM",
    "MOSAIC"
],
  "ImagingFrequency": 123.252,
  "InPlanePhaseEncodingDirectionDICOM": "COL",
  "InstitutionAddress": "Maynard 3,Hanover,NH,US,03755",
  "InstitutionName": "Dartmouth College - PBS",
  "InstitutionalDepartmentName": "Department",
  "MRAcquisitionType": "2D",
  "MagneticFieldStrength": 3,
  "Manufacturer": "Siemens",
  "ManufacturersModelName": "Prisma",
  "Modality": "MR",
  "MultibandAccelerationFactor": 4,
  "NonlinearGradientCorrection": false,
  "ParallelReductionFactorInPlane": 2,
  "PartialFourier": 1,
  "PatientPosition": "HFS",
  "PercentPhaseFOV": 100,
  "PercentSampling": 100,
  "PhaseEncodingDirection": "j-",
  "PhaseEncodingSteps": 79,
  "PhaseResolution": 1,
  "PixelBandwidth": 2315,
  "ProcedureStepDescription": "dbic^QA",
  "ProtocolName": "func-bold_task-rest_acq-p2-s4-3.5mm",
  "PulseSequenceDetails": "%SiemensSeq%\\ep2d_bold",
  "ReceiveCoilActiveElements": "HEA;HEP",
  "ReceiveCoilName": "Head_32",
  "ReconMatrixPE": 80,
  "RefLinesPE": 24,
  "RepetitionTime": 2,
  "SAR": 0.018011,
  "ScanOptions": "FS",
  "ScanningSequence": "EP",
  "SequenceName": "*epfid2d1_80",
  "SequenceVariant": "SK",
  "SeriesDescription": "func-bold_task-rest_acq-p2-s4-3.5mm",
  "SeriesNumber": 7,
  "ShimSetting": [4139, -7696, -7526, 282, -95, -114, 30, 46],
  "SliceThickness": 3.5,
  "SliceTiming": [1.485, 0, 0.99, 0.2475, 1.2375, 0.7425, 1.7325, 0.495, 1.485, 0, 0.99, 0.2475, 1.2375, 0.7425, 1.7325, 0.495, 1.485, 0, 0.99, 0.2475, 1.2375, 0.7425, 1.7325, 0.495, 1.485, 0, 0.99, 0.2475, 1.2375, 0.7425, 1.7325, 0.495],
  "SoftwareVersions": "syngo MR E11",
  "SpacingBetweenSlices": 3.99,
  "StationName": "AWP66112",
  "TaskName": "rest",
  "TotalReadoutTime": 0.0213301,
  "TxRefAmp": 232.827,
  "dcmmeta_affine": [
    [-2.9959428310394287, 0.024576477706432343, -0.20484891533851624, 120.73089599609375],
    [-0.023371484130620956, 2.858335256576538, 1.211229681968689, -122.04817199707031],
    [-0.1542091816663742, -0.9106673002243042, 3.7961902618408203, -7.7057785987854],
    [0.0, 0.0, 0.0, 1.0]
],
  "dcmmeta_reorient_transform": [
    [0.0, -1.0, 0.0, 79.0],
    [1.0, 0.0, 0.0, 0.0],
    [0.0, 0.0, 1.0, 0.0],
    [0.0, 0.0, 0.0, 1.0]
],
  "dcmmeta_shape": [80, 80, 32, 200],
  "dcmmeta_slice_dim": 2,
  "dcmmeta_version": 0.6,
  "global": {
    "const": {
      "AccessionNumber": "qa",
      "AcquisitionMatrix": [80, 0, 0, 80],
      "AngioFlag": "N",
      "BitsAllocated": 16,
      "BitsStored": 12,
      "BodyPartExamined": "BRAIN",
      "Columns": 480,
      "EchoNumbers": 1,
      "EchoTime": 35.0,
      "EchoTrainLength": 39,
      "FlipAngle": 90.0,
      "HighBit": 11,
      "ImageOrientationPatient": [0.99864760220308, 0.00779049490947, -0.0514030621957, 0.00819215942046, 0.95277845470704, 0.30355576879727],
      "ImagePositionPatient": [-726.77629326973, -680.10168817274, -230.94011980415],
      "ImageType": [
        "ORIGINAL",
        "PRIMARY",
        "M",
        "ND",
        "NORM",
        "MOSAIC"
],
      "ImagedNucleus": "1H",
      "ImagingFrequency": 123.252347,
      "InPlanePhaseEncodingDirection": "COL",
      "MRAcquisitionType": "2D",
      "MagneticFieldStrength": 3.0,
      "Manufacturer": "SIEMENS",
      "ManufacturerModelName": "Prisma",
      "Modality": "MR",
      "NumberOfAverages": 1.0,
      "NumberOfPhaseEncodingSteps": 79,
      "PercentPhaseFieldOfView": 100.0,
      "PercentSampling": 100.0,
      "PerformedProcedureStepStartTime": "092429.543000",
      "PhotometricInterpretation": "MONOCHROME2",
      "PixelBandwidth": 2315.0,
      "PixelRepresentation": 0,
      "PixelSpacing": [3.0, 3.0],
      "ProtocolName": "func-bold_task-rest_acq-p2-s4-3.5mm",
      "RepetitionTime": 2000.0,
      "Rows": 480,
      "SAR": 0.01801095131487,
      "SamplesPerPixel": 1,
      "ScanOptions": "FS",
      "ScanningSequence": "EP",
      "SequenceName": "*epfid2d1_80",
      "SequenceVariant": "SK",
      "SeriesDescription": "func-bold_task-rest_acq-p2-s4-3.5mm",
      "SeriesNumber": 7,
      "SeriesTime": "093924.574000",
      "SliceLocation": -50.579591263432,
      "SliceThickness": 3.5,
      "SmallestImagePixelValue": 0,
      "SoftwareVersions": "syngo MR E11",
      "SpacingBetweenSlices": 3.9900000640478,
      "SpecificCharacterSet": "ISO_IR 100",
      "StudyID": "5",
      "StudyTime": "092429.450000",
      "TransmitCoilName": "Body",
      "VariableFlipAngleFlag": "N",
      "WindowCenterWidthExplanation": "Algo1"
    },
    "slices": {}
  },
  "time": {
    "samples": {
      "AcquisitionNumber": [1, 2, 3, 4, 5, 6, 7, 8, 9, 10, 11, 12, 13, 14, 15, 16, 17, 18, 19, 20, 21, 22, 23, 24, 25, 26, 27, 28, 29, 30, 31, 32, 33, 34, 35, 36, 37, 38, 39, 40, 41, 42, 43, 44, 45, 46, 47, 48, 49, 50, 51, 52, 53, 54, 55, 56, 57, 58, 59, 60, 61, 62, 63, 64, 65, 66, 67, 68, 69, 70, 71, 72, 73, 74, 75, 76, 77, 78, 79, 80, 81, 82, 83, 84, 85, 86, 87, 88, 89, 90, 91, 92, 93, 94, 95, 96, 97, 98, 99, 100, 101, 102, 103, 104, 105, 106, 107, 108, 109, 110, 111, 112, 113, 114, 115, 116, 117, 118, 119, 120, 121, 122, 123, 124, 125, 126, 127, 128, 129, 130, 131, 132, 133, 134, 135, 136, 137, 138, 139, 140, 141, 142, 143, 144, 145, 146, 147, 148, 149, 150, 151, 152, 153, 154, 155, 156, 157, 158, 159, 160, 161, 162, 163, 164, 165, 166, 167, 168, 169, 170, 171, 172, 173, 174, 175, 176, 177, 178, 179, 180, 181, 182, 183, 184, 185, 186, 187, 188, 189, 190, 191, 192, 193, 194, 195, 196, 197, 198, 199, 200],
      "AcquisitionTime": ["093831.095000", "093833.095000", "093835.095000", "093837.095000", "093839.095000", "093841.095000", "093843.095000", "093845.095000", "093847.095000", "093849.095000", "093851.095000", "093853.095000", "093855.095000", "093857.095000", "093859.095000", "093901.095000", "093903.095000", "093905.095000", "093907.095000", "093909.095000", "093911.095000", "093913.095000", "093915.095000", "093917.095000", "093919.095000", "093921.095000", "093923.095000", "093925.095000", "093927.095000", "093929.095000", "093931.095000", "093933.095000", "093935.095000", "093937.095000", "093939.095000", "093941.095000", "093943.095000", "093945.095000", "093947.095000", "093949.095000", "093951.095000", "093953.095000", "093955.095000", "093957.095000", "093959.095000", "094001.095000", "094003.095000", "094005.095000", "094007.095000", "094009.095000", "094011.095000", "094013.095000", "094015.095000", "094017.095000", "094019.095000", "094021.095000", "094023.095000", "094025.095000", "094027.095000", "094029.095000", "094031.095000", "094033.095000", "094035.095000", "094037.095000", "094039.095000", "094041.095000", "094043.095000", "094045.095000", "094047.095000", "094049.095000", "094051.095000", "094053.095000", "094055.095000", "094057.095000", "094059.095000", "094101.095000", "094103.095000", "094105.095000", "094107.095000", "094109.095000", "094111.095000", "094113.095000", "094115.095000", "094117.095000", "094119.095000", "094121.095000", "094123.095000", "094125.095000", "094127.095000", "094129.095000", "094131.095000", "094133.095000", "094135.095000", "094137.095000", "094139.095000", "094141.095000", "094143.095000", "094145.095000", "094147.095000", "094149.095000", "094151.095000", "094153.095000", "094155.095000", "094157.095000", "094159.095000", "094201.095000", "094203.095000", "094205.095000", "094207.095000", "094209.095000", "094211.095000", "094213.095000", "094215.095000", "094217.095000", "094219.095000", "094221.095000", "094223.095000", "094225.095000", "094227.095000", "094229.095000", "094231.095000", "094233.095000", "094235.095000", "094237.095000", "094239.095000", "094241.095000", "094243.095000", "094245.095000", "094247.095000", "094249.095000", "094251.095000", "094253.095000", "094255.095000", "094257.095000", "094259.095000", "094301.095000", "094303.095000", "094305.095000", "094307.095000", "094309.095000", "094311.095000", "094313.095000", "094315.095000", "094317.095000", "094319.095000", "094321.095000", "094323.095000", "094325.095000", "094327.095000", "094329.095000", "094331.095000", "094333.095000", "094335.095000", "094337.095000", "094339.095000", "094341.095000", "094343.095000", "094345.095000", "094347.095000", "094349.095000", "094351.095000", "094353.095000", "094355.095000", "094357.095000", "094359.095000", "094401.095000", "094403.095000", "094405.095000", "094407.095000", "094409.095000", "094411.095000", "094413.095000", "094415.095000", "094417.095000", "094419.095000", "094421.095000", "094423.095000", "094425.095000", "094427.095000", "094429.095000", "094431.095000", "094433.095000", "094435.095000", "094437.095000", "094439.095000", "094441.095000", "094443.095000", "094445.095000", "094447.095000", "094449.095000", "094451.095000", "094453.095000", "094455.095000", "094457.095000", "094459.095000", "094501.095000", "094503.095000", "094505.095000", "094507.095000", "094509.095000"],
      "ContentTime": ["093924.577000", "093924.580000", "093924.590000", "093924.592000", "093924.595000", "093924.597000", "093924.602000", "093924.605000", "093924.611000", "093924.613000", "093924.616000", "093924.618000", "093924.620000", "093924.623000", "093924.625000", "093924.627000", "093924.630000", "093924.632000", "093924.635000", "093924.637000", "093924.639000", "093924.642000", "093924.644000", "093924.646000", "093924.649000", "093924.651000", "093924.653000", "094004.571000", "094004.574000", "094004.576000", "094004.578000", "094004.581000", "094004.583000", "094004.585000", "094004.588000", "094004.590000", "094004.592000", "094004.600000", "094004.602000", "094004.605000", "094004.607000", "094004.609000", "094004.612000", "094004.614000", "094004.617000", "094004.619000", "094004.621000", "094044.571000", "094044.574000", "094044.576000", "094044.578000", "094044.581000", "094044.583000", "094044.585000", "094044.588000", "094044.590000", "094044.592000", "094044.595000", "094044.597000", "094044.599000", "094044.602000", "094044.604000", "094044.607000", "094044.609000", "094044.611000", "094044.614000", "094044.616000", "094124.572000", "094124.575000", "094124.577000", "094124.579000", "094124.582000", "094124.584000", "094124.586000", "094124.589000", "094124.591000", "094124.593000", "094124.596000", "094124.598000", "094124.601000", "094124.603000", "094124.605000", "094124.608000", "094124.610000", "094124.612000", "094124.615000", "094124.617000", "094204.571000", "094204.574000", "094204.576000", "094204.578000", "094204.581000", "094204.583000", "094204.585000", "094204.588000", "094204.590000", "094204.592000", "094204.595000", "094204.597000", "094204.600000", "094204.602000", "094204.604000", "094204.607000", "094204.609000", "094204.611000", "094204.614000", "094204.630000", "094244.571000", "094244.574000", "094244.576000", "094244.578000", "094244.581000", "094244.583000", "094244.585000", "094244.588000", "094244.590000", "094244.592000", "094244.595000", "094244.597000", "094244.599000", "094244.602000", "094244.604000", "094244.607000", "094244.609000", "094244.611000", "094244.614000", "094244.616000", "094324.572000", "094324.575000", "094324.577000", "094324.580000", "094324.582000", "094324.584000", "094324.586000", "094324.589000", "094324.591000", "094324.594000", "094324.596000", "094324.598000", "094324.601000", "094324.603000", "094324.605000", "094324.608000", "094324.610000", "094324.613000", "094324.615000", "094324.617000", "094404.572000", "094404.575000", "094404.577000", "094404.580000", "094404.582000", "094404.584000", "094404.587000", "094404.589000", "094404.591000", "094404.594000", "094404.596000", "094404.599000", "094404.601000", "094404.603000", "094404.606000", "094404.608000", "094404.611000", "094404.613000", "094404.615000", "094404.618000", "094444.571000", "094444.574000", "094444.576000", "094444.578000", "094444.581000", "094444.583000", "094444.585000", "094444.588000", "094444.590000", "094444.599000", "094444.602000", "094444.604000", "094444.606000", "094444.609000", "094444.611000", "094444.613000", "094444.616000", "094444.618000", "094444.620000", "094444.623000", "094509.818000", "094509.820000", "094509.823000", "094509.825000", "094509.828000", "094509.830000", "094509.832000", "094509.835000", "094509.837000", "094509.839000", "094509.842000", "094509.844000", "094509.846000"],
      "InstanceCreationTime": ["093924.577000", "093924.580000", "093924.590000", "093924.592000", "093924.595000", "093924.597000", "093924.602000", "093924.605000", "093924.611000", "093924.613000", "093924.616000", "093924.618000", "093924.620000", "093924.623000", "093924.625000", "093924.627000", "093924.630000", "093924.632000", "093924.635000", "093924.637000", "093924.639000", "093924.642000", "093924.644000", "093924.646000", "093924.649000", "093924.651000", "093924.653000", "094004.571000", "094004.574000", "094004.576000", "094004.578000", "094004.581000", "094004.583000", "094004.585000", "094004.588000", "094004.590000", "094004.592000", "094004.600000", "094004.602000", "094004.605000", "094004.607000", "094004.609000", "094004.612000", "094004.614000", "094004.617000", "094004.619000", "094004.621000", "094044.571000", "094044.574000", "094044.576000", "094044.578000", "094044.581000", "094044.583000", "094044.585000", "094044.588000", "094044.590000", "094044.592000", "094044.595000", "094044.597000", "094044.599000", "094044.602000", "094044.604000", "094044.607000", "094044.609000", "094044.611000", "094044.614000", "094044.616000", "094124.572000", "094124.575000", "094124.577000", "094124.579000", "094124.582000", "094124.584000", "094124.586000", "094124.589000", "094124.591000", "094124.593000", "094124.596000", "094124.598000", "094124.601000", "094124.603000", "094124.605000", "094124.608000", "094124.610000", "094124.612000", "094124.615000", "094124.617000", "094204.571000", "094204.574000", "094204.576000", "094204.578000", "094204.581000", "094204.583000", "094204.585000", "094204.588000", "094204.590000", "094204.592000", "094204.595000", "094204.597000", "094204.600000", "094204.602000", "094204.604000", "094204.607000", "094204.609000", "094204.611000", "094204.614000", "094204.630000", "094244.571000", "094244.574000", "094244.576000", "094244.578000", "094244.581000", "094244.583000", "094244.585000", "094244.588000", "094244.590000", "094244.592000", "094244.595000", "094244.597000", "094244.599000", "094244.602000", "094244.604000", "094244.607000", "094244.609000", "094244.611000", "094244.614000", "094244.616000", "094324.572000", "094324.575000", "094324.577000", "094324.580000", "094324.582000", "094324.584000", "094324.586000", "094324.589000", "094324.591000", "094324.594000", "094324.596000", "094324.598000", "094324.601000", "094324.603000", "094324.605000", "094324.608000", "094324.610000", "094324.613000", "094324.615000", "094324.617000", "094404.572000", "094404.575000", "094404.577000", "094404.580000", "094404.582000", "094404.584000", "094404.587000", "094404.589000", "094404.591000", "094404.594000", "094404.596000", "094404.599000", "094404.601000", "094404.603000", "094404.606000", "094404.608000", "094404.611000", "094404.613000", "094404.615000", "094404.618000", "094444.571000", "094444.574000", "094444.576000", "094444.578000", "094444.581000", "094444.583000", "094444.585000", "094444.588000", "094444.590000", "094444.599000", "094444.602000", "094444.604000", "094444.606000", "094444.609000", "094444.611000", "094444.613000", "094444.616000", "094444.618000", "094444.620000", "094444.623000", "094509.818000", "094509.820000", "094509.823000", "094509.825000", "094509.828000", "094509.830000", "094509.832000", "094509.835000", "094509.837000", "094509.839000", "094509.842000", "094509.844000", "094509.846000"],
      "InstanceNumber": [1, 2, 3, 4, 5, 6, 7, 8, 9, 10, 11, 12, 13, 14, 15, 16, 17, 18, 19, 20, 21, 22, 23, 24, 25, 26, 27, 28, 29, 30, 31, 32, 33, 34, 35, 36, 37, 38, 39, 40, 41, 42, 43, 44, 45, 46, 47, 48, 49, 50, 51, 52, 53, 54, 55, 56, 57, 58, 59, 60, 61, 62, 63, 64, 65, 66, 67, 68, 69, 70, 71, 72, 73, 74, 75, 76, 77, 78, 79, 80, 81, 82, 83, 84, 85, 86, 87, 88, 89, 90, 91, 92, 93, 94, 95, 96, 97, 98, 99, 100, 101, 102, 103, 104, 105, 106, 107, 108, 109, 110, 111, 112, 113, 114, 115, 116, 117, 118, 119, 120, 121, 122, 123, 124, 125, 126, 127, 128, 129, 130, 131, 132, 133, 134, 135, 136, 137, 138, 139, 140, 141, 142, 143, 144, 145, 146, 147, 148, 149, 150, 151, 152, 153, 154, 155, 156, 157, 158, 159, 160, 161, 162, 163, 164, 165, 166, 167, 168, 169, 170, 171, 172, 173, 174, 175, 176, 177, 178, 179, 180, 181, 182, 183, 184, 185, 186, 187, 188, 189, 190, 191, 192, 193, 194, 195, 196, 197, 198, 199, 200],
      "LargestImagePixelValue": [2458, 2466, 2466, 2469, 2468, 2465, 2469, 2470, 2465, 2462, 2461, 2464, 2466, 2464, 2463, 2463, 2462, 2462, 2464, 2466, 2468, 2462, 2464, 2466, 2466, 2464, 2470, 2459, 2469, 2465, 2464, 2466, 2464, 2466, 2464, 2468, 2466, 2467, 2465, 2464, 2463, 2473, 2466, 2460, 2462, 2467, 2471, 2470, 2467, 2458, 2460, 2464, 2468, 2463, 2468, 2466, 2462, 2464, 2465, 2466, 2468, 2468, 2468, 2464, 2459, 2463, 2465, 2469, 2462, 2463, 2465, 2464, 2466, 2468, 2470, 2465, 2465, 2461, 2468, 2466, 2470, 2463, 2464, 2461, 2465, 2462, 2465, 2460, 2468, 2463, 2464, 2466, 2468, 2464, 2465, 2465, 2464, 2466, 2466, 2460, 2463, 2469, 2461, 2461, 2463, 2457, 2459, 2460, 2466, 2466, 2466, 2461, 2459, 2466, 2465, 2466, 2465, 2467, 2455, 2459, 2463, 2464, 2463, 2456, 2462, 2460, 2461, 2463, 2461, 2463, 2464, 2462, 2461, 2456, 2461, 2465, 2465, 2460, 2461, 2459, 2460, 2460, 2455, 2458, 2456, 2460, 2465, 2460, 2464, 2459, 2459, 2464, 2459, 2461, 2465, 2464, 2458, 2458, 2460, 2459, 2457, 2461, 2461, 2454, 2464, 2464, 2458, 2460, 2455, 2461, 2455, 2456, 2457, 2461, 2455, 2459, 2456, 2457, 2464, 2461, 2458, 2459, 2464, 2458, 2463, 2461, 2461, 2464, 2463, 2460, 2456, 2460, 2460, 2458, 2456, 2459, 2465, 2454, 2457, 2455],
      "WindowCenter": [1000.0, 1000.0, 1000.0, 1000.0, 1000.0, 1000.0, 1000.0, 1000.0, 1000.0, 1000.0, 999.0, 1000.0, 1000.0, 1000.0, 1000.0, 1000.0, 1000.0, 1000.0, 1000.0, 1000.0, 1000.0, 999.0, 1000.0, 999.0, 1000.0, 999.0, 1000.0, 999.0, 998.0, 1000.0, 1000.0, 1000.0, 998.0, 999.0, 1000.0, 1000.0, 1000.0, 998.0, 999.0, 998.0, 998.0, 999.0, 999.0, 998.0, 1000.0, 1000.0, 1000.0, 999.0, 1000.0, 1000.0, 998.0, 1000.0, 999.0, 999.0, 1000.0, 1000.0, 998.0, 1000.0, 998.0, 999.0, 1000.0, 1000.0, 1000.0, 997.0, 998.0, 998.0, 999.0, 997.0, 1000.0, 1000.0, 999.0, 1000.0, 998.0, 998.0, 997.0, 999.0, 998.0, 997.0, 999.0, 1000.0, 1000.0, 999.0, 998.0, 998.0, 998.0, 1000.0, 997.0, 997.0, 1000.0, 999.0, 998.0, 997.0, 1000.0, 997.0, 998.0, 997.0, 999.0, 997.0, 999.0, 998.0, 997.0, 997.0, 997.0, 998.0, 998.0, 997.0, 997.0, 997.0, 999.0, 997.0, 997.0, 997.0, 997.0, 999.0, 1000.0, 997.0, 998.0, 1000.0, 998.0, 999.0, 999.0, 998.0, 999.0, 997.0, 997.0, 1000.0, 997.0, 997.0, 997.0, 997.0, 997.0, 997.0, 997.0, 997.0, 997.0, 997.0, 997.0, 997.0, 997.0, 997.0, 997.0, 997.0, 997.0, 997.0, 997.0, 997.0, 997.0, 998.0, 997.0, 998.0, 998.0, 997.0, 997.0, 997.0, 997.0, 997.0, 997.0, 997.0, 997.0, 997.0, 997.0, 997.0, 997.0, 997.0, 997.0, 998.0, 997.0, 998.0, 997.0, 997.0, 997.0, 997.0, 997.0, 997.0, 997.0, 997.0, 997.0, 997.0, 997.0, 997.0, 997.0, 997.0, 997.0, 997.0, 997.0, 997.0, 997.0, 997.0, 997.0, 997.0, 997.0, 998.0, 997.0, 997.0, 997.0, 997.0, 997.0, 997.0, 997.0, 997.0],
      "WindowWidth": [2422.0, 2423.0, 2422.0, 2422.0, 2422.0, 2422.0, 2422.0, 2422.0, 2422.0, 2422.0, 2421.0, 2422.0, 2422.0, 2422.0, 2422.0, 2422.0, 2422.0, 2422.0, 2422.0, 2422.0, 2422.0, 2421.0, 2422.0, 2421.0, 2422.0, 2421.0, 2422.0, 2421.0, 2420.0, 2422.0, 2422.0, 2422.0, 2420.0, 2421.0, 2422.0, 2422.0, 2422.0, 2420.0, 2421.0, 2421.0, 2420.0, 2421.0, 2421.0, 2420.0, 2422.0, 2422.0, 2422.0, 2421.0, 2422.0, 2422.0, 2420.0, 2422.0, 2421.0, 2421.0, 2422.0, 2422.0, 2421.0, 2422.0, 2420.0, 2421.0, 2422.0, 2422.0, 2422.0, 2420.0, 2420.0, 2420.0, 2421.0, 2420.0, 2422.0, 2422.0, 2421.0, 2422.0, 2420.0, 2421.0, 2420.0, 2422.0, 2420.0, 2420.0, 2421.0, 2421.0, 2421.0, 2421.0, 2420.0, 2421.0, 2421.0, 2422.0, 2420.0, 2420.0, 2422.0, 2421.0, 2420.0, 2420.0, 2422.0, 2420.0, 2420.0, 2420.0, 2420.0, 2420.0, 2421.0, 2420.0, 2420.0, 2420.0, 2420.0, 2421.0, 2420.0, 2420.0, 2420.0, 2420.0, 2420.0, 2419.0, 2419.0, 2419.0, 2419.0, 2420.0, 2421.0, 2420.0, 2420.0, 2421.0, 2420.0, 2420.0, 2422.0, 2420.0, 2420.0, 2420.0, 2420.0, 2421.0, 2420.0, 2420.0, 2420.0, 2420.0, 2419.0, 2419.0, 2420.0, 2420.0, 2420.0, 2419.0, 2420.0, 2420.0, 2420.0, 2419.0, 2419.0, 2419.0, 2420.0, 2419.0, 2419.0, 2419.0, 2419.0, 2420.0, 2419.0, 2420.0, 2420.0, 2419.0, 2418.0, 2419.0, 2419.0, 2419.0, 2419.0, 2419.0, 2419.0, 2419.0, 2419.0, 2419.0, 2419.0, 2419.0, 2419.0, 2420.0, 2419.0, 2420.0, 2419.0, 2418.0, 2419.0, 2419.0, 2418.0, 2419.0, 2419.0, 2419.0, 2418.0, 2418.0, 2419.0, 2419.0, 2418.0, 2418.0, 2419.0, 2419.0, 2418.0, 2418.0, 2419.0, 2419.0, 2419.0, 2419.0, 2419.0, 2420.0, 2419.0, 2419.0, 2419.0, 2419.0, 2419.0, 2419.0, 2419.0, 2419.0]
    },
    "slices": {}
  }
}