{
  "AcquisitionMatrixPE": 80,
  "AcquisitionNumber": 1,
  "AcquisitionTime": "09:45:19.467500",
  "BandwidthPerPixelPhaseEncode": 25,
  "BaseResolution": 80,
  "BodyPartExamined": "BRAIN",
  "CoilCombinationMethod": "Sum of Squares",
  "ConsistencyInfo": "N4_VE11E_LATEST_20181129",
  "ConversionSoftware": "dcm2niix",
  "ConversionSoftwareVersion": "v1.0.20220720",
  "DerivedVendorReportedEchoSpacing": 0.0005,
  "DeviceSerialNumber": "66112",
  "DwellTime": 2.7e-06,
  "EchoTime": 0.03,
  "EchoTrainLength": 80,
  "EffectiveEchoSpacing": 0.0005,
  "FlipAngle": 77,
  "HeudiconvVersion": "0.13.1",
  "ImageOrientationPatientDICOM": [0.998648, 0.00779049, -0.0514031, 0.00819216, 0.952778, 0.303556],
  "ImageOrientationText": "Tra>Cor(17.7)>Sag(-2.9)",
  "ImageType": [
    "ORIGINAL",
    "PRIMARY",
    "M",
    "ND",
    "NORM",
    "MOSAIC"
],
  "ImagingFrequency": 123.252,
  "InPlanePhaseEncodingDirectionDICOM": "COL",
  "InstitutionAddress": "Maynard 3,Hanover,NH,US,03755",
  "InstitutionName": "Dartmouth College - PBS",
  "InstitutionalDepartmentName": "Department",
  "MRAcquisitionType": "2D",
  "MagneticFieldStrength": 3,
  "Manufacturer": "Siemens",
  "ManufacturersModelName": "Prisma",
  "MatrixCoilMode": "SENSE",
  "Modality": "MR",
  "NonlinearGradientCorrection": false,
  "PartialFourier": 1,
  "PatientPosition": "HFS",
  "PercentPhaseFOV": 100,
  "PercentSampling": 100,
  "PhaseEncodingDirection": "j-",
  "PhaseEncodingSteps": 80,
  "PhaseResolution": 1,
  "PixelBandwidth": 2315,
  "ProcedureStepDescription": "dbic^QA",
  "ProtocolName": "func-bold_fa-77",
  "PulseSequenceDetails": "%SiemensSeq%\\ep2d_bold",
  "ReceiveCoilActiveElements": "HEA;HEP",
  "ReceiveCoilName": "Head_32",
  "ReconMatrixPE": 80,
  "RepetitionTime": 2,
  "SAR": 0.037638,
  "ScanOptions": "FS",
  "ScanningSequence": "EP",
  "SequenceName": "*epfid2d1_80",
  "SequenceVariant": "SK",
  "SeriesDescription": "func-bold_fa-77",
  "SeriesNumber": 8,
  "ShimSetting": [4140, -7696, -7528, 279, -91, -123, 25, 44],
  "SliceThickness": 3.5,
  "SliceTiming": [0.99, 0, 1.055, 0.065, 1.1225, 0.1325, 1.1875, 0.1975, 1.2525, 0.265, 1.32, 0.33, 1.385, 0.395, 1.4525, 0.4625, 1.5175, 0.5275, 1.5825, 0.595, 1.65, 0.66, 1.715, 0.725, 1.7825, 0.7925, 1.8475, 0.8575, 1.9125, 0.9225],
  "SoftwareVersions": "syngo MR E11",
  "SpacingBetweenSlices": 3.99,
  "StationName": "AWP66112",
  "TotalReadoutTime": 0.0395,
  "TxRefAmp": 232.827,
  "dcmmeta_affine": [
    [-2.9959428310394287, 0.024576477706432343, -0.20484891533851624, 120.7213134765625],
    [-0.023371484130620956, 2.858335256576538, 1.211229681968689, -118.1503677368164],
    [-0.1542091816663742, -0.9106673002243042, 3.7961902618408203, -8.113703727722168],
    [0.0, 0.0, 0.0, 1.0]
],
  "dcmmeta_reorient_transform": [
    [0.0, -1.0, 0.0, 79.0],
    [1.0, 0.0, 0.0, 0.0],
    [0.0, 0.0, 1.0, 0.0],
    [0.0, 0.0, 0.0, 1.0]
],
  "dcmmeta_shape": [80, 80, 30, 200],
  "dcmmeta_slice_dim": 2,
  "dcmmeta_version": 0.6,
  "global": {
    "const": {
      "AccessionNumber": "qa",
      "AcquisitionMatrix": [80, 0, 0, 80],
      "AngioFlag": "N",
      "BitsAllocated": 16,
      "BitsStored": 12,
      "BodyPartExamined": "BRAIN",
      "Columns": 480,
      "EchoNumbers": 1,
      "EchoTime": 30.0,
      "EchoTrainLength": 80,
      "FlipAngle": 77.0,
      "HighBit": 11,
      "ImageOrientationPatient": [0.99864760220308, 0.00779049490947, -0.0514030621957, 0.00819215942046, 0.95277845470704, 0.30355576879727],
      "ImagePositionPatient": [-726.76670967731, -683.99949863187, -231.34804445625],
      "ImageType": [
        "ORIGINAL",
        "PRIMARY",
        "M",
        "ND",
        "NORM",
        "MOSAIC"
],
      "ImagedNucleus": "1H",
      "ImagingFrequency": 123.252346,
      "InPlanePhaseEncodingDirection": "COL",
      "MRAcquisitionType": "2D",
      "MagneticFieldStrength": 3.0,
      "Manufacturer": "SIEMENS",
      "ManufacturerModelName": "Prisma",
      "Modality": "MR",
      "NumberOfAverages": 1.0,
      "NumberOfPhaseEncodingSteps": 80,
      "PercentPhaseFieldOfView": 100.0,
      "PercentSampling": 100.0,
      "PerformedProcedureStepStartTime": "092429.543000",
      "PhotometricInterpretation": "MONOCHROME2",
      "PixelBandwidth": 2315.0,
      "PixelRepresentation": 0,
      "PixelSpacing": [3.0, 3.0],
      "ProtocolName": "func-bold_fa-77",
      "RepetitionTime": 2000.0,
      "Rows": 480,
      "SAR": 0.03763802513304,
      "SamplesPerPixel": 1,
      "ScanOptions": "FS",
      "ScanningSequence": "EP",
      "SequenceName": "*epfid2d1_80",
      "SequenceVariant": "SK",
      "SeriesDescription": "func-bold_fa-77",
      "SeriesNumber": 8,
      "SeriesTime": "094604.662000",
      "SliceLocation": -49.783965330653,
      "SliceThickness": 3.5,
      "SmallestImagePixelValue": 0,
      "SoftwareVersions": "syngo MR E11",
      "SpacingBetweenSlices": 3.9900000624415,
      "SpecificCharacterSet": "ISO_IR 100",
      "StudyID": "5",
      "StudyTime": "092429.450000",
      "TransmitCoilName": "Body",
      "VariableFlipAngleFlag": "N",
      "WindowCenterWidthExplanation": "Algo1"
    },
    "slices": {}
  },
  "time": {
    "samples": {
      "AcquisitionNumber": [1, 2, 3, 4, 5, 6, 7, 8, 9, 10, 11, 12, 13, 14, 15, 16, 17, 18, 19, 20, 21, 22, 23, 24, 25, 26, 27, 28, 29, 30, 31, 32, 33, 34, 35, 36, 37, 38, 39, 40, 41, 42, 43, 44, 45, 46, 47, 48, 49, 50, 51, 52, 53, 54, 55, 56, 57, 58, 59, 60, 61, 62, 63, 64, 65, 66, 67, 68, 69, 70, 71, 72, 73, 74, 75, 76, 77, 78, 79, 80, 81, 82, 83, 84, 85, 86, 87, 88, 89, 90, 91, 92, 93, 94, 95, 96, 97, 98, 99, 100, 101, 102, 103, 104, 105, 106, 107, 108, 109, 110, 111, 112, 113, 114, 115, 116, 117, 118, 119, 120, 121, 122, 123, 124, 125, 126, 127, 128, 129, 130, 131, 132, 133, 134, 135, 136, 137, 138, 139, 140, 141, 142, 143, 144, 145, 146, 147, 148, 149, 150, 151, 152, 153, 154, 155, 156, 157, 158, 159, 160, 161, 162, 163, 164, 165, 166, 167, 168, 169, 170, 171, 172, 173, 174, 175, 176, 177, 178, 179, 180, 181, 182, 183, 184, 185, 186, 187, 188, 189, 190, 191, 192, 193, 194, 195, 196, 197, 198, 199, 200],
      "AcquisitionTime": ["094519.467500", "094521.467500", "094523.467500", "094525.467500", "094527.467500", "094529.467500", "094531.467500", "094533.467500", "094535.467500", "094537.467500", "094539.467500", "094541.467500", "094543.467500", "094545.467500", "094547.467500", "094549.467500", "094551.467500", "094553.467500", "094555.467500", "094557.467500", "094559.467500", "094601.467500", "094603.467500", "094605.467500", "094607.467500", "094609.467500", "094611.467500", "094613.467500", "094615.467500", "094617.467500", "094619.467500", "094621.467500", "094623.467500", "094625.467500", "094627.467500", "094629.467500", "094631.467500", "094633.467500", "094635.467500", "094637.467500", "094639.467500", "094641.467500", "094643.467500", "094645.467500", "094647.467500", "094649.467500", "094651.467500", "094653.467500", "094655.467500", "094657.467500", "094659.467500", "094701.467500", "094703.467500", "094705.467500", "094707.467500", "094709.467500", "094711.467500", "094713.467500", "094715.467500", "094717.467500", "094719.467500", "094721.467500", "094723.467500", "094725.467500", "094727.467500", "094729.467500", "094731.467500", "094733.467500", "094735.467500", "094737.467500", "094739.467500", "094741.467500", "094743.467500", "094745.467500", "094747.467500", "094749.467500", "094751.467500", "094753.467500", "094755.467500", "094757.467500", "094759.467500", "094801.467500", "094803.467500", "094805.467500", "094807.467500", "094809.467500", "094811.467500", "094813.467500", "094815.467500", "094817.467500", "094819.467500", "094821.467500", "094823.467500", "094825.467500", "094827.467500", "094829.467500", "094831.467500", "094833.467500", "094835.467500", "094837.467500", "094839.467500", "094841.467500", "094843.467500", "094845.467500", "094847.467500", "094849.467500", "094851.467500", "094853.467500", "094855.467500", "094857.467500", "094859.467500", "094901.467500", "094903.467500", "094905.467500", "094907.467500", "094909.467500", "094911.467500", "094913.467500", "094915.467500", "094917.467500", "094919.467500", "094921.467500", "094923.467500", "094925.467500", "094927.467500", "094929.467500", "094931.467500", "094933.467500", "094935.467500", "094937.467500", "094939.467500", "094941.467500", "094943.467500", "094945.467500", "094947.467500", "094949.467500", "094951.467500", "094953.467500", "094955.467500", "094957.467500", "094959.467500", "095001.467500", "095003.467500", "095005.467500", "095007.467500", "095009.467500", "095011.467500", "095013.467500", "095015.467500", "095017.467500", "095019.467500", "095021.467500", "095023.467500", "095025.467500", "095027.467500", "095029.467500", "095031.467500", "095033.467500", "095035.467500", "095037.467500", "095039.467500", "095041.467500", "095043.467500", "095045.467500", "095047.467500", "095049.467500", "095051.467500", "095053.467500", "095055.467500", "095057.467500", "095059.467500", "095101.467500", "095103.467500", "095105.467500", "095107.467500", "095109.467500", "095111.467500", "095113.467500", "095115.467500", "095117.467500", "095119.467500", "095121.467500", "095123.467500", "095125.467500", "095127.467500", "095129.467500", "095131.467500", "095133.467500", "095135.467500", "095137.467500", "095139.467500", "095141.467500", "095143.467500", "095145.467500", "095147.467500", "095149.467500", "095151.467500", "095153.467500", "095155.467500", "095157.467500"],
      "ContentTime": ["094604.665000", "094604.668000", "094604.671000", "094604.673000", "094604.675000", "094604.678000", "094604.680000", "094604.682000", "094604.685000", "094604.687000", "094604.689000", "094604.692000", "094604.694000", "094604.696000", "094604.698000", "094604.701000", "094604.703000", "094604.705000", "094604.708000", "094604.710000", "094604.712000", "094604.715000", "094644.659000", "094644.662000", "094644.664000", "094644.666000", "094644.668000", "094644.671000", "094644.673000", "094644.675000", "094644.678000", "094644.680000", "094644.682000", "094644.684000", "094644.687000", "094644.689000", "094644.691000", "094644.694000", "094644.696000", "094644.698000", "094644.701000", "094644.703000", "094724.659000", "094724.662000", "094724.664000", "094724.666000", "094724.669000", "094724.671000", "094724.673000", "094724.676000", "094724.678000", "094724.680000", "094724.682000", "094724.685000", "094724.687000", "094724.689000", "094724.692000", "094724.694000", "094724.696000", "094724.707000", "094724.709000", "094724.711000", "094804.660000", "094804.663000", "094804.665000", "094804.679000", "094804.681000", "094804.683000", "094804.686000", "094804.688000", "094804.690000", "094804.692000", "094804.695000", "094804.697000", "094804.699000", "094804.701000", "094804.704000", "094804.706000", "094804.708000", "094804.711000", "094804.713000", "094804.715000", "094844.660000", "094844.663000", "094844.665000", "094844.668000", "094844.670000", "094844.672000", "094844.675000", "094844.677000", "094844.679000", "094844.682000", "094844.684000", "094844.686000", "094844.689000", "094844.691000", "094844.693000", "094844.696000", "094844.698000", "094844.700000", "094844.702000", "094844.705000", "094924.659000", "094924.662000", "094924.664000", "094924.666000", "094924.669000", "094924.671000", "094924.673000", "094924.676000", "094924.678000", "094924.680000", "094924.683000", "094924.685000", "094924.687000", "094924.690000", "094924.692000", "094924.694000", "094924.696000", "094924.699000", "094924.701000", "094924.703000", "095004.659000", "095004.662000", "095004.664000", "095004.667000", "095004.669000", "095004.671000", "095004.674000", "095004.676000", "095004.678000", "095004.681000", "095004.683000", "095004.685000", "095004.688000", "095004.690000", "095004.692000", "095004.695000", "095004.697000", "095004.708000", "095004.710000", "095004.713000", "095044.660000", "095044.663000", "095044.665000", "095044.667000", "095044.670000", "095044.672000", "095044.674000", "095044.677000", "095044.679000", "095044.681000", "095044.684000", "095044.686000", "095044.688000", "095044.691000", "095044.693000", "095044.695000", "095044.698000", "095044.700000", "095044.702000", "095044.705000", "095124.659000", "095124.662000", "095124.664000", "095124.666000", "095124.669000", "095124.671000", "095124.673000", "095124.676000", "095124.678000", "095124.680000", "095124.683000", "095124.685000", "095124.687000", "095124.690000", "095124.692000", "095124.694000", "095124.697000", "095124.699000", "095124.701000", "095124.703000", "095159.504000", "095159.506000", "095159.509000", "095159.511000", "095159.514000", "095159.516000", "095159.519000", "095159.521000", "095159.523000", "095159.526000", "095159.528000", "095159.531000", "095159.533000", "095159.542000", "095159.545000", "095159.550000", "095159.553000", "095159.559000"],
      "InstanceCreationTime": ["094604.665000", "094604.668000", "094604.671000", "094604.673000", "094604.675000", "094604.678000", "094604.680000", "094604.682000", "094604.685000", "094604.687000", "094604.689000", "094604.692000", "094604.694000", "094604.696000", "094604.698000", "094604.701000", "094604.703000", "094604.705000", "094604.708000", "094604.710000", "094604.712000", "094604.715000", "094644.659000", "094644.662000", "094644.664000", "094644.666000", "094644.668000", "094644.671000", "094644.673000", "094644.675000", "094644.678000", "094644.680000", "094644.682000", "094644.684000", "094644.687000", "094644.689000", "094644.691000", "094644.694000", "094644.696000", "094644.698000", "094644.701000", "094644.703000", "094724.659000", "094724.662000", "094724.664000", "094724.666000", "094724.669000", "094724.671000", "094724.673000", "094724.676000", "094724.678000", "094724.680000", "094724.682000", "094724.685000", "094724.687000", "094724.689000", "094724.692000", "094724.694000", "094724.696000", "094724.707000", "094724.709000", "094724.711000", "094804.660000", "094804.663000", "094804.665000", "094804.679000", "094804.681000", "094804.683000", "094804.686000", "094804.688000", "094804.690000", "094804.692000", "094804.695000", "094804.697000", "094804.699000", "094804.701000", "094804.704000", "094804.706000", "094804.708000", "094804.711000", "094804.713000", "094804.715000", "094844.660000", "094844.663000", "094844.665000", "094844.668000", "094844.670000", "094844.672000", "094844.675000", "094844.677000", "094844.679000", "094844.682000", "094844.684000", "094844.686000", "094844.689000", "094844.691000", "094844.693000", "094844.696000", "094844.698000", "094844.700000", "094844.702000", "094844.705000", "094924.659000", "094924.662000", "094924.664000", "094924.666000", "094924.669000", "094924.671000", "094924.673000", "094924.676000", "094924.678000", "094924.680000", "094924.683000", "094924.685000", "094924.687000", "094924.690000", "094924.692000", "094924.694000", "094924.696000", "094924.699000", "094924.701000", "094924.703000", "095004.659000", "095004.662000", "095004.664000", "095004.667000", "095004.669000", "095004.671000", "095004.674000", "095004.676000", "095004.678000", "095004.681000", "095004.683000", "095004.685000", "095004.688000", "095004.690000", "095004.692000", "095004.695000", "095004.697000", "095004.708000", "095004.710000", "095004.713000", "095044.660000", "095044.663000", "095044.665000", "095044.667000", "095044.670000", "095044.672000", "095044.674000", "095044.677000", "095044.679000", "095044.681000", "095044.684000", "095044.686000", "095044.688000", "095044.691000", "095044.693000", "095044.695000", "095044.698000", "095044.700000", "095044.702000", "095044.705000", "095124.659000", "095124.662000", "095124.664000", "095124.666000", "095124.669000", "095124.671000", "095124.673000", "095124.676000", "095124.678000", "095124.680000", "095124.683000", "095124.685000", "095124.687000", "095124.690000", "095124.692000", "095124.694000", "095124.697000", "095124.699000", "095124.701000", "095124.703000", "095159.504000", "095159.506000", "095159.509000", "095159.511000", "095159.514000", "095159.516000", "095159.519000", "095159.521000", "095159.523000", "095159.526000", "095159.528000", "095159.531000", "095159.533000", "095159.542000", "095159.545000", "095159.550000", "095159.553000", "095159.559000"],
      "InstanceNumber": [1, 2, 3, 4, 5, 6, 7, 8, 9, 10, 11, 12, 13, 14, 15, 16, 17, 18, 19, 20, 21, 22, 23, 24, 25, 26, 27, 28, 29, 30, 31, 32, 33, 34, 35, 36, 37, 38, 39, 40, 41, 42, 43, 44, 45, 46, 47, 48, 49, 50, 51, 52, 53, 54, 55, 56, 57, 58, 59, 60, 61, 62, 63, 64, 65, 66, 67, 68, 69, 70, 71, 72, 73, 74, 75, 76, 77, 78, 79, 80, 81, 82, 83, 84, 85, 86, 87, 88, 89, 90, 91, 92, 93, 94, 95, 96, 97, 98, 99, 100, 101, 102, 103, 104, 105, 106, 107, 108, 109, 110, 111, 112, 113, 114, 115, 116, 117, 118, 119, 120, 121, 122, 123, 124, 125, 126, 127, 128, 129, 130, 131, 132, 133, 134, 135, 136, 137, 138, 139, 140, 141, 142, 143, 144, 145, 146, 147, 148, 149, 150, 151, 152, 153, 154, 155, 156, 157, 158, 159, 160, 161, 162, 163, 164, 165, 166, 167, 168, 169, 170, 171, 172, 173, 174, 175, 176, 177, 178, 179, 180, 181, 182, 183, 184, 185, 186, 187, 188, 189, 190, 191, 192, 193, 194, 195, 196, 197, 198, 199, 200],
      "LargestImagePixelValue": [2417, 2418, 2417, 2417, 2422, 2418, 2419, 2417, 2420, 2418, 2417, 2419, 2418, 2418, 2417, 2417, 2418, 2418, 2418, 2420, 2418, 2419, 2418, 2419, 2419, 2418, 2422, 2420, 2420, 2418, 2417, 2418, 2420, 2420, 2420, 2418, 2417, 2420, 2423, 2423, 2420, 2420, 2419, 2421, 2421, 2422, 2421, 2421, 2422, 2423, 2421, 2422, 2425, 2423, 2423, 2420, 2423, 2422, 2421, 2420, 2422, 2422, 2423, 2421, 2421, 2422, 2421, 2423, 2423, 2423, 2424, 2421, 2420, 2423, 2425, 2428, 2423, 2419, 2417, 2422, 2424, 2425, 2423, 2420, 2422, 2422, 2423, 2423, 2424, 2421, 2420, 2419, 2421, 2422, 2420, 2422, 2422, 2424, 2421, 2422, 2422, 2425, 2425, 2424, 2423, 2423, 2422, 2422, 2423, 2422, 2424, 2428, 2422, 2424, 2423, 2424, 2423, 2423, 2423, 2423, 2421, 2422, 2422, 2425, 2422, 2422, 2427, 2424, 2424, 2425, 2424, 2425, 2424, 2422, 2426, 2427, 2425, 2422, 2422, 2421, 2421, 2420, 2419, 2419, 2418, 2422, 2421, 2421, 2423, 2423, 2424, 2425, 2423, 2421, 2421, 2422, 2423, 2421, 2423, 2423, 2423, 2426, 2425, 2423, 2423, 2424, 2425, 2424, 2423, 2425, 2422, 2425, 2424, 2424, 2419, 2420, 2421, 2421, 2424, 2422, 2423, 2420, 2420, 2419, 2420, 2422, 2422, 2420, 2421, 2419, 2420, 2420, 2420, 2417, 2417, 2419, 2420, 2418, 2420, 2425],
      "WindowCenter": [1062.0, 1062.0, 1063.0, 1062.0, 1062.0, 1062.0, 1062.0, 1062.0, 1062.0, 1063.0, 1062.0, 1062.0, 1063.0, 1063.0, 1062.0, 1062.0, 1062.0, 1063.0, 1062.0, 1064.0, 1062.0, 1063.0, 1062.0, 1062.0, 1063.0, 1063.0, 1063.0, 1064.0, 1062.0, 1062.0, 1062.0, 1062.0, 1062.0, 1062.0, 1064.0, 1062.0, 1062.0, 1063.0, 1063.0, 1063.0, 1064.0, 1063.0, 1063.0, 1063.0, 1063.0, 1063.0, 1063.0, 1064.0, 1063.0, 1064.0, 1063.0, 1063.0, 1063.0, 1063.0, 1063.0, 1063.0, 1063.0, 1063.0, 1063.0, 1063.0, 1063.0, 1064.0, 1064.0, 1062.0, 1063.0, 1063.0, 1063.0, 1063.0, 1063.0, 1063.0, 1064.0, 1062.0, 1064.0, 1063.0, 1063.0, 1064.0, 1064.0, 1064.0, 1064.0, 1063.0, 1063.0, 1063.0, 1063.0, 1063.0, 1064.0, 1063.0, 1063.0, 1063.0, 1064.0, 1063.0, 1063.0, 1064.0, 1064.0, 1063.0, 1064.0, 1063.0, 1064.0, 1064.0, 1063.0, 1063.0, 1062.0, 1063.0, 1064.0, 1062.0, 1063.0, 1063.0, 1063.0, 1062.0, 1064.0, 1063.0, 1063.0, 1062.0, 1063.0, 1064.0, 1062.0, 1064.0, 1063.0, 1063.0, 1062.0, 1063.0, 1064.0, 1063.0, 1063.0, 1062.0, 1063.0, 1062.0, 1063.0, 1065.0, 1064.0, 1064.0, 1062.0, 1063.0, 1063.0, 1062.0, 1063.0, 1062.0, 1062.0, 1064.0, 1063.0, 1063.0, 1062.0, 1063.0, 1063.0, 1063.0, 1063.0, 1062.0, 1063.0, 1063.0, 1064.0, 1063.0, 1062.0, 1063.0, 1063.0, 1063.0, 1063.0, 1062.0, 1063.0, 1064.0, 1062.0, 1063.0, 1063.0, 1062.0, 1062.0, 1062.0, 1063.0, 1064.0, 1063.0, 1062.0, 1062.0, 1064.0, 1063.0, 1062.0, 1064.0, 1063.0, 1062.0, 1062.0, 1064.0, 1063.0, 1062.0, 1064.0, 1064.0, 1062.0, 1062.0, 1063.0, 1062.0, 1062.0, 1062.0, 1062.0, 1062.0, 1063.0, 1063.0, 1063.0, 1062.0, 1062.0, 1062.0, 1062.0, 1062.0, 1062.0, 1062.0, 1062.0],
      "WindowWidth": [2416.0, 2416.0, 2417.0, 2416.0, 2416.0, 2416.0, 2416.0, 2416.0, 2416.0, 2417.0, 2416.0, 2416.0, 2416.0, 2417.0, 2416.0, 2416.0, 2416.0, 2417.0, 2416.0, 2417.0, 2417.0, 2417.0, 2416.0, 2416.0, 2417.0, 2417.0, 2417.0, 2418.0, 2417.0, 2417.0, 2417.0, 2417.0, 2417.0, 2417.0, 2418.0, 2417.0, 2417.0, 2417.0, 2417.0, 2417.0, 2418.0, 2417.0, 2417.0, 2417.0, 2417.0, 2417.0, 2417.0, 2418.0, 2417.0, 2418.0, 2417.0, 2417.0, 2417.0, 2417.0, 2417.0, 2417.0, 2417.0, 2417.0, 2417.0, 2417.0, 2417.0, 2418.0, 2418.0, 2417.0, 2417.0, 2417.0, 2417.0, 2417.0, 2417.0, 2417.0, 2418.0, 2418.0, 2418.0, 2417.0, 2417.0, 2418.0, 2418.0, 2418.0, 2418.0, 2418.0, 2417.0, 2417.0, 2417.0, 2417.0, 2418.0, 2417.0, 2417.0, 2417.0, 2418.0, 2417.0, 2417.0, 2418.0, 2418.0, 2417.0, 2418.0, 2418.0, 2418.0, 2418.0, 2418.0, 2417.0, 2418.0, 2417.0, 2418.0, 2418.0, 2417.0, 2417.0, 2417.0, 2418.0, 2418.0, 2417.0, 2417.0, 2418.0, 2417.0, 2418.0, 2418.0, 2418.0, 2417.0, 2418.0, 2418.0, 2417.0, 2418.0, 2417.0, 2417.0, 2418.0, 2418.0, 2418.0, 2417.0, 2419.0, 2418.0, 2418.0, 2418.0, 2417.0, 2417.0, 2418.0, 2418.0, 2418.0, 2418.0, 2418.0, 2417.0, 2418.0, 2417.0, 2417.0, 2417.0, 2417.0, 2418.0, 2418.0, 2417.0, 2417.0, 2418.0, 2417.0, 2418.0, 2418.0, 2418.0, 2418.0, 2418.0, 2418.0, 2418.0, 2418.0, 2418.0, 2418.0, 2418.0, 2418.0, 2418.0, 2418.0, 2417.0, 2418.0, 2418.0, 2418.0, 2418.0, 2418.0, 2418.0, 2418.0, 2418.0, 2418.0, 2418.0, 2418.0, 2418.0, 2418.0, 2418.0, 2418.0, 2418.0, 2417.0, 2417.0, 2417.0, 2416.0, 2416.0, 2416.0, 2417.0, 2416.0, 2417.0, 2417.0, 2417.0, 2416.0, 2416.0, 2416.0, 2416.0, 2416.0, 2416.0, 2416.0, 2416.0]
    },
    "slices": {}
  }
}