{
  "AcquisitionMatrixPE": 80,
  "AcquisitionNumber": 1,
  "AcquisitionTime": "09:52:6.470000",
  "BandwidthPerPixelPhaseEncode": 25,
  "BaseResolution": 80,
  "BodyPartExamined": "BRAIN",
  "CoilCombinationMethod": "Sum of Squares",
  "ConsistencyInfo": "N4_VE11E_LATEST_20181129",
  "ConversionSoftware": "dcm2niix",
  "ConversionSoftwareVersion": "v1.0.20220720",
  "DerivedVendorReportedEchoSpacing": 0.0005,
  "DeviceSerialNumber": "66112",
  "DwellTime": 2.7e-06,
  "EchoTime": 0.03,
  "EchoTrainLength": 80,
  "EffectiveEchoSpacing": 0.0005,
  "FlipAngle": 10,
  "HeudiconvVersion": "0.13.1",
  "ImageOrientationPatientDICOM": [0.998648, 0.00779049, -0.0514031, 0.00819216, 0.952778, 0.303556],
  "ImageOrientationText": "Tra>Cor(17.7)>Sag(-2.9)",
  "ImageType": [
    "ORIGINAL",
    "PRIMARY",
    "M",
    "ND",
    "NORM",
    "MOSAIC"
],
  "ImagingFrequency": 123.252,
  "InPlanePhaseEncodingDirectionDICOM": "COL",
  "InstitutionAddress": "Maynard 3,Hanover,NH,US,03755",
  "InstitutionName": "Dartmouth College - PBS",
  "InstitutionalDepartmentName": "Department",
  "MRAcquisitionType": "2D",
  "MagneticFieldStrength": 3,
  "Manufacturer": "Siemens",
  "ManufacturersModelName": "Prisma",
  "MatrixCoilMode": "SENSE",
  "Modality": "MR",
  "NonlinearGradientCorrection": false,
  "PartialFourier": 1,
  "PatientPosition": "HFS",
  "PercentPhaseFOV": 100,
  "PercentSampling": 100,
  "PhaseEncodingDirection": "j-",
  "PhaseEncodingSteps": 80,
  "PhaseResolution": 1,
  "PixelBandwidth": 2315,
  "ProcedureStepDescription": "dbic^QA",
  "ProtocolName": "func-bold_fa-10",
  "PulseSequenceDetails": "%SiemensSeq%\\ep2d_bold",
  "ReceiveCoilActiveElements": "HEA;HEP",
  "ReceiveCoilName": "Head_32",
  "ReconMatrixPE": 80,
  "RepetitionTime": 2,
  "SAR": 0.0100964,
  "ScanOptions": "FS",
  "ScanningSequence": "EP",
  "SequenceName": "*epfid2d1_80",
  "SequenceVariant": "SK",
  "SeriesDescription": "func-bold_fa-10",
  "SeriesNumber": 10,
  "ShimSetting": [4140, -7696, -7528, 279, -91, -123, 25, 44],
  "SliceThickness": 3.5,
  "SliceTiming": [0.99, 0, 1.055, 0.065, 1.12, 0.13, 1.1875, 0.1975, 1.2525, 0.2625, 1.32, 0.33, 1.385, 0.395, 1.45, 0.46, 1.5175, 0.5275, 1.5825, 0.5925, 1.65, 0.66, 1.715, 0.725, 1.78, 0.79, 1.8475, 0.8575, 1.9125, 0.9225],
  "SoftwareVersions": "syngo MR E11",
  "SpacingBetweenSlices": 3.99,
  "StationName": "AWP66112",
  "TotalReadoutTime": 0.0395,
  "TxRefAmp": 232.827,
  "dcmmeta_affine": [
    [-2.9959428310394287, 0.024576477706432343, -0.20484891533851624, 120.7213134765625],
    [-0.023371484130620956, 2.858335256576538, 1.211229681968689, -118.1503677368164],
    [-0.1542091816663742, -0.9106673002243042, 3.7961902618408203, -8.113703727722168],
    [0.0, 0.0, 0.0, 1.0]
],
  "dcmmeta_reorient_transform": [
    [0.0, -1.0, 0.0, 79.0],
    [1.0, 0.0, 0.0, 0.0],
    [0.0, 0.0, 1.0, 0.0],
    [0.0, 0.0, 0.0, 1.0]
],
  "dcmmeta_shape": [80, 80, 30, 200],
  "dcmmeta_slice_dim": 2,
  "dcmmeta_version": 0.6,
  "global": {
    "const": {
      "AccessionNumber": "qa",
      "AcquisitionMatrix": [80, 0, 0, 80],
      "AngioFlag": "N",
      "BitsAllocated": 16,
      "BitsStored": 12,
      "BodyPartExamined": "BRAIN",
      "Columns": 480,
      "EchoNumbers": 1,
      "EchoTime": 30.0,
      "EchoTrainLength": 80,
      "FlipAngle": 10.0,
      "HighBit": 11,
      "ImageOrientationPatient": [0.99864760220308, 0.00779049490947, -0.0514030621957, 0.00819215942046, 0.95277845470704, 0.30355576879727],
      "ImagePositionPatient": [-726.76670967731, -683.99949863187, -231.34804445625],
      "ImageType": [
        "ORIGINAL",
        "PRIMARY",
        "M",
        "ND",
        "NORM",
        "MOSAIC"
],
      "ImagedNucleus": "1H",
      "ImagingFrequency": 123.252348,
      "InPlanePhaseEncodingDirection": "COL",
      "MRAcquisitionType": "2D",
      "MagneticFieldStrength": 3.0,
      "Manufacturer": "SIEMENS",
      "ManufacturerModelName": "Prisma",
      "Modality": "MR",
      "NumberOfAverages": 1.0,
      "NumberOfPhaseEncodingSteps": 80,
      "PercentPhaseFieldOfView": 100.0,
      "PercentSampling": 100.0,
      "PerformedProcedureStepStartTime": "092429.543000",
      "PhotometricInterpretation": "MONOCHROME2",
      "PixelBandwidth": 2315.0,
      "PixelRepresentation": 0,
      "PixelSpacing": [3.0, 3.0],
      "ProtocolName": "func-bold_fa-10",
      "RepetitionTime": 2000.0,
      "Rows": 480,
      "SAR": 0.01009636661741,
      "SamplesPerPixel": 1,
      "ScanOptions": "FS",
      "ScanningSequence": "EP",
      "SequenceName": "*epfid2d1_80",
      "SequenceVariant": "SK",
      "SeriesDescription": "func-bold_fa-10",
      "SeriesNumber": 10,
      "SeriesTime": "095304.468000",
      "SliceLocation": -49.783965330653,
      "SliceThickness": 3.5,
      "SmallestImagePixelValue": 0,
      "SoftwareVersions": "syngo MR E11",
      "SpacingBetweenSlices": 3.9900000624415,
      "SpecificCharacterSet": "ISO_IR 100",
      "StudyID": "5",
      "StudyTime": "092429.450000",
      "TransmitCoilName": "Body",
      "VariableFlipAngleFlag": "N",
      "WindowCenterWidthExplanation": "Algo1"
    },
    "slices": {}
  },
  "time": {
    "samples": {
      "AcquisitionNumber": [1, 2, 3, 4, 5, 6, 7, 8, 9, 10, 11, 12, 13, 14, 15, 16, 17, 18, 19, 20, 21, 22, 23, 24, 25, 26, 27, 28, 29, 30, 31, 32, 33, 34, 35, 36, 37, 38, 39, 40, 41, 42, 43, 44, 45, 46, 47, 48, 49, 50, 51, 52, 53, 54, 55, 56, 57, 58, 59, 60, 61, 62, 63, 64, 65, 66, 67, 68, 69, 70, 71, 72, 73, 74, 75, 76, 77, 78, 79, 80, 81, 82, 83, 84, 85, 86, 87, 88, 89, 90, 91, 92, 93, 94, 95, 96, 97, 98, 99, 100, 101, 102, 103, 104, 105, 106, 107, 108, 109, 110, 111, 112, 113, 114, 115, 116, 117, 118, 119, 120, 121, 122, 123, 124, 125, 126, 127, 128, 129, 130, 131, 132, 133, 134, 135, 136, 137, 138, 139, 140, 141, 142, 143, 144, 145, 146, 147, 148, 149, 150, 151, 152, 153, 154, 155, 156, 157, 158, 159, 160, 161, 162, 163, 164, 165, 166, 167, 168, 169, 170, 171, 172, 173, 174, 175, 176, 177, 178, 179, 180, 181, 182, 183, 184, 185, 186, 187, 188, 189, 190, 191, 192, 193, 194, 195, 196, 197, 198, 199, 200],
      "AcquisitionTime": ["095206.470000", "095208.470000", "095210.470000", "095212.470000", "095214.470000", "095216.470000", "095218.470000", "095220.470000", "095222.470000", "095224.470000", "095226.470000", "095228.470000", "095230.470000", "095232.470000", "095234.470000", "095236.470000", "095238.470000", "095240.470000", "095242.470000", "095244.470000", "095246.470000", "095248.470000", "095250.470000", "095252.470000", "095254.470000", "095256.470000", "095258.470000", "095300.470000", "095302.470000", "095304.470000", "095306.470000", "095308.470000", "095310.470000", "095312.470000", "095314.470000", "095316.470000", "095318.470000", "095320.470000", "095322.470000", "095324.470000", "095326.470000", "095328.470000", "095330.470000", "095332.470000", "095334.470000", "095336.470000", "095338.470000", "095340.470000", "095342.470000", "095344.470000", "095346.470000", "095348.470000", "095350.470000", "095352.470000", "095354.470000", "095356.470000", "095358.470000", "095400.470000", "095402.470000", "095404.470000", "095406.470000", "095408.470000", "095410.470000", "095412.470000", "095414.470000", "095416.470000", "095418.470000", "095420.470000", "095422.470000", "095424.470000", "095426.470000", "095428.470000", "095430.470000", "095432.470000", "095434.470000", "095436.470000", "095438.470000", "095440.470000", "095442.470000", "095444.470000", "095446.470000", "095448.470000", "095450.470000", "095452.470000", "095454.470000", "095456.470000", "095458.470000", "095500.470000", "095502.470000", "095504.470000", "095506.470000", "095508.470000", "095510.470000", "095512.470000", "095514.470000", "095516.470000", "095518.470000", "095520.470000", "095522.470000", "095524.470000", "095526.470000", "095528.470000", "095530.470000", "095532.470000", "095534.470000", "095536.470000", "095538.470000", "095540.470000", "095542.470000", "095544.470000", "095546.470000", "095548.470000", "095550.470000", "095552.470000", "095554.470000", "095556.470000", "095558.470000", "095600.470000", "095602.470000", "095604.470000", "095606.470000", "095608.470000", "095610.470000", "095612.470000", "095614.470000", "095616.470000", "095618.470000", "095620.470000", "095622.470000", "095624.470000", "095626.470000", "095628.470000", "095630.470000", "095632.470000", "095634.470000", "095636.470000", "095638.470000", "095640.470000", "095642.470000", "095644.470000", "095646.470000", "095648.470000", "095650.470000", "095652.470000", "095654.470000", "095656.470000", "095658.470000", "095700.470000", "095702.470000", "095704.470000", "095706.470000", "095708.470000", "095710.470000", "095712.470000", "095714.470000", "095716.470000", "095718.470000", "095720.470000", "095722.470000", "095724.470000", "095726.470000", "095728.470000", "095730.470000", "095732.470000", "095734.470000", "095736.470000", "095738.470000", "095740.470000", "095742.470000", "095744.470000", "095746.470000", "095748.470000", "095750.470000", "095752.470000", "095754.470000", "095756.470000", "095758.470000", "095800.470000", "095802.470000", "095804.470000", "095806.470000", "095808.470000", "095810.470000", "095812.470000", "095814.470000", "095816.470000", "095818.470000", "095820.470000", "095822.470000", "095824.470000", "095826.470000", "095828.470000", "095830.470000", "095832.470000", "095834.470000", "095836.470000", "095838.470000", "095840.470000", "095842.470000", "095844.470000"],
      "ContentTime": ["095304.472000", "095304.475000", "095304.477000", "095304.479000", "095304.482000", "095304.484000", "095304.486000", "095304.489000", "095304.491000", "095304.493000", "095304.495000", "095304.498000", "095304.500000", "095304.502000", "095304.505000", "095304.507000", "095304.509000", "095304.512000", "095304.514000", "095304.516000", "095304.519000", "095304.521000", "095304.523000", "095304.526000", "095304.528000", "095304.530000", "095304.533000", "095304.535000", "095304.537000", "095344.466000", "095344.469000", "095344.471000", "095344.473000", "095344.475000", "095344.478000", "095344.480000", "095344.482000", "095344.485000", "095344.487000", "095344.489000", "095344.492000", "095344.494000", "095344.496000", "095344.498000", "095344.501000", "095344.503000", "095344.505000", "095344.508000", "095344.510000", "095424.466000", "095424.469000", "095424.471000", "095424.473000", "095424.476000", "095424.478000", "095424.480000", "095424.482000", "095424.485000", "095424.487000", "095424.489000", "095424.492000", "095424.494000", "095424.496000", "095424.499000", "095424.501000", "095424.503000", "095424.506000", "095424.508000", "095424.510000", "095504.467000", "095504.470000", "095504.472000", "095504.475000", "095504.477000", "095504.479000", "095504.481000", "095504.484000", "095504.486000", "095504.488000", "095504.491000", "095504.493000", "095504.495000", "095504.497000", "095504.500000", "095504.502000", "095504.504000", "095504.507000", "095504.509000", "095504.511000", "095544.467000", "095544.470000", "095544.472000", "095544.474000", "095544.476000", "095544.479000", "095544.481000", "095544.483000", "095544.486000", "095544.488000", "095544.490000", "095544.492000", "095544.495000", "095544.497000", "095544.499000", "095544.502000", "095544.504000", "095544.506000", "095544.509000", "095544.511000", "095624.466000", "095624.469000", "095624.471000", "095624.488000", "095624.490000", "095624.493000", "095624.495000", "095624.497000", "095624.499000", "095624.502000", "095624.504000", "095624.506000", "095624.509000", "095624.511000", "095624.513000", "095624.516000", "095624.518000", "095624.520000", "095624.523000", "095624.525000", "095704.466000", "095704.469000", "095704.471000", "095704.474000", "095704.476000", "095704.478000", "095704.481000", "095704.483000", "095704.486000", "095704.488000", "095704.490000", "095704.493000", "095704.495000", "095704.497000", "095704.500000", "095704.502000", "095704.504000", "095704.507000", "095704.509000", "095704.511000", "095744.467000", "095744.470000", "095744.472000", "095744.474000", "095744.477000", "095744.479000", "095744.481000", "095744.484000", "095744.486000", "095744.488000", "095744.491000", "095744.493000", "095744.495000", "095744.498000", "095744.500000", "095744.502000", "095744.505000", "095744.507000", "095744.509000", "095744.511000", "095824.466000", "095824.469000", "095824.471000", "095824.473000", "095824.476000", "095824.478000", "095824.480000", "095824.483000", "095824.485000", "095824.487000", "095824.490000", "095824.492000", "095824.494000", "095824.497000", "095824.499000", "095824.501000", "095824.504000", "095824.506000", "095824.508000", "095824.510000", "095845.927000", "095845.930000", "095845.932000", "095845.935000", "095845.937000", "095845.939000", "095845.942000", "095845.944000", "095845.946000", "095845.949000", "095845.951000"],
      "InstanceCreationTime": ["095304.472000", "095304.475000", "095304.477000", "095304.479000", "095304.482000", "095304.484000", "095304.486000", "095304.489000", "095304.491000", "095304.493000", "095304.495000", "095304.498000", "095304.500000", "095304.502000", "095304.505000", "095304.507000", "095304.509000", "095304.512000", "095304.514000", "095304.516000", "095304.519000", "095304.521000", "095304.523000", "095304.526000", "095304.528000", "095304.530000", "095304.533000", "095304.535000", "095304.537000", "095344.466000", "095344.469000", "095344.471000", "095344.473000", "095344.475000", "095344.478000", "095344.480000", "095344.482000", "095344.485000", "095344.487000", "095344.489000", "095344.492000", "095344.494000", "095344.496000", "095344.498000", "095344.501000", "095344.503000", "095344.505000", "095344.508000", "095344.510000", "095424.466000", "095424.469000", "095424.471000", "095424.473000", "095424.476000", "095424.478000", "095424.480000", "095424.482000", "095424.485000", "095424.487000", "095424.489000", "095424.492000", "095424.494000", "095424.496000", "095424.499000", "095424.501000", "095424.503000", "095424.506000", "095424.508000", "095424.510000", "095504.467000", "095504.470000", "095504.472000", "095504.475000", "095504.477000", "095504.479000", "095504.481000", "095504.484000", "095504.486000", "095504.488000", "095504.491000", "095504.493000", "095504.495000", "095504.497000", "095504.500000", "095504.502000", "095504.504000", "095504.507000", "095504.509000", "095504.511000", "095544.467000", "095544.470000", "095544.472000", "095544.474000", "095544.476000", "095544.479000", "095544.481000", "095544.483000", "095544.486000", "095544.488000", "095544.490000", "095544.492000", "095544.495000", "095544.497000", "095544.499000", "095544.502000", "095544.504000", "095544.506000", "095544.509000", "095544.511000", "095624.466000", "095624.469000", "095624.471000", "095624.488000", "095624.490000", "095624.493000", "095624.495000", "095624.497000", "095624.499000", "095624.502000", "095624.504000", "095624.506000", "095624.509000", "095624.511000", "095624.513000", "095624.516000", "095624.518000", "095624.520000", "095624.523000", "095624.525000", "095704.466000", "095704.469000", "095704.471000", "095704.474000", "095704.476000", "095704.478000", "095704.481000", "095704.483000", "095704.486000", "095704.488000", "095704.490000", "095704.493000", "095704.495000", "095704.497000", "095704.500000", "095704.502000", "095704.504000", "095704.507000", "095704.509000", "095704.511000", "095744.467000", "095744.470000", "095744.472000", "095744.474000", "095744.477000", "095744.479000", "095744.481000", "095744.484000", "095744.486000", "095744.488000", "095744.491000", "095744.493000", "095744.495000", "095744.498000", "095744.500000", "095744.502000", "095744.505000", "095744.507000", "095744.509000", "095744.511000", "095824.466000", "095824.469000", "095824.471000", "095824.473000", "095824.476000", "095824.478000", "095824.480000", "095824.483000", "095824.485000", "095824.487000", "095824.490000", "095824.492000", "095824.494000", "095824.497000", "095824.499000", "095824.501000", "095824.504000", "095824.506000", "095824.508000", "095824.510000", "095845.927000", "095845.930000", "095845.932000", "095845.935000", "095845.937000", "095845.939000", "095845.942000", "095845.944000", "095845.946000", "095845.949000", "095845.951000"],
      "InstanceNumber": [1, 2, 3, 4, 5, 6, 7, 8, 9, 10, 11, 12, 13, 14, 15, 16, 17, 18, 19, 20, 21, 22, 23, 24, 25, 26, 27, 28, 29, 30, 31, 32, 33, 34, 35, 36, 37, 38, 39, 40, 41, 42, 43, 44, 45, 46, 47, 48, 49, 50, 51, 52, 53, 54, 55, 56, 57, 58, 59, 60, 61, 62, 63, 64, 65, 66, 67, 68, 69, 70, 71, 72, 73, 74, 75, 76, 77, 78, 79, 80, 81, 82, 83, 84, 85, 86, 87, 88, 89, 90, 91, 92, 93, 94, 95, 96, 97, 98, 99, 100, 101, 102, 103, 104, 105, 106, 107, 108, 109, 110, 111, 112, 113, 114, 115, 116, 117, 118, 119, 120, 121, 122, 123, 124, 125, 126, 127, 128, 129, 130, 131, 132, 133, 134, 135, 136, 137, 138, 139, 140, 141, 142, 143, 144, 145, 146, 147, 148, 149, 150, 151, 152, 153, 154, 155, 156, 157, 158, 159, 160, 161, 162, 163, 164, 165, 166, 167, 168, 169, 170, 171, 172, 173, 174, 175, 176, 177, 178, 179, 180, 181, 182, 183, 184, 185, 186, 187, 188, 189, 190, 191, 192, 193, 194, 195, 196, 197, 198, 199, 200],
      "LargestImagePixelValue": [415, 418, 415, 416, 418, 418, 418, 418, 415, 416, 416, 415, 417, 419, 419, 416, 414, 415, 414, 417, 417, 415, 417, 414, 414, 416, 417, 417, 417, 415, 417, 415, 416, 417, 416, 416, 418, 416, 417, 415, 416, 417, 418, 416, 418, 415, 416, 416, 418, 416, 416, 417, 416, 416, 415, 418, 417, 417, 416, 415, 415, 413, 415, 418, 418, 414, 416, 417, 414, 416, 416, 418, 418, 415, 413, 414, 413, 416, 415, 415, 417, 416, 415, 416, 414, 415, 418, 417, 416, 416, 415, 416, 416, 417, 417, 415, 414, 415, 414, 416, 418, 418, 417, 417, 414, 416, 415, 416, 416, 417, 414, 414, 414, 415, 416, 415, 417, 415, 413, 414, 413, 416, 418, 417, 415, 414, 413, 413, 415, 416, 415, 414, 414, 415, 416, 416, 414, 416, 415, 417, 415, 414, 414, 415, 414, 415, 416, 414, 414, 414, 413, 416, 416, 415, 415, 414, 415, 416, 415, 416, 416, 415, 414, 414, 414, 415, 417, 415, 415, 414, 414, 416, 416, 417, 417, 415, 414, 415, 414, 414, 415, 415, 416, 416, 415, 413, 413, 416, 415, 415, 413, 415, 415, 416, 415, 414, 415, 416, 414, 414],
      "WindowCenter": [328.0, 328.0, 327.0, 328.0, 327.0, 328.0, 328.0, 328.0, 327.0, 328.0, 328.0, 328.0, 328.0, 328.0, 328.0, 328.0, 328.0, 328.0, 328.0, 328.0, 328.0, 328.0, 328.0, 328.0, 328.0, 328.0, 328.0, 328.0, 328.0, 327.0, 327.0, 328.0, 328.0, 328.0, 328.0, 328.0, 328.0, 328.0, 327.0, 328.0, 328.0, 328.0, 328.0, 328.0, 328.0, 327.0, 328.0, 328.0, 328.0, 328.0, 328.0, 328.0, 328.0, 328.0, 328.0, 328.0, 328.0, 328.0, 328.0, 328.0, 328.0, 328.0, 328.0, 328.0, 328.0, 328.0, 327.0, 327.0, 327.0, 328.0, 328.0, 328.0, 328.0, 328.0, 327.0, 327.0, 328.0, 328.0, 328.0, 328.0, 327.0, 327.0, 328.0, 327.0, 328.0, 328.0, 328.0, 328.0, 327.0, 328.0, 328.0, 327.0, 327.0, 327.0, 328.0, 328.0, 327.0, 328.0, 328.0, 328.0, 328.0, 328.0, 327.0, 327.0, 328.0, 328.0, 328.0, 328.0, 328.0, 328.0, 327.0, 328.0, 328.0, 327.0, 328.0, 328.0, 328.0, 328.0, 328.0, 328.0, 328.0, 327.0, 327.0, 328.0, 328.0, 328.0, 328.0, 327.0, 328.0, 327.0, 328.0, 328.0, 327.0, 328.0, 328.0, 328.0, 328.0, 328.0, 328.0, 327.0, 327.0, 328.0, 328.0, 328.0, 328.0, 328.0, 327.0, 328.0, 327.0, 327.0, 327.0, 328.0, 328.0, 328.0, 328.0, 327.0, 328.0, 328.0, 328.0, 328.0, 328.0, 327.0, 327.0, 327.0, 328.0, 328.0, 327.0, 327.0, 327.0, 327.0, 328.0, 328.0, 328.0, 328.0, 327.0, 328.0, 327.0, 327.0, 328.0, 327.0, 327.0, 328.0, 327.0, 327.0, 328.0, 327.0, 328.0, 327.0, 327.0, 328.0, 327.0, 327.0, 327.0, 327.0, 328.0, 327.0, 328.0, 327.0, 327.0, 327.0],
      "WindowWidth": [702.0, 701.0, 701.0, 702.0, 701.0, 702.0, 702.0, 701.0, 701.0, 701.0, 702.0, 702.0, 702.0, 702.0, 702.0, 702.0, 701.0, 702.0, 702.0, 702.0, 702.0, 702.0, 701.0, 701.0, 702.0, 702.0, 702.0, 702.0, 702.0, 701.0, 701.0, 701.0, 702.0, 702.0, 702.0, 702.0, 702.0, 701.0, 701.0, 701.0, 701.0, 701.0, 702.0, 701.0, 701.0, 701.0, 701.0, 701.0, 701.0, 702.0, 702.0, 701.0, 701.0, 702.0, 701.0, 702.0, 701.0, 702.0, 701.0, 701.0, 701.0, 702.0, 702.0, 702.0, 702.0, 702.0, 701.0, 701.0, 701.0, 702.0, 701.0, 702.0, 701.0, 702.0, 701.0, 701.0, 701.0, 701.0, 702.0, 702.0, 701.0, 701.0, 701.0, 701.0, 702.0, 702.0, 702.0, 701.0, 701.0, 701.0, 701.0, 701.0, 701.0, 701.0, 701.0, 702.0, 701.0, 701.0, 701.0, 702.0, 701.0, 701.0, 701.0, 701.0, 701.0, 701.0, 702.0, 701.0, 702.0, 701.0, 701.0, 701.0, 701.0, 701.0, 701.0, 702.0, 702.0, 701.0, 701.0, 702.0, 701.0, 701.0, 701.0, 701.0, 701.0, 701.0, 702.0, 701.0, 701.0, 701.0, 701.0, 701.0, 701.0, 701.0, 701.0, 701.0, 701.0, 702.0, 702.0, 701.0, 701.0, 702.0, 701.0, 702.0, 701.0, 702.0, 701.0, 701.0, 701.0, 701.0, 701.0, 702.0, 701.0, 701.0, 701.0, 701.0, 701.0, 701.0, 701.0, 701.0, 701.0, 701.0, 701.0, 701.0, 701.0, 701.0, 701.0, 701.0, 701.0, 700.0, 701.0, 701.0, 701.0, 701.0, 701.0, 701.0, 700.0, 701.0, 701.0, 701.0, 701.0, 701.0, 701.0, 701.0, 701.0, 701.0, 701.0, 701.0, 701.0, 701.0, 701.0, 700.0, 700.0, 701.0, 701.0, 701.0, 701.0, 701.0, 701.0, 700.0]
    },
    "slices": {}
  }
}