{
  "AcquisitionMatrixPE": 80,
  "AcquisitionNumber": 1,
  "AcquisitionTime": "09:31:36.775000",
  "BandwidthPerPixelPhaseEncode": 48.077,
  "BaseResolution": 80,
  "BodyPartExamined": "BRAIN",
  "CoilCombinationMethod": "Sum of Squares",
  "ConsistencyInfo": "N4_VE11E_LATEST_20181129",
  "ConversionSoftware": "dcm2niix",
  "ConversionSoftwareVersion": "v1.0.20220720",
  "DerivedVendorReportedEchoSpacing": 0.000519999,
  "DeviceSerialNumber": "66112",
  "DwellTime": 2.7e-06,
  "EchoTime": 0.035,
  "EchoTrainLength": 39,
  "EffectiveEchoSpacing": 0.00026,
  "FlipAngle": 90,
  "HeudiconvVersion": "0.13.1",
  "ImageOrientationPatientDICOM": [0.998648, 0.00779049, -0.0514031, 0.00819216, 0.952778, 0.303556],
  "ImageOrientationText": "Tra>Cor(17.7)>Sag(-2.9)",
  "ImageType": [
    "ORIGINAL",
    "PRIMARY",
    "M",
    "ND",
    "NORM",
    "MOSAIC"
],
  "ImagingFrequency": 123.252,
  "InPlanePhaseEncodingDirectionDICOM": "COL",
  "InstitutionAddress": "Maynard 3,Hanover,NH,US,03755",
  "InstitutionName": "Dartmouth College - PBS",
  "InstitutionalDepartmentName": "Department",
  "MRAcquisitionType": "2D",
  "MagneticFieldStrength": 3,
  "Manufacturer": "Siemens",
  "ManufacturersModelName": "Prisma",
  "MatrixCoilMode": "GRAPPA",
  "Modality": "MR",
  "NonlinearGradientCorrection": false,
  "ParallelReductionFactorInPlane": 2,
  "PartialFourier": 1,
  "PatientPosition": "HFS",
  "PercentPhaseFOV": 100,
  "PercentSampling": 100,
  "PhaseEncodingDirection": "j-",
  "PhaseEncodingSteps": 79,
  "PhaseResolution": 1,
  "PixelBandwidth": 2315,
  "ProcedureStepDescription": "dbic^QA",
  "ProtocolName": "func-bold_task-rest_acq-p2",
  "PulseSequenceDetails": "%SiemensSeq%\\ep2d_bold",
  "ReceiveCoilActiveElements": "HEA;HEP",
  "ReceiveCoilName": "Head_32",
  "ReconMatrixPE": 80,
  "RefLinesPE": 24,
  "RepetitionTime": 2,
  "SAR": 0.0478947,
  "ScanOptions": "FS",
  "ScanningSequence": "EP",
  "SequenceName": "*epfid2d1_80",
  "SequenceVariant": "SK",
  "SeriesDescription": "func-bold_task-rest_acq-p2",
  "SeriesNumber": 5,
  "ShimSetting": [4139, -7695, -7527, 279, -93, -116, 28, 46],
  "SliceThickness": 3.5,
  "SliceTiming": [0.99, 0, 1.055, 0.065, 1.1225, 0.1325, 1.1875, 0.1975, 1.255, 0.265, 1.32, 0.33, 1.385, 0.395, 1.4525, 0.4625, 1.5175, 0.5275, 1.585, 0.595, 1.65, 0.66, 1.715, 0.725, 1.7825, 0.7925, 1.8475, 0.8575, 1.915, 0.925],
  "SoftwareVersions": "syngo MR E11",
  "SpacingBetweenSlices": 3.99,
  "StationName": "AWP66112",
  "TaskName": "rest",
  "TotalReadoutTime": 0.02054,
  "TxRefAmp": 232.827,
  "dcmmeta_affine": [
    [-2.9959428310394287, 0.024576477706432343, -0.20484891533851624, 120.52604675292969],
    [-0.023371484130620956, 2.858335256576538, 1.211229681968689, -120.83694458007812],
    [-0.1542091816663742, -0.9106673002243042, 3.796190023422241, -3.909590244293213],
    [0.0, 0.0, 0.0, 1.0]
],
  "dcmmeta_reorient_transform": [
    [0.0, -1.0, 0.0, 79.0],
    [1.0, 0.0, 0.0, 0.0],
    [0.0, 0.0, 1.0, 0.0],
    [0.0, 0.0, 0.0, 1.0]
],
  "dcmmeta_shape": [80, 80, 30, 200],
  "dcmmeta_slice_dim": 2,
  "dcmmeta_version": 0.6,
  "global": {
    "const": {
      "AccessionNumber": "qa",
      "AcquisitionMatrix": [80, 0, 0, 80],
      "AngioFlag": "N",
      "BitsAllocated": 16,
      "BitsStored": 12,
      "BodyPartExamined": "BRAIN",
      "Columns": 480,
      "EchoNumbers": 1,
      "EchoTime": 35.0,
      "EchoTrainLength": 39,
      "FlipAngle": 90.0,
      "HighBit": 11,
      "ImageOrientationPatient": [0.99864760220308, 0.00779049490947, -0.0514030621957, 0.00819215942046, 0.95277845470704, 0.30355576879727],
      "ImagePositionPatient": [-726.57144426498, -681.31291845075, -227.14393144966],
      "ImageType": [
        "ORIGINAL",
        "PRIMARY",
        "M",
        "ND",
        "NORM",
        "MOSAIC"
],
      "ImagedNucleus": "1H",
      "ImagingFrequency": 123.252347,
      "InPlanePhaseEncodingDirection": "COL",
      "MRAcquisitionType": "2D",
      "MagneticFieldStrength": 3.0,
      "Manufacturer": "SIEMENS",
      "ManufacturerModelName": "Prisma",
      "Modality": "MR",
      "NumberOfAverages": 1.0,
      "NumberOfPhaseEncodingSteps": 79,
      "PercentPhaseFieldOfView": 100.0,
      "PercentSampling": 100.0,
      "PerformedProcedureStepStartTime": "092429.543000",
      "PhotometricInterpretation": "MONOCHROME2",
      "PixelBandwidth": 2315.0,
      "PixelRepresentation": 0,
      "PixelSpacing": [3.0, 3.0],
      "ProtocolName": "func-bold_task-rest_acq-p2",
      "RepetitionTime": 2000.0,
      "Rows": 480,
      "SAR": 0.0478946758738,
      "SamplesPerPixel": 1,
      "ScanOptions": "FS",
      "ScanningSequence": "EP",
      "SequenceName": "*epfid2d1_80",
      "SequenceVariant": "SK",
      "SeriesDescription": "func-bold_task-rest_acq-p2",
      "SeriesNumber": 5,
      "SeriesTime": "093224.468000",
      "SliceLocation": -46.589592776727,
      "SliceThickness": 3.5,
      "SmallestImagePixelValue": 0,
      "SoftwareVersions": "syngo MR E11",
      "SpacingBetweenSlices": 3.9899999320872,
      "SpecificCharacterSet": "ISO_IR 100",
      "StudyID": "5",
      "StudyTime": "092429.450000",
      "TransmitCoilName": "Body",
      "VariableFlipAngleFlag": "N",
      "WindowCenterWidthExplanation": "Algo1"
    },
    "slices": {}
  },
  "time": {
    "samples": {
      "AcquisitionNumber": [1, 2, 3, 4, 5, 6, 7, 8, 9, 10, 11, 12, 13, 14, 15, 16, 17, 18, 19, 20, 21, 22, 23, 24, 25, 26, 27, 28, 29, 30, 31, 32, 33, 34, 35, 36, 37, 38, 39, 40, 41, 42, 43, 44, 45, 46, 47, 48, 49, 50, 51, 52, 53, 54, 55, 56, 57, 58, 59, 60, 61, 62, 63, 64, 65, 66, 67, 68, 69, 70, 71, 72, 73, 74, 75, 76, 77, 78, 79, 80, 81, 82, 83, 84, 85, 86, 87, 88, 89, 90, 91, 92, 93, 94, 95, 96, 97, 98, 99, 100, 101, 102, 103, 104, 105, 106, 107, 108, 109, 110, 111, 112, 113, 114, 115, 116, 117, 118, 119, 120, 121, 122, 123, 124, 125, 126, 127, 128, 129, 130, 131, 132, 133, 134, 135, 136, 137, 138, 139, 140, 141, 142, 143, 144, 145, 146, 147, 148, 149, 150, 151, 152, 153, 154, 155, 156, 157, 158, 159, 160, 161, 162, 163, 164, 165, 166, 167, 168, 169, 170, 171, 172, 173, 174, 175, 176, 177, 178, 179, 180, 181, 182, 183, 184, 185, 186, 187, 188, 189, 190, 191, 192, 193, 194, 195, 196, 197, 198, 199, 200],
      "AcquisitionTime": ["093136.775000", "093138.775000", "093140.775000", "093142.775000", "093144.775000", "093146.775000", "093148.775000", "093150.775000", "093152.775000", "093154.775000", "093156.775000", "093158.775000", "093200.775000", "093202.775000", "093204.775000", "093206.775000", "093208.775000", "093210.775000", "093212.775000", "093214.775000", "093216.775000", "093218.775000", "093220.775000", "093222.775000", "093224.775000", "093226.775000", "093228.775000", "093230.775000", "093232.775000", "093234.775000", "093236.775000", "093238.775000", "093240.775000", "093242.775000", "093244.775000", "093246.775000", "093248.775000", "093250.775000", "093252.775000", "093254.775000", "093256.775000", "093258.775000", "093300.775000", "093302.775000", "093304.775000", "093306.775000", "093308.775000", "093310.775000", "093312.775000", "093314.775000", "093316.775000", "093318.775000", "093320.775000", "093322.775000", "093324.775000", "093326.775000", "093328.775000", "093330.775000", "093332.775000", "093334.775000", "093336.775000", "093338.775000", "093340.775000", "093342.775000", "093344.775000", "093346.775000", "093348.775000", "093350.775000", "093352.775000", "093354.775000", "093356.775000", "093358.775000", "093400.775000", "093402.775000", "093404.775000", "093406.775000", "093408.775000", "093410.775000", "093412.775000", "093414.775000", "093416.775000", "093418.775000", "093420.775000", "093422.775000", "093424.775000", "093426.775000", "093428.775000", "093430.775000", "093432.775000", "093434.775000", "093436.775000", "093438.775000", "093440.775000", "093442.775000", "093444.775000", "093446.775000", "093448.775000", "093450.775000", "093452.775000", "093454.775000", "093456.775000", "093458.775000", "093500.775000", "093502.775000", "093504.775000", "093506.775000", "093508.775000", "093510.775000", "093512.775000", "093514.775000", "093516.775000", "093518.775000", "093520.775000", "093522.775000", "093524.775000", "093526.775000", "093528.775000", "093530.775000", "093532.775000", "093534.775000", "093536.775000", "093538.775000", "093540.775000", "093542.775000", "093544.775000", "093546.775000", "093548.775000", "093550.775000", "093552.775000", "093554.775000", "093556.775000", "093558.775000", "093600.775000", "093602.775000", "093604.775000", "093606.775000", "093608.775000", "093610.775000", "093612.775000", "093614.775000", "093616.775000", "093618.775000", "093620.775000", "093622.775000", "093624.775000", "093626.775000", "093628.775000", "093630.775000", "093632.775000", "093634.775000", "093636.775000", "093638.775000", "093640.775000", "093642.775000", "093644.775000", "093646.775000", "093648.775000", "093650.775000", "093652.775000", "093654.775000", "093656.775000", "093658.775000", "093700.775000", "093702.775000", "093704.775000", "093706.775000", "093708.775000", "093710.775000", "093712.775000", "093714.775000", "093716.775000", "093718.775000", "093720.775000", "093722.775000", "093724.775000", "093726.775000", "093728.775000", "093730.775000", "093732.775000", "093734.775000", "093736.775000", "093738.775000", "093740.775000", "093742.775000", "093744.775000", "093746.775000", "093748.775000", "093750.775000", "093752.775000", "093754.775000", "093756.775000", "093758.775000", "093800.775000", "093802.775000", "093804.775000", "093806.775000", "093808.775000", "093810.775000", "093812.775000", "093814.775000"],
      "ContentTime": ["093224.472000", "093224.475000", "093224.477000", "093224.479000", "093224.482000", "093224.484000", "093224.486000", "093224.489000", "093224.501000", "093224.503000", "093224.505000", "093224.508000", "093224.510000", "093224.512000", "093224.515000", "093224.517000", "093224.519000", "093224.522000", "093224.524000", "093224.526000", "093224.529000", "093224.531000", "093224.534000", "093224.536000", "093304.466000", "093304.469000", "093304.471000", "093304.473000", "093304.476000", "093304.478000", "093304.480000", "093304.483000", "093304.485000", "093304.487000", "093304.490000", "093304.492000", "093304.494000", "093304.497000", "093304.499000", "093304.501000", "093304.504000", "093304.506000", "093304.508000", "093304.511000", "093344.466000", "093344.469000", "093344.471000", "093344.473000", "093344.476000", "093344.478000", "093344.480000", "093344.483000", "093344.485000", "093344.487000", "093344.490000", "093344.492000", "093344.494000", "093344.497000", "093344.505000", "093344.508000", "093344.510000", "093344.512000", "093344.515000", "093344.517000", "093424.467000", "093424.470000", "093424.472000", "093424.474000", "093424.477000", "093424.479000", "093424.481000", "093424.484000", "093424.486000", "093424.489000", "093424.491000", "093424.493000", "093424.495000", "093424.498000", "093424.500000", "093424.502000", "093424.505000", "093424.507000", "093424.509000", "093424.512000", "093504.466000", "093504.469000", "093504.471000", "093504.474000", "093504.476000", "093504.478000", "093504.481000", "093504.483000", "093504.485000", "093504.488000", "093504.490000", "093504.492000", "093504.495000", "093504.497000", "093504.499000", "093504.502000", "093504.504000", "093504.506000", "093504.509000", "093504.511000", "093544.466000", "093544.469000", "093544.471000", "093544.473000", "093544.476000", "093544.478000", "093544.481000", "093544.483000", "093544.485000", "093544.488000", "093544.490000", "093544.492000", "093544.495000", "093544.497000", "093544.499000", "093544.502000", "093544.504000", "093544.506000", "093544.509000", "093544.511000", "093624.467000", "093624.470000", "093624.472000", "093624.474000", "093624.477000", "093624.479000", "093624.481000", "093624.484000", "093624.486000", "093624.488000", "093624.491000", "093624.493000", "093624.495000", "093624.498000", "093624.500000", "093624.502000", "093624.505000", "093624.507000", "093624.510000", "093624.512000", "093704.487000", "093704.490000", "093704.492000", "093704.495000", "093704.497000", "093704.499000", "093704.502000", "093704.504000", "093704.506000", "093704.521000", "093704.524000", "093704.526000", "093704.529000", "093704.531000", "093704.533000", "093704.536000", "093704.538000", "093704.540000", "093704.543000", "093704.545000", "093744.466000", "093744.469000", "093744.471000", "093744.473000", "093744.476000", "093744.478000", "093744.481000", "093744.483000", "093744.485000", "093744.488000", "093744.490000", "093744.492000", "093744.495000", "093744.497000", "093744.499000", "093744.502000", "093744.504000", "093744.506000", "093744.509000", "093744.511000", "093816.235000", "093816.240000", "093816.243000", "093816.246000", "093816.249000", "093816.251000", "093816.259000", "093816.263000", "093816.267000", "093816.270000", "093816.273000", "093816.276000", "093816.279000", "093816.282000", "093816.284000", "093816.287000"],
      "InstanceCreationTime": ["093224.472000", "093224.475000", "093224.477000", "093224.479000", "093224.482000", "093224.484000", "093224.486000", "093224.489000", "093224.501000", "093224.503000", "093224.505000", "093224.508000", "093224.510000", "093224.512000", "093224.515000", "093224.517000", "093224.519000", "093224.522000", "093224.524000", "093224.526000", "093224.529000", "093224.531000", "093224.534000", "093224.536000", "093304.466000", "093304.469000", "093304.471000", "093304.473000", "093304.476000", "093304.478000", "093304.480000", "093304.483000", "093304.485000", "093304.487000", "093304.490000", "093304.492000", "093304.494000", "093304.497000", "093304.499000", "093304.501000", "093304.504000", "093304.506000", "093304.508000", "093304.511000", "093344.466000", "093344.469000", "093344.471000", "093344.473000", "093344.476000", "093344.478000", "093344.480000", "093344.483000", "093344.485000", "093344.487000", "093344.490000", "093344.492000", "093344.494000", "093344.497000", "093344.505000", "093344.508000", "093344.510000", "093344.512000", "093344.515000", "093344.517000", "093424.467000", "093424.470000", "093424.472000", "093424.474000", "093424.477000", "093424.479000", "093424.481000", "093424.484000", "093424.486000", "093424.489000", "093424.491000", "093424.493000", "093424.495000", "093424.498000", "093424.500000", "093424.502000", "093424.505000", "093424.507000", "093424.509000", "093424.512000", "093504.466000", "093504.469000", "093504.471000", "093504.474000", "093504.476000", "093504.478000", "093504.481000", "093504.483000", "093504.485000", "093504.488000", "093504.490000", "093504.492000", "093504.495000", "093504.497000", "093504.499000", "093504.502000", "093504.504000", "093504.506000", "093504.509000", "093504.511000", "093544.466000", "093544.469000", "093544.471000", "093544.473000", "093544.476000", "093544.478000", "093544.481000", "093544.483000", "093544.485000", "093544.488000", "093544.490000", "093544.492000", "093544.495000", "093544.497000", "093544.499000", "093544.502000", "093544.504000", "093544.506000", "093544.509000", "093544.511000", "093624.467000", "093624.470000", "093624.472000", "093624.474000", "093624.477000", "093624.479000", "093624.481000", "093624.484000", "093624.486000", "093624.488000", "093624.491000", "093624.493000", "093624.495000", "093624.498000", "093624.500000", "093624.502000", "093624.505000", "093624.507000", "093624.510000", "093624.512000", "093704.487000", "093704.490000", "093704.492000", "093704.495000", "093704.497000", "093704.499000", "093704.502000", "093704.504000", "093704.506000", "093704.521000", "093704.524000", "093704.526000", "093704.529000", "093704.531000", "093704.533000", "093704.536000", "093704.538000", "093704.540000", "093704.543000", "093704.545000", "093744.466000", "093744.469000", "093744.471000", "093744.473000", "093744.476000", "093744.478000", "093744.481000", "093744.483000", "093744.485000", "093744.488000", "093744.490000", "093744.492000", "093744.495000", "093744.497000", "093744.499000", "093744.502000", "093744.504000", "093744.506000", "093744.509000", "093744.511000", "093816.235000", "093816.240000", "093816.243000", "093816.246000", "093816.249000", "093816.251000", "093816.259000", "093816.263000", "093816.267000", "093816.270000", "093816.273000", "093816.276000", "093816.279000", "093816.282000", "093816.284000", "093816.287000"],
      "InstanceNumber": [1, 2, 3, 4, 5, 6, 7, 8, 9, 10, 11, 12, 13, 14, 15, 16, 17, 18, 19, 20, 21, 22, 23, 24, 25, 26, 27, 28, 29, 30, 31, 32, 33, 34, 35, 36, 37, 38, 39, 40, 41, 42, 43, 44, 45, 46, 47, 48, 49, 50, 51, 52, 53, 54, 55, 56, 57, 58, 59, 60, 61, 62, 63, 64, 65, 66, 67, 68, 69, 70, 71, 72, 73, 74, 75, 76, 77, 78, 79, 80, 81, 82, 83, 84, 85, 86, 87, 88, 89, 90, 91, 92, 93, 94, 95, 96, 97, 98, 99, 100, 101, 102, 103, 104, 105, 106, 107, 108, 109, 110, 111, 112, 113, 114, 115, 116, 117, 118, 119, 120, 121, 122, 123, 124, 125, 126, 127, 128, 129, 130, 131, 132, 133, 134, 135, 136, 137, 138, 139, 140, 141, 142, 143, 144, 145, 146, 147, 148, 149, 150, 151, 152, 153, 154, 155, 156, 157, 158, 159, 160, 161, 162, 163, 164, 165, 166, 167, 168, 169, 170, 171, 172, 173, 174, 175, 176, 177, 178, 179, 180, 181, 182, 183, 184, 185, 186, 187, 188, 189, 190, 191, 192, 193, 194, 195, 196, 197, 198, 199, 200],
      "LargestImagePixelValue": [2443, 2446, 2441, 2443, 2443, 2448, 2440, 2448, 2446, 2451, 2441, 2445, 2443, 2454, 2447, 2442, 2451, 2445, 2455, 2448, 2444, 2442, 2443, 2443, 2445, 2444, 2447, 2436, 2446, 2444, 2446, 2446, 2443, 2446, 2442, 2445, 2441, 2448, 2454, 2444, 2442, 2447, 2445, 2444, 2444, 2445, 2446, 2446, 2451, 2449, 2442, 2453, 2439, 2451, 2443, 2444, 2446, 2444, 2445, 2452, 2451, 2445, 2439, 2450, 2445, 2442, 2443, 2451, 2443, 2453, 2452, 2450, 2446, 2444, 2450, 2453, 2442, 2450, 2447, 2452, 2450, 2449, 2441, 2451, 2446, 2448, 2449, 2447, 2443, 2446, 2440, 2440, 2449, 2447, 2451, 2452, 2440, 2452, 2445, 2451, 2448, 2449, 2449, 2443, 2452, 2447, 2449, 2444, 2446, 2446, 2447, 2450, 2443, 2451, 2451, 2446, 2452, 2454, 2445, 2438, 2452, 2443, 2444, 2445, 2445, 2447, 2449, 2445, 2442, 2452, 2448, 2444, 2452, 2443, 2446, 2448, 2448, 2449, 2447, 2450, 2448, 2443, 2438, 2451, 2448, 2447, 2456, 2444, 2443, 2439, 2448, 2452, 2445, 2451, 2452, 2441, 2437, 2442, 2440, 2446, 2444, 2443, 2445, 2441, 2446, 2437, 2448, 2438, 2446, 2444, 2451, 2447, 2445, 2440, 2446, 2442, 2441, 2445, 2440, 2449, 2449, 2444, 2449, 2449, 2450, 2449, 2438, 2441, 2444, 2444, 2443, 2446, 2442, 2448, 2449, 2447, 2436, 2452, 2444, 2445],
      "WindowCenter": [1079.0, 1079.0, 1080.0, 1079.0, 1079.0, 1079.0, 1079.0, 1079.0, 1079.0, 1079.0, 1079.0, 1079.0, 1079.0, 1079.0, 1079.0, 1079.0, 1079.0, 1079.0, 1079.0, 1079.0, 1079.0, 1079.0, 1079.0, 1079.0, 1079.0, 1079.0, 1079.0, 1079.0, 1079.0, 1079.0, 1079.0, 1079.0, 1079.0, 1079.0, 1079.0, 1079.0, 1079.0, 1079.0, 1079.0, 1079.0, 1079.0, 1079.0, 1079.0, 1079.0, 1079.0, 1079.0, 1079.0, 1079.0, 1079.0, 1079.0, 1079.0, 1079.0, 1079.0, 1079.0, 1079.0, 1079.0, 1079.0, 1079.0, 1079.0, 1079.0, 1079.0, 1079.0, 1079.0, 1079.0, 1079.0, 1079.0, 1079.0, 1079.0, 1079.0, 1079.0, 1079.0, 1079.0, 1079.0, 1079.0, 1079.0, 1079.0, 1079.0, 1079.0, 1079.0, 1079.0, 1079.0, 1079.0, 1079.0, 1079.0, 1079.0, 1079.0, 1079.0, 1079.0, 1079.0, 1079.0, 1079.0, 1079.0, 1079.0, 1079.0, 1079.0, 1079.0, 1079.0, 1079.0, 1079.0, 1079.0, 1079.0, 1079.0, 1079.0, 1079.0, 1079.0, 1079.0, 1079.0, 1079.0, 1079.0, 1079.0, 1079.0, 1079.0, 1079.0, 1079.0, 1079.0, 1079.0, 1079.0, 1079.0, 1079.0, 1079.0, 1079.0, 1079.0, 1079.0, 1079.0, 1079.0, 1079.0, 1079.0, 1079.0, 1079.0, 1079.0, 1079.0, 1079.0, 1079.0, 1079.0, 1079.0, 1079.0, 1079.0, 1079.0, 1079.0, 1079.0, 1079.0, 1079.0, 1079.0, 1079.0, 1079.0, 1079.0, 1079.0, 1079.0, 1079.0, 1079.0, 1079.0, 1079.0, 1079.0, 1079.0, 1079.0, 1079.0, 1079.0, 1079.0, 1079.0, 1079.0, 1079.0, 1079.0, 1079.0, 1079.0, 1079.0, 1079.0, 1079.0, 1079.0, 1079.0, 1079.0, 1079.0, 1079.0, 1079.0, 1079.0, 1079.0, 1079.0, 1079.0, 1079.0, 1079.0, 1079.0, 1079.0, 1079.0, 1079.0, 1079.0, 1079.0, 1079.0, 1079.0, 1079.0, 1079.0, 1079.0, 1079.0, 1079.0, 1079.0, 1079.0, 1079.0, 1079.0, 1079.0, 1079.0, 1079.0, 1079.0],
      "WindowWidth": [2447.0, 2446.0, 2446.0, 2446.0, 2446.0, 2445.0, 2445.0, 2446.0, 2446.0, 2445.0, 2445.0, 2446.0, 2445.0, 2445.0, 2446.0, 2445.0, 2445.0, 2445.0, 2445.0, 2445.0, 2445.0, 2445.0, 2445.0, 2445.0, 2445.0, 2445.0, 2445.0, 2445.0, 2445.0, 2445.0, 2445.0, 2445.0, 2445.0, 2445.0, 2445.0, 2445.0, 2445.0, 2445.0, 2445.0, 2445.0, 2445.0, 2445.0, 2445.0, 2445.0, 2445.0, 2445.0, 2445.0, 2445.0, 2445.0, 2445.0, 2445.0, 2445.0, 2445.0, 2445.0, 2445.0, 2445.0, 2445.0, 2445.0, 2445.0, 2445.0, 2445.0, 2445.0, 2445.0, 2445.0, 2445.0, 2445.0, 2445.0, 2445.0, 2445.0, 2445.0, 2445.0, 2444.0, 2444.0, 2444.0, 2444.0, 2444.0, 2444.0, 2445.0, 2445.0, 2445.0, 2445.0, 2444.0, 2444.0, 2445.0, 2444.0, 2445.0, 2445.0, 2444.0, 2445.0, 2444.0, 2445.0, 2445.0, 2445.0, 2444.0, 2445.0, 2445.0, 2444.0, 2444.0, 2445.0, 2444.0, 2445.0, 2444.0, 2444.0, 2444.0, 2445.0, 2444.0, 2444.0, 2444.0, 2445.0, 2445.0, 2444.0, 2445.0, 2444.0, 2444.0, 2444.0, 2444.0, 2445.0, 2445.0, 2445.0, 2445.0, 2445.0, 2445.0, 2445.0, 2445.0, 2445.0, 2445.0, 2445.0, 2445.0, 2445.0, 2444.0, 2445.0, 2445.0, 2445.0, 2445.0, 2445.0, 2445.0, 2445.0, 2445.0, 2444.0, 2445.0, 2444.0, 2444.0, 2444.0, 2444.0, 2444.0, 2444.0, 2444.0, 2445.0, 2444.0, 2444.0, 2445.0, 2445.0, 2445.0, 2444.0, 2445.0, 2444.0, 2444.0, 2444.0, 2444.0, 2444.0, 2444.0, 2444.0, 2444.0, 2444.0, 2444.0, 2444.0, 2444.0, 2444.0, 2444.0, 2444.0, 2444.0, 2444.0, 2444.0, 2444.0, 2444.0, 2444.0, 2444.0, 2444.0, 2444.0, 2444.0, 2444.0, 2444.0, 2444.0, 2444.0, 2444.0, 2444.0, 2444.0, 2444.0, 2444.0, 2444.0, 2444.0, 2444.0, 2444.0, 2444.0, 2444.0, 2444.0, 2444.0, 2444.0, 2444.0, 2444.0]
    },
    "slices": {}
  }
}