{
  "AcquisitionMatrixPE": 122,
  "AcquisitionNumber": 1,
  "AcquisitionTime": "10:12:57.477500",
  "BandwidthPerPixelPhaseEncode": 27.785,
  "BaseResolution": 122,
  "BodyPartExamined": "BRAIN",
  "CoilCombinationMethod": "Adaptive Combine",
  "ConsistencyInfo": "N4_VE11C_LATEST_20160120",
  "ConversionSoftware": "dcm2niix",
  "ConversionSoftwareVersion": "v1.0.20220720",
  "DerivedVendorReportedEchoSpacing": 0.000590011,
  "DeviceSerialNumber": "66112",
  "DiffusionScheme": "Monopolar",
  "DwellTime": 2e-06,
  "EchoTime": 0.068,
  "EchoTrainLength": 61,
  "EffectiveEchoSpacing": 0.000295005,
  "FlipAngle": 90,
  "HeudiconvVersion": "0.13.1",
  "ImageOrientationPatientDICOM": [0.98794, -0.154779, 0.00416217, 0.146591, 0.943653, 0.296697],
  "ImageOrientationText": "Tra>Cor(17.0)>Sag(2.9)",
  "ImageType": [
    "ORIGINAL",
    "PRIMARY",
    "DIFFUSION",
    "NONE",
    "ND",
    "NORM"
],
  "ImagingFrequency": 123.252,
  "InPlanePhaseEncodingDirectionDICOM": "COL",
  "InstitutionAddress": "Maynard 3,Hanover,NH,US,03755",
  "InstitutionName": "Dartmouth College - PBS",
  "InstitutionalDepartmentName": "Department",
  "MRAcquisitionType": "2D",
  "MagneticFieldStrength": 3,
  "Manufacturer": "Siemens",
  "ManufacturersModelName": "Prisma",
  "Modality": "MR",
  "MultibandAccelerationFactor": 4,
  "NonlinearGradientCorrection": false,
  "ParallelReductionFactorInPlane": 2,
  "PartialFourier": 1,
  "PatientPosition": "HFS",
  "PercentPhaseFOV": 100,
  "PercentSampling": 100,
  "PhaseEncodingDirection": "j-",
  "PhaseEncodingSteps": 122,
  "PhaseResolution": 1,
  "PixelBandwidth": 2050,
  "ProcedureStepDescription": "dbic^QA",
  "ProtocolName": "dwi_acq-DTI-30-p2-s4",
  "PulseSequenceDetails": "%SiemensSeq%\\ep2d_diff",
  "ReceiveCoilActiveElements": "HEA;HEP",
  "ReceiveCoilName": "Head_32",
  "ReconMatrixPE": 122,
  "RefLinesPE": 38,
  "RepetitionTime": 3.6,
  "SAR": 0.160294,
  "ScanOptions": "FS",
  "ScanningSequence": "EP",
  "SequenceName": "*ep_b0",
  "SequenceVariant": "SK\\SP",
  "SeriesDescription": "dwi_acq-DTI-30-p2-s4",
  "SeriesNumber": 13,
  "ShimSetting": [4147, -7710, -7528, 242, -86, -113, 13, 43],
  "SliceThickness": 2,
  "SliceTiming": [2.58594, 0, 1.78906, 0.20312, 1.99219, 0.39844, 2.1875, 0.59375, 2.39062, 0.99219, 2.78125, 1.19531, 2.98438, 1.39062, 3.17969, 1.59375, 3.38281, 0.79688, 2.58594, 0, 1.78906, 0.20312, 1.99219, 0.39844, 2.1875, 0.59375, 2.39062, 0.99219, 2.78125, 1.19531, 2.98438, 1.39062, 3.17969, 1.59375, 3.38281, 0.79688, 2.58594, 0, 1.78906, 0.20312, 1.99219, 0.39844, 2.1875, 0.59375, 2.39062, 0.99219, 2.78125, 1.19531, 2.98438, 1.39062, 3.17969, 1.59375, 3.38281, 0.79688, 2.58594, 0, 1.78906, 0.20312, 1.99219, 0.39844, 2.1875, 0.59375, 2.39062, 0.99219, 2.78125, 1.19531, 2.98438, 1.39062, 3.17969, 1.59375, 3.38281, 0.79688],
  "SoftwareVersions": "syngo MR E11",
  "SpacingBetweenSlices": 2,
  "SpoilingState": true,
  "StationName": "AWP66112",
  "TotalReadoutTime": 0.0356956,
  "TxRefAmp": 219.216,
  "dcmmeta_affine": [
    [-1.9434890747070312, 0.28837597370147705, 0.0997006893157959, 98.06546020507812],
    [0.30448421835899353, 1.8563673496246338, 0.5850181579589844, -156.12026977539062],
    [0.008187878876924515, -0.5836670398712158, 1.9099197387695312, -29.93689727783203],
    [0.0, 0.0, 0.0, 1.0]
],
  "dcmmeta_reorient_transform": [
    [0.0, -1.0, 0.0, 121.0],
    [1.0, 0.0, 0.0, 0.0],
    [0.0, 0.0, -1.0, 71.0],
    [0.0, 0.0, 0.0, 1.0]
],
  "dcmmeta_shape": [122, 122, 72, 31],
  "dcmmeta_slice_dim": 2,
  "dcmmeta_version": 0.6,
  "global": {
    "const": {
      "AccessionNumber": "qa",
      "AcquisitionMatrix": [122, 0, 0, 122],
      "AngioFlag": "N",
      "BitsAllocated": 16,
      "BitsStored": 12,
      "BodyPartExamined": "BRAIN",
      "Columns": 122,
      "EchoNumbers": 1,
      "EchoTime": 68.0,
      "EchoTrainLength": 61,
      "FlipAngle": 90.0,
      "HighBit": 11,
      "ImageOrientationPatient": [0.98794027598268, -0.1547794799679, 0.00416217156563, 0.14659112216529, 0.9436533782329, 0.29669739576201],
      "ImageType": [
        "ORIGINAL",
        "PRIMARY",
        "DIFFUSION",
        "NONE",
        "ND",
        "NORM"
],
      "ImagedNucleus": "1H",
      "ImagingFrequency": 123.252353,
      "InPlanePhaseEncodingDirection": "COL",
      "MRAcquisitionType": "2D",
      "MagneticFieldStrength": 3.0,
      "Manufacturer": "SIEMENS",
      "ManufacturerModelName": "Prisma",
      "Modality": "MR",
      "NumberOfAverages": 1.0,
      "NumberOfPhaseEncodingSteps": 122,
      "PercentPhaseFieldOfView": 100.0,
      "PercentSampling": 100.0,
      "PerformedProcedureStepStartTime": "093453.226000",
      "PhotometricInterpretation": "MONOCHROME2",
      "PixelBandwidth": 2050.0,
      "PixelRepresentation": 0,
      "PixelSpacing": [1.9672131538391, 1.9672131538391],
      "ProtocolName": "dwi_acq-DTI-30-p2-s4",
      "RepetitionTime": 3600.0,
      "Rows": 122,
      "SAR": 0.16029365858818,
      "SamplesPerPixel": 1,
      "ScanOptions": "FS",
      "ScanningSequence": "EP",
      "SequenceVariant": [
        "SK",
        "SP"
],
      "SeriesDescription": "dwi_acq-DTI-30-p2-s4",
      "SeriesNumber": 13,
      "SeriesTime": "101306.044000",
      "SliceThickness": 2.0,
      "SmallestImagePixelValue": 0,
      "SoftwareVersions": "syngo MR E11",
      "SpacingBetweenSlices": 2.0,
      "SpecificCharacterSet": "ISO_IR 100",
      "StudyID": "48",
      "StudyTime": "093453.177000",
      "TransmitCoilName": "Body",
      "VariableFlipAngleFlag": "N",
      "WindowCenterWidthExplanation": "Algo1",
      "dBdt": 0.0},
    "slices": {
      "AcquisitionTime": ["101257.477500", "101254.892500", "101256.682500", "101255.090000", "101256.880000", "101255.290000", "101257.080000", "101255.487500", "101257.277500", "101255.885000", "101257.675000", "101256.085000", "101257.875000", "101256.282500", "101258.072500", "101256.482500", "101258.272500", "101255.687500", "101257.477500", "101254.892500", "101256.682500", "101255.090000", "101256.880000", "101255.290000", "101257.080000", "101255.487500", "101257.277500", "101255.885000", "101257.675000", "101256.085000", "101257.875000", "101256.282500", "101258.072500", "101256.482500", "101258.272500", "101255.687500", "101257.477500", "101254.892500", "101256.682500", "101255.090000", "101256.880000", "101255.290000", "101257.080000", "101255.487500", "101257.277500", "101255.885000", "101257.675000", "101256.085000", "101257.875000", "101256.282500", "101258.072500", "101256.482500", "101258.272500", "101255.687500", "101257.477500", "101254.892500", "101256.682500", "101255.090000", "101256.880000", "101255.290000", "101257.080000", "101255.487500", "101257.277500", "101255.885000", "101257.675000", "101256.085000", "101257.875000", "101256.282500", "101258.072500", "101256.482500", "101258.272500", "101255.687500", "101301.077500", "101258.492500", "101300.282500", "101258.690000", "101300.480000", "101258.890000", "101300.680000", "101259.087500", "101300.877500", "101259.485000", "101301.275000", "101259.685000", "101301.475000", "101259.882500", "101301.672500", "101300.082500", "101301.872500", "101259.287500", "101301.077500", "101258.492500", "101300.282500", "101258.690000", "101300.480000", "101258.890000", "101300.680000", "101259.087500", "101300.877500", "101259.485000", "101301.275000", "101259.685000", "101301.475000", "101259.882500", "101301.672500", "101300.082500", "101301.872500", "101259.287500", "101301.077500", "101258.492500", "101300.282500", "101258.690000", "101300.480000", "101258.890000", "101300.680000", "101259.087500", "101300.877500", "101259.485000", "101301.275000", "101259.685000", "101301.475000", "101259.882500", "101301.672500", "101300.082500", "101301.872500", "101259.287500", "101301.077500", "101258.492500", "101300.282500", "101258.690000", "101300.480000", "101258.890000", "101300.680000", "101259.087500", "101300.877500", "101259.485000", "101301.275000", "101259.685000", "101301.475000", "101259.882500", "101301.672500", "101300.082500", "101301.872500", "101259.287500", "101304.677500", "101302.092500", "101303.882500", "101302.290000", "101304.080000", "101302.490000", "101304.280000", "101302.687500", "101304.477500", "101303.085000", "101304.875000", "101303.285000", "101305.075000", "101303.482500", "101305.272500", "101303.682500", "101305.472500", "101302.887500", "101304.677500", "101302.092500", "101303.882500", "101302.290000", "101304.080000", "101302.490000", "101304.280000", "101302.687500", "101304.477500", "101303.085000", "101304.875000", "101303.285000", "101305.075000", "101303.482500", "101305.272500", "101303.682500", "101305.472500", "101302.887500", "101304.677500", "101302.092500", "101303.882500", "101302.290000", "101304.080000", "101302.490000", "101304.280000", "101302.687500", "101304.477500", "101303.085000", "101304.875000", "101303.285000", "101305.075000", "101303.482500", "101305.272500", "101303.682500", "101305.472500", "101302.887500", "101304.677500", "101302.092500", "101303.882500", "101302.290000", "101304.080000", "101302.490000", "101304.280000", "101302.687500", "101304.477500", "101303.085000", "101304.875000", "101303.285000", "101305.075000", "101303.482500", "101305.272500", "101303.682500", "101305.472500", "101302.887500", "101308.277500", "101305.692500", "101307.482500", "101305.890000", "101307.680000", "101306.090000", "101307.880000", "101306.287500", "101308.077500", "101306.685000", "101308.475000", "101306.885000", "101308.675000", "101307.082500", "101308.872500", "101307.282500", "101309.072500", "101306.487500", "101308.277500", "101305.692500", "101307.482500", "101305.890000", "101307.680000", "101306.090000", "101307.880000", "101306.287500", "101308.077500", "101306.685000", "101308.475000", "101306.885000", "101308.675000", "101307.082500", "101308.872500", "101307.282500", "101309.072500", "101306.487500", "101308.277500", "101305.692500", "101307.482500", "101305.890000", "101307.680000", "101306.090000", "101307.880000", "101306.287500", "101308.077500", "101306.685000", "101308.475000", "101306.885000", "101308.675000", "101307.082500", "101308.872500", "101307.282500", "101309.072500", "101306.487500", "101308.277500", "101305.692500", "101307.482500", "101305.890000", "101307.680000", "101306.090000", "101307.880000", "101306.287500", "101308.077500", "101306.685000", "101308.475000", "101306.885000", "101308.675000", "101307.082500", "101308.872500", "101307.282500", "101309.072500", "101306.487500", "101311.877500", "101309.292500", "101311.082500", "101309.490000", "101311.280000", "101309.690000", "101311.480000", "101309.887500", "101311.677500", "101310.285000", "101312.075000", "101310.485000", "101312.275000", "101310.682500", "101312.472500", "101310.882500", "101312.672500", "101310.087500", "101311.877500", "101309.292500", "101311.082500", "101309.490000", "101311.280000", "101309.690000", "101311.480000", "101309.887500", "101311.677500", "101310.285000", "101312.075000", "101310.485000", "101312.275000", "101310.682500", "101312.472500", "101310.882500", "101312.672500", "101310.087500", "101311.877500", "101309.292500", "101311.082500", "101309.490000", "101311.280000", "101309.690000", "101311.480000", "101309.887500", "101311.677500", "101310.285000", "101312.075000", "101310.485000", "101312.275000", "101310.682500", "101312.472500", "101310.882500", "101312.672500", "101310.087500", "101311.877500", "101309.292500", "101311.082500", "101309.490000", "101311.280000", "101309.690000", "101311.480000", "101309.887500", "101311.677500", "101310.285000", "101312.075000", "101310.485000", "101312.275000", "101310.682500", "101312.472500", "101310.882500", "101312.672500", "101310.087500", "101315.477500", "101312.892500", "101314.682500", "101313.090000", "101314.880000", "101313.290000", "101315.080000", "101313.487500", "101315.277500", "101313.885000", "101315.675000", "101314.085000", "101315.875000", "101314.282500", "101316.072500", "101314.482500", "101316.272500", "101313.687500", "101315.477500", "101312.892500", "101314.682500", "101313.090000", "101314.880000", "101313.290000", "101315.080000", "101313.487500", "101315.277500", "101313.885000", "101315.675000", "101314.085000", "101315.875000", "101314.282500", "101316.072500", "101314.482500", "101316.272500", "101313.687500", "101315.477500", "101312.892500", "101314.682500", "101313.090000", "101314.880000", "101313.290000", "101315.080000", "101313.487500", "101315.277500", "101313.885000", "101315.675000", "101314.085000", "101315.875000", "101314.282500", "101316.072500", "101314.482500", "101316.272500", "101313.687500", "101315.477500", "101312.892500", "101314.682500", "101313.090000", "101314.880000", "101313.290000", "101315.080000", "101313.487500", "101315.277500", "101313.885000", "101315.675000", "101314.085000", "101315.875000", "101314.282500", "101316.072500", "101314.482500", "101316.272500", "101313.687500", "101319.077500", "101316.492500", "101318.282500", "101316.690000", "101318.480000", "101316.890000", "101318.680000", "101317.087500", "101318.877500", "101317.485000", "101319.275000", "101317.685000", "101319.475000", "101317.882500", "101319.672500", "101318.082500", "101319.872500", "101317.287500", "101319.077500", "101316.492500", "101318.282500", "101316.690000", "101318.480000", "101316.890000", "101318.680000", "101317.087500", "101318.877500", "101317.485000", "101319.275000", "101317.685000", "101319.475000", "101317.882500", "101319.672500", "101318.082500", "101319.872500", "101317.287500", "101319.077500", "101316.492500", "101318.282500", "101316.690000", "101318.480000", "101316.890000", "101318.680000", "101317.087500", "101318.877500", "101317.485000", "101319.275000", "101317.685000", "101319.475000", "101317.882500", "101319.672500", "101318.082500", "101319.872500", "101317.287500", "101319.077500", "101316.492500", "101318.282500", "101316.690000", "101318.480000", "101316.890000", "101318.680000", "101317.087500", "101318.877500", "101317.485000", "101319.275000", "101317.685000", "101319.475000", "101317.882500", "101319.672500", "101318.082500", "101319.872500", "101317.287500", "101322.677500", "101320.092500", "101321.882500", "101320.290000", "101322.080000", "101320.490000", "101322.280000", "101320.687500", "101322.477500", "101321.085000", "101322.875000", "101321.285000", "101323.075000", "101321.482500", "101323.272500", "101321.682500", "101323.472500", "101320.887500", "101322.677500", "101320.092500", "101321.882500", "101320.290000", "101322.080000", "101320.490000", "101322.280000", "101320.687500", "101322.477500", "101321.085000", "101322.875000", "101321.285000", "101323.075000", "101321.482500", "101323.272500", "101321.682500", "101323.472500", "101320.887500", "101322.677500", "101320.092500", "101321.882500", "101320.290000", "101322.080000", "101320.490000", "101322.280000", "101320.687500", "101322.477500", "101321.085000", "101322.875000", "101321.285000", "101323.075000", "101321.482500", "101323.272500", "101321.682500", "101323.472500", "101320.887500", "101322.677500", "101320.092500", "101321.882500", "101320.290000", "101322.080000", "101320.490000", "101322.280000", "101320.687500", "101322.477500", "101321.085000", "101322.875000", "101321.285000", "101323.075000", "101321.482500", "101323.272500", "101321.682500", "101323.472500", "101320.887500", "101326.277500", "101323.692500", "101325.482500", "101323.890000", "101325.680000", "101324.090000", "101325.880000", "101324.287500", "101326.077500", "101324.685000", "101326.475000", "101324.885000", "101326.675000", "101325.082500", "101326.872500", "101325.282500", "101327.072500", "101324.487500", "101326.277500", "101323.692500", "101325.482500", "101323.890000", "101325.680000", "101324.090000", "101325.880000", "101324.287500", "101326.077500", "101324.685000", "101326.475000", "101324.885000", "101326.675000", "101325.082500", "101326.872500", "101325.282500", "101327.072500", "101324.487500", "101326.277500", "101323.692500", "101325.482500", "101323.890000", "101325.680000", "101324.090000", "101325.880000", "101324.287500", "101326.077500", "101324.685000", "101326.475000", "101324.885000", "101326.675000", "101325.082500", "101326.872500", "101325.282500", "101327.072500", "101324.487500", "101326.277500", "101323.692500", "101325.482500", "101323.890000", "101325.680000", "101324.090000", "101325.880000", "101324.287500", "101326.077500", "101324.685000", "101326.475000", "101324.885000", "101326.675000", "101325.082500", "101326.872500", "101325.282500", "101327.072500", "101324.487500", "101329.877500", "101327.292500", "101329.082500", "101327.490000", "101329.280000", "101327.690000", "101329.480000", "101327.887500", "101329.677500", "101328.285000", "101330.075000", "101328.485000", "101330.275000", "101328.682500", "101330.472500", "101328.882500", "101330.672500", "101328.087500", "101329.877500", "101327.292500", "101329.082500", "101327.490000", "101329.280000", "101327.690000", "101329.480000", "101327.887500", "101329.677500", "101328.285000", "101330.075000", "101328.485000", "101330.275000", "101328.682500", "101330.472500", "101328.882500", "101330.672500", "101328.087500", "101329.877500", "101327.292500", "101329.082500", "101327.490000", "101329.280000", "101327.690000", "101329.480000", "101327.887500", "101329.677500", "101328.285000", "101330.075000", "101328.485000", "101330.275000", "101328.682500", "101330.472500", "101328.882500", "101330.672500", "101328.087500", "101329.877500", "101327.292500", "101329.082500", "101327.490000", "101329.280000", "101327.690000", "101329.480000", "101327.887500", "101329.677500", "101328.285000", "101330.075000", "101328.485000", "101330.275000", "101328.682500", "101330.472500", "101328.882500", "101330.672500", "101328.087500", "101333.477500", "101330.892500", "101332.682500", "101331.090000", "101332.880000", "101331.290000", "101333.080000", "101331.487500", "101333.277500", "101331.885000", "101333.675000", "101332.085000", "101333.875000", "101332.282500", "101334.072500", "101332.482500", "101334.272500", "101331.687500", "101333.477500", "101330.892500", "101332.682500", "101331.090000", "101332.880000", "101331.290000", "101333.080000", "101331.487500", "101333.277500", "101331.885000", "101333.675000", "101332.085000", "101333.875000", "101332.282500", "101334.072500", "101332.482500", "101334.272500", "101331.687500", "101333.477500", "101330.892500", "101332.682500", "101331.090000", "101332.880000", "101331.290000", "101333.080000", "101331.487500", "101333.277500", "101331.885000", "101333.675000", "101332.085000", "101333.875000", "101332.282500", "101334.072500", "101332.482500", "101334.272500", "101331.687500", "101333.477500", "101330.892500", "101332.682500", "101331.090000", "101332.880000", "101331.290000", "101333.080000", "101331.487500", "101333.277500", "101331.885000", "101333.675000", "101332.085000", "101333.875000", "101332.282500", "101334.072500", "101332.482500", "101334.272500", "101331.687500", "101337.077500", "101334.492500", "101336.282500", "101334.690000", "101336.480000", "101334.890000", "101336.680000", "101335.087500", "101336.877500", "101335.485000", "101337.275000", "101335.685000", "101337.475000", "101335.882500", "101337.672500", "101336.082500", "101337.872500", "101335.287500", "101337.077500", "101334.492500", "101336.282500", "101334.690000", "101336.480000", "101334.890000", "101336.680000", "101335.087500", "101336.877500", "101335.485000", "101337.275000", "101335.685000", "101337.475000", "101335.882500", "101337.672500", "101336.082500", "101337.872500", "101335.287500", "101337.077500", "101334.492500", "101336.282500", "101334.690000", "101336.480000", "101334.890000", "101336.680000", "101335.087500", "101336.877500", "101335.485000", "101337.275000", "101335.685000", "101337.475000", "101335.882500", "101337.672500", "101336.082500", "101337.872500", "101335.287500", "101337.077500", "101334.492500", "101336.282500", "101334.690000", "101336.480000", "101334.890000", "101336.680000", "101335.087500", "101336.877500", "101335.485000", "101337.275000", "101335.685000", "101337.475000", "101335.882500", "101337.672500", "101336.082500", "101337.872500", "101335.287500", "101340.677500", "101338.092500", "101339.882500", "101338.290000", "101340.080000", "101338.490000", "101340.280000", "101338.687500", "101340.477500", "101339.085000", "101340.875000", "101339.285000", "101341.075000", "101339.482500", "101341.272500", "101339.682500", "101341.472500", "101338.887500", "101340.677500", "101338.092500", "101339.882500", "101338.290000", "101340.080000", "101338.490000", "101340.280000", "101338.687500", "101340.477500", "101339.085000", "101340.875000", "101339.285000", "101341.075000", "101339.482500", "101341.272500", "101339.682500", "101341.472500", "101338.887500", "101340.677500", "101338.092500", "101339.882500", "101338.290000", "101340.080000", "101338.490000", "101340.280000", "101338.687500", "101340.477500", "101339.085000", "101340.875000", "101339.285000", "101341.075000", "101339.482500", "101341.272500", "101339.682500", "101341.472500", "101338.887500", "101340.677500", "101338.092500", "101339.882500", "101338.290000", "101340.080000", "101338.490000", "101340.280000", "101338.687500", "101340.477500", "101339.085000", "101340.875000", "101339.285000", "101341.075000", "101339.482500", "101341.272500", "101339.682500", "101341.472500", "101338.887500", "101344.277500", "101341.692500", "101343.482500", "101341.890000", "101343.680000", "101342.090000", "101343.880000", "101342.287500", "101344.077500", "101342.685000", "101344.475000", "101342.885000", "101344.675000", "101343.082500", "101344.872500", "101343.282500", "101345.072500", "101342.487500", "101344.277500", "101341.692500", "101343.482500", "101341.890000", "101343.680000", "101342.090000", "101343.880000", "101342.287500", "101344.077500", "101342.685000", "101344.475000", "101342.885000", "101344.675000", "101343.082500", "101344.872500", "101343.282500", "101345.072500", "101342.487500", "101344.277500", "101341.692500", "101343.482500", "101341.890000", "101343.680000", "101342.090000", "101343.880000", "101342.287500", "101344.077500", "101342.685000", "101344.475000", "101342.885000", "101344.675000", "101343.082500", "101344.872500", "101343.282500", "101345.072500", "101342.487500", "101344.277500", "101341.692500", "101343.482500", "101341.890000", "101343.680000", "101342.090000", "101343.880000", "101342.287500", "101344.077500", "101342.685000", "101344.475000", "101342.885000", "101344.675000", "101343.082500", "101344.872500", "101343.282500", "101345.072500", "101342.487500", "101347.877500", "101345.292500", "101347.082500", "101345.490000", "101347.280000", "101345.690000", "101347.480000", "101345.887500", "101347.677500", "101346.285000", "101348.075000", "101346.485000", "101348.275000", "101346.682500", "101348.472500", "101346.882500", "101348.672500", "101346.087500", "101347.877500", "101345.292500", "101347.082500", "101345.490000", "101347.280000", "101345.690000", "101347.480000", "101345.887500", "101347.677500", "101346.285000", "101348.075000", "101346.485000", "101348.275000", "101346.682500", "101348.472500", "101346.882500", "101348.672500", "101346.087500", "101347.877500", "101345.292500", "101347.082500", "101345.490000", "101347.280000", "101345.690000", "101347.480000", "101345.887500", "101347.677500", "101346.285000", "101348.075000", "101346.485000", "101348.275000", "101346.682500", "101348.472500", "101346.882500", "101348.672500", "101346.087500", "101347.877500", "101345.292500", "101347.082500", "101345.490000", "101347.280000", "101345.690000", "101347.480000", "101345.887500", "101347.677500", "101346.285000", "101348.075000", "101346.485000", "101348.275000", "101346.682500", "101348.472500", "101346.882500", "101348.672500", "101346.087500", "101351.477500", "101348.892500", "101350.682500", "101349.090000", "101350.880000", "101349.290000", "101351.080000", "101349.487500", "101351.277500", "101349.885000", "101351.675000", "101350.085000", "101351.875000", "101350.282500", "101352.072500", "101350.482500", "101352.272500", "101349.687500", "101351.477500", "101348.892500", "101350.682500", "101349.090000", "101350.880000", "101349.290000", "101351.080000", "101349.487500", "101351.277500", "101349.885000", "101351.675000", "101350.085000", "101351.875000", "101350.282500", "101352.072500", "101350.482500", "101352.272500", "101349.687500", "101351.477500", "101348.892500", "101350.682500", "101349.090000", "101350.880000", "101349.290000", "101351.080000", "101349.487500", "101351.277500", "101349.885000", "101351.675000", "101350.085000", "101351.875000", "101350.282500", "101352.072500", "101350.482500", "101352.272500", "101349.687500", "101351.477500", "101348.892500", "101350.682500", "101349.090000", "101350.880000", "101349.290000", "101351.080000", "101349.487500", "101351.277500", "101349.885000", "101351.675000", "101350.085000", "101351.875000", "101350.282500", "101352.072500", "101350.482500", "101352.272500", "101349.687500", "101355.077500", "101352.492500", "101354.282500", "101352.690000", "101354.480000", "101352.890000", "101354.680000", "101353.087500", "101354.877500", "101353.485000", "101355.275000", "101353.685000", "101355.475000", "101353.882500", "101355.672500", "101354.082500", "101355.872500", "101353.287500", "101355.077500", "101352.492500", "101354.282500", "101352.690000", "101354.480000", "101352.890000", "101354.680000", "101353.087500", "101354.877500", "101353.485000", "101355.275000", "101353.685000", "101355.475000", "101353.882500", "101355.672500", "101354.082500", "101355.872500", "101353.287500", "101355.077500", "101352.492500", "101354.282500", "101352.690000", "101354.480000", "101352.890000", "101354.680000", "101353.087500", "101354.877500", "101353.485000", "101355.275000", "101353.685000", "101355.475000", "101353.882500", "101355.672500", "101354.082500", "101355.872500", "101353.287500", "101355.077500", "101352.492500", "101354.282500", "101352.690000", "101354.480000", "101352.890000", "101354.680000", "101353.087500", "101354.877500", "101353.485000", "101355.275000", "101353.685000", "101355.475000", "101353.882500", "101355.672500", "101354.082500", "101355.872500", "101353.287500", "101358.677500", "101356.092500", "101357.882500", "101356.290000", "101358.080000", "101356.490000", "101358.280000", "101356.687500", "101358.477500", "101357.085000", "101358.875000", "101357.285000", "101359.075000", "101357.482500", "101359.272500", "101357.682500", "101359.472500", "101356.887500", "101358.677500", "101356.092500", "101357.882500", "101356.290000", "101358.080000", "101356.490000", "101358.280000", "101356.687500", "101358.477500", "101357.085000", "101358.875000", "101357.285000", "101359.075000", "101357.482500", "101359.272500", "101357.682500", "101359.472500", "101356.887500", "101358.677500", "101356.092500", "101357.882500", "101356.290000", "101358.080000", "101356.490000", "101358.280000", "101356.687500", "101358.477500", "101357.085000", "101358.875000", "101357.285000", "101359.075000", "101357.482500", "101359.272500", "101357.682500", "101359.472500", "101356.887500", "101358.677500", "101356.092500", "101357.882500", "101356.290000", "101358.080000", "101356.490000", "101358.280000", "101356.687500", "101358.477500", "101357.085000", "101358.875000", "101357.285000", "101359.075000", "101357.482500", "101359.272500", "101357.682500", "101359.472500", "101356.887500", "101402.277500", "101359.692500", "101401.482500", "101359.890000", "101401.680000", "101400.090000", "101401.880000", "101400.287500", "101402.077500", "101400.685000", "101402.475000", "101400.885000", "101402.675000", "101401.082500", "101402.872500", "101401.282500", "101403.072500", "101400.487500", "101402.277500", "101359.692500", "101401.482500", "101359.890000", "101401.680000", "101400.090000", "101401.880000", "101400.287500", "101402.077500", "101400.685000", "101402.475000", "101400.885000", "101402.675000", "101401.082500", "101402.872500", "101401.282500", "101403.072500", "101400.487500", "101402.277500", "101359.692500", "101401.482500", "101359.890000", "101401.680000", "101400.090000", "101401.880000", "101400.287500", "101402.077500", "101400.685000", "101402.475000", "101400.885000", "101402.675000", "101401.082500", "101402.872500", "101401.282500", "101403.072500", "101400.487500", "101402.277500", "101359.692500", "101401.482500", "101359.890000", "101401.680000", "101400.090000", "101401.880000", "101400.287500", "101402.077500", "101400.685000", "101402.475000", "101400.885000", "101402.675000", "101401.082500", "101402.872500", "101401.282500", "101403.072500", "101400.487500", "101405.877500", "101403.292500", "101405.082500", "101403.490000", "101405.280000", "101403.690000", "101405.480000", "101403.887500", "101405.677500", "101404.285000", "101406.075000", "101404.485000", "101406.275000", "101404.682500", "101406.472500", "101404.882500", "101406.672500", "101404.087500", "101405.877500", "101403.292500", "101405.082500", "101403.490000", "101405.280000", "101403.690000", "101405.480000", "101403.887500", "101405.677500", "101404.285000", "101406.075000", "101404.485000", "101406.275000", "101404.682500", "101406.472500", "101404.882500", "101406.672500", "101404.087500", "101405.877500", "101403.292500", "101405.082500", "101403.490000", "101405.280000", "101403.690000", "101405.480000", "101403.887500", "101405.677500", "101404.285000", "101406.075000", "101404.485000", "101406.275000", "101404.682500", "101406.472500", "101404.882500", "101406.672500", "101404.087500", "101405.877500", "101403.292500", "101405.082500", "101403.490000", "101405.280000", "101403.690000", "101405.480000", "101403.887500", "101405.677500", "101404.285000", "101406.075000", "1014