{
  "AcquisitionMatrixPE": 122,
  "AcquisitionNumber": 1,
  "AcquisitionTime": "09:46:57.102500",
  "BandwidthPerPixelPhaseEncode": 28.76,
  "BaseResolution": 122,
  "BodyPartExamined": "BRAIN",
  "CoilCombinationMethod": "Adaptive Combine",
  "ConsistencyInfo": "N4_VE11C_LATEST_20160120",
  "ConversionSoftware": "dcm2niix",
  "ConversionSoftwareVersion": "v1.0.20220720",
  "DerivedVendorReportedEchoSpacing": 0.000570008,
  "DeviceSerialNumber": "66112",
  "DiffusionScheme": "Monopolar",
  "DwellTime": 2e-06,
  "EchoTime": 0.075,
  "EchoTrainLength": 61,
  "EffectiveEchoSpacing": 0.000285004,
  "FlipAngle": 90,
  "HeudiconvVersion": "0.13.1",
  "ImageOrientationPatientDICOM": [0.969541, 0.244375, 0.0164741, -0.237604, 0.922083, 0.305461],
  "ImageOrientationText": "Tra>Cor(17.5)>Sag(-3.4)",
  "ImageType": [
    "ORIGINAL",
    "PRIMARY",
    "DIFFUSION",
    "NONE",
    "ND",
    "NORM"
],
  "ImagingFrequency": 123.252,
  "InPlanePhaseEncodingDirectionDICOM": "COL",
  "InstitutionAddress": "Maynard 3,Hanover,NH,US,03755",
  "InstitutionName": "Dartmouth College - PBS",
  "InstitutionalDepartmentName": "Department",
  "MRAcquisitionType": "2D",
  "MagneticFieldStrength": 3,
  "Manufacturer": "Siemens",
  "ManufacturersModelName": "Prisma",
  "MatrixCoilMode": "GRAPPA",
  "Modality": "MR",
  "NonlinearGradientCorrection": false,
  "ParallelReductionFactorInPlane": 2,
  "PartialFourier": 1,
  "PatientPosition": "HFS",
  "PercentPhaseFOV": 100,
  "PercentSampling": 100,
  "PhaseEncodingDirection": "j-",
  "PhaseEncodingSteps": 122,
  "PhaseResolution": 1,
  "PixelBandwidth": 2050,
  "ProcedureStepDescription": "dbic^QA",
  "ProtocolName": "dwi_acq-DTI-30-p2",
  "PulseSequenceDetails": "%SiemensSeq%\\ep2d_diff",
  "ReceiveCoilActiveElements": "HEA;HEP",
  "ReceiveCoilName": "Head_32",
  "ReconMatrixPE": 122,
  "RefLinesPE": 38,
  "RepetitionTime": 7.7,
  "SAR": 0.101648,
  "ScanOptions": "FS",
  "ScanningSequence": "EP",
  "SequenceName": "*ep_b0",
  "SequenceVariant": "SK\\SP",
  "SeriesDescription": "dwi_acq-DTI-30-p2",
  "SeriesNumber": 8,
  "ShimSetting": [4142, -7696, -7516, 304, -14, -159, -59, 33],
  "SliceThickness": 2,
  "SliceTiming": [3.83594, 0, 3.94531, 0.10938, 4.05469, 0.21875, 4.16406, 0.32812, 4.27344, 0.4375, 4.39062, 0.54688, 4.5, 0.65625, 4.60156, 0.76562, 4.71094, 0.875, 4.82812, 0.98438, 4.9375, 1.09375, 5.04688, 1.20312, 5.15625, 1.3125, 5.26562, 1.42188, 5.375, 1.53125, 5.48438, 1.64062, 5.59375, 1.75781, 5.70312, 1.85938, 5.8125, 1.96875, 5.92188, 2.07812, 6.03125, 2.19531, 6.14062, 2.30469, 6.25, 2.41406, 6.35938, 2.52344, 6.46875, 2.63281, 6.57812, 2.74219, 6.6875, 2.85156, 6.79688, 2.96094, 6.90625, 3.07031, 7.01562, 3.17969, 7.13281, 3.28906, 7.24219, 3.39844, 7.35156, 3.50781, 7.45312, 3.61719, 7.57031, 3.72656],
  "SoftwareVersions": "syngo MR E11",
  "SpacingBetweenSlices": 2,
  "SpoilingState": true,
  "StationName": "AWP66112",
  "TotalReadoutTime": 0.0344855,
  "TxRefAmp": 234.098,
  "dcmmeta_affine": [
    [-1.907293438911438, -0.4674173593521118, -0.11891317367553711, 157.2666015625],
    [-0.48073825240135193, 1.8139348030090332, 0.6001434326171875, -95.0511245727539],
    [0.032407987862825394, -0.6009069085121155, 1.9041252136230469, -35.23762512207031],
    [0.0, 0.0, 0.0, 1.0]
],
  "dcmmeta_reorient_transform": [
    [0.0, -1.0, 0.0, 121.0],
    [1.0, 0.0, 0.0, 0.0],
    [0.0, 0.0, -1.0, 69.0],
    [0.0, 0.0, 0.0, 1.0]
],
  "dcmmeta_shape": [122, 122, 70, 31],
  "dcmmeta_slice_dim": 2,
  "dcmmeta_version": 0.6,
  "global": {
    "const": {
      "AccessionNumber": "qa",
      "AcquisitionMatrix": [122, 0, 0, 122],
      "AngioFlag": "N",
      "BitsAllocated": 16,
      "BitsStored": 12,
      "BodyPartExamined": "BRAIN",
      "Columns": 122,
      "EchoNumbers": 1,
      "EchoTime": 75.0,
      "EchoTrainLength": 61,
      "FlipAngle": 90.0,
      "HighBit": 11,
      "ImageOrientationPatient": [0.96954078202122, 0.24437527974387, 0.01647405984527, -0.2376038241173, 0.92208350448045, 0.30546101802014],
      "ImageType": [
        "ORIGINAL",
        "PRIMARY",
        "DIFFUSION",
        "NONE",
        "ND",
        "NORM"
],
      "ImagedNucleus": "1H",
      "ImagingFrequency": 123.252453,
      "InPlanePhaseEncodingDirection": "COL",
      "MRAcquisitionType": "2D",
      "MagneticFieldStrength": 3.0,
      "Manufacturer": "SIEMENS",
      "ManufacturerModelName": "Prisma",
      "Modality": "MR",
      "NumberOfAverages": 1.0,
      "NumberOfPhaseEncodingSteps": 122,
      "PercentPhaseFieldOfView": 100.0,
      "PercentSampling": 100.0,
      "PerformedProcedureStepStartTime": "092603.955000",
      "PhotometricInterpretation": "MONOCHROME2",
      "PixelBandwidth": 2050.0,
      "PixelRepresentation": 0,
      "PixelSpacing": [1.9672131538391, 1.9672131538391],
      "ProtocolName": "dwi_acq-DTI-30-p2",
      "RepetitionTime": 7700.0,
      "Rows": 122,
      "SAR": 0.10164761689994,
      "SamplesPerPixel": 1,
      "ScanOptions": "FS",
      "ScanningSequence": "EP",
      "SequenceVariant": [
        "SK",
        "SP"
],
      "SeriesDescription": "dwi_acq-DTI-30-p2",
      "SeriesNumber": 8,
      "SeriesTime": "094704.186000",
      "SliceThickness": 2.0,
      "SmallestImagePixelValue": 0,
      "SoftwareVersions": "syngo MR E11",
      "SpacingBetweenSlices": 2.0,
      "SpecificCharacterSet": "ISO_IR 100",
      "StudyID": "73",
      "StudyTime": "092603.811000",
      "TransmitCoilName": "Body",
      "VariableFlipAngleFlag": "N",
      "WindowCenterWidthExplanation": "Algo1",
      "dBdt": 0.0},
    "slices": {
      "AcquisitionTime": ["094657.102500", "094653.262500", "094657.212500", "094653.372500", "094657.322500", "094653.482500", "094657.432500", "094653.592500", "094657.542500", "094653.702500", "094657.652500", "094653.812500", "094657.762500", "094653.922500", "094657.870000", "094654.032500", "094657.980000", "094654.140000", "094658.090000", "094654.250000", "094658.200000", "094654.360000", "094658.310000", "094654.470000", "094658.420000", "094654.580000", "094658.530000", "094654.690000", "094658.640000", "094654.800000", "094658.750000", "094654.910000", "094658.857500", "094655.020000", "094658.967500", "094655.127500", "094659.077500", "094655.237500", "094659.187500", "094655.347500", "094659.297500", "094655.457500", "094659.407500", "094655.567500", "094659.517500", "094655.677500", "094659.627500", "094655.787500", "094659.737500", "094655.897500", "094659.845000", "094656.005000", "094659.955000", "094656.115000", "094700.065000", "094656.225000", "094700.175000", "094656.335000", "094700.285000", "094656.445000", "094700.395000", "094656.555000", "094700.505000", "094656.665000", "094700.615000", "094656.775000", "094700.722500", "094656.885000", "094700.832500", "094656.992500", "094704.802500", "094700.962500", "094704.912500", "094701.072500", "094705.022500", "094701.182500", "094705.132500", "094701.292500", "094705.242500", "094701.402500", "094705.352500", "094701.512500", "094705.462500", "094701.622500", "094705.570000", "094701.732500", "094705.680000", "094701.840000", "094705.790000", "094701.950000", "094705.900000", "094702.060000", "094706.010000", "094702.170000", "094706.120000", "094702.280000", "094706.230000", "094702.390000", "094706.340000", "094702.500000", "094706.450000", "094702.610000", "094706.557500", "094702.720000", "094706.667500", "094702.827500", "094706.777500", "094702.937500", "094706.887500", "094703.047500", "094706.997500", "094703.157500", "094707.107500", "094703.267500", "094707.217500", "094703.377500", "094707.327500", "094703.487500", "094707.437500", "094703.597500", "094707.545000", "094703.705000", "094707.655000", "094703.815000", "094707.765000", "094703.925000", "094707.875000", "094704.035000", "094707.985000", "094704.145000", "094708.095000", "094704.255000", "094708.205000", "094704.365000", "094708.315000", "094704.475000", "094708.422500", "094704.585000", "094708.532500", "094704.692500", "094712.502500", "094708.662500", "094712.612500", "094708.772500", "094712.722500", "094708.882500", "094712.832500", "094708.992500", "094712.942500", "094709.102500", "094713.052500", "094709.212500", "094713.162500", "094709.322500", "094713.270000", "094709.432500", "094713.380000", "094709.540000", "094713.490000", "094709.650000", "094713.600000", "094709.760000", "094713.710000", "094709.870000", "094713.820000", "094709.980000", "094713.930000", "094710.090000", "094714.040000", "094710.200000", "094714.150000", "094710.310000", "094714.257500", "094710.420000", "094714.367500", "094710.527500", "094714.477500", "094710.637500", "094714.587500", "094710.747500", "094714.697500", "094710.857500", "094714.807500", "094710.967500", "094714.917500", "094711.077500", "094715.027500", "094711.187500", "094715.137500", "094711.297500", "094715.245000", "094711.405000", "094715.355000", "094711.515000", "094715.465000", "094711.625000", "094715.575000", "094711.735000", "094715.685000", "094711.845000", "094715.795000", "094711.955000", "094715.905000", "094712.065000", "094716.015000", "094712.175000", "094716.122500", "094712.285000", "094716.232500", "094712.392500", "094720.202500", "094716.362500", "094720.312500", "094716.472500", "094720.422500", "094716.582500", "094720.532500", "094716.692500", "094720.642500", "094716.802500", "094720.752500", "094716.912500", "094720.862500", "094717.022500", "094720.970000", "094717.132500", "094721.080000", "094717.240000", "094721.190000", "094717.350000", "094721.300000", "094717.460000", "094721.410000", "094717.570000", "094721.520000", "094717.680000", "094721.630000", "094717.790000", "094721.740000", "094717.900000", "094721.850000", "094718.010000", "094721.957500", "094718.120000", "094722.067500", "094718.227500", "094722.177500", "094718.337500", "094722.287500", "094718.447500", "094722.397500", "094718.557500", "094722.507500", "094718.667500", "094722.617500", "094718.777500", "094722.727500", "094718.887500", "094722.837500", "094718.997500", "094722.945000", "094719.105000", "094723.055000", "094719.215000", "094723.165000", "094719.325000", "094723.275000", "094719.435000", "094723.385000", "094719.545000", "094723.495000", "094719.655000", "094723.605000", "094719.765000", "094723.715000", "094719.875000", "094723.822500", "094719.985000", "094723.932500", "094720.092500", "094727.902500", "094724.062500", "094728.012500", "094724.172500", "094728.122500", "094724.282500", "094728.232500", "094724.392500", "094728.342500", "094724.502500", "094728.452500", "094724.612500", "094728.562500", "094724.722500", "094728.670000", "094724.832500", "094728.780000", "094724.940000", "094728.890000", "094725.050000", "094729.000000", "094725.160000", "094729.110000", "094725.270000", "094729.220000", "094725.380000", "094729.330000", "094725.490000", "094729.440000", "094725.600000", "094729.550000", "094725.710000", "094729.657500", "094725.820000", "094729.767500", "094725.927500", "094729.877500", "094726.037500", "094729.987500", "094726.147500", "094730.097500", "094726.257500", "094730.207500", "094726.367500", "094730.317500", "094726.477500", "094730.427500", "094726.587500", "094730.537500", "094726.697500", "094730.645000", "094726.805000", "094730.755000", "094726.915000", "094730.865000", "094727.025000", "094730.975000", "094727.135000", "094731.085000", "094727.245000", "094731.195000", "094727.355000", "094731.305000", "094727.465000", "094731.415000", "094727.575000", "094731.522500", "094727.685000", "094731.632500", "094727.792500", "094735.602500", "094731.762500", "094735.712500", "094731.872500", "094735.822500", "094731.982500", "094735.932500", "094732.092500", "094736.042500", "094732.202500", "094736.152500", "094732.312500", "094736.262500", "094732.422500", "094736.370000", "094732.532500", "094736.480000", "094732.640000", "094736.590000", "094732.750000", "094736.700000", "094732.860000", "094736.810000", "094732.970000", "094736.920000", "094733.080000", "094737.030000", "094733.190000", "094737.140000", "094733.300000", "094737.250000", "094733.410000", "094737.357500", "094733.520000", "094737.467500", "094733.627500", "094737.577500", "094733.737500", "094737.687500", "094733.847500", "094737.797500", "094733.957500", "094737.907500", "094734.067500", "094738.017500", "094734.177500", "094738.127500", "094734.287500", "094738.237500", "094734.397500", "094738.345000", "094734.505000", "094738.455000", "094734.615000", "094738.565000", "094734.725000", "094738.675000", "094734.835000", "094738.785000", "094734.945000", "094738.895000", "094735.055000", "094739.005000", "094735.165000", "094739.115000", "094735.275000", "094739.222500", "094735.385000", "094739.332500", "094735.492500", "094743.302500", "094739.462500", "094743.412500", "094739.572500", "094743.522500", "094739.682500", "094743.632500", "094739.792500", "094743.742500", "094739.902500", "094743.852500", "094740.012500", "094743.962500", "094740.122500", "094744.070000", "094740.232500", "094744.180000", "094740.340000", "094744.290000", "094740.450000", "094744.400000", "094740.560000", "094744.510000", "094740.670000", "094744.620000", "094740.780000", "094744.730000", "094740.890000", "094744.840000", "094741.000000", "094744.950000", "094741.110000", "094745.057500", "094741.220000", "094745.167500", "094741.327500", "094745.277500", "094741.437500", "094745.387500", "094741.547500", "094745.497500", "094741.657500", "094745.607500", "094741.767500", "094745.717500", "094741.877500", "094745.827500", "094741.987500", "094745.937500", "094742.097500", "094746.045000", "094742.205000", "094746.155000", "094742.315000", "094746.265000", "094742.425000", "094746.375000", "094742.535000", "094746.485000", "094742.645000", "094746.595000", "094742.755000", "094746.705000", "094742.865000", "094746.815000", "094742.975000", "094746.922500", "094743.085000", "094747.032500", "094743.192500", "094751.002500", "094747.162500", "094751.112500", "094747.272500", "094751.222500", "094747.382500", "094751.332500", "094747.492500", "094751.442500", "094747.602500", "094751.552500", "094747.712500", "094751.662500", "094747.822500", "094751.770000", "094747.932500", "094751.880000", "094748.040000", "094751.990000", "094748.150000", "094752.100000", "094748.260000", "094752.210000", "094748.370000", "094752.320000", "094748.480000", "094752.430000", "094748.590000", "094752.540000", "094748.700000", "094752.650000", "094748.810000", "094752.757500", "094748.920000", "094752.867500", "094749.027500", "094752.977500", "094749.137500", "094753.087500", "094749.247500", "094753.197500", "094749.357500", "094753.307500", "094749.467500", "094753.417500", "094749.577500", "094753.527500", "094749.687500", "094753.637500", "094749.797500", "094753.745000", "094749.905000", "094753.855000", "094750.015000", "094753.965000", "094750.125000", "094754.075000", "094750.235000", "094754.185000", "094750.345000", "094754.295000", "094750.455000", "094754.405000", "094750.565000", "094754.515000", "094750.675000", "094754.622500", "094750.785000", "094754.732500", "094750.892500", "094758.702500", "094754.862500", "094758.812500", "094754.972500", "094758.922500", "094755.082500", "094759.032500", "094755.192500", "094759.142500", "094755.302500", "094759.252500", "094755.412500", "094759.362500", "094755.522500", "094759.470000", "094755.632500", "094759.580000", "094755.740000", "094759.690000", "094755.850000", "094759.800000", "094755.960000", "094759.910000", "094756.070000", "094800.020000", "094756.180000", "094800.130000", "094756.290000", "094800.240000", "094756.400000", "094800.350000", "094756.510000", "094800.457500", "094756.620000", "094800.567500", "094756.727500", "094800.677500", "094756.837500", "094800.787500", "094756.947500", "094800.897500", "094757.057500", "094801.007500", "094757.167500", "094801.117500", "094757.277500", "094801.227500", "094757.387500", "094801.337500", "094757.497500", "094801.445000", "094757.605000", "094801.555000", "094757.715000", "094801.665000", "094757.825000", "094801.775000", "094757.935000", "094801.885000", "094758.045000", "094801.995000", "094758.155000", "094802.105000", "094758.265000", "094802.215000", "094758.375000", "094802.322500", "094758.485000", "094802.432500", "094758.592500", "094806.402500", "094802.562500", "094806.512500", "094802.672500", "094806.622500", "094802.782500", "094806.732500", "094802.892500", "094806.842500", "094803.002500", "094806.952500", "094803.112500", "094807.062500", "094803.222500", "094807.170000", "094803.332500", "094807.280000", "094803.440000", "094807.390000", "094803.550000", "094807.500000", "094803.660000", "094807.610000", "094803.770000", "094807.720000", "094803.880000", "094807.830000", "094803.990000", "094807.940000", "094804.100000", "094808.050000", "094804.210000", "094808.157500", "094804.320000", "094808.267500", "094804.427500", "094808.377500", "094804.537500", "094808.487500", "094804.647500", "094808.597500", "094804.757500", "094808.707500", "094804.867500", "094808.817500", "094804.977500", "094808.927500", "094805.087500", "094809.037500", "094805.197500", "094809.145000", "094805.305000", "094809.255000", "094805.415000", "094809.365000", "094805.525000", "094809.475000", "094805.635000", "094809.585000", "094805.745000", "094809.695000", "094805.855000", "094809.805000", "094805.965000", "094809.915000", "094806.075000", "094810.022500", "094806.185000", "094810.132500", "094806.292500", "094814.102500", "094810.262500", "094814.212500", "094810.372500", "094814.322500", "094810.482500", "094814.432500", "094810.592500", "094814.542500", "094810.702500", "094814.652500", "094810.812500", "094814.762500", "094810.922500", "094814.870000", "094811.032500", "094814.980000", "094811.140000", "094815.090000", "094811.250000", "094815.200000", "094811.360000", "094815.310000", "094811.470000", "094815.420000", "094811.580000", "094815.530000", "094811.690000", "094815.640000", "094811.800000", "094815.750000", "094811.910000", "094815.857500", "094812.020000", "094815.967500", "094812.127500", "094816.077500", "094812.237500", "094816.187500", "094812.347500", "094816.297500", "094812.457500", "094816.407500", "094812.567500", "094816.517500", "094812.677500", "094816.627500", "094812.787500", "094816.737500", "094812.897500", "094816.845000", "094813.005000", "094816.955000", "094813.115000", "094817.065000", "094813.225000", "094817.175000", "094813.335000", "094817.285000", "094813.445000", "094817.395000", "094813.555000", "094817.505000", "094813.665000", "094817.615000", "094813.775000", "094817.722500", "094813.885000", "094817.832500", "094813.992500", "094821.802500", "094817.962500", "094821.912500", "094818.072500", "094822.022500", "094818.182500", "094822.132500", "094818.292500", "094822.242500", "094818.402500", "094822.352500", "094818.512500", "094822.462500", "094818.622500", "094822.570000", "094818.732500", "094822.680000", "094818.840000", "094822.790000", "094818.950000", "094822.900000", "094819.060000", "094823.010000", "094819.170000", "094823.120000", "094819.280000", "094823.230000", "094819.390000", "094823.340000", "094819.500000", "094823.450000", "094819.610000", "094823.557500", "094819.720000", "094823.667500", "094819.827500", "094823.777500", "094819.937500", "094823.887500", "094820.047500", "094823.997500", "094820.157500", "094824.107500", "094820.267500", "094824.217500", "094820.377500", "094824.327500", "094820.487500", "094824.437500", "094820.597500", "094824.545000", "094820.705000", "094824.655000", "094820.815000", "094824.765000", "094820.925000", "094824.875000", "094821.035000", "094824.985000", "094821.145000", "094825.095000", "094821.255000", "094825.205000", "094821.365000", "094825.315000", "094821.475000", "094825.422500", "094821.585000", "094825.532500", "094821.692500", "094829.502500", "094825.662500", "094829.612500", "094825.772500", "094829.722500", "094825.882500", "094829.832500", "094825.992500", "094829.942500", "094826.102500", "094830.052500", "094826.212500", "094830.162500", "094826.322500", "094830.270000", "094826.432500", "094830.380000", "094826.540000", "094830.490000", "094826.650000", "094830.600000", "094826.760000", "094830.710000", "094826.870000", "094830.820000", "094826.980000", "094830.930000", "094827.090000", "094831.040000", "094827.200000", "094831.150000", "094827.310000", "094831.257500", "094827.420000", "094831.367500", "094827.527500", "094831.477500", "094827.637500", "094831.587500", "094827.747500", "094831.697500", "094827.857500", "094831.807500", "094827.967500", "094831.917500", "094828.077500", "094832.027500", "094828.187500", "094832.137500", "094828.297500", "094832.245000", "094828.405000", "094832.355000", "094828.515000", "094832.465000", "094828.625000", "094832.575000", "094828.735000", "094832.685000", "094828.845000", "094832.795000", "094828.955000", "094832.905000", "094829.065000", "094833.015000", "094829.175000", "094833.122500", "094829.285000", "094833.232500", "094829.392500", "094837.202500", "094833.362500", "094837.312500", "094833.472500", "094837.422500", "094833.582500", "094837.532500", "094833.692500", "094837.642500", "094833.802500", "094837.752500", "094833.912500", "094837.862500", "094834.022500", "094837.970000", "094834.132500", "094838.080000", "094834.240000", "094838.190000", "094834.350000", "094838.300000", "094834.460000", "094838.410000", "094834.570000", "094838.520000", "094834.680000", "094838.630000", "094834.790000", "094838.740000", "094834.900000", "094838.850000", "094835.010000", "094838.957500", "094835.120000", "094839.067500", "094835.227500", "094839.177500", "094835.337500", "094839.287500", "094835.447500", "094839.397500", "094835.557500", "094839.507500", "094835.667500", "094839.617500", "094835.777500", "094839.727500", "094835.887500", "094839.837500", "094835.997500", "094839.945000", "094836.105000", "094840.055000", "094836.215000", "094840.165000", "094836.325000", "094840.275000", "094836.435000", "094840.385000", "094836.545000", "094840.495000", "094836.655000", "094840.605000", "094836.765000", "094840.715000", "094836.875000", "094840.822500", "094836.985000", "094840.932500", "094837.092500", "094844.902500", "094841.062500", "094845.012500", "094841.172500", "094845.122500", "094841.282500", "094845.232500", "094841.392500", "094845.342500", "094841.502500", "094845.452500", "094841.612500", "094845.562500", "094841.722500", "094845.670000", "094841.832500", "094845.780000", "094841.940000", "094845.890000", "094842.050000", "094846.000000", "094842.160000", "094846.110000", "094842.270000", "094846.220000", "094842.380000", "094846.330000", "094842.490000", "094846.440000", "094842.600000", "094846.550000", "094842.710000", "094846.657500", "094842.820000", "094846.767500", "094842.927500", "094846.877500", "094843.037500", "094846.987500", "094843.147500", "094847.097500", "094843.257500", "094847.207500", "094843.367500", "094847.317500", "094843.477500", "094847.427500", "094843.587500", "094847.537500", "094843.697500", "094847.645000", "094843.805000", "094847.755000", "094843.915000", "094847.865000", "094844.025000", "094847.975000", "094844.135000", "094848.085000", "094844.245000", "094848.195000", "094844.355000", "094848.305000", "094844.465000", "094848.415000", "094844.575000", "094848.522500", "094844.685000", "094848.632500", "094844.792500", "094852.602500", "094848.762500", "094852.712500", "094848.872500", "094852.822500", "094848.982500", "094852.932500", "094849.092500", "094853.042500", "094849.202500", "094853.152500", "094849.312500", "094853.262500", "094849.422500", "094853.370000", "094849.532500", "094853.480000", "094849.640000", "094853.590000", "094849.750000", "094853.700000", "094849.860000", "094853.810000", "094849.970000", "094853.920000", "094850.080000", "094854.030000", "094850.190000", "094854.140000", "094850.300000", "094854.250000", "094850.410000", "094854.357500", "094850.520000", "094854.467500", "094850.627500", "094854.577500", "094850.737500", "094854.687500", "094850.847500", "094854.797500", "094850.957500", "094854.907500", "094851.067500", "094855.017500", "094851.177500", "094855.127500", "094851.287500", "094855.237500", "094851.397500", "094855.345000", "094851.505000", "094855.455000", "094851.615000", "094855.565000", "094851.725000", "094855.675000", "094851.835000", "094855.785000", "094851.945000", "094855.895000", "094852.055000", "094856.005000", "094852.165000", "094856.115000", "094852.275000", "094856.222500", "094852.385000", "094856.332500", "094852.492500", "094900.302500", "094856.462500", "094900.412500", "094856.572500", "094900.522500", "094856.682500", "094900.632500", "094856.792500", "094900.742500", "094856.902500", "094900.852500", "094857.012500", "094900.962500", "094857.122500", "094901.070000", "094857.232500", "094901.180000", "094857.340000", "094901.290000", "094857.450000", "094901.400000", "094857.560000", "094901.510000", "094857.670000", "094901.620000", "094857.780000", "094901.730000", "094857.890000", "094901.840000", "094858.000000", "094901.950000", "094858.110000", "094902.057500", "094858.220000", "094902.167500", "094858.327500", "094902.277500", "094858.437500", "094902.387500", "094858.547500", "094902.497500", "094858.657500", "094902.607500", "094858.767500", "094902.717500", "094858.877500", "094902.827500", "094858.987500", "094902.937500", "094859.097500", "094903.045000", "094859.205000", "094903.155000", "094859.315000", "094903.265000", "094859.425000", "094903.375000", "094859.535000", "094903.485000", "094859.645000", "094903.595000", "094859.755000", "094903.705000", "094859.865000", "094903.815000", "094859.975000", "094903.922500", "094900.085000", "094904.032500", "094900.192500", "094908.002500", "094904.162500", "094908.112500", "094904.272500", "094908.222500", "094904.382500", "094908.332500", "094904.492500", "094908.442500", "094904.602500", "094908.552500", "094904.712500", "094908.662500", "094904.822500", "094908.770000", "094904.932500", "094908.880000", "094905.040000", "094908.990000", "094905.150000", "094909.100000", "094905.260000", "094909.210000", "094905.370000", "094909.320000", "094905.480000", "094909.430000", "094905.590000", "094909.540000", "094905.700000", "094909.650000", "094905.810000", "094909.757500", "094905.920000", "094909.867500", "094906.027500", "094909.977500", "094906.137500", "094910.087500", "094906.247500", "094910.197500", "094906.357500", "094910.307500", "094906.467500", "094910.417500", "094906.577500", "094910.527500", "094906.687500", "094910.637500", "094906.797500", "094910.745000", "094906.905000", "094910.855000", "094907.015000", "094910.965000", "094907.125000", "094911.075000", "094907.235000", "094911.185000", "094907.345000", "094911.295000", "094907.455000", "094911.405000", "094907.565000", "094911.515000", "094907.675000", "094911.622500", "094907.785000", "094911.732500", "094907.892500", "094915.702500", "094911.862500", "094915.812500", "094911.972500", "094915.922500", "094912.082500", "094916.032500", "094912.192500", "094916.142500", "094912.302500", "094916.252500", "094912.412500", "094916.362500", "094912.522500", "094916.470000", "094912.632500", "094916.580000", "094912.740000", "094916.690000", "094912.850000", "094916.800000", "094912.960000", "094916.910000", "094913.070000", "094917.020000", "094913.180000", "094917.130000", "094913.290000", "094917.240000", "094913.400000", "094917.350000", "094913.510000", "094917.457500", "094913.620000", "094917.567500", "094913.727500", "094917.677500", "094913.837500", "094917.787500", "094913.947500", "094917.897500", "094914.057500", "094918.007500", "094914.167500", "094918.117500", "094914.277500", "094918.227500", "094914.387500", "094918.337500", "094914.497500", "094918.445000", "094914.605000", "094918.555000", "094914.715000", "094918.665000", "094914.825000", "094918.775000", "094914.935000", "094918.885000", "094915.045000", "094918.995000", "094915.155000", "094919.105000", "094915.265000", "094919.215000", "094915.375000", "094919.322500", "094915.485000", "094919.432500", "094915.592500", "094923.402500", "094919.562500", "094923.512500", "094919.672500", "094923.622500", "094919.782500", "094923.732500", "094919.892500", "094923.842500", "094920.002500", "094923.952500", "094920.112500", "094924.062500", "094920.222500", "094924.170000", "094920.332500", "094924.280000", "094920.440000", "094924.390000", "094920.550000", "094924.500000", "094920.660000", "094924.610000", "094920.770000", "094924.720000", "094920.880000", "094924.830000", "094920.990000", "094924.940000", "094921.100000", "094925.050000", "094921.210000", "094925.157500", "094921.320000", "094925.267500", "094921.427500", "094925.377500", "094921.537500", "094925.487500", "094921.647500", "094925.597500", "094921.757500", "094925.707500", "094921.867500", "094925.817500", "094921.977500", "094925.927500", "094922.087500", "094926.037500", "094922.197500", "094926.145000", "094922.305000", "094926.255000", "094922.415000", "094926.365000", "094922.525000", "094926.475000", "094922.635000", "094926.585000", "094922.745000", "094926.695000", "094922.855000", "094926.805000", "094922.965000", "094926.915000", "094923.075000", "094927.022500", "094923.185000", "094927.132500", "094923.292500", "094931.102500", "094927.262500", "094931.212500", "094927.372500", "094931.322500", "094927.482500", "094931.432500", "094927.592500", "094931.542500", "094927.702500", "094931.652500", "094927.812500", "094931.762500", "094927.922500", "094931.870000", "094928.032500", "094931.980000", "094928.140000", "094932.090000", "094928.250000", "094932.200000", "094928.360000", "094932.310000", "094928.470000", "094932.420000", "094928.580000", "094932.530000", "094928.690000", "094932.640000", "094928.800000", "094932.750000", "094928.910000", "094932.857500", "094929.020000", "094932.967500", "094