{
  "AcquisitionMatrixPE": 80,
  "AcquisitionNumber": 1,
  "AcquisitionTime": "10:19:6.127500",
  "BandwidthPerPixelPhaseEncode": 44.643,
  "BaseResolution": 80,
  "BodyPartExamined": "BRAIN",
  "CoilCombinationMethod": "Sum of Squares",
  "ConsistencyInfo": "N4_VE11C_LATEST_20160120",
  "ConversionSoftware": "dcm2niix",
  "ConversionSoftwareVersion": "v1.0.20220720",
  "DerivedVendorReportedEchoSpacing": 0.000559998,
  "DeviceSerialNumber": "66112",
  "DwellTime": 2.7e-06,
  "EchoTime": 0.035,
  "EchoTrainLength": 39,
  "EffectiveEchoSpacing": 0.000279999,
  "FlipAngle": 90,
  "HeudiconvVersion": "0.13.1",
  "ImageOrientationPatientDICOM": [0.99862, -0.0524245, 0.0030545, 0.0490154, 0.951395, 0.304047],
  "ImageOrientationText": "Tra>Cor(17.7)>Sag(1.1)",
  "ImageType": [
    "ORIGINAL",
    "PRIMARY",
    "M",
    "ND",
    "NORM",
    "MOSAIC"
],
  "ImagingFrequency": 123.252,
  "InPlanePhaseEncodingDirectionDICOM": "COL",
  "InstitutionAddress": "Maynard 3,Hanover,NH,US,03755",
  "InstitutionName": "Dartmouth College - PBS",
  "InstitutionalDepartmentName": "Department",
  "MRAcquisitionType": "2D",
  "MagneticFieldStrength": 3,
  "Manufacturer": "Siemens",
  "ManufacturersModelName": "Prisma",
  "Modality": "MR",
  "MultibandAccelerationFactor": 4,
  "NonlinearGradientCorrection": false,
  "ParallelReductionFactorInPlane": 2,
  "PartialFourier": 1,
  "PatientPosition": "HFS",
  "PercentPhaseFOV": 100,
  "PercentSampling": 100,
  "PhaseEncodingDirection": "j-",
  "PhaseEncodingSteps": 79,
  "PhaseResolution": 1,
  "PixelBandwidth": 2315,
  "ProcedureStepDescription": "dbic^QA",
  "ProtocolName": "func-bold_task-rest_acq-p2-s4-3.5mm",
  "PulseSequenceDetails": "%SiemensSeq%\\ep2d_bold",
  "ReceiveCoilActiveElements": "HEA;HEP",
  "ReceiveCoilName": "Head_32",
  "ReconMatrixPE": 80,
  "RefLinesPE": 24,
  "RepetitionTime": 2,
  "SAR": 0.0209105,
  "ScanOptions": "FS",
  "ScanningSequence": "EP",
  "SequenceName": "*epfid2d1_80",
  "SequenceVariant": "SK",
  "SeriesDescription": "func-bold_task-rest_acq-p2-s4-3.5mm",
  "SeriesNumber": 7,
  "ShimSetting": [4148, -7699, -7520, 218, -63, -62, -16, 73],
  "SliceThickness": 3.5,
  "SliceTiming": [1.485, 0, 0.99, 0.2475, 1.2375, 0.7425, 1.7325, 0.495, 1.485, 0, 0.99, 0.2475, 1.2375, 0.7425, 1.7325, 0.495, 1.485, 0, 0.99, 0.2475, 1.2375, 0.7425, 1.7325, 0.495, 1.485, 0, 0.99, 0.2475, 1.2375, 0.7425, 1.7325, 0.495],
  "SoftwareVersions": "syngo MR E11",
  "SpacingBetweenSlices": 3.99,
  "StationName": "AWP66112",
  "TaskName": "rest",
  "TotalReadoutTime": 0.0221199,
  "TxRefAmp": 228.054,
  "dcmmeta_affine": [
    [-2.9958605766296387, 0.1470460444688797, 0.07519380748271942, 114.21150207519531],
    [0.1572735458612442, 2.8541855812072754, 1.2108772993087769, -127.0507583618164],
    [0.00916349422186613, -0.9121417999267578, 3.801081657409668, -16.179241180419922],
    [0.0, 0.0, 0.0, 1.0]
],
  "dcmmeta_reorient_transform": [
    [0.0, -1.0, 0.0, 79.0],
    [1.0, 0.0, 0.0, 0.0],
    [0.0, 0.0, 1.0, 0.0],
    [0.0, 0.0, 0.0, 1.0]
],
  "dcmmeta_shape": [80, 80, 32, 200],
  "dcmmeta_slice_dim": 2,
  "dcmmeta_version": 0.6,
  "global": {
    "const": {
      "AccessionNumber": "qa",
      "AcquisitionMatrix": [80, 0, 0, 80],
      "AngioFlag": "N",
      "BitsAllocated": 16,
      "BitsStored": 12,
      "BodyPartExamined": "BRAIN",
      "Columns": 480,
      "EchoNumbers": 1,
      "EchoTime": 35.0,
      "EchoTrainLength": 39,
      "FlipAngle": 90.0,
      "HighBit": 11,
      "ImageOrientationPatient": [0.99862021813931, -0.0524245168238, 0.00305449818941, 0.04901535047773, 0.95139516424691, 0.30404726090715],
      "ImagePositionPatient": [-754.40948487872, -637.81228716512, -272.49949701827],
      "ImageType": [
        "ORIGINAL",
        "PRIMARY",
        "M",
        "ND",
        "NORM",
        "MOSAIC"
],
      "ImagedNucleus": "1H",
      "ImagingFrequency": 123.252362,
      "InPlanePhaseEncodingDirection": "COL",
      "MRAcquisitionType": "2D",
      "MagneticFieldStrength": 3.0,
      "Manufacturer": "SIEMENS",
      "ManufacturerModelName": "Prisma",
      "Modality": "MR",
      "NumberOfAverages": 1.0,
      "NumberOfPhaseEncodingSteps": 79,
      "PercentPhaseFieldOfView": 100.0,
      "PercentSampling": 100.0,
      "PerformedProcedureStepStartTime": "100544.459000",
      "PhotometricInterpretation": "MONOCHROME2",
      "PixelBandwidth": 2315.0,
      "PixelRepresentation": 0,
      "PixelSpacing": [3.0, 3.0],
      "ProtocolName": "func-bold_task-rest_acq-p2-s4-3.5mm",
      "RepetitionTime": 2000.0,
      "Rows": 480,
      "SAR": 0.0209105420693,
      "SamplesPerPixel": 1,
      "ScanOptions": "FS",
      "ScanningSequence": "EP",
      "SequenceName": "*epfid2d1_80",
      "SequenceVariant": "SK",
      "SeriesDescription": "func-bold_task-rest_acq-p2-s4-3.5mm",
      "SeriesNumber": 7,
      "SeriesTime": "102000.063000",
      "SliceLocation": -51.817918699857,
      "SliceThickness": 3.5,
      "SmallestImagePixelValue": 0,
      "SoftwareVersions": "syngo MR E11",
      "SpacingBetweenSlices": 3.9900000599002,
      "SpecificCharacterSet": "ISO_IR 100",
      "StudyID": "3",
      "StudyTime": "100544.410000",
      "TransmitCoilName": "Body",
      "VariableFlipAngleFlag": "N",
      "WindowCenterWidthExplanation": "Algo1",
      "dBdt": 0.0},
    "slices": {}
  },
  "time": {
    "samples": {
      "AcquisitionNumber": [1, 2, 3, 4, 5, 6, 7, 8, 9, 10, 11, 12, 13, 14, 15, 16, 17, 18, 19, 20, 21, 22, 23, 24, 25, 26, 27, 28, 29, 30, 31, 32, 33, 34, 35, 36, 37, 38, 39, 40, 41, 42, 43, 44, 45, 46, 47, 48, 49, 50, 51, 52, 53, 54, 55, 56, 57, 58, 59, 60, 61, 62, 63, 64, 65, 66, 67, 68, 69, 70, 71, 72, 73, 74, 75, 76, 77, 78, 79, 80, 81, 82, 83, 84, 85, 86, 87, 88, 89, 90, 91, 92, 93, 94, 95, 96, 97, 98, 99, 100, 101, 102, 103, 104, 105, 106, 107, 108, 109, 110, 111, 112, 113, 114, 115, 116, 117, 118, 119, 120, 121, 122, 123, 124, 125, 126, 127, 128, 129, 130, 131, 132, 133, 134, 135, 136, 137, 138, 139, 140, 141, 142, 143, 144, 145, 146, 147, 148, 149, 150, 151, 152, 153, 154, 155, 156, 157, 158, 159, 160, 161, 162, 163, 164, 165, 166, 167, 168, 169, 170, 171, 172, 173, 174, 175, 176, 177, 178, 179, 180, 181, 182, 183, 184, 185, 186, 187, 188, 189, 190, 191, 192, 193, 194, 195, 196, 197, 198, 199, 200],
      "AcquisitionTime": ["101906.127500", "101908.127500", "101910.127500", "101912.127500", "101914.127500", "101916.127500", "101918.127500", "101920.127500", "101922.127500", "101924.127500", "101926.127500", "101928.127500", "101930.127500", "101932.127500", "101934.127500", "101936.127500", "101938.127500", "101940.127500", "101942.127500", "101944.127500", "101946.127500", "101948.127500", "101950.127500", "101952.127500", "101954.127500", "101956.127500", "101958.127500", "102000.127500", "102002.127500", "102004.127500", "102006.127500", "102008.127500", "102010.127500", "102012.127500", "102014.127500", "102016.127500", "102018.127500", "102020.127500", "102022.127500", "102024.127500", "102026.127500", "102028.127500", "102030.127500", "102032.127500", "102034.127500", "102036.127500", "102038.127500", "102040.127500", "102042.127500", "102044.127500", "102046.127500", "102048.127500", "102050.127500", "102052.127500", "102054.127500", "102056.127500", "102058.127500", "102100.127500", "102102.127500", "102104.127500", "102106.127500", "102108.127500", "102110.127500", "102112.127500", "102114.127500", "102116.127500", "102118.127500", "102120.127500", "102122.127500", "102124.127500", "102126.127500", "102128.127500", "102130.127500", "102132.127500", "102134.127500", "102136.127500", "102138.127500", "102140.127500", "102142.127500", "102144.127500", "102146.127500", "102148.127500", "102150.127500", "102152.127500", "102154.127500", "102156.127500", "102158.127500", "102200.127500", "102202.127500", "102204.127500", "102206.127500", "102208.127500", "102210.127500", "102212.127500", "102214.127500", "102216.127500", "102218.127500", "102220.127500", "102222.127500", "102224.127500", "102226.127500", "102228.127500", "102230.127500", "102232.127500", "102234.127500", "102236.127500", "102238.127500", "102240.127500", "102242.127500", "102244.127500", "102246.127500", "102248.127500", "102250.127500", "102252.127500", "102254.127500", "102256.127500", "102258.127500", "102300.127500", "102302.127500", "102304.127500", "102306.127500", "102308.127500", "102310.127500", "102312.127500", "102314.127500", "102316.127500", "102318.127500", "102320.127500", "102322.127500", "102324.127500", "102326.127500", "102328.127500", "102330.127500", "102332.127500", "102334.127500", "102336.127500", "102338.127500", "102340.127500", "102342.127500", "102344.127500", "102346.127500", "102348.127500", "102350.127500", "102352.127500", "102354.127500", "102356.127500", "102358.127500", "102400.127500", "102402.127500", "102404.127500", "102406.127500", "102408.127500", "102410.127500", "102412.127500", "102414.127500", "102416.127500", "102418.127500", "102420.127500", "102422.127500", "102424.127500", "102426.127500", "102428.127500", "102430.127500", "102432.127500", "102434.127500", "102436.127500", "102438.127500", "102440.127500", "102442.127500", "102444.127500", "102446.127500", "102448.127500", "102450.127500", "102452.127500", "102454.127500", "102456.127500", "102458.127500", "102500.127500", "102502.127500", "102504.127500", "102506.127500", "102508.127500", "102510.127500", "102512.127500", "102514.127500", "102516.127500", "102518.127500", "102520.127500", "102522.127500", "102524.127500", "102526.127500", "102528.127500", "102530.127500", "102532.127500", "102534.127500", "102536.127500", "102538.127500", "102540.127500", "102542.127500", "102544.127500"],
      "ContentTime": ["102000.066000", "102000.070000", "102000.078000", "102000.080000", "102000.085000", "102000.088000", "102000.091000", "102000.098000", "102000.101000", "102000.103000", "102000.106000", "102000.108000", "102000.111000", "102000.113000", "102000.116000", "102000.119000", "102000.121000", "102000.124000", "102000.126000", "102000.129000", "102000.132000", "102000.134000", "102000.137000", "102000.139000", "102000.142000", "102000.145000", "102000.147000", "102040.062000", "102040.065000", "102040.068000", "102040.071000", "102040.073000", "102040.076000", "102040.078000", "102040.081000", "102040.083000", "102040.092000", "102040.095000", "102040.097000", "102040.100000", "102040.102000", "102040.105000", "102040.108000", "102040.110000", "102040.113000", "102040.115000", "102040.118000", "102120.062000", "102120.065000", "102120.068000", "102120.070000", "102120.073000", "102120.075000", "102120.078000", "102120.080000", "102120.083000", "102120.085000", "102120.088000", "102120.090000", "102120.093000", "102120.096000", "102120.098000", "102120.101000", "102120.103000", "102120.106000", "102120.108000", "102120.111000", "102200.063000", "102200.065000", "102200.068000", "102200.070000", "102200.073000", "102200.075000", "102200.078000", "102200.081000", "102200.083000", "102200.086000", "102200.088000", "102200.091000", "102200.093000", "102200.096000", "102200.098000", "102200.101000", "102200.103000", "102200.106000", "102200.109000", "102200.111000", "102240.061000", "102240.064000", "102240.067000", "102240.070000", "102240.072000", "102240.075000", "102240.077000", "102240.080000", "102240.082000", "102240.085000", "102240.087000", "102240.090000", "102240.092000", "102240.095000", "102240.098000", "102240.100000", "102240.103000", "102240.105000", "102240.108000", "102240.110000", "102320.062000", "102320.065000", "102320.068000", "102320.070000", "102320.073000", "102320.075000", "102320.078000", "102320.080000", "102320.083000", "102320.085000", "102320.088000", "102320.091000", "102320.100000", "102320.103000", "102320.105000", "102320.108000", "102320.110000", "102320.113000", "102320.115000", "102320.118000", "102400.063000", "102400.066000", "102400.068000", "102400.071000", "102400.073000", "102400.076000", "102400.078000", "102400.081000", "102400.083000", "102400.086000", "102400.088000", "102400.091000", "102400.093000", "102400.096000", "102400.098000", "102400.101000", "102400.104000", "102400.106000", "102400.109000", "102400.111000", "102440.061000", "102440.064000", "102440.067000", "102440.069000", "102440.072000", "102440.075000", "102440.077000", "102440.080000", "102440.082000", "102440.085000", "102440.087000", "102440.090000", "102440.092000", "102440.095000", "102440.097000", "102440.100000", "102440.103000", "102440.105000", "102440.108000", "102440.110000", "102520.063000", "102520.065000", "102520.068000", "102520.070000", "102520.073000", "102520.075000", "102520.078000", "102520.081000", "102520.083000", "102520.086000", "102520.095000", "102520.098000", "102520.100000", "102520.103000", "102520.106000", "102520.108000", "102520.111000", "102520.113000", "102520.116000", "102520.119000", "102544.740000", "102544.743000", "102544.746000", "102544.748000", "102544.751000", "102544.754000", "102544.756000", "102544.759000", "102544.761000", "102544.764000", "102544.767000", "102544.769000", "102544.796000"],
      "InstanceCreationTime": ["102000.066000", "102000.070000", "102000.078000", "102000.080000", "102000.085000", "102000.088000", "102000.091000", "102000.098000", "102000.101000", "102000.103000", "102000.106000", "102000.108000", "102000.111000", "102000.113000", "102000.116000", "102000.119000", "102000.121000", "102000.124000", "102000.126000", "102000.129000", "102000.132000", "102000.134000", "102000.137000", "102000.139000", "102000.142000", "102000.145000", "102000.147000", "102040.062000", "102040.065000", "102040.068000", "102040.071000", "102040.073000", "102040.076000", "102040.078000", "102040.081000", "102040.083000", "102040.092000", "102040.095000", "102040.097000", "102040.100000", "102040.102000", "102040.105000", "102040.108000", "102040.110000", "102040.113000", "102040.115000", "102040.118000", "102120.062000", "102120.065000", "102120.068000", "102120.070000", "102120.073000", "102120.075000", "102120.078000", "102120.080000", "102120.083000", "102120.085000", "102120.088000", "102120.090000", "102120.093000", "102120.096000", "102120.098000", "102120.101000", "102120.103000", "102120.106000", "102120.108000", "102120.111000", "102200.063000", "102200.065000", "102200.068000", "102200.070000", "102200.073000", "102200.075000", "102200.078000", "102200.081000", "102200.083000", "102200.086000", "102200.088000", "102200.091000", "102200.093000", "102200.096000", "102200.098000", "102200.101000", "102200.103000", "102200.106000", "102200.109000", "102200.111000", "102240.061000", "102240.064000", "102240.067000", "102240.070000", "102240.072000", "102240.075000", "102240.077000", "102240.080000", "102240.082000", "102240.085000", "102240.087000", "102240.090000", "102240.092000", "102240.095000", "102240.098000", "102240.100000", "102240.103000", "102240.105000", "102240.108000", "102240.110000", "102320.062000", "102320.065000", "102320.068000", "102320.070000", "102320.073000", "102320.075000", "102320.078000", "102320.080000", "102320.083000", "102320.085000", "102320.088000", "102320.091000", "102320.100000", "102320.103000", "102320.105000", "102320.108000", "102320.110000", "102320.113000", "102320.115000", "102320.118000", "102400.063000", "102400.066000", "102400.068000", "102400.071000", "102400.073000", "102400.076000", "102400.078000", "102400.081000", "102400.083000", "102400.086000", "102400.088000", "102400.091000", "102400.093000", "102400.096000", "102400.098000", "102400.101000", "102400.104000", "102400.106000", "102400.109000", "102400.111000", "102440.061000", "102440.064000", "102440.067000", "102440.069000", "102440.072000", "102440.075000", "102440.077000", "102440.080000", "102440.082000", "102440.085000", "102440.087000", "102440.090000", "102440.092000", "102440.095000", "102440.097000", "102440.100000", "102440.103000", "102440.105000", "102440.108000", "102440.110000", "102520.063000", "102520.065000", "102520.068000", "102520.070000", "102520.073000", "102520.075000", "102520.078000", "102520.081000", "102520.083000", "102520.086000", "102520.095000", "102520.098000", "102520.100000", "102520.103000", "102520.106000", "102520.108000", "102520.111000", "102520.113000", "102520.116000", "102520.119000", "102544.740000", "102544.743000", "102544.746000", "102544.748000", "102544.751000", "102544.754000", "102544.756000", "102544.759000", "102544.761000", "102544.764000", "102544.767000", "102544.769000", "102544.796000"],
      "InstanceNumber": [1, 2, 3, 4, 5, 6, 7, 8, 9, 10, 11, 12, 13, 14, 15, 16, 17, 18, 19, 20, 21, 22, 23, 24, 25, 26, 27, 28, 29, 30, 31, 32, 33, 34, 35, 36, 37, 38, 39, 40, 41, 42, 43, 44, 45, 46, 47, 48, 49, 50, 51, 52, 53, 54, 55, 56, 57, 58, 59, 60, 61, 62, 63, 64, 65, 66, 67, 68, 69, 70, 71, 72, 73, 74, 75, 76, 77, 78, 79, 80, 81, 82, 83, 84, 85, 86, 87, 88, 89, 90, 91, 92, 93, 94, 95, 96, 97, 98, 99, 100, 101, 102, 103, 104, 105, 106, 107, 108, 109, 110, 111, 112, 113, 114, 115, 116, 117, 118, 119, 120, 121, 122, 123, 124, 125, 126, 127, 128, 129, 130, 131, 132, 133, 134, 135, 136, 137, 138, 139, 140, 141, 142, 143, 144, 145, 146, 147, 148, 149, 150, 151, 152, 153, 154, 155, 156, 157, 158, 159, 160, 161, 162, 163, 164, 165, 166, 167, 168, 169, 170, 171, 172, 173, 174, 175, 176, 177, 178, 179, 180, 181, 182, 183, 184, 185, 186, 187, 188, 189, 190, 191, 192, 193, 194, 195, 196, 197, 198, 199, 200],
      "LargestImagePixelValue": [2045, 2042, 2043, 2041, 2039, 2042, 2040, 2049, 2046, 2042, 2041, 2045, 2045, 2040, 2046, 2045, 2040, 2048, 2045, 2045, 2041, 2045, 2047, 2044, 2045, 2041, 2045, 2046, 2043, 2042, 2042, 2041, 2046, 2044, 2043, 2043, 2046, 2048, 2048, 2043, 2045, 2047, 2049, 2046, 2048, 2048, 2045, 2047, 2051, 2045, 2044, 2051, 2043, 2048, 2047, 2047, 2047, 2038, 2045, 2045, 2043, 2046, 2043, 2042, 2042, 2045, 2045, 2042, 2042, 2046, 2047, 2046, 2044, 2046, 2042, 2044, 2045, 2046, 2046, 2046, 2047, 2049, 2048, 2044, 2048, 2045, 2042, 2046, 2046, 2045, 2042, 2046, 2047, 2043, 2042, 2044, 2044, 2046, 2042, 2044, 2048, 2044, 2040, 2045, 2042, 2047, 2047, 2044, 2052, 2045, 2043, 2044, 2043, 2043, 2045, 2045, 2043, 2046, 2048, 2044, 2042, 2046, 2046, 2048, 2043, 2046, 2050, 2047, 2042, 2049, 2046, 2045, 2047, 2038, 2046, 2040, 2043, 2043, 2046, 2044, 2047, 2043, 2045, 2048, 2045, 2043, 2043, 2042, 2043, 2043, 2042, 2047, 2042, 2045, 2046, 2044, 2046, 2042, 2045, 2050, 2049, 2046, 2047, 2046, 2041, 2053, 2047, 2040, 2044, 2042, 2043, 2044, 2043, 2048, 2046, 2047, 2043, 2048, 2044, 2043, 2047, 2045, 2045, 2047, 2046, 2047, 2041, 2046, 2046, 2044, 2049, 2042, 2044, 2050, 2045, 2041, 2046, 2045, 2048, 2047],
      "WindowCenter": [934.0, 934.0, 933.0, 933.0, 934.0, 934.0, 934.0, 934.0, 934.0, 933.0, 934.0, 933.0, 934.0, 934.0, 933.0, 934.0, 934.0, 934.0, 934.0, 934.0, 934.0, 934.0, 934.0, 933.0, 934.0, 934.0, 934.0, 934.0, 934.0, 934.0, 933.0, 934.0, 934.0, 934.0, 934.0, 934.0, 934.0, 934.0, 934.0, 934.0, 934.0, 934.0, 934.0, 934.0, 933.0, 934.0, 934.0, 934.0, 933.0, 934.0, 934.0, 934.0, 934.0, 934.0, 933.0, 934.0, 934.0, 934.0, 934.0, 934.0, 934.0, 934.0, 933.0, 934.0, 933.0, 934.0, 933.0, 934.0, 934.0, 933.0, 934.0, 934.0, 934.0, 934.0, 933.0, 934.0, 933.0, 933.0, 934.0, 934.0, 934.0, 934.0, 934.0, 934.0, 934.0, 933.0, 934.0, 934.0, 934.0, 934.0, 934.0, 934.0, 934.0, 933.0, 934.0, 934.0, 934.0, 934.0, 934.0, 934.0, 934.0, 934.0, 934.0, 934.0, 934.0, 934.0, 934.0, 934.0, 934.0, 934.0, 933.0, 934.0, 934.0, 934.0, 934.0, 934.0, 934.0, 934.0, 933.0, 934.0, 934.0, 934.0, 934.0, 934.0, 934.0, 934.0, 934.0, 934.0, 934.0, 934.0, 934.0, 934.0, 934.0, 934.0, 934.0, 934.0, 934.0, 934.0, 934.0, 934.0, 933.0, 934.0, 934.0, 934.0, 934.0, 934.0, 934.0, 934.0, 933.0, 934.0, 934.0, 934.0, 934.0, 934.0, 933.0, 934.0, 934.0, 933.0, 933.0, 934.0, 934.0, 933.0, 934.0, 934.0, 934.0, 934.0, 934.0, 934.0, 933.0, 933.0, 934.0, 933.0, 933.0, 933.0, 933.0, 933.0, 934.0, 934.0, 933.0, 933.0, 933.0, 933.0, 934.0, 934.0, 933.0, 933.0, 933.0, 933.0, 934.0, 934.0, 933.0, 933.0, 933.0, 933.0, 934.0, 933.0, 933.0, 934.0, 934.0, 933.0],
      "WindowWidth": [2135.0, 2135.0, 2136.0, 2136.0, 2136.0, 2136.0, 2136.0, 2136.0, 2136.0, 2136.0, 2136.0, 2136.0, 2135.0, 2135.0, 2136.0, 2136.0, 2136.0, 2136.0, 2136.0, 2136.0, 2136.0, 2136.0, 2136.0, 2136.0, 2135.0, 2136.0, 2136.0, 2135.0, 2136.0, 2136.0, 2136.0, 2136.0, 2136.0, 2136.0, 2136.0, 2136.0, 2136.0, 2136.0, 2136.0, 2136.0, 2136.0, 2136.0, 2135.0, 2135.0, 2136.0, 2136.0, 2136.0, 2136.0, 2136.0, 2136.0, 2136.0, 2136.0, 2137.0, 2136.0, 2136.0, 2136.0, 2136.0, 2135.0, 2136.0, 2136.0, 2136.0, 2136.0, 2136.0, 2136.0, 2136.0, 2136.0, 2136.0, 2136.0, 2136.0, 2136.0, 2136.0, 2136.0, 2136.0, 2135.0, 2136.0, 2135.0, 2136.0, 2136.0, 2135.0, 2136.0, 2136.0, 2135.0, 2135.0, 2136.0, 2135.0, 2136.0, 2135.0, 2136.0, 2135.0, 2136.0, 2135.0, 2136.0, 2135.0, 2136.0, 2136.0, 2135.0, 2135.0, 2135.0, 2136.0, 2136.0, 2135.0, 2135.0, 2135.0, 2135.0, 2136.0, 2136.0, 2135.0, 2135.0, 2135.0, 2136.0, 2136.0, 2136.0, 2136.0, 2135.0, 2135.0, 2136.0, 2136.0, 2135.0, 2136.0, 2135.0, 2135.0, 2136.0, 2136.0, 2135.0, 2135.0, 2135.0, 2136.0, 2135.0, 2135.0, 2135.0, 2135.0, 2135.0, 2135.0, 2136.0, 2135.0, 2135.0, 2135.0, 2135.0, 2136.0, 2135.0, 2136.0, 2135.0, 2135.0, 2135.0, 2135.0, 2135.0, 2135.0, 2136.0, 2136.0, 2135.0, 2135.0, 2135.0, 2135.0, 2136.0, 2136.0, 2135.0, 2136.0, 2135.0, 2136.0, 2135.0, 2136.0, 2135.0, 2135.0, 2135.0, 2135.0, 2135.0, 2135.0, 2135.0, 2135.0, 2135.0, 2135.0, 2136.0, 2135.0, 2135.0, 2135.0, 2135.0, 2135.0, 2135.0, 2135.0, 2135.0, 2135.0, 2135.0, 2135.0, 2135.0, 2135.0, 2135.0, 2135.0, 2135.0, 2135.0, 2135.0, 2135.0, 2135.0, 2135.0, 2135.0, 2135.0, 2135.0, 2135.0, 2135.0, 2135.0, 2136.0]
    },
    "slices": {}
  }
}