{
  "AcquisitionMatrixPE": 122,
  "AcquisitionNumber": 1,
  "AcquisitionTime": "08:53:6.465000",
  "BandwidthPerPixelPhaseEncode": 27.785,
  "BaseResolution": 122,
  "BodyPartExamined": "BRAIN",
  "CoilCombinationMethod": "Adaptive Combine",
  "ConsistencyInfo": "N4_VE11C_LATEST_20160120",
  "ConversionSoftware": "dcm2niix",
  "ConversionSoftwareVersion": "v1.0.20220720",
  "DerivedVendorReportedEchoSpacing": 0.000590011,
  "DeviceSerialNumber": "66112",
  "DiffusionScheme": "Monopolar",
  "DwellTime": 2e-06,
  "EchoTime": 0.068,
  "EchoTrainLength": 61,
  "EffectiveEchoSpacing": 0.000295005,
  "FlipAngle": 90,
  "HeudiconvVersion": "0.13.1",
  "ImageOrientationPatientDICOM": [0.999127, 0.00616524, -0.0413211, 0.00627775, 0.955667, 0.294382],
  "ImageOrientationText": "Tra>Cor(17.1)>Sag(-2.4)",
  "ImageType": [
    "ORIGINAL",
    "PRIMARY",
    "DIFFUSION",
    "NONE",
    "ND",
    "NORM"
],
  "ImagingFrequency": 123.253,
  "InPlanePhaseEncodingDirectionDICOM": "COL",
  "InstitutionAddress": "Maynard 3,Hanover,NH,US,03755",
  "InstitutionName": "Dartmouth College - PBS",
  "InstitutionalDepartmentName": "Department",
  "MRAcquisitionType": "2D",
  "MagneticFieldStrength": 3,
  "Manufacturer": "Siemens",
  "ManufacturersModelName": "Prisma",
  "Modality": "MR",
  "MultibandAccelerationFactor": 4,
  "NonlinearGradientCorrection": false,
  "ParallelReductionFactorInPlane": 2,
  "PartialFourier": 1,
  "PatientPosition": "HFS",
  "PercentPhaseFOV": 100,
  "PercentSampling": 100,
  "PhaseEncodingDirection": "j-",
  "PhaseEncodingSteps": 122,
  "PhaseResolution": 1,
  "PixelBandwidth": 2050,
  "ProcedureStepDescription": "dbic^QA",
  "ProtocolName": "dwi_acq-DTI-30-p2-s4",
  "PulseSequenceDetails": "%SiemensSeq%\\ep2d_diff",
  "ReceiveCoilActiveElements": "HEA;HEP",
  "ReceiveCoilName": "Head_32",
  "ReconMatrixPE": 122,
  "RefLinesPE": 38,
  "RepetitionTime": 3.6,
  "SAR": 0.162052,
  "ScanOptions": "FS",
  "ScanningSequence": "EP",
  "SequenceName": "*ep_b0",
  "SequenceVariant": "SK\\SP",
  "SeriesDescription": "dwi_acq-DTI-30-p2-s4",
  "SeriesNumber": 9,
  "ShimSetting": [4146, -7704, -7510, 298, -65, -125, 18, 55],
  "SliceThickness": 2,
  "SliceTiming": [2.58594, 0, 1.78906, 0.19531, 1.98438, 0.39844, 2.1875, 0.59375, 2.38281, 0.99219, 2.78125, 1.1875, 2.97656, 1.39062, 3.17969, 1.58594, 3.375, 0.78906, 2.58594, 0, 1.78906, 0.19531, 1.98438, 0.39844, 2.1875, 0.59375, 2.38281, 0.99219, 2.78125, 1.1875, 2.97656, 1.39062, 3.17969, 1.58594, 3.375, 0.78906, 2.58594, 0, 1.78906, 0.19531, 1.98438, 0.39844, 2.1875, 0.59375, 2.38281, 0.99219, 2.78125, 1.1875, 2.97656, 1.39062, 3.17969, 1.58594, 3.375, 0.78906, 2.58594, 0, 1.78906, 0.19531, 1.98438, 0.39844, 2.1875, 0.59375, 2.38281, 0.99219, 2.78125, 1.1875, 2.97656, 1.39062, 3.17969, 1.58594, 3.375, 0.78906],
  "SoftwareVersions": "syngo MR E11",
  "SpacingBetweenSlices": 2,
  "SpoilingState": true,
  "StationName": "AWP66112",
  "TotalReadoutTime": 0.0356956,
  "TxRefAmp": 232.233,
  "dcmmeta_affine": [
    [-1.9654955863952637, 0.01234966330230236, -0.08260846138000488, 120.99435424804688],
    [-0.012128345668315887, 1.8800013065338135, 0.5887680053710938, -124.00090026855469],
    [-0.0812874510884285, -0.579111635684967, 1.9095916748046875, -16.75265121459961],
    [0.0, 0.0, 0.0, 1.0]
],
  "dcmmeta_reorient_transform": [
    [0.0, -1.0, 0.0, 121.0],
    [1.0, 0.0, 0.0, 0.0],
    [0.0, 0.0, -1.0, 71.0],
    [0.0, 0.0, 0.0, 1.0]
],
  "dcmmeta_shape": [122, 122, 72, 31],
  "dcmmeta_slice_dim": 2,
  "dcmmeta_version": 0.6,
  "global": {
    "const": {
      "AccessionNumber": "qa",
      "AcquisitionMatrix": [122, 0, 0, 122],
      "AngioFlag": "N",
      "BitsAllocated": 16,
      "BitsStored": 12,
      "BodyPartExamined": "BRAIN",
      "Columns": 122,
      "EchoNumbers": 1,
      "EchoTime": 68.0,
      "EchoTrainLength": 61,
      "FlipAngle": 90.0,
      "HighBit": 11,
      "ImageOrientationPatient": [0.99912689620116, 0.00616524208301, -0.0413211214453, 0.00627774515858, 0.95566729167851, 0.29438175475321],
      "ImageType": [
        "ORIGINAL",
        "PRIMARY",
        "DIFFUSION",
        "NONE",
        "ND",
        "NORM"
],
      "ImagedNucleus": "1H",
      "ImagingFrequency": 123.252544,
      "InPlanePhaseEncodingDirection": "COL",
      "MRAcquisitionType": "2D",
      "MagneticFieldStrength": 3.0,
      "Manufacturer": "SIEMENS",
      "ManufacturerModelName": "Prisma",
      "Modality": "MR",
      "NumberOfAverages": 1.0,
      "NumberOfPhaseEncodingSteps": 122,
      "PercentPhaseFieldOfView": 100.0,
      "PercentSampling": 100.0,
      "PerformedProcedureStepStartTime": "082943.581000",
      "PhotometricInterpretation": "MONOCHROME2",
      "PixelBandwidth": 2050.0,
      "PixelRepresentation": 0,
      "PixelSpacing": [1.9672131538391, 1.9672131538391],
      "ProtocolName": "dwi_acq-DTI-30-p2-s4",
      "RepetitionTime": 3600.0,
      "Rows": 122,
      "SAR": 0.16205232107057,
      "SamplesPerPixel": 1,
      "ScanOptions": "FS",
      "ScanningSequence": "EP",
      "SequenceVariant": [
        "SK",
        "SP"
],
      "SeriesDescription": "dwi_acq-DTI-30-p2-s4",
      "SeriesNumber": 9,
      "SeriesTime": "085315.419000",
      "SliceThickness": 2.0,
      "SmallestImagePixelValue": 0,
      "SoftwareVersions": "syngo MR E11",
      "SpacingBetweenSlices": 2.0,
      "SpecificCharacterSet": "ISO_IR 100",
      "StudyID": "44",
      "StudyTime": "082943.467000",
      "TransmitCoilName": "Body",
      "VariableFlipAngleFlag": "N",
      "WindowCenterWidthExplanation": "Algo1",
      "dBdt": 0.0},
    "slices": {
      "AcquisitionTime": ["085306.465000", "085303.880000", "085305.670000", "085304.080000", "085305.870000", "085304.277500", "085306.067500", "085304.477500", "085306.267500", "085304.875000", "085306.665000", "085305.072500", "085306.862500", "085305.272500", "085307.062500", "085305.470000", "085307.260000", "085304.675000", "085306.465000", "085303.880000", "085305.670000", "085304.080000", "085305.870000", "085304.277500", "085306.067500", "085304.477500", "085306.267500", "085304.875000", "085306.665000", "085305.072500", "085306.862500", "085305.272500", "085307.062500", "085305.470000", "085307.260000", "085304.675000", "085306.465000", "085303.880000", "085305.670000", "085304.080000", "085305.870000", "085304.277500", "085306.067500", "085304.477500", "085306.267500", "085304.875000", "085306.665000", "085305.072500", "085306.862500", "085305.272500", "085307.062500", "085305.470000", "085307.260000", "085304.675000", "085306.465000", "085303.880000", "085305.670000", "085304.080000", "085305.870000", "085304.277500", "085306.067500", "085304.477500", "085306.267500", "085304.875000", "085306.665000", "085305.072500", "085306.862500", "085305.272500", "085307.062500", "085305.470000", "085307.260000", "085304.675000", "085310.065000", "085307.480000", "085309.270000", "085307.680000", "085309.470000", "085307.877500", "085309.667500", "085308.077500", "085309.867500", "085308.475000", "085310.265000", "085308.672500", "085310.462500", "085308.872500", "085310.662500", "085309.070000", "085310.860000", "085308.275000", "085310.065000", "085307.480000", "085309.270000", "085307.680000", "085309.470000", "085307.877500", "085309.667500", "085308.077500", "085309.867500", "085308.475000", "085310.265000", "085308.672500", "085310.462500", "085308.872500", "085310.662500", "085309.070000", "085310.860000", "085308.275000", "085310.065000", "085307.480000", "085309.270000", "085307.680000", "085309.470000", "085307.877500", "085309.667500", "085308.077500", "085309.867500", "085308.475000", "085310.265000", "085308.672500", "085310.462500", "085308.872500", "085310.662500", "085309.070000", "085310.860000", "085308.275000", "085310.065000", "085307.480000", "085309.270000", "085307.680000", "085309.470000", "085307.877500", "085309.667500", "085308.077500", "085309.867500", "085308.475000", "085310.265000", "085308.672500", "085310.462500", "085308.872500", "085310.662500", "085309.070000", "085310.860000", "085308.275000", "085313.665000", "085311.080000", "085312.870000", "085311.280000", "085313.070000", "085311.477500", "085313.267500", "085311.677500", "085313.467500", "085312.075000", "085313.865000", "085312.272500", "085314.062500", "085312.472500", "085314.262500", "085312.670000", "085314.460000", "085311.875000", "085313.665000", "085311.080000", "085312.870000", "085311.280000", "085313.070000", "085311.477500", "085313.267500", "085311.677500", "085313.467500", "085312.075000", "085313.865000", "085312.272500", "085314.062500", "085312.472500", "085314.262500", "085312.670000", "085314.460000", "085311.875000", "085313.665000", "085311.080000", "085312.870000", "085311.280000", "085313.070000", "085311.477500", "085313.267500", "085311.677500", "085313.467500", "085312.075000", "085313.865000", "085312.272500", "085314.062500", "085312.472500", "085314.262500", "085312.670000", "085314.460000", "085311.875000", "085313.665000", "085311.080000", "085312.870000", "085311.280000", "085313.070000", "085311.477500", "085313.267500", "085311.677500", "085313.467500", "085312.075000", "085313.865000", "085312.272500", "085314.062500", "085312.472500", "085314.262500", "085312.670000", "085314.460000", "085311.875000", "085317.265000", "085314.680000", "085316.470000", "085314.880000", "085316.670000", "085315.077500", "085316.867500", "085315.277500", "085317.067500", "085315.675000", "085317.465000", "085315.872500", "085317.662500", "085316.072500", "085317.862500", "085316.270000", "085318.060000", "085315.475000", "085317.265000", "085314.680000", "085316.470000", "085314.880000", "085316.670000", "085315.077500", "085316.867500", "085315.277500", "085317.067500", "085315.675000", "085317.465000", "085315.872500", "085317.662500", "085316.072500", "085317.862500", "085316.270000", "085318.060000", "085315.475000", "085317.265000", "085314.680000", "085316.470000", "085314.880000", "085316.670000", "085315.077500", "085316.867500", "085315.277500", "085317.067500", "085315.675000", "085317.465000", "085315.872500", "085317.662500", "085316.072500", "085317.862500", "085316.270000", "085318.060000", "085315.475000", "085317.265000", "085314.680000", "085316.470000", "085314.880000", "085316.670000", "085315.077500", "085316.867500", "085315.277500", "085317.067500", "085315.675000", "085317.465000", "085315.872500", "085317.662500", "085316.072500", "085317.862500", "085316.270000", "085318.060000", "085315.475000", "085320.865000", "085318.280000", "085320.070000", "085318.480000", "085320.270000", "085318.677500", "085320.467500", "085318.877500", "085320.667500", "085319.275000", "085321.065000", "085319.472500", "085321.262500", "085319.672500", "085321.462500", "085319.870000", "085321.660000", "085319.075000", "085320.865000", "085318.280000", "085320.070000", "085318.480000", "085320.270000", "085318.677500", "085320.467500", "085318.877500", "085320.667500", "085319.275000", "085321.065000", "085319.472500", "085321.262500", "085319.672500", "085321.462500", "085319.870000", "085321.660000", "085319.075000", "085320.865000", "085318.280000", "085320.070000", "085318.480000", "085320.270000", "085318.677500", "085320.467500", "085318.877500", "085320.667500", "085319.275000", "085321.065000", "085319.472500", "085321.262500", "085319.672500", "085321.462500", "085319.870000", "085321.660000", "085319.075000", "085320.865000", "085318.280000", "085320.070000", "085318.480000", "085320.270000", "085318.677500", "085320.467500", "085318.877500", "085320.667500", "085319.275000", "085321.065000", "085319.472500", "085321.262500", "085319.672500", "085321.462500", "085319.870000", "085321.660000", "085319.075000", "085324.465000", "085321.880000", "085323.670000", "085322.080000", "085323.870000", "085322.277500", "085324.067500", "085322.477500", "085324.267500", "085322.875000", "085324.665000", "085323.072500", "085324.862500", "085323.272500", "085325.062500", "085323.470000", "085325.260000", "085322.675000", "085324.465000", "085321.880000", "085323.670000", "085322.080000", "085323.870000", "085322.277500", "085324.067500", "085322.477500", "085324.267500", "085322.875000", "085324.665000", "085323.072500", "085324.862500", "085323.272500", "085325.062500", "085323.470000", "085325.260000", "085322.675000", "085324.465000", "085321.880000", "085323.670000", "085322.080000", "085323.870000", "085322.277500", "085324.067500", "085322.477500", "085324.267500", "085322.875000", "085324.665000", "085323.072500", "085324.862500", "085323.272500", "085325.062500", "085323.470000", "085325.260000", "085322.675000", "085324.465000", "085321.880000", "085323.670000", "085322.080000", "085323.870000", "085322.277500", "085324.067500", "085322.477500", "085324.267500", "085322.875000", "085324.665000", "085323.072500", "085324.862500", "085323.272500", "085325.062500", "085323.470000", "085325.260000", "085322.675000", "085328.065000", "085325.480000", "085327.270000", "085325.680000", "085327.470000", "085325.877500", "085327.667500", "085326.077500", "085327.867500", "085326.475000", "085328.265000", "085326.672500", "085328.462500", "085326.872500", "085328.662500", "085327.070000", "085328.860000", "085326.275000", "085328.065000", "085325.480000", "085327.270000", "085325.680000", "085327.470000", "085325.877500", "085327.667500", "085326.077500", "085327.867500", "085326.475000", "085328.265000", "085326.672500", "085328.462500", "085326.872500", "085328.662500", "085327.070000", "085328.860000", "085326.275000", "085328.065000", "085325.480000", "085327.270000", "085325.680000", "085327.470000", "085325.877500", "085327.667500", "085326.077500", "085327.867500", "085326.475000", "085328.265000", "085326.672500", "085328.462500", "085326.872500", "085328.662500", "085327.070000", "085328.860000", "085326.275000", "085328.065000", "085325.480000", "085327.270000", "085325.680000", "085327.470000", "085325.877500", "085327.667500", "085326.077500", "085327.867500", "085326.475000", "085328.265000", "085326.672500", "085328.462500", "085326.872500", "085328.662500", "085327.070000", "085328.860000", "085326.275000", "085331.665000", "085329.080000", "085330.870000", "085329.280000", "085331.070000", "085329.477500", "085331.267500", "085329.677500", "085331.467500", "085330.075000", "085331.865000", "085330.272500", "085332.062500", "085330.472500", "085332.262500", "085330.670000", "085332.460000", "085329.875000", "085331.665000", "085329.080000", "085330.870000", "085329.280000", "085331.070000", "085329.477500", "085331.267500", "085329.677500", "085331.467500", "085330.075000", "085331.865000", "085330.272500", "085332.062500", "085330.472500", "085332.262500", "085330.670000", "085332.460000", "085329.875000", "085331.665000", "085329.080000", "085330.870000", "085329.280000", "085331.070000", "085329.477500", "085331.267500", "085329.677500", "085331.467500", "085330.075000", "085331.865000", "085330.272500", "085332.062500", "085330.472500", "085332.262500", "085330.670000", "085332.460000", "085329.875000", "085331.665000", "085329.080000", "085330.870000", "085329.280000", "085331.070000", "085329.477500", "085331.267500", "085329.677500", "085331.467500", "085330.075000", "085331.865000", "085330.272500", "085332.062500", "085330.472500", "085332.262500", "085330.670000", "085332.460000", "085329.875000", "085335.265000", "085332.680000", "085334.470000", "085332.880000", "085334.670000", "085333.077500", "085334.867500", "085333.277500", "085335.067500", "085333.675000", "085335.465000", "085333.872500", "085335.662500", "085334.072500", "085335.862500", "085334.270000", "085336.060000", "085333.475000", "085335.265000", "085332.680000", "085334.470000", "085332.880000", "085334.670000", "085333.077500", "085334.867500", "085333.277500", "085335.067500", "085333.675000", "085335.465000", "085333.872500", "085335.662500", "085334.072500", "085335.862500", "085334.270000", "085336.060000", "085333.475000", "085335.265000", "085332.680000", "085334.470000", "085332.880000", "085334.670000", "085333.077500", "085334.867500", "085333.277500", "085335.067500", "085333.675000", "085335.465000", "085333.872500", "085335.662500", "085334.072500", "085335.862500", "085334.270000", "085336.060000", "085333.475000", "085335.265000", "085332.680000", "085334.470000", "085332.880000", "085334.670000", "085333.077500", "085334.867500", "085333.277500", "085335.067500", "085333.675000", "085335.465000", "085333.872500", "085335.662500", "085334.072500", "085335.862500", "085334.270000", "085336.060000", "085333.475000", "085338.865000", "085336.280000", "085338.070000", "085336.480000", "085338.270000", "085336.677500", "085338.467500", "085336.877500", "085338.667500", "085337.275000", "085339.065000", "085337.472500", "085339.262500", "085337.672500", "085339.462500", "085337.870000", "085339.660000", "085337.075000", "085338.865000", "085336.280000", "085338.070000", "085336.480000", "085338.270000", "085336.677500", "085338.467500", "085336.877500", "085338.667500", "085337.275000", "085339.065000", "085337.472500", "085339.262500", "085337.672500", "085339.462500", "085337.870000", "085339.660000", "085337.075000", "085338.865000", "085336.280000", "085338.070000", "085336.480000", "085338.270000", "085336.677500", "085338.467500", "085336.877500", "085338.667500", "085337.275000", "085339.065000", "085337.472500", "085339.262500", "085337.672500", "085339.462500", "085337.870000", "085339.660000", "085337.075000", "085338.865000", "085336.280000", "085338.070000", "085336.480000", "085338.270000", "085336.677500", "085338.467500", "085336.877500", "085338.667500", "085337.275000", "085339.065000", "085337.472500", "085339.262500", "085337.672500", "085339.462500", "085337.870000", "085339.660000", "085337.075000", "085342.465000", "085339.880000", "085341.670000", "085340.080000", "085341.870000", "085340.277500", "085342.067500", "085340.477500", "085342.267500", "085340.875000", "085342.665000", "085341.072500", "085342.862500", "085341.272500", "085343.062500", "085341.470000", "085343.260000", "085340.675000", "085342.465000", "085339.880000", "085341.670000", "085340.080000", "085341.870000", "085340.277500", "085342.067500", "085340.477500", "085342.267500", "085340.875000", "085342.665000", "085341.072500", "085342.862500", "085341.272500", "085343.062500", "085341.470000", "085343.260000", "085340.675000", "085342.465000", "085339.880000", "085341.670000", "085340.080000", "085341.870000", "085340.277500", "085342.067500", "085340.477500", "085342.267500", "085340.875000", "085342.665000", "085341.072500", "085342.862500", "085341.272500", "085343.062500", "085341.470000", "085343.260000", "085340.675000", "085342.465000", "085339.880000", "085341.670000", "085340.080000", "085341.870000", "085340.277500", "085342.067500", "085340.477500", "085342.267500", "085340.875000", "085342.665000", "085341.072500", "085342.862500", "085341.272500", "085343.062500", "085341.470000", "085343.260000", "085340.675000", "085346.065000", "085343.480000", "085345.270000", "085343.680000", "085345.470000", "085343.877500", "085345.667500", "085344.077500", "085345.867500", "085344.475000", "085346.265000", "085344.672500", "085346.462500", "085344.872500", "085346.662500", "085345.070000", "085346.860000", "085344.275000", "085346.065000", "085343.480000", "085345.270000", "085343.680000", "085345.470000", "085343.877500", "085345.667500", "085344.077500", "085345.867500", "085344.475000", "085346.265000", "085344.672500", "085346.462500", "085344.872500", "085346.662500", "085345.070000", "085346.860000", "085344.275000", "085346.065000", "085343.480000", "085345.270000", "085343.680000", "085345.470000", "085343.877500", "085345.667500", "085344.077500", "085345.867500", "085344.475000", "085346.265000", "085344.672500", "085346.462500", "085344.872500", "085346.662500", "085345.070000", "085346.860000", "085344.275000", "085346.065000", "085343.480000", "085345.270000", "085343.680000", "085345.470000", "085343.877500", "085345.667500", "085344.077500", "085345.867500", "085344.475000", "085346.265000", "085344.672500", "085346.462500", "085344.872500", "085346.662500", "085345.070000", "085346.860000", "085344.275000", "085349.665000", "085347.080000", "085348.870000", "085347.280000", "085349.070000", "085347.477500", "085349.267500", "085347.677500", "085349.467500", "085348.075000", "085349.865000", "085348.272500", "085350.062500", "085348.472500", "085350.262500", "085348.670000", "085350.460000", "085347.875000", "085349.665000", "085347.080000", "085348.870000", "085347.280000", "085349.070000", "085347.477500", "085349.267500", "085347.677500", "085349.467500", "085348.075000", "085349.865000", "085348.272500", "085350.062500", "085348.472500", "085350.262500", "085348.670000", "085350.460000", "085347.875000", "085349.665000", "085347.080000", "085348.870000", "085347.280000", "085349.070000", "085347.477500", "085349.267500", "085347.677500", "085349.467500", "085348.075000", "085349.865000", "085348.272500", "085350.062500", "085348.472500", "085350.262500", "085348.670000", "085350.460000", "085347.875000", "085349.665000", "085347.080000", "085348.870000", "085347.280000", "085349.070000", "085347.477500", "085349.267500", "085347.677500", "085349.467500", "085348.075000", "085349.865000", "085348.272500", "085350.062500", "085348.472500", "085350.262500", "085348.670000", "085350.460000", "085347.875000", "085353.265000", "085350.680000", "085352.470000", "085350.880000", "085352.670000", "085351.077500", "085352.867500", "085351.277500", "085353.067500", "085351.675000", "085353.465000", "085351.872500", "085353.662500", "085352.072500", "085353.862500", "085352.270000", "085354.060000", "085351.475000", "085353.265000", "085350.680000", "085352.470000", "085350.880000", "085352.670000", "085351.077500", "085352.867500", "085351.277500", "085353.067500", "085351.675000", "085353.465000", "085351.872500", "085353.662500", "085352.072500", "085353.862500", "085352.270000", "085354.060000", "085351.475000", "085353.265000", "085350.680000", "085352.470000", "085350.880000", "085352.670000", "085351.077500", "085352.867500", "085351.277500", "085353.067500", "085351.675000", "085353.465000", "085351.872500", "085353.662500", "085352.072500", "085353.862500", "085352.270000", "085354.060000", "085351.475000", "085353.265000", "085350.680000", "085352.470000", "085350.880000", "085352.670000", "085351.077500", "085352.867500", "085351.277500", "085353.067500", "085351.675000", "085353.465000", "085351.872500", "085353.662500", "085352.072500", "085353.862500", "085352.270000", "085354.060000", "085351.475000", "085356.865000", "085354.280000", "085356.070000", "085354.480000", "085356.270000", "085354.677500", "085356.467500", "085354.877500", "085356.667500", "085355.275000", "085357.065000", "085355.472500", "085357.262500", "085355.672500", "085357.462500", "085355.870000", "085357.660000", "085355.075000", "085356.865000", "085354.280000", "085356.070000", "085354.480000", "085356.270000", "085354.677500", "085356.467500", "085354.877500", "085356.667500", "085355.275000", "085357.065000", "085355.472500", "085357.262500", "085355.672500", "085357.462500", "085355.870000", "085357.660000", "085355.075000", "085356.865000", "085354.280000", "085356.070000", "085354.480000", "085356.270000", "085354.677500", "085356.467500", "085354.877500", "085356.667500", "085355.275000", "085357.065000", "085355.472500", "085357.262500", "085355.672500", "085357.462500", "085355.870000", "085357.660000", "085355.075000", "085356.865000", "085354.280000", "085356.070000", "085354.480000", "085356.270000", "085354.677500", "085356.467500", "085354.877500", "085356.667500", "085355.275000", "085357.065000", "085355.472500", "085357.262500", "085355.672500", "085357.462500", "085355.870000", "085357.660000", "085355.075000", "085400.465000", "085357.880000", "085359.670000", "085358.080000", "085359.870000", "085358.277500", "085400.067500", "085358.477500", "085400.267500", "085358.875000", "085400.665000", "085359.072500", "085400.862500", "085359.272500", "085401.062500", "085359.470000", "085401.260000", "085358.675000", "085400.465000", "085357.880000", "085359.670000", "085358.080000", "085359.870000", "085358.277500", "085400.067500", "085358.477500", "085400.267500", "085358.875000", "085400.665000", "085359.072500", "085400.862500", "085359.272500", "085401.062500", "085359.470000", "085401.260000", "085358.675000", "085400.465000", "085357.880000", "085359.670000", "085358.080000", "085359.870000", "085358.277500", "085400.067500", "085358.477500", "085400.267500", "085358.875000", "085400.665000", "085359.072500", "085400.862500", "085359.272500", "085401.062500", "085359.470000", "085401.260000", "085358.675000", "085400.465000", "085357.880000", "085359.670000", "085358.080000", "085359.870000", "085358.277500", "085400.067500", "085358.477500", "085400.267500", "085358.875000", "085400.665000", "085359.072500", "085400.862500", "085359.272500", "085401.062500", "085359.470000", "085401.260000", "085358.675000", "085404.065000", "085401.480000", "085403.270000", "085401.680000", "085403.470000", "085401.877500", "085403.667500", "085402.077500", "085403.867500", "085402.475000", "085404.265000", "085402.672500", "085404.462500", "085402.872500", "085404.662500", "085403.070000", "085404.860000", "085402.275000", "085404.065000", "085401.480000", "085403.270000", "085401.680000", "085403.470000", "085401.877500", "085403.667500", "085402.077500", "085403.867500", "085402.475000", "085404.265000", "085402.672500", "085404.462500", "085402.872500", "085404.662500", "085403.070000", "085404.860000", "085402.275000", "085404.065000", "085401.480000", "085403.270000", "085401.680000", "085403.470000", "085401.877500", "085403.667500", "085402.077500", "085403.867500", "085402.475000", "085404.265000", "085402.672500", "085404.462500", "085402.872500", "085404.662500", "085403.070000", "085404.860000", "085402.275000", "085404.065000", "085401.480000", "085403.270000", "085401.680000", "085403.470000", "085401.877500", "085403.667500", "085402.077500", "085403.867500", "085402.475000", "085404.265000", "085402.672500", "085404.462500", "085402.872500", "085404.662500", "085403.070000", "085404.860000", "085402.275000", "085407.665000", "085405.080000", "085406.870000", "085405.280000", "085407.070000", "085405.477500", "085407.267500", "085405.677500", "085407.467500", "085406.075000", "085407.865000", "085406.272500", "085408.062500", "085406.472500", "085408.262500", "085406.670000", "085408.460000", "085405.875000", "085407.665000", "085405.080000", "085406.870000", "085405.280000", "085407.070000", "085405.477500", "085407.267500", "085405.677500", "085407.467500", "085406.075000", "085407.865000", "085406.272500", "085408.062500", "085406.472500", "085408.262500", "085406.670000", "085408.460000", "085405.875000", "085407.665000", "085405.080000", "085406.870000", "085405.280000", "085407.070000", "085405.477500", "085407.267500", "085405.677500", "085407.467500", "085406.075000", "085407.865000", "085406.272500", "085408.062500", "085406.472500", "085408.262500", "085406.670000", "085408.460000", "085405.875000", "085407.665000", "085405.080000", "085406.870000", "085405.280000", "085407.070000", "085405.477500", "085407.267500", "085405.677500", "085407.467500", "085406.075000", "085407.865000", "085406.272500", "085408.062500", "085406.472500", "085408.262500", "085406.670000", "085408.460000", "085405.875000", "085411.265000", "085408.680000", "085410.470000", "085408.880000", "085410.670000", "085409.077500", "085410.867500", "085409.277500", "085411.067500", "085409.675000", "085411.465000", "085409.872500", "085411.662500", "085410.072500", "085411.862500", "085410.270000", "085412.060000", "085409.475000", "085411.265000", "085408.680000", "085410.470000", "085408.880000", "085410.670000", "085409.077500", "085410.867500", "085409.277500", "085411.067500", "085409.675000", "085411.465000", "085409.872500", "085411.662500", "085410.072500", "085411.862500", "085410.270000", "085412.060000", "085409.475000", "085411.265000", "085408.680000", "085410.470000", "085408.880000", "085410.670000", "085409.077500", "085410.867500", "085409.277500", "085411.067500", "085409.675000", "085411.465000", "085409.872500", "085411.662500", "085410.072500", "085411.862500", "085410.270000", "085412.060000", "085409.475000", "085411.265000", "085408.680000", "085410.470000", "085408.880000", "085410.670000", "085409.077500", "085410.867500", "085409.277500", "085411.067500", "085409.675000", "085411.465000", "085409.872500", "085411.662500", "085410.072500", "085411.862500", "085410.270000", "085412.060000", "085409.475000", "085414.865000", "085412.280000", "085414.070000", "085412.480000", "085414.270000", "085412.677500", "085414.467500", "085412.877500", "085414.667500", "085413.275000", "085415.065000", "085413.472500", "085415.262500", "085413.672500", "085415.462500", "085413.870000", "085415.660000", "085413.075000", "085414.865000", "085412.280000", "085414.070000", "085412.480000", "085414.270000", "085412.677500", "085414.467500", "085412.877500", "085414.667500", "085413.275000", "085415.065000", "085413.472500", "085415.262500", "085413.672500", "085415.462500", "085413.870000", "085415.660000", "085413.075000", "085414.865000", "085412.280000", "085414.070000", "085412.480000", "085414.270000", "085412.677500", "085414.467500", "085412.877500", "085414.667500", "085413.275000", "085415.065000", "085413.472500", "085415.262500", "085413.672500", "085415.462500", "085413.870000", "085415.660000", "085413.075000", "085414.865000", "085412.280000", "085414.070000", "085412.480000", "085414.270000", "085412.677500", "085414.467500", "085412.877500", "085414.667500", "085413.275000", "085415.065000", "085413.472