{
  "AcquisitionMatrixPE": 122,
  "AcquisitionNumber": 1,
  "AcquisitionTime": "08:48:45.065000",
  "BandwidthPerPixelPhaseEncode": 28.76,
  "BaseResolution": 122,
  "BodyPartExamined": "BRAIN",
  "CoilCombinationMethod": "Adaptive Combine",
  "ConsistencyInfo": "N4_VE11C_LATEST_20160120",
  "ConversionSoftware": "dcm2niix",
  "ConversionSoftwareVersion": "v1.0.20220720",
  "DerivedVendorReportedEchoSpacing": 0.000570008,
  "DeviceSerialNumber": "66112",
  "DiffusionScheme": "Monopolar",
  "DwellTime": 2e-06,
  "EchoTime": 0.075,
  "EchoTrainLength": 61,
  "EffectiveEchoSpacing": 0.000285004,
  "FlipAngle": 90,
  "HeudiconvVersion": "0.13.1",
  "ImageOrientationPatientDICOM": [0.999127, 0.00616524, -0.0413211, 0.00627775, 0.955667, 0.294382],
  "ImageOrientationText": "Tra>Cor(17.1)>Sag(-2.4)",
  "ImageType": [
    "ORIGINAL",
    "PRIMARY",
    "DIFFUSION",
    "NONE",
    "ND",
    "NORM"
],
  "ImagingFrequency": 123.253,
  "InPlanePhaseEncodingDirectionDICOM": "COL",
  "InstitutionAddress": "Maynard 3,Hanover,NH,US,03755",
  "InstitutionName": "Dartmouth College - PBS",
  "InstitutionalDepartmentName": "Department",
  "MRAcquisitionType": "2D",
  "MagneticFieldStrength": 3,
  "Manufacturer": "Siemens",
  "ManufacturersModelName": "Prisma",
  "MatrixCoilMode": "GRAPPA",
  "Modality": "MR",
  "NonlinearGradientCorrection": false,
  "ParallelReductionFactorInPlane": 2,
  "PartialFourier": 1,
  "PatientPosition": "HFS",
  "PercentPhaseFOV": 100,
  "PercentSampling": 100,
  "PhaseEncodingDirection": "j-",
  "PhaseEncodingSteps": 122,
  "PhaseResolution": 1,
  "PixelBandwidth": 2050,
  "ProcedureStepDescription": "dbic^QA",
  "ProtocolName": "dwi_acq-DTI-30-p2",
  "PulseSequenceDetails": "%SiemensSeq%\\ep2d_diff",
  "ReceiveCoilActiveElements": "HEA;HEP",
  "ReceiveCoilName": "Head_32",
  "ReconMatrixPE": 122,
  "RefLinesPE": 38,
  "RepetitionTime": 7.7,
  "SAR": 0.102244,
  "ScanOptions": "FS",
  "ScanningSequence": "EP",
  "SequenceName": "*ep_b0",
  "SequenceVariant": "SK\\SP",
  "SeriesDescription": "dwi_acq-DTI-30-p2",
  "SeriesNumber": 8,
  "ShimSetting": [4146, -7704, -7510, 301, -65, -126, 18, 56],
  "SliceThickness": 2,
  "SliceTiming": [3.83594, 0, 3.94531, 0.10938, 4.05469, 0.21875, 4.17188, 0.32812, 4.27344, 0.4375, 4.38281, 0.54688, 4.49219, 0.65625, 4.60938, 0.76562, 4.71875, 0.875, 4.82812, 0.98438, 4.9375, 1.09375, 5.04688, 1.20312, 5.15625, 1.3125, 5.26562, 1.42188, 5.375, 1.53125, 5.48438, 1.64062, 5.59375, 1.75, 5.70312, 1.86719, 5.8125, 1.97656, 5.92188, 2.08594, 6.03125, 2.19531, 6.14062, 2.30469, 6.25, 2.41406, 6.35938, 2.52344, 6.46875, 2.63281, 6.57812, 2.74219, 6.6875, 2.85156, 6.80469, 2.96094, 6.91406, 3.07031, 7.01562, 3.17969, 7.125, 3.28906, 7.24219, 3.39844, 7.35156, 3.50781, 7.46094, 3.61719, 7.57031, 3.72656],
  "SoftwareVersions": "syngo MR E11",
  "SpacingBetweenSlices": 2,
  "SpoilingState": true,
  "StationName": "AWP66112",
  "TotalReadoutTime": 0.0344855,
  "TxRefAmp": 232.233,
  "dcmmeta_affine": [
    [-1.9654955863952637, 0.01234966330230236, -0.08260846138000488, 120.9117431640625],
    [-0.012128345668315887, 1.8800013065338135, 0.5887680053710938, -123.4121322631836],
    [-0.0812874510884285, -0.579111635684967, 1.9095916748046875, -14.843059539794922],
    [0.0, 0.0, 0.0, 1.0]
],
  "dcmmeta_reorient_transform": [
    [0.0, -1.0, 0.0, 121.0],
    [1.0, 0.0, 0.0, 0.0],
    [0.0, 0.0, -1.0, 69.0],
    [0.0, 0.0, 0.0, 1.0]
],
  "dcmmeta_shape": [122, 122, 70, 31],
  "dcmmeta_slice_dim": 2,
  "dcmmeta_version": 0.6,
  "global": {
    "const": {
      "AccessionNumber": "qa",
      "AcquisitionMatrix": [122, 0, 0, 122],
      "AngioFlag": "N",
      "BitsAllocated": 16,
      "BitsStored": 12,
      "BodyPartExamined": "BRAIN",
      "Columns": 122,
      "EchoNumbers": 1,
      "EchoTime": 75.0,
      "EchoTrainLength": 61,
      "FlipAngle": 90.0,
      "HighBit": 11,
      "ImageOrientationPatient": [0.99912689620116, 0.00616524208301, -0.0413211214453, 0.00627774515858, 0.95566729167851, 0.29438175475321],
      "ImageType": [
        "ORIGINAL",
        "PRIMARY",
        "DIFFUSION",
        "NONE",
        "ND",
        "NORM"
],
      "ImagedNucleus": "1H",
      "ImagingFrequency": 123.252544,
      "InPlanePhaseEncodingDirection": "COL",
      "MRAcquisitionType": "2D",
      "MagneticFieldStrength": 3.0,
      "Manufacturer": "SIEMENS",
      "ManufacturerModelName": "Prisma",
      "Modality": "MR",
      "NumberOfAverages": 1.0,
      "NumberOfPhaseEncodingSteps": 122,
      "PercentPhaseFieldOfView": 100.0,
      "PercentSampling": 100.0,
      "PerformedProcedureStepStartTime": "082943.581000",
      "PhotometricInterpretation": "MONOCHROME2",
      "PixelBandwidth": 2050.0,
      "PixelRepresentation": 0,
      "PixelSpacing": [1.9672131538391, 1.9672131538391],
      "ProtocolName": "dwi_acq-DTI-30-p2",
      "RepetitionTime": 7700.0,
      "Rows": 122,
      "SAR": 0.10224407089189,
      "SamplesPerPixel": 1,
      "ScanOptions": "FS",
      "ScanningSequence": "EP",
      "SequenceVariant": [
        "SK",
        "SP"
],
      "SeriesDescription": "dwi_acq-DTI-30-p2",
      "SeriesNumber": 8,
      "SeriesTime": "084859.234000",
      "SliceThickness": 2.0,
      "SmallestImagePixelValue": 0,
      "SoftwareVersions": "syngo MR E11",
      "SpacingBetweenSlices": 2.0,
      "SpecificCharacterSet": "ISO_IR 100",
      "StudyID": "44",
      "StudyTime": "082943.467000",
      "TransmitCoilName": "Body",
      "VariableFlipAngleFlag": "N",
      "WindowCenterWidthExplanation": "Algo1",
      "dBdt": 0.0},
    "slices": {
      "AcquisitionTime": ["084845.065000", "084841.225000", "084845.175000", "084841.335000", "084845.285000", "084841.445000", "084845.395000", "084841.555000", "084845.502500", "084841.662500", "084845.612500", "084841.772500", "084845.722500", "084841.882500", "084845.832500", "084841.992500", "084845.942500", "084842.102500", "084846.052500", "084842.212500", "084846.162500", "084842.322500", "084846.272500", "084842.432500", "084846.380000", "084842.542500", "084846.490000", "084842.650000", "084846.600000", "084842.760000", "084846.710000", "084842.870000", "084846.820000", "084842.980000", "084846.930000", "084843.090000", "084847.040000", "084843.200000", "084847.150000", "084843.310000", "084847.260000", "084843.420000", "084847.367500", "084843.527500", "084847.477500", "084843.637500", "084847.587500", "084843.747500", "084847.697500", "084843.857500", "084847.807500", "084843.967500", "084847.917500", "084844.077500", "084848.027500", "084844.187500", "084848.137500", "084844.297500", "084848.245000", "084844.407500", "084848.355000", "084844.515000", "084848.465000", "084844.625000", "084848.575000", "084844.735000", "084848.685000", "084844.845000", "084848.795000", "084844.955000", "084852.765000", "084848.925000", "084852.875000", "084849.035000", "084852.985000", "084849.145000", "084853.095000", "084849.255000", "084853.202500", "084849.362500", "084853.312500", "084849.472500", "084853.422500", "084849.582500", "084853.532500", "084849.692500", "084853.642500", "084849.802500", "084853.752500", "084849.912500", "084853.862500", "084850.022500", "084853.972500", "084850.132500", "084854.080000", "084850.242500", "084854.190000", "084850.350000", "084854.300000", "084850.460000", "084854.410000", "084850.570000", "084854.520000", "084850.680000", "084854.630000", "084850.790000", "084854.740000", "084850.900000", "084854.850000", "084851.010000", "084854.960000", "084851.120000", "084855.067500", "084851.227500", "084855.177500", "084851.337500", "084855.287500", "084851.447500", "084855.397500", "084851.557500", "084855.507500", "084851.667500", "084855.617500", "084851.777500", "084855.727500", "084851.887500", "084855.837500", "084851.997500", "084855.945000", "084852.107500", "084856.055000", "084852.215000", "084856.165000", "084852.325000", "084856.275000", "084852.435000", "084856.385000", "084852.545000", "084856.495000", "084852.655000", "084900.465000", "084856.625000", "084900.575000", "084856.735000", "084900.685000", "084856.845000", "084900.795000", "084856.955000", "084900.902500", "084857.062500", "084901.012500", "084857.172500", "084901.122500", "084857.282500", "084901.232500", "084857.392500", "084901.342500", "084857.502500", "084901.452500", "084857.612500", "084901.562500", "084857.722500", "084901.672500", "084857.832500", "084901.780000", "084857.942500", "084901.890000", "084858.050000", "084902.000000", "084858.160000", "084902.110000", "084858.270000", "084902.220000", "084858.380000", "084902.330000", "084858.490000", "084902.440000", "084858.600000", "084902.550000", "084858.710000", "084902.660000", "084858.820000", "084902.767500", "084858.927500", "084902.877500", "084859.037500", "084902.987500", "084859.147500", "084903.097500", "084859.257500", "084903.207500", "084859.367500", "084903.317500", "084859.477500", "084903.427500", "084859.587500", "084903.537500", "084859.697500", "084903.645000", "084859.807500", "084903.755000", "084859.915000", "084903.865000", "084900.025000", "084903.975000", "084900.135000", "084904.085000", "084900.245000", "084904.195000", "084900.355000", "084908.165000", "084904.325000", "084908.275000", "084904.435000", "084908.385000", "084904.545000", "084908.495000", "084904.655000", "084908.602500", "084904.762500", "084908.712500", "084904.872500", "084908.822500", "084904.982500", "084908.932500", "084905.092500", "084909.042500", "084905.202500", "084909.152500", "084905.312500", "084909.262500", "084905.422500", "084909.372500", "084905.532500", "084909.480000", "084905.642500", "084909.590000", "084905.750000", "084909.700000", "084905.860000", "084909.810000", "084905.970000", "084909.920000", "084906.080000", "084910.030000", "084906.190000", "084910.140000", "084906.300000", "084910.250000", "084906.410000", "084910.360000", "084906.520000", "084910.467500", "084906.627500", "084910.577500", "084906.737500", "084910.687500", "084906.847500", "084910.797500", "084906.957500", "084910.907500", "084907.067500", "084911.017500", "084907.177500", "084911.127500", "084907.287500", "084911.237500", "084907.397500", "084911.345000", "084907.507500", "084911.455000", "084907.615000", "084911.565000", "084907.725000", "084911.675000", "084907.835000", "084911.785000", "084907.945000", "084911.895000", "084908.055000", "084915.865000", "084912.025000", "084915.975000", "084912.135000", "084916.085000", "084912.245000", "084916.195000", "084912.355000", "084916.302500", "084912.462500", "084916.412500", "084912.572500", "084916.522500", "084912.682500", "084916.632500", "084912.792500", "084916.742500", "084912.902500", "084916.852500", "084913.012500", "084916.962500", "084913.122500", "084917.072500", "084913.232500", "084917.180000", "084913.342500", "084917.290000", "084913.450000", "084917.400000", "084913.560000", "084917.510000", "084913.670000", "084917.620000", "084913.780000", "084917.730000", "084913.890000", "084917.840000", "084914.000000", "084917.950000", "084914.110000", "084918.060000", "084914.220000", "084918.167500", "084914.327500", "084918.277500", "084914.437500", "084918.387500", "084914.547500", "084918.497500", "084914.657500", "084918.607500", "084914.767500", "084918.717500", "084914.877500", "084918.827500", "084914.987500", "084918.937500", "084915.097500", "084919.045000", "084915.207500", "084919.155000", "084915.315000", "084919.265000", "084915.425000", "084919.375000", "084915.535000", "084919.485000", "084915.645000", "084919.595000", "084915.755000", "084923.565000", "084919.725000", "084923.675000", "084919.835000", "084923.785000", "084919.945000", "084923.895000", "084920.055000", "084924.002500", "084920.162500", "084924.112500", "084920.272500", "084924.222500", "084920.382500", "084924.332500", "084920.492500", "084924.442500", "084920.602500", "084924.552500", "084920.712500", "084924.662500", "084920.822500", "084924.772500", "084920.932500", "084924.880000", "084921.042500", "084924.990000", "084921.150000", "084925.100000", "084921.260000", "084925.210000", "084921.370000", "084925.320000", "084921.480000", "084925.430000", "084921.590000", "084925.540000", "084921.700000", "084925.650000", "084921.810000", "084925.760000", "084921.920000", "084925.867500", "084922.027500", "084925.977500", "084922.137500", "084926.087500", "084922.247500", "084926.197500", "084922.357500", "084926.307500", "084922.467500", "084926.417500", "084922.577500", "084926.527500", "084922.687500", "084926.637500", "084922.797500", "084926.745000", "084922.907500", "084926.855000", "084923.015000", "084926.965000", "084923.125000", "084927.075000", "084923.235000", "084927.185000", "084923.345000", "084927.295000", "084923.455000", "084931.265000", "084927.425000", "084931.375000", "084927.535000", "084931.485000", "084927.645000", "084931.595000", "084927.755000", "084931.702500", "084927.862500", "084931.812500", "084927.972500", "084931.922500", "084928.082500", "084932.032500", "084928.192500", "084932.142500", "084928.302500", "084932.252500", "084928.412500", "084932.362500", "084928.522500", "084932.472500", "084928.632500", "084932.580000", "084928.742500", "084932.690000", "084928.850000", "084932.800000", "084928.960000", "084932.910000", "084929.070000", "084933.020000", "084929.180000", "084933.130000", "084929.290000", "084933.240000", "084929.400000", "084933.350000", "084929.510000", "084933.460000", "084929.620000", "084933.567500", "084929.727500", "084933.677500", "084929.837500", "084933.787500", "084929.947500", "084933.897500", "084930.057500", "084934.007500", "084930.167500", "084934.117500", "084930.277500", "084934.227500", "084930.387500", "084934.337500", "084930.497500", "084934.445000", "084930.607500", "084934.555000", "084930.715000", "084934.665000", "084930.825000", "084934.775000", "084930.935000", "084934.885000", "084931.045000", "084934.995000", "084931.155000", "084938.965000", "084935.125000", "084939.075000", "084935.235000", "084939.185000", "084935.345000", "084939.295000", "084935.455000", "084939.402500", "084935.562500", "084939.512500", "084935.672500", "084939.622500", "084935.782500", "084939.732500", "084935.892500", "084939.842500", "084936.002500", "084939.952500", "084936.112500", "084940.062500", "084936.222500", "084940.172500", "084936.332500", "084940.280000", "084936.442500", "084940.390000", "084936.550000", "084940.500000", "084936.660000", "084940.610000", "084936.770000", "084940.720000", "084936.880000", "084940.830000", "084936.990000", "084940.940000", "084937.100000", "084941.050000", "084937.210000", "084941.160000", "084937.320000", "084941.267500", "084937.427500", "084941.377500", "084937.537500", "084941.487500", "084937.647500", "084941.597500", "084937.757500", "084941.707500", "084937.867500", "084941.817500", "084937.977500", "084941.927500", "084938.087500", "084942.037500", "084938.197500", "084942.145000", "084938.307500", "084942.255000", "084938.415000", "084942.365000", "084938.525000", "084942.475000", "084938.635000", "084942.585000", "084938.745000", "084942.695000", "084938.855000", "084946.665000", "084942.825000", "084946.775000", "084942.935000", "084946.885000", "084943.045000", "084946.995000", "084943.155000", "084947.102500", "084943.262500", "084947.212500", "084943.372500", "084947.322500", "084943.482500", "084947.432500", "084943.592500", "084947.542500", "084943.702500", "084947.652500", "084943.812500", "084947.762500", "084943.922500", "084947.872500", "084944.032500", "084947.980000", "084944.142500", "084948.090000", "084944.250000", "084948.200000", "084944.360000", "084948.310000", "084944.470000", "084948.420000", "084944.580000", "084948.530000", "084944.690000", "084948.640000", "084944.800000", "084948.750000", "084944.910000", "084948.860000", "084945.020000", "084948.967500", "084945.127500", "084949.077500", "084945.237500", "084949.187500", "084945.347500", "084949.297500", "084945.457500", "084949.407500", "084945.567500", "084949.517500", "084945.677500", "084949.627500", "084945.787500", "084949.737500", "084945.897500", "084949.845000", "084946.007500", "084949.955000", "084946.115000", "084950.065000", "084946.225000", "084950.175000", "084946.335000", "084950.285000", "084946.445000", "084950.395000", "084946.555000", "084954.365000", "084950.525000", "084954.475000", "084950.635000", "084954.585000", "084950.745000", "084954.695000", "084950.855000", "084954.802500", "084950.962500", "084954.912500", "084951.072500", "084955.022500", "084951.182500", "084955.132500", "084951.292500", "084955.242500", "084951.402500", "084955.352500", "084951.512500", "084955.462500", "084951.622500", "084955.572500", "084951.732500", "084955.680000", "084951.842500", "084955.790000", "084951.950000", "084955.900000", "084952.060000", "084956.010000", "084952.170000", "084956.120000", "084952.280000", "084956.230000", "084952.390000", "084956.340000", "084952.500000", "084956.450000", "084952.610000", "084956.560000", "084952.720000", "084956.667500", "084952.827500", "084956.777500", "084952.937500", "084956.887500", "084953.047500", "084956.997500", "084953.157500", "084957.107500", "084953.267500", "084957.217500", "084953.377500", "084957.327500", "084953.487500", "084957.437500", "084953.597500", "084957.545000", "084953.707500", "084957.655000", "084953.815000", "084957.765000", "084953.925000", "084957.875000", "084954.035000", "084957.985000", "084954.145000", "084958.095000", "084954.255000", "085002.065000", "084958.225000", "085002.175000", "084958.335000", "085002.285000", "084958.445000", "085002.395000", "084958.555000", "085002.502500", "084958.662500", "085002.612500", "084958.772500", "085002.722500", "084958.882500", "085002.832500", "084958.992500", "085002.942500", "084959.102500", "085003.052500", "084959.212500", "085003.162500", "084959.322500", "085003.272500", "084959.432500", "085003.380000", "084959.542500", "085003.490000", "084959.650000", "085003.600000", "084959.760000", "085003.710000", "084959.870000", "085003.820000", "084959.980000", "085003.930000", "085000.090000", "085004.040000", "085000.200000", "085004.150000", "085000.310000", "085004.260000", "085000.420000", "085004.367500", "085000.527500", "085004.477500", "085000.637500", "085004.587500", "085000.747500", "085004.697500", "085000.857500", "085004.807500", "085000.967500", "085004.917500", "085001.077500", "085005.027500", "085001.187500", "085005.137500", "085001.297500", "085005.245000", "085001.407500", "085005.355000", "085001.515000", "085005.465000", "085001.625000", "085005.575000", "085001.735000", "085005.685000", "085001.845000", "085005.795000", "085001.955000", "085009.765000", "085005.925000", "085009.875000", "085006.035000", "085009.985000", "085006.145000", "085010.095000", "085006.255000", "085010.202500", "085006.362500", "085010.312500", "085006.472500", "085010.422500", "085006.582500", "085010.532500", "085006.692500", "085010.642500", "085006.802500", "085010.752500", "085006.912500", "085010.862500", "085007.022500", "085010.972500", "085007.132500", "085011.080000", "085007.242500", "085011.190000", "085007.350000", "085011.300000", "085007.460000", "085011.410000", "085007.570000", "085011.520000", "085007.680000", "085011.630000", "085007.790000", "085011.740000", "085007.900000", "085011.850000", "085008.010000", "085011.960000", "085008.120000", "085012.067500", "085008.227500", "085012.177500", "085008.337500", "085012.287500", "085008.447500", "085012.397500", "085008.557500", "085012.507500", "085008.667500", "085012.617500", "085008.777500", "085012.727500", "085008.887500", "085012.837500", "085008.997500", "085012.945000", "085009.107500", "085013.055000", "085009.215000", "085013.165000", "085009.325000", "085013.275000", "085009.435000", "085013.385000", "085009.545000", "085013.495000", "085009.655000", "085017.465000", "085013.625000", "085017.575000", "085013.735000", "085017.685000", "085013.845000", "085017.795000", "085013.955000", "085017.902500", "085014.062500", "085018.012500", "085014.172500", "085018.122500", "085014.282500", "085018.232500", "085014.392500", "085018.342500", "085014.502500", "085018.452500", "085014.612500", "085018.562500", "085014.722500", "085018.672500", "085014.832500", "085018.780000", "085014.942500", "085018.890000", "085015.050000", "085019.000000", "085015.160000", "085019.110000", "085015.270000", "085019.220000", "085015.380000", "085019.330000", "085015.490000", "085019.440000", "085015.600000", "085019.550000", "085015.710000", "085019.660000", "085015.820000", "085019.767500", "085015.927500", "085019.877500", "085016.037500", "085019.987500", "085016.147500", "085020.097500", "085016.257500", "085020.207500", "085016.367500", "085020.317500", "085016.477500", "085020.427500", "085016.587500", "085020.537500", "085016.697500", "085020.645000", "085016.807500", "085020.755000", "085016.915000", "085020.865000", "085017.025000", "085020.975000", "085017.135000", "085021.085000", "085017.245000", "085021.195000", "085017.355000", "085025.165000", "085021.325000", "085025.275000", "085021.435000", "085025.385000", "085021.545000", "085025.495000", "085021.655000", "085025.602500", "085021.762500", "085025.712500", "085021.872500", "085025.822500", "085021.982500", "085025.932500", "085022.092500", "085026.042500", "085022.202500", "085026.152500", "085022.312500", "085026.262500", "085022.422500", "085026.372500", "085022.532500", "085026.480000", "085022.642500", "085026.590000", "085022.750000", "085026.700000", "085022.860000", "085026.810000", "085022.970000", "085026.920000", "085023.080000", "085027.030000", "085023.190000", "085027.140000", "085023.300000", "085027.250000", "085023.410000", "085027.360000", "085023.520000", "085027.467500", "085023.627500", "085027.577500", "085023.737500", "085027.687500", "085023.847500", "085027.797500", "085023.957500", "085027.907500", "085024.067500", "085028.017500", "085024.177500", "085028.127500", "085024.287500", "085028.237500", "085024.397500", "085028.345000", "085024.507500", "085028.455000", "085024.615000", "085028.565000", "085024.725000", "085028.675000", "085024.835000", "085028.785000", "085024.945000", "085028.895000", "085025.055000", "085032.865000", "085029.025000", "085032.975000", "085029.135000", "085033.085000", "085029.245000", "085033.195000", "085029.355000", "085033.302500", "085029.462500", "085033.412500", "085029.572500", "085033.522500", "085029.682500", "085033.632500", "085029.792500", "085033.742500", "085029.902500", "085033.852500", "085030.012500", "085033.962500", "085030.122500", "085034.072500", "085030.232500", "085034.180000", "085030.342500", "085034.290000", "085030.450000", "085034.400000", "085030.560000", "085034.510000", "085030.670000", "085034.620000", "085030.780000", "085034.730000", "085030.890000", "085034.840000", "085031.000000", "085034.950000", "085031.110000", "085035.060000", "085031.220000", "085035.167500", "085031.327500", "085035.277500", "085031.437500", "085035.387500", "085031.547500", "085035.497500", "085031.657500", "085035.607500", "085031.767500", "085035.717500", "085031.877500", "085035.827500", "085031.987500", "085035.937500", "085032.097500", "085036.045000", "085032.207500", "085036.155000", "085032.315000", "085036.265000", "085032.425000", "085036.375000", "085032.535000", "085036.485000", "085032.645000", "085036.595000", "085032.755000", "085040.565000", "085036.725000", "085040.675000", "085036.835000", "085040.785000", "085036.945000", "085040.895000", "085037.055000", "085041.002500", "085037.162500", "085041.112500", "085037.272500", "085041.222500", "085037.382500", "085041.332500", "085037.492500", "085041.442500", "085037.602500", "085041.552500", "085037.712500", "085041.662500", "085037.822500", "085041.772500", "085037.932500", "085041.880000", "085038.042500", "085041.990000", "085038.150000", "085042.100000", "085038.260000", "085042.210000", "085038.370000", "085042.320000", "085038.480000", "085042.430000", "085038.590000", "085042.540000", "085038.700000", "085042.650000", "085038.810000", "085042.760000", "085038.920000", "085042.867500", "085039.027500", "085042.977500", "085039.137500", "085043.087500", "085039.247500", "085043.197500", "085039.357500", "085043.307500", "085039.467500", "085043.417500", "085039.577500", "085043.527500", "085039.687500", "085043.637500", "085039.797500", "085043.745000", "085039.907500", "085043.855000", "085040.015000", "085043.965000", "085040.125000", "085044.075000", "085040.235000", "085044.185000", "085040.345000", "085044.295000", "085040.455000", "085048.265000", "085044.425000", "085048.375000", "085044.535000", "085048.485000", "085044.645000", "085048.595000", "085044.755000", "085048.702500", "085044.862500", "085048.812500", "085044.972500", "085048.922500", "085045.082500", "085049.032500", "085045.192500", "085049.142500", "085045.302500", "085049.252500", "085045.412500", "085049.362500", "085045.522500", "085049.472500", "085045.632500", "085049.580000", "085045.742500", "085049.690000", "085045.850000", "085049.800000", "085045.960000", "085049.910000", "085046.070000", "085050.020000", "085046.180000", "085050.130000", "085046.290000", "085050.240000", "085046.400000", "085050.350000", "085046.510000", "085050.460000", "085046.620000", "085050.567500", "085046.727500", "085050.677500", "085046.837500", "085050.787500", "085046.947500", "085050.897500", "085047.057500", "085051.007500", "085047.167500", "085051.117500", "085047.277500", "085051.227500", "085047.387500", "085051.337500", "085047.497500", "085051.445000", "085047.607500", "085051.555000", "085047.715000", "085051.665000", "085047.825000", "085051.775000", "085047.935000", "085051.885000", "085048.045000", "085051.995000", "085048.155000", "085055.965000", "085052.125000", "085056.075000", "085052.235000", "085056.185000", "085052.345000", "085056.295000", "085052.455000", "085056.402500", "085052.562500", "085056.512500", "085052.672500", "085056.622500", "085052.782500", "085056.732500", "085052.892500", "085056.842500", "085053.002500", "085056.952500", "085053.112500", "085057.062500", "085053.222500", "085057.172500", "085053.332500", "085057.280000", "085053.442500", "085057.390000", "085053.550000", "085057.500000", "085053.660000", "085057.610000", "085053.770000", "085057.720000", "085053.880000", "085057.830000", "085053.990000", "085057.940000", "085054.100000", "085058.050000", "085054.210000", "085058.160000", "085054.320000", "085058.267500", "085054.427500", "085058.377500", "085054.537500", "085058.487500", "085054.647500", "085058.597500", "085054.757500", "085058.707500", "085054.867500", "085058.817500", "085054.977500", "085058.927500", "085055.087500", "085059.037500", "085055.197500", "085059.145000", "085055.307500", "085059.255000", "085055.415000", "085059.365000", "085055.525000", "085059.475000", "085055.635000", "085059.585000", "085055.745000", "085059.695000", "085055.855000", "085103.665000", "085059.825000", "085103.775000", "085059.935000", "085103.885000", "085100.045000", "085103.995000", "085100.155000", "085104.102500", "085100.262500", "085104.212500", "085100.372500", "085104.322500", "085100.482500", "085104.432500", "085100.592500", "085104.542500", "085100.702500", "085104.652500", "085100.812500", "085104.762500", "085100.922500", "085104.872500", "085101.032500", "085104.980000", "085101.142500", "085105.090000", "085101.250000", "085105.200000", "085101.360000", "085105.310000", "085101.470000", "085105.420000", "085101.580000", "085105.530000", "085101.690000", "085105.640000", "085101.800000", "085105.750000", "085101.910000", "085105.860000", "085102.020000", "085105.967500", "085102.127500", "085106.077500", "085102.237500", "085106.187500", "085102.347500", "085106.297500", "085102.457500", "085106.407500", "085102.567500", "085106.517500", "085102.677500", "085106.627500", "085102.787500", "085106.737500", "085102.897500", "085106.845000", "085103.007500", "085106.955000", "085103.115000", "085107.065000", "085103.225000", "085107.175000", "085103.335000", "085107.285000", "085103.445000", "085107.395000", "085103.555000", "085111.365000", "085107.525000", "085111.475000", "085107.635000", "085111.585000", "085107.745000", "085111.695000", "085107.855000", "085111.802500", "085107.962500", "085111.912500", "085108.072500", "085112.022500", "085108.182500", "085112.132500", "085108.292500", "085112.242500", "085108.402500", "085112.352500", "085108.512500", "085112.462500", "085108.622500", "085112.572500", "085108.732500", "085112.680000", "085108.842500", "085112.790000", "085108.950000", "085112.900000", "085109.060000", "085113.010000", "085109.170000", "085113.120000", "085109.280000", "085113.230000", "085109.390000", "085113.340000", "085109.500000", "085113.450000", "085109.610000", "085113.560000", "085109.720000", "085113.667500", "085109.827500", "085113.777500", "085109.937500", "085113.887500", "085110.047500", "085113.997500", "085110.157500", "085114.107500", "085110.267500", "085114.217500", "085110.377500", "085114.327500", "085110.487500", "085114.437500", "085110.597500", "085114.545000", "085110.707500", "085114.655000", "085110.815000", "085114.765000", "085110.925000", "085114.875000", "085111.035000", "085114.985000", "085111.145000", "085115.095000", "085111.255000", "085119.065000", "085115.225000", "085119.175000", "085115.335000", "085119.285000", "085115.445000", "085119.395000", "085115.555000", "085119.502500", "085115.662500", "085119.612500", "085115.772500", "085119.722500", "085115.882500", "085119.832500", "085115.992500", "085119.942500", "085116.102500", "085120.052500", "085116.212500", "085120.162500", "085116.322500", "085120.272500", "085116.432500", "085120.380000", "085116.542500", "085120.490000", "085116.650000", "085120.600000", "085116.760000", "085120.710000", "085116.870000", "085120.820000", "085116.980000", "085120.930000