{
  "AcquisitionMatrixPE": 80,
  "AcquisitionNumber": 1,
  "AcquisitionTime": "09:23:6.495000",
  "BandwidthPerPixelPhaseEncode": 25,
  "BaseResolution": 80,
  "BodyPartExamined": "BRAIN",
  "CoilCombinationMethod": "Sum of Squares",
  "ConsistencyInfo": "N4_VE11E_LATEST_20181129",
  "ConversionSoftware": "dcm2niix",
  "ConversionSoftwareVersion": "v1.0.20220720",
  "DerivedVendorReportedEchoSpacing": 0.0005,
  "DeviceSerialNumber": "66112",
  "DwellTime": 2.7e-06,
  "EchoTime": 0.03,
  "EchoTrainLength": 80,
  "EffectiveEchoSpacing": 0.0005,
  "FlipAngle": 10,
  "HeudiconvVersion": "0.13.1",
  "ImageOrientationPatientDICOM": [0.999957, 0.00902582, 0.00212089, -0.00925013, 0.955606, 0.294504],
  "ImageOrientationText": "Tra>Cor(17.1)>Sag(-0.0)",
  "ImageType": [
    "ORIGINAL",
    "PRIMARY",
    "M",
    "ND",
    "NORM",
    "MOSAIC"
],
  "ImagingFrequency": 123.259,
  "InPlanePhaseEncodingDirectionDICOM": "COL",
  "InstitutionAddress": "Maynard 3,Hanover,NH,US,03755",
  "InstitutionName": "Dartmouth College - PBS",
  "InstitutionalDepartmentName": "Department",
  "MRAcquisitionType": "2D",
  "MagneticFieldStrength": 3,
  "Manufacturer": "Siemens",
  "ManufacturersModelName": "Prisma",
  "MatrixCoilMode": "SENSE",
  "Modality": "MR",
  "NonlinearGradientCorrection": false,
  "PartialFourier": 1,
  "PatientPosition": "HFS",
  "PercentPhaseFOV": 100,
  "PercentSampling": 100,
  "PhaseEncodingDirection": "j-",
  "PhaseEncodingSteps": 80,
  "PhaseResolution": 1,
  "PixelBandwidth": 2315,
  "ProcedureStepDescription": "dbic^QA",
  "ProtocolName": "func-bold_fa-10",
  "PulseSequenceDetails": "%SiemensSeq%\\ep2d_bold",
  "ReceiveCoilActiveElements": "HC1-7;NC1,2",
  "ReceiveCoilName": "HeadNeck_64",
  "ReconMatrixPE": 80,
  "RepetitionTime": 2,
  "SAR": 0.00758332,
  "ScanOptions": "FS",
  "ScanningSequence": "EP",
  "SequenceName": "*epfid2d1_80",
  "SequenceVariant": "SK",
  "SeriesDescription": "func-bold_fa-10",
  "SeriesNumber": 9,
  "ShimSetting": [4219, -7716, -7482, -153, -162, -275, -89, 99],
  "SliceThickness": 3.5,
  "SliceTiming": [0.99, 0, 1.0575, 0.0675, 1.1225, 0.1325, 1.1875, 0.1975, 1.255, 0.265, 1.32, 0.33, 1.3875, 0.3975, 1.4525, 0.4625, 1.5175, 0.5275, 1.585, 0.595, 1.65, 0.66, 1.715, 0.7275, 1.7825, 0.7925, 1.8475, 0.8575, 1.915, 0.925],
  "SoftwareVersions": "syngo MR E11",
  "SpacingBetweenSlices": 3.99,
  "StationName": "AWP66112",
  "TotalReadoutTime": 0.0395,
  "TxRefAmp": 218.937,
  "dcmmeta_affine": [
    [-2.999871015548706, -0.027750398963689804, -0.0025193290784955025, 121.45747375488281],
    [-0.02707746997475624, 2.866816520690918, 1.1750984191894531, -128.02345275878906],
    [0.006362656131386757, -0.8835118412971497, 3.813035011291504, -40.82062530517578],
    [0.0, 0.0, 0.0, 1.0]
],
  "dcmmeta_reorient_transform": [
    [0.0, -1.0, 0.0, 79.0],
    [1.0, 0.0, 0.0, 0.0],
    [0.0, 0.0, 1.0, 0.0],
    [0.0, 0.0, 0.0, 1.0]
],
  "dcmmeta_shape": [80, 80, 30, 200],
  "dcmmeta_slice_dim": 2,
  "dcmmeta_version": 0.6,
  "global": {
    "const": {
      "AccessionNumber": "qa64",
      "AcquisitionMatrix": [80, 0, 0, 80],
      "AngioFlag": "N",
      "BitsAllocated": 16,
      "BitsStored": 12,
      "BodyPartExamined": "BRAIN",
      "Columns": 480,
      "EchoNumbers": 1,
      "EchoTime": 30.0,
      "EchoTrainLength": 80,
      "FlipAngle": 10.0,
      "HighBit": 11,
      "ImageOrientationPatient": [0.99995701725434, 0.00902582343949, 0.00212088543648, -0.0092501331984, 0.95560549547122, 0.29450394235224],
      "ImagePositionPatient": [-713.68932263706, -677.23384656701, -288.59295492633],
      "ImageType": [
        "ORIGINAL",
        "PRIMARY",
        "M",
        "ND",
        "NORM",
        "MOSAIC"
],
      "ImagedNucleus": "1H",
      "ImagingFrequency": 123.259266,
      "InPlanePhaseEncodingDirection": "COL",
      "MRAcquisitionType": "2D",
      "MagneticFieldStrength": 3.0,
      "Manufacturer": "SIEMENS",
      "ManufacturerModelName": "Prisma",
      "Modality": "MR",
      "NumberOfAverages": 1.0,
      "NumberOfPhaseEncodingSteps": 80,
      "PercentPhaseFieldOfView": 100.0,
      "PercentSampling": 100.0,
      "PerformedProcedureStepStartTime": "090716.413000",
      "PhotometricInterpretation": "MONOCHROME2",
      "PixelBandwidth": 2315.0,
      "PixelRepresentation": 0,
      "PixelSpacing": [3.0, 3.0],
      "ProtocolName": "func-bold_fa-10",
      "RepetitionTime": 2000.0,
      "Rows": 480,
      "SAR": 0.00758331908651,
      "SamplesPerPixel": 1,
      "ScanOptions": "FS",
      "ScanningSequence": "EP",
      "SequenceName": "*epfid2d1_80",
      "SequenceVariant": "SK",
      "SeriesDescription": "func-bold_fa-10",
      "SeriesNumber": 9,
      "SeriesTime": "092340.687000",
      "SliceLocation": -76.79113447612,
      "SliceThickness": 3.5,
      "SmallestImagePixelValue": 0,
      "SoftwareVersions": "syngo MR E11",
      "SpacingBetweenSlices": 3.9899999237349,
      "SpecificCharacterSet": "ISO_IR 100",
      "StudyID": "1",
      "StudyTime": "090716.340000",
      "TransmitCoilName": "Body",
      "VariableFlipAngleFlag": "N",
      "WindowCenterWidthExplanation": "Algo1"
    },
    "slices": {}
  },
  "time": {
    "samples": {
      "AcquisitionNumber": [1, 2, 3, 4, 5, 6, 7, 8, 9, 10, 11, 12, 13, 14, 15, 16, 17, 18, 19, 20, 21, 22, 23, 24, 25, 26, 27, 28, 29, 30, 31, 32, 33, 34, 35, 36, 37, 38, 39, 40, 41, 42, 43, 44, 45, 46, 47, 48, 49, 50, 51, 52, 53, 54, 55, 56, 57, 58, 59, 60, 61, 62, 63, 64, 65, 66, 67, 68, 69, 70, 71, 72, 73, 74, 75, 76, 77, 78, 79, 80, 81, 82, 83, 84, 85, 86, 87, 88, 89, 90, 91, 92, 93, 94, 95, 96, 97, 98, 99, 100, 101, 102, 103, 104, 105, 106, 107, 108, 109, 110, 111, 112, 113, 114, 115, 116, 117, 118, 119, 120, 121, 122, 123, 124, 125, 126, 127, 128, 129, 130, 131, 132, 133, 134, 135, 136, 137, 138, 139, 140, 141, 142, 143, 144, 145, 146, 147, 148, 149, 150, 151, 152, 153, 154, 155, 156, 157, 158, 159, 160, 161, 162, 163, 164, 165, 166, 167, 168, 169, 170, 171, 172, 173, 174, 175, 176, 177, 178, 179, 180, 181, 182, 183, 184, 185, 186, 187, 188, 189, 190, 191, 192, 193, 194, 195, 196, 197, 198, 199, 200],
      "AcquisitionTime": ["092306.495000", "092308.495000", "092310.495000", "092312.495000", "092314.495000", "092316.495000", "092318.495000", "092320.495000", "092322.495000", "092324.495000", "092326.495000", "092328.495000", "092330.495000", "092332.495000", "092334.495000", "092336.495000", "092338.495000", "092340.495000", "092342.495000", "092344.495000", "092346.495000", "092348.495000", "092350.495000", "092352.495000", "092354.495000", "092356.495000", "092358.495000", "092400.495000", "092402.495000", "092404.495000", "092406.495000", "092408.495000", "092410.495000", "092412.495000", "092414.495000", "092416.495000", "092418.495000", "092420.495000", "092422.495000", "092424.495000", "092426.495000", "092428.495000", "092430.495000", "092432.495000", "092434.495000", "092436.495000", "092438.495000", "092440.495000", "092442.495000", "092444.495000", "092446.495000", "092448.495000", "092450.495000", "092452.495000", "092454.495000", "092456.495000", "092458.495000", "092500.495000", "092502.495000", "092504.495000", "092506.495000", "092508.495000", "092510.495000", "092512.495000", "092514.495000", "092516.495000", "092518.495000", "092520.495000", "092522.495000", "092524.495000", "092526.495000", "092528.495000", "092530.495000", "092532.495000", "092534.495000", "092536.495000", "092538.495000", "092540.495000", "092542.495000", "092544.495000", "092546.495000", "092548.495000", "092550.495000", "092552.495000", "092554.495000", "092556.495000", "092558.495000", "092600.495000", "092602.495000", "092604.495000", "092606.495000", "092608.495000", "092610.495000", "092612.495000", "092614.495000", "092616.495000", "092618.495000", "092620.495000", "092622.495000", "092624.495000", "092626.495000", "092628.495000", "092630.495000", "092632.495000", "092634.495000", "092636.495000", "092638.495000", "092640.495000", "092642.495000", "092644.495000", "092646.495000", "092648.495000", "092650.495000", "092652.495000", "092654.495000", "092656.495000", "092658.495000", "092700.495000", "092702.495000", "092704.495000", "092706.495000", "092708.495000", "092710.495000", "092712.495000", "092714.495000", "092716.495000", "092718.495000", "092720.495000", "092722.495000", "092724.495000", "092726.495000", "092728.495000", "092730.495000", "092732.495000", "092734.495000", "092736.495000", "092738.495000", "092740.495000", "092742.495000", "092744.495000", "092746.495000", "092748.495000", "092750.495000", "092752.495000", "092754.495000", "092756.495000", "092758.495000", "092800.495000", "092802.495000", "092804.495000", "092806.495000", "092808.495000", "092810.495000", "092812.495000", "092814.495000", "092816.495000", "092818.495000", "092820.495000", "092822.495000", "092824.495000", "092826.495000", "092828.495000", "092830.495000", "092832.495000", "092834.495000", "092836.495000", "092838.495000", "092840.495000", "092842.495000", "092844.495000", "092846.495000", "092848.495000", "092850.495000", "092852.495000", "092854.495000", "092856.495000", "092858.495000", "092900.495000", "092902.495000", "092904.495000", "092906.495000", "092908.495000", "092910.495000", "092912.495000", "092914.495000", "092916.495000", "092918.495000", "092920.495000", "092922.495000", "092924.495000", "092926.495000", "092928.495000", "092930.495000", "092932.495000", "092934.495000", "092936.495000", "092938.495000", "092940.495000", "092942.495000", "092944.495000"],
      "ContentTime": ["092340.691000", "092340.694000", "092340.696000", "092340.698000", "092340.700000", "092340.703000", "092340.705000", "092340.707000", "092340.710000", "092340.720000", "092340.722000", "092340.725000", "092340.727000", "092340.729000", "092340.731000", "092340.734000", "092340.736000", "092420.686000", "092420.689000", "092420.691000", "092420.693000", "092420.696000", "092420.698000", "092420.700000", "092420.702000", "092420.710000", "092420.713000", "092420.715000", "092420.717000", "092420.720000", "092420.722000", "092420.724000", "092420.726000", "092420.729000", "092420.731000", "092420.733000", "092420.735000", "092500.687000", "092500.690000", "092500.692000", "092500.694000", "092500.696000", "092500.699000", "092500.701000", "092500.703000", "092500.706000", "092500.708000", "092500.710000", "092500.712000", "092500.715000", "092500.717000", "092500.719000", "092500.721000", "092500.724000", "092500.726000", "092500.728000", "092500.731000", "092540.686000", "092540.689000", "092540.691000", "092540.693000", "092540.696000", "092540.698000", "092540.700000", "092540.702000", "092540.705000", "092540.707000", "092540.709000", "092540.711000", "092540.714000", "092540.716000", "092540.718000", "092540.720000", "092540.723000", "092540.725000", "092540.727000", "092540.730000", "092620.686000", "092620.689000", "092620.691000", "092620.693000", "092620.696000", "092620.698000", "092620.700000", "092620.702000", "092620.705000", "092620.707000", "092620.709000", "092620.711000", "092620.714000", "092620.716000", "092620.718000", "092620.721000", "092620.723000", "092620.725000", "092620.727000", "092620.730000", "092700.687000", "092700.690000", "092700.692000", "092700.694000", "092700.696000", "092700.699000", "092700.701000", "092700.704000", "092700.706000", "092700.708000", "092700.710000", "092700.713000", "092700.715000", "092700.717000", "092700.719000", "092700.722000", "092700.724000", "092700.726000", "092700.728000", "092700.731000", "092740.687000", "092740.690000", "092740.700000", "092740.703000", "092740.705000", "092740.707000", "092740.709000", "092740.712000", "092740.714000", "092740.716000", "092740.719000", "092740.721000", "092740.723000", "092740.726000", "092740.728000", "092740.730000", "092740.732000", "092740.735000", "092740.737000", "092740.739000", "092820.686000", "092820.689000", "092820.691000", "092820.693000", "092820.696000", "092820.698000", "092820.700000", "092820.703000", "092820.705000", "092820.707000", "092820.709000", "092820.712000", "092820.714000", "092820.716000", "092820.719000", "092820.721000", "092820.723000", "092820.725000", "092820.728000", "092820.730000", "092900.686000", "092900.689000", "092900.691000", "092900.693000", "092900.696000", "092900.698000", "092900.700000", "092900.703000", "092900.705000", "092900.707000", "092900.709000", "092900.712000", "092900.714000", "092900.716000", "092900.718000", "092900.721000", "092900.723000", "092900.725000", "092900.728000", "092900.730000", "092940.687000", "092940.690000", "092940.692000", "092940.695000", "092940.697000", "092940.699000", "092940.701000", "092940.704000", "092940.706000", "092940.708000", "092940.710000", "092940.713000", "092940.715000", "092940.717000", "092940.719000", "092940.722000", "092940.724000", "092940.726000", "092940.729000", "092940.731000", "092945.843000", "092945.845000", "092945.847000"],
      "InstanceCreationTime": ["092340.691000", "092340.694000", "092340.696000", "092340.698000", "092340.700000", "092340.703000", "092340.705000", "092340.707000", "092340.710000", "092340.720000", "092340.722000", "092340.725000", "092340.727000", "092340.729000", "092340.731000", "092340.734000", "092340.736000", "092420.686000", "092420.689000", "092420.691000", "092420.693000", "092420.696000", "092420.698000", "092420.700000", "092420.702000", "092420.710000", "092420.713000", "092420.715000", "092420.717000", "092420.720000", "092420.722000", "092420.724000", "092420.726000", "092420.729000", "092420.731000", "092420.733000", "092420.735000", "092500.687000", "092500.690000", "092500.692000", "092500.694000", "092500.696000", "092500.699000", "092500.701000", "092500.703000", "092500.706000", "092500.708000", "092500.710000", "092500.712000", "092500.715000", "092500.717000", "092500.719000", "092500.721000", "092500.724000", "092500.726000", "092500.728000", "092500.731000", "092540.686000", "092540.689000", "092540.691000", "092540.693000", "092540.696000", "092540.698000", "092540.700000", "092540.702000", "092540.705000", "092540.707000", "092540.709000", "092540.711000", "092540.714000", "092540.716000", "092540.718000", "092540.720000", "092540.723000", "092540.725000", "092540.727000", "092540.730000", "092620.686000", "092620.689000", "092620.691000", "092620.693000", "092620.696000", "092620.698000", "092620.700000", "092620.702000", "092620.705000", "092620.707000", "092620.709000", "092620.711000", "092620.714000", "092620.716000", "092620.718000", "092620.721000", "092620.723000", "092620.725000", "092620.727000", "092620.730000", "092700.687000", "092700.690000", "092700.692000", "092700.694000", "092700.696000", "092700.699000", "092700.701000", "092700.704000", "092700.706000", "092700.708000", "092700.710000", "092700.713000", "092700.715000", "092700.717000", "092700.719000", "092700.722000", "092700.724000", "092700.726000", "092700.728000", "092700.731000", "092740.687000", "092740.690000", "092740.700000", "092740.703000", "092740.705000", "092740.707000", "092740.709000", "092740.712000", "092740.714000", "092740.716000", "092740.719000", "092740.721000", "092740.723000", "092740.726000", "092740.728000", "092740.730000", "092740.732000", "092740.735000", "092740.737000", "092740.739000", "092820.686000", "092820.689000", "092820.691000", "092820.693000", "092820.696000", "092820.698000", "092820.700000", "092820.703000", "092820.705000", "092820.707000", "092820.709000", "092820.712000", "092820.714000", "092820.716000", "092820.719000", "092820.721000", "092820.723000", "092820.725000", "092820.728000", "092820.730000", "092900.686000", "092900.689000", "092900.691000", "092900.693000", "092900.696000", "092900.698000", "092900.700000", "092900.703000", "092900.705000", "092900.707000", "092900.709000", "092900.712000", "092900.714000", "092900.716000", "092900.718000", "092900.721000", "092900.723000", "092900.725000", "092900.728000", "092900.730000", "092940.687000", "092940.690000", "092940.692000", "092940.695000", "092940.697000", "092940.699000", "092940.701000", "092940.704000", "092940.706000", "092940.708000", "092940.710000", "092940.713000", "092940.715000", "092940.717000", "092940.719000", "092940.722000", "092940.724000", "092940.726000", "092940.729000", "092940.731000", "092945.843000", "092945.845000", "092945.847000"],
      "InstanceNumber": [1, 2, 3, 4, 5, 6, 7, 8, 9, 10, 11, 12, 13, 14, 15, 16, 17, 18, 19, 20, 21, 22, 23, 24, 25, 26, 27, 28, 29, 30, 31, 32, 33, 34, 35, 36, 37, 38, 39, 40, 41, 42, 43, 44, 45, 46, 47, 48, 49, 50, 51, 52, 53, 54, 55, 56, 57, 58, 59, 60, 61, 62, 63, 64, 65, 66, 67, 68, 69, 70, 71, 72, 73, 74, 75, 76, 77, 78, 79, 80, 81, 82, 83, 84, 85, 86, 87, 88, 89, 90, 91, 92, 93, 94, 95, 96, 97, 98, 99, 100, 101, 102, 103, 104, 105, 106, 107, 108, 109, 110, 111, 112, 113, 114, 115, 116, 117, 118, 119, 120, 121, 122, 123, 124, 125, 126, 127, 128, 129, 130, 131, 132, 133, 134, 135, 136, 137, 138, 139, 140, 141, 142, 143, 144, 145, 146, 147, 148, 149, 150, 151, 152, 153, 154, 155, 156, 157, 158, 159, 160, 161, 162, 163, 164, 165, 166, 167, 168, 169, 170, 171, 172, 173, 174, 175, 176, 177, 178, 179, 180, 181, 182, 183, 184, 185, 186, 187, 188, 189, 190, 191, 192, 193, 194, 195, 196, 197, 198, 199, 200],
      "LargestImagePixelValue": [707, 705, 705, 705, 703, 704, 704, 702, 702, 707, 704, 703, 705, 703, 702, 707, 702, 704, 704, 705, 702, 707, 703, 702, 705, 702, 702, 703, 704, 705, 701, 700, 701, 701, 702, 703, 703, 705, 704, 704, 704, 703, 706, 705, 704, 701, 702, 703, 704, 702, 702, 703, 702, 704, 704, 704, 705, 704, 700, 703, 703, 703, 706, 704, 701, 703, 704, 704, 701, 702, 702, 701, 702, 700, 700, 701, 705, 702, 702, 700, 704, 701, 704, 703, 704, 701, 699, 702, 703, 702, 700, 705, 702, 701, 702, 702, 702, 701, 702, 701, 702, 701, 703, 703, 702, 700, 699, 700, 703, 703, 700, 704, 700, 699, 701, 702, 703, 703, 703, 701, 701, 701, 700, 709, 706, 705, 705, 703, 699, 702, 703, 703, 702, 703, 703, 702, 702, 702, 704, 700, 698, 702, 699, 699, 705, 701, 702, 701, 703, 702, 701, 699, 698, 699, 700, 703, 704, 700, 703, 700, 702, 699, 701, 704, 701, 700, 701, 698, 701, 700, 703, 701, 699, 701, 700, 698, 703, 705, 703, 702, 704, 698, 705, 699, 701, 701, 700, 699, 697, 702, 702, 702, 701, 700, 699, 700, 702, 701, 701, 702],
      "WindowCenter": [477.0, 476.0, 476.0, 476.0, 476.0, 476.0, 476.0, 476.0, 476.0, 476.0, 476.0, 476.0, 476.0, 476.0, 476.0, 476.0, 476.0, 476.0, 476.0, 476.0, 476.0, 476.0, 476.0, 476.0, 476.0, 476.0, 476.0, 476.0, 476.0, 476.0, 476.0, 476.0, 476.0, 476.0, 476.0, 476.0, 476.0, 476.0, 476.0, 476.0, 476.0, 476.0, 476.0, 476.0, 476.0, 476.0, 476.0, 476.0, 476.0, 476.0, 476.0, 476.0, 476.0, 476.0, 476.0, 476.0, 476.0, 476.0, 476.0, 476.0, 476.0, 476.0, 476.0, 476.0, 476.0, 476.0, 476.0, 476.0, 476.0, 476.0, 476.0, 476.0, 476.0, 476.0, 475.0, 476.0, 476.0, 476.0, 476.0, 476.0, 476.0, 476.0, 476.0, 476.0, 476.0, 475.0, 476.0, 475.0, 476.0, 475.0, 475.0, 476.0, 476.0, 476.0, 476.0, 476.0, 476.0, 476.0, 475.0, 476.0, 476.0, 475.0, 475.0, 475.0, 476.0, 475.0, 476.0, 476.0, 476.0, 475.0, 476.0, 476.0, 476.0, 475.0, 476.0, 475.0, 475.0, 475.0, 475.0, 475.0, 475.0, 475.0, 476.0, 475.0, 475.0, 475.0, 475.0, 476.0, 475.0, 475.0, 475.0, 475.0, 475.0, 475.0, 475.0, 475.0, 475.0, 475.0, 475.0, 475.0, 475.0, 475.0, 475.0, 475.0, 475.0, 475.0, 475.0, 475.0, 475.0, 475.0, 475.0, 475.0, 475.0, 475.0, 475.0, 475.0, 475.0, 475.0, 475.0, 475.0, 475.0, 475.0, 475.0, 475.0, 475.0, 475.0, 475.0, 475.0, 475.0, 474.0, 475.0, 475.0, 475.0, 475.0, 475.0, 475.0, 474.0, 475.0, 475.0, 475.0, 475.0, 475.0, 475.0, 474.0, 474.0, 475.0, 475.0, 475.0, 475.0, 474.0, 474.0, 475.0, 474.0, 475.0, 474.0, 475.0, 475.0, 474.0, 475.0, 475.0],
      "WindowWidth": [987.0, 987.0, 987.0, 987.0, 987.0, 987.0, 987.0, 987.0, 987.0, 986.0, 987.0, 987.0, 987.0, 987.0, 986.0, 986.0, 987.0, 986.0, 987.0, 987.0, 986.0, 986.0, 986.0, 986.0, 986.0, 987.0, 986.0, 986.0, 986.0, 986.0, 986.0, 986.0, 987.0, 986.0, 986.0, 986.0, 986.0, 986.0, 986.0, 986.0, 986.0, 986.0, 986.0, 986.0, 986.0, 986.0, 986.0, 986.0, 986.0, 986.0, 986.0, 986.0, 986.0, 986.0, 986.0, 986.0, 986.0, 986.0, 986.0, 986.0, 986.0, 986.0, 986.0, 986.0, 986.0, 986.0, 986.0, 986.0, 986.0, 986.0, 986.0, 986.0, 986.0, 986.0, 985.0, 986.0, 986.0, 986.0, 986.0, 986.0, 986.0, 986.0, 986.0, 986.0, 986.0, 985.0, 986.0, 985.0, 986.0, 985.0, 985.0, 986.0, 986.0, 986.0, 986.0, 986.0, 986.0, 986.0, 985.0, 986.0, 986.0, 985.0, 985.0, 985.0, 986.0, 985.0, 986.0, 986.0, 986.0, 985.0, 986.0, 986.0, 986.0, 985.0, 986.0, 985.0, 985.0, 985.0, 985.0, 985.0, 985.0, 985.0, 985.0, 985.0, 985.0, 985.0, 985.0, 985.0, 985.0, 985.0, 985.0, 985.0, 985.0, 985.0, 985.0, 985.0, 985.0, 985.0, 985.0, 985.0, 985.0, 985.0, 985.0, 984.0, 985.0, 985.0, 985.0, 985.0, 985.0, 984.0, 984.0, 984.0, 984.0, 985.0, 985.0, 984.0, 984.0, 984.0, 984.0, 984.0, 984.0, 984.0, 984.0, 984.0, 984.0, 984.0, 984.0, 984.0, 984.0, 984.0, 984.0, 984.0, 984.0, 984.0, 984.0, 984.0, 984.0, 984.0, 984.0, 984.0, 984.0, 984.0, 984.0, 983.0, 983.0, 984.0, 984.0, 984.0, 984.0, 983.0, 983.0, 984.0, 983.0, 984.0, 983.0, 984.0, 984.0, 983.0, 984.0, 984.0]
    },
    "slices": {}
  }
}