{
  "AcquisitionMatrixPE": 80,
  "AcquisitionNumber": 1,
  "AcquisitionTime": "09:09:28.745000",
  "BandwidthPerPixelPhaseEncode": 48.077,
  "BaseResolution": 80,
  "BodyPartExamined": "BRAIN",
  "CoilCombinationMethod": "Sum of Squares",
  "ConsistencyInfo": "N4_VE11E_LATEST_20181129",
  "ConversionSoftware": "dcm2niix",
  "ConversionSoftwareVersion": "v1.0.20220720",
  "DerivedVendorReportedEchoSpacing": 0.000519999,
  "DeviceSerialNumber": "66112",
  "DwellTime": 2.7e-06,
  "EchoTime": 0.035,
  "EchoTrainLength": 39,
  "EffectiveEchoSpacing": 0.00026,
  "FlipAngle": 90,
  "HeudiconvVersion": "0.13.1",
  "ImageOrientationPatientDICOM": [0.999959, 0.00885899, 0.00206948, -0.00907556, 0.955607, 0.294504],
  "ImageOrientationText": "Tra>Cor(17.1)>Sag(-0.0)",
  "ImageType": [
    "ORIGINAL",
    "PRIMARY",
    "M",
    "ND",
    "NORM",
    "MOSAIC"
],
  "ImagingFrequency": 123.259,
  "InPlanePhaseEncodingDirectionDICOM": "COL",
  "InstitutionAddress": "Maynard 3,Hanover,NH,US,03755",
  "InstitutionName": "Dartmouth College - PBS",
  "InstitutionalDepartmentName": "Department",
  "MRAcquisitionType": "2D",
  "MagneticFieldStrength": 3,
  "Manufacturer": "Siemens",
  "ManufacturersModelName": "Prisma",
  "MatrixCoilMode": "GRAPPA",
  "Modality": "MR",
  "NonlinearGradientCorrection": false,
  "ParallelReductionFactorInPlane": 2,
  "PartialFourier": 1,
  "PatientPosition": "HFS",
  "PercentPhaseFOV": 100,
  "PercentSampling": 100,
  "PhaseEncodingDirection": "j-",
  "PhaseEncodingSteps": 79,
  "PhaseResolution": 1,
  "PixelBandwidth": 2315,
  "ProcedureStepDescription": "dbic^QA",
  "ProtocolName": "func-bold_task-rest_acq-p2",
  "PulseSequenceDetails": "%SiemensSeq%\\ep2d_bold",
  "ReceiveCoilActiveElements": "HC1-7;NC1,2",
  "ReceiveCoilName": "HeadNeck_64",
  "ReconMatrixPE": 80,
  "RefLinesPE": 24,
  "RepetitionTime": 2,
  "SAR": 0.0359734,
  "ScanOptions": "FS",
  "ScanningSequence": "EP",
  "SequenceName": "*epfid2d1_80",
  "SequenceVariant": "SK",
  "SeriesDescription": "func-bold_task-rest_acq-p2",
  "SeriesNumber": 5,
  "ShimSetting": [4219, -7715, -7482, -161, -163, -274, -92, 100],
  "SliceThickness": 3.5,
  "SliceTiming": [0.99, 0, 1.0575, 0.0675, 1.1225, 0.1325, 1.19, 0.2, 1.255, 0.265, 1.32, 0.33, 1.3875, 0.3975, 1.4525, 0.4625, 1.52, 0.53, 1.585, 0.595, 1.65, 0.66, 1.7175, 0.7275, 1.7825, 0.7925, 1.85, 0.86, 1.915, 0.925],
  "SoftwareVersions": "syngo MR E11",
  "SpacingBetweenSlices": 3.99,
  "StationName": "AWP66112",
  "TaskName": "rest",
  "TotalReadoutTime": 0.02054,
  "TxRefAmp": 218.937,
  "dcmmeta_affine": [
    [-2.999875783920288, -0.027226680889725685, -0.0025192718021571636, 123.40046691894531],
    [-0.026576967909932137, 2.8668212890625, 1.1750985383987427, -133.43927001953125],
    [0.006208453793078661, -0.8835129141807556, 3.813035249710083, -43.16688537597656],
    [0.0, 0.0, 0.0, 1.0]
],
  "dcmmeta_reorient_transform": [
    [0.0, -1.0, 0.0, 79.0],
    [1.0, 0.0, 0.0, 0.0],
    [0.0, 0.0, 1.0, 0.0],
    [0.0, 0.0, 0.0, 1.0]
],
  "dcmmeta_shape": [80, 80, 30, 200],
  "dcmmeta_slice_dim": 2,
  "dcmmeta_version": 0.6,
  "global": {
    "const": {
      "AccessionNumber": "qa64",
      "AcquisitionMatrix": [80, 0, 0, 80],
      "AngioFlag": "N",
      "BitsAllocated": 16,
      "BitsStored": 12,
      "BodyPartExamined": "BRAIN",
      "Columns": 480,
      "EchoNumbers": 1,
      "EchoTime": 35.0,
      "EchoTrainLength": 39,
      "FlipAngle": 90.0,
      "HighBit": 11,
      "ImageOrientationPatient": [0.99995861691327, 0.00885898947691, 0.00206948456146, -0.0090755605575, 0.95560705898163, 0.29450430052046],
      "ImagePositionPatient": [-715.77939226622, -671.71923721742, -290.90867457539],
      "ImageType": [
        "ORIGINAL",
        "PRIMARY",
        "M",
        "ND",
        "NORM",
        "MOSAIC"
],
      "ImagedNucleus": "1H",
      "ImagingFrequency": 123.259264,
      "InPlanePhaseEncodingDirection": "COL",
      "LargestImagePixelValue": 4095,
      "MRAcquisitionType": "2D",
      "MagneticFieldStrength": 3.0,
      "Manufacturer": "SIEMENS",
      "ManufacturerModelName": "Prisma",
      "Modality": "MR",
      "NumberOfAverages": 1.0,
      "NumberOfPhaseEncodingSteps": 79,
      "PercentPhaseFieldOfView": 100.0,
      "PercentSampling": 100.0,
      "PerformedProcedureStepStartTime": "090716.413000",
      "PhotometricInterpretation": "MONOCHROME2",
      "PixelBandwidth": 2315.0,
      "PixelRepresentation": 0,
      "PixelSpacing": [3.0, 3.0],
      "ProtocolName": "func-bold_task-rest_acq-p2",
      "RepetitionTime": 2000.0,
      "Rows": 480,
      "SAR": 0.03597339798972,
      "SamplesPerPixel": 1,
      "ScanOptions": "FS",
      "ScanningSequence": "EP",
      "SequenceName": "*epfid2d1_80",
      "SequenceVariant": "SK",
      "SeriesDescription": "func-bold_task-rest_acq-p2",
      "SeriesNumber": 5,
      "SeriesTime": "091020.773000",
      "SliceLocation": -80.629574806149,
      "SliceThickness": 3.5,
      "SmallestImagePixelValue": 0,
      "SoftwareVersions": "syngo MR E11",
      "SpacingBetweenSlices": 3.990000068807,
      "SpecificCharacterSet": "ISO_IR 100",
      "StudyID": "1",
      "StudyTime": "090716.340000",
      "TransmitCoilName": "Body",
      "VariableFlipAngleFlag": "N",
      "WindowCenterWidthExplanation": "Algo1"
    },
    "slices": {}
  },
  "time": {
    "samples": {
      "AcquisitionNumber": [1, 2, 3, 4, 5, 6, 7, 8, 9, 10, 11, 12, 13, 14, 15, 16, 17, 18, 19, 20, 21, 22, 23, 24, 25, 26, 27, 28, 29, 30, 31, 32, 33, 34, 35, 36, 37, 38, 39, 40, 41, 42, 43, 44, 45, 46, 47, 48, 49, 50, 51, 52, 53, 54, 55, 56, 57, 58, 59, 60, 61, 62, 63, 64, 65, 66, 67, 68, 69, 70, 71, 72, 73, 74, 75, 76, 77, 78, 79, 80, 81, 82, 83, 84, 85, 86, 87, 88, 89, 90, 91, 92, 93, 94, 95, 96, 97, 98, 99, 100, 101, 102, 103, 104, 105, 106, 107, 108, 109, 110, 111, 112, 113, 114, 115, 116, 117, 118, 119, 120, 121, 122, 123, 124, 125, 126, 127, 128, 129, 130, 131, 132, 133, 134, 135, 136, 137, 138, 139, 140, 141, 142, 143, 144, 145, 146, 147, 148, 149, 150, 151, 152, 153, 154, 155, 156, 157, 158, 159, 160, 161, 162, 163, 164, 165, 166, 167, 168, 169, 170, 171, 172, 173, 174, 175, 176, 177, 178, 179, 180, 181, 182, 183, 184, 185, 186, 187, 188, 189, 190, 191, 192, 193, 194, 195, 196, 197, 198, 199, 200],
      "AcquisitionTime": ["090928.745000", "090930.745000", "090932.745000", "090934.745000", "090936.745000", "090938.745000", "090940.745000", "090942.745000", "090944.745000", "090946.745000", "090948.745000", "090950.745000", "090952.745000", "090954.745000", "090956.745000", "090958.745000", "091000.745000", "091002.745000", "091004.745000", "091006.745000", "091008.745000", "091010.745000", "091012.745000", "091014.745000", "091016.745000", "091018.745000", "091020.745000", "091022.745000", "091024.745000", "091026.745000", "091028.745000", "091030.745000", "091032.745000", "091034.745000", "091036.745000", "091038.745000", "091040.745000", "091042.745000", "091044.745000", "091046.745000", "091048.745000", "091050.745000", "091052.745000", "091054.745000", "091056.745000", "091058.745000", "091100.745000", "091102.745000", "091104.745000", "091106.745000", "091108.745000", "091110.745000", "091112.745000", "091114.745000", "091116.745000", "091118.745000", "091120.745000", "091122.745000", "091124.745000", "091126.745000", "091128.745000", "091130.745000", "091132.745000", "091134.745000", "091136.745000", "091138.745000", "091140.745000", "091142.745000", "091144.745000", "091146.745000", "091148.745000", "091150.745000", "091152.745000", "091154.745000", "091156.745000", "091158.745000", "091200.745000", "091202.745000", "091204.745000", "091206.745000", "091208.745000", "091210.745000", "091212.745000", "091214.745000", "091216.745000", "091218.745000", "091220.745000", "091222.745000", "091224.745000", "091226.745000", "091228.745000", "091230.745000", "091232.745000", "091234.745000", "091236.745000", "091238.745000", "091240.745000", "091242.745000", "091244.745000", "091246.745000", "091248.745000", "091250.745000", "091252.745000", "091254.745000", "091256.745000", "091258.745000", "091300.745000", "091302.745000", "091304.745000", "091306.745000", "091308.745000", "091310.745000", "091312.745000", "091314.745000", "091316.745000", "091318.745000", "091320.745000", "091322.745000", "091324.745000", "091326.745000", "091328.745000", "091330.745000", "091332.745000", "091334.745000", "091336.745000", "091338.745000", "091340.745000", "091342.745000", "091344.745000", "091346.745000", "091348.745000", "091350.745000", "091352.745000", "091354.745000", "091356.745000", "091358.745000", "091400.745000", "091402.745000", "091404.745000", "091406.745000", "091408.745000", "091410.745000", "091412.745000", "091414.745000", "091416.745000", "091418.745000", "091420.745000", "091422.745000", "091424.745000", "091426.745000", "091428.745000", "091430.745000", "091432.745000", "091434.745000", "091436.745000", "091438.745000", "091440.745000", "091442.745000", "091444.745000", "091446.745000", "091448.745000", "091450.745000", "091452.745000", "091454.745000", "091456.745000", "091458.745000", "091500.745000", "091502.745000", "091504.745000", "091506.745000", "091508.745000", "091510.745000", "091512.745000", "091514.745000", "091516.745000", "091518.745000", "091520.745000", "091522.745000", "091524.745000", "091526.745000", "091528.745000", "091530.745000", "091532.745000", "091534.745000", "091536.745000", "091538.745000", "091540.745000", "091542.745000", "091544.745000", "091546.745000", "091548.745000", "091550.745000", "091552.745000", "091554.745000", "091556.745000", "091558.745000", "091600.745000", "091602.745000", "091604.745000", "091606.745000"],
      "ContentTime": ["091020.777000", "091020.780000", "091020.782000", "091020.784000", "091020.787000", "091020.789000", "091020.791000", "091020.794000", "091020.796000", "091020.798000", "091020.801000", "091020.803000", "091020.805000", "091020.810000", "091020.813000", "091020.815000", "091020.817000", "091020.820000", "091020.822000", "091020.824000", "091020.827000", "091020.829000", "091020.831000", "091020.833000", "091020.836000", "091020.838000", "091100.772000", "091100.775000", "091100.777000", "091100.779000", "091100.782000", "091100.784000", "091100.786000", "091100.788000", "091100.791000", "091100.793000", "091100.795000", "091100.798000", "091100.800000", "091100.802000", "091100.805000", "091100.807000", "091100.810000", "091100.812000", "091100.814000", "091100.816000", "091140.771000", "091140.774000", "091140.776000", "091140.778000", "091140.781000", "091140.783000", "091140.785000", "091140.788000", "091140.790000", "091140.792000", "091140.794000", "091140.797000", "091140.799000", "091140.801000", "091140.831000", "091140.833000", "091140.835000", "091140.837000", "091140.840000", "091140.842000", "091220.771000", "091220.774000", "091220.776000", "091220.778000", "091220.781000", "091220.783000", "091220.785000", "091220.788000", "091220.790000", "091220.792000", "091220.794000", "091220.797000", "091220.799000", "091220.802000", "091220.804000", "091220.806000", "091220.808000", "091220.811000", "091220.813000", "091220.815000", "091300.771000", "091300.774000", "091300.781000", "091300.783000", "091300.786000", "091300.788000", "091300.790000", "091300.793000", "091300.795000", "091300.797000", "091300.800000", "091300.802000", "091300.804000", "091300.807000", "091300.809000", "091300.811000", "091300.814000", "091300.816000", "091300.818000", "091300.821000", "091340.772000", "091340.775000", "091340.777000", "091340.779000", "091340.782000", "091340.784000", "091340.786000", "091340.789000", "091340.791000", "091340.793000", "091340.795000", "091340.798000", "091340.800000", "091340.802000", "091340.805000", "091340.807000", "091340.809000", "091340.812000", "091340.814000", "091340.816000", "091420.772000", "091420.774000", "091420.776000", "091420.779000", "091420.781000", "091420.783000", "091420.786000", "091420.788000", "091420.790000", "091420.793000", "091420.795000", "091420.797000", "091420.800000", "091420.802000", "091420.805000", "091420.807000", "091420.809000", "091420.811000", "091420.814000", "091420.816000", "091500.771000", "091500.774000", "091500.776000", "091500.778000", "091500.781000", "091500.783000", "091500.785000", "091500.788000", "091500.790000", "091500.792000", "091500.794000", "091500.797000", "091500.799000", "091500.802000", "091500.804000", "091500.806000", "091500.809000", "091500.811000", "091500.813000", "091500.816000", "091540.772000", "091540.775000", "091540.777000", "091540.779000", "091540.782000", "091540.784000", "091540.786000", "091540.789000", "091540.791000", "091540.793000", "091540.796000", "091540.798000", "091540.800000", "091540.803000", "091540.805000", "091540.807000", "091540.810000", "091540.812000", "091540.814000", "091540.817000", "091608.388000", "091608.392000", "091608.395000", "091608.398000", "091608.405000", "091608.408000", "091608.411000", "091608.413000", "091608.416000", "091608.419000", "091608.422000", "091608.425000", "091608.428000", "091608.431000"],
      "InstanceCreationTime": ["091020.777000", "091020.780000", "091020.782000", "091020.784000", "091020.787000", "091020.789000", "091020.791000", "091020.794000", "091020.796000", "091020.798000", "091020.801000", "091020.803000", "091020.805000", "091020.810000", "091020.813000", "091020.815000", "091020.817000", "091020.820000", "091020.822000", "091020.824000", "091020.827000", "091020.829000", "091020.831000", "091020.833000", "091020.836000", "091020.838000", "091100.772000", "091100.775000", "091100.777000", "091100.779000", "091100.782000", "091100.784000", "091100.786000", "091100.788000", "091100.791000", "091100.793000", "091100.795000", "091100.798000", "091100.800000", "091100.802000", "091100.805000", "091100.807000", "091100.810000", "091100.812000", "091100.814000", "091100.816000", "091140.771000", "091140.774000", "091140.776000", "091140.778000", "091140.781000", "091140.783000", "091140.785000", "091140.788000", "091140.790000", "091140.792000", "091140.794000", "091140.797000", "091140.799000", "091140.801000", "091140.831000", "091140.833000", "091140.835000", "091140.837000", "091140.840000", "091140.842000", "091220.771000", "091220.774000", "091220.776000", "091220.778000", "091220.781000", "091220.783000", "091220.785000", "091220.788000", "091220.790000", "091220.792000", "091220.794000", "091220.797000", "091220.799000", "091220.802000", "091220.804000", "091220.806000", "091220.808000", "091220.811000", "091220.813000", "091220.815000", "091300.771000", "091300.774000", "091300.781000", "091300.783000", "091300.786000", "091300.788000", "091300.790000", "091300.793000", "091300.795000", "091300.797000", "091300.800000", "091300.802000", "091300.804000", "091300.807000", "091300.809000", "091300.811000", "091300.814000", "091300.816000", "091300.818000", "091300.821000", "091340.772000", "091340.775000", "091340.777000", "091340.779000", "091340.782000", "091340.784000", "091340.786000", "091340.789000", "091340.791000", "091340.793000", "091340.795000", "091340.798000", "091340.800000", "091340.802000", "091340.805000", "091340.807000", "091340.809000", "091340.812000", "091340.814000", "091340.816000", "091420.772000", "091420.774000", "091420.776000", "091420.779000", "091420.781000", "091420.783000", "091420.786000", "091420.788000", "091420.790000", "091420.793000", "091420.795000", "091420.797000", "091420.800000", "091420.802000", "091420.805000", "091420.807000", "091420.809000", "091420.811000", "091420.814000", "091420.816000", "091500.771000", "091500.774000", "091500.776000", "091500.778000", "091500.781000", "091500.783000", "091500.785000", "091500.788000", "091500.790000", "091500.792000", "091500.794000", "091500.797000", "091500.799000", "091500.802000", "091500.804000", "091500.806000", "091500.809000", "091500.811000", "091500.813000", "091500.816000", "091540.772000", "091540.775000", "091540.777000", "091540.779000", "091540.782000", "091540.784000", "091540.786000", "091540.789000", "091540.791000", "091540.793000", "091540.796000", "091540.798000", "091540.800000", "091540.803000", "091540.805000", "091540.807000", "091540.810000", "091540.812000", "091540.814000", "091540.817000", "091608.388000", "091608.392000", "091608.395000", "091608.398000", "091608.405000", "091608.408000", "091608.411000", "091608.413000", "091608.416000", "091608.419000", "091608.422000", "091608.425000", "091608.428000", "091608.431000"],
      "InstanceNumber": [1, 2, 3, 4, 5, 6, 7, 8, 9, 10, 11, 12, 13, 14, 15, 16, 17, 18, 19, 20, 21, 22, 23, 24, 25, 26, 27, 28, 29, 30, 31, 32, 33, 34, 35, 36, 37, 38, 39, 40, 41, 42, 43, 44, 45, 46, 47, 48, 49, 50, 51, 52, 53, 54, 55, 56, 57, 58, 59, 60, 61, 62, 63, 64, 65, 66, 67, 68, 69, 70, 71, 72, 73, 74, 75, 76, 77, 78, 79, 80, 81, 82, 83, 84, 85, 86, 87, 88, 89, 90, 91, 92, 93, 94, 95, 96, 97, 98, 99, 100, 101, 102, 103, 104, 105, 106, 107, 108, 109, 110, 111, 112, 113, 114, 115, 116, 117, 118, 119, 120, 121, 122, 123, 124, 125, 126, 127, 128, 129, 130, 131, 132, 133, 134, 135, 136, 137, 138, 139, 140, 141, 142, 143, 144, 145, 146, 147, 148, 149, 150, 151, 152, 153, 154, 155, 156, 157, 158, 159, 160, 161, 162, 163, 164, 165, 166, 167, 168, 169, 170, 171, 172, 173, 174, 175, 176, 177, 178, 179, 180, 181, 182, 183, 184, 185, 186, 187, 188, 189, 190, 191, 192, 193, 194, 195, 196, 197, 198, 199, 200],
      "WindowCenter": [1582.0, 1580.0, 1580.0, 1580.0, 1581.0, 1580.0, 1580.0, 1580.0, 1579.0, 1580.0, 1581.0, 1579.0, 1580.0, 1580.0, 1581.0, 1579.0, 1580.0, 1580.0, 1580.0, 1581.0, 1579.0, 1580.0, 1580.0, 1580.0, 1580.0, 1580.0, 1579.0, 1579.0, 1579.0, 1579.0, 1580.0, 1579.0, 1579.0, 1579.0, 1580.0, 1579.0, 1579.0, 1579.0, 1578.0, 1579.0, 1578.0, 1579.0, 1579.0, 1578.0, 1578.0, 1578.0, 1579.0, 1578.0, 1579.0, 1578.0, 1578.0, 1579.0, 1578.0, 1579.0, 1579.0, 1578.0, 1579.0, 1578.0, 1579.0, 1578.0, 1577.0, 1578.0, 1578.0, 1578.0, 1578.0, 1578.0, 1579.0, 1577.0, 1578.0, 1577.0, 1578.0, 1578.0, 1578.0, 1578.0, 1577.0, 1578.0, 1577.0, 1578.0, 1578.0, 1578.0, 1577.0, 1578.0, 1578.0, 1578.0, 1578.0, 1578.0, 1577.0, 1578.0, 1577.0, 1577.0, 1577.0, 1577.0, 1578.0, 1578.0, 1577.0, 1576.0, 1578.0, 1577.0, 1577.0, 1577.0, 1577.0, 1578.0, 1577.0, 1577.0, 1578.0, 1577.0, 1577.0, 1577.0, 1578.0, 1577.0, 1578.0, 1577.0, 1576.0, 1576.0, 1577.0, 1576.0, 1576.0, 1576.0, 1576.0, 1577.0, 1576.0, 1576.0, 1576.0, 1576.0, 1576.0, 1576.0, 1577.0, 1576.0, 1577.0, 1576.0, 1576.0, 1576.0, 1577.0, 1575.0, 1576.0, 1576.0, 1575.0, 1575.0, 1577.0, 1577.0, 1576.0, 1576.0, 1576.0, 1576.0, 1576.0, 1576.0, 1576.0, 1575.0, 1576.0, 1576.0, 1575.0, 1576.0, 1575.0, 1575.0, 1575.0, 1576.0, 1575.0, 1575.0, 1575.0, 1574.0, 1575.0, 1575.0, 1575.0, 1576.0, 1575.0, 1575.0, 1575.0, 1575.0, 1575.0, 1575.0, 1575.0, 1575.0, 1575.0, 1576.0, 1575.0, 1575.0, 1574.0, 1575.0, 1575.0, 1574.0, 1575.0, 1574.0, 1574.0, 1574.0, 1574.0, 1574.0, 1574.0, 1574.0, 1575.0, 1574.0, 1574.0, 1574.0, 1575.0, 1574.0, 1575.0, 1574.0, 1575.0, 1574.0, 1575.0, 1574.0],
      "WindowWidth": [3481.0, 3480.0, 3480.0, 3480.0, 3480.0, 3480.0, 3480.0, 3480.0, 3480.0, 3480.0, 3480.0, 3480.0, 3480.0, 3480.0, 3479.0, 3480.0, 3480.0, 3480.0, 3480.0, 3479.0, 3480.0, 3480.0, 3480.0, 3480.0, 3480.0, 3480.0, 3480.0, 3480.0, 3480.0, 3480.0, 3479.0, 3480.0, 3480.0, 3480.0, 3479.0, 3480.0, 3480.0, 3480.0, 3479.0, 3479.0, 3479.0, 3479.0, 3479.0, 3479.0, 3479.0, 3479.0, 3479.0, 3479.0, 3479.0, 3479.0, 3479.0, 3479.0, 3479.0, 3479.0, 3479.0, 3479.0, 3479.0, 3479.0, 3479.0, 3479.0, 3479.0, 3479.0, 3479.0, 3479.0, 3479.0, 3479.0, 3479.0, 3479.0, 3479.0, 3479.0, 3479.0, 3479.0, 3479.0, 3479.0, 3479.0, 3479.0, 3479.0, 3479.0, 3479.0, 3479.0, 3479.0, 3479.0, 3478.0, 3479.0, 3479.0, 3479.0, 3479.0, 3478.0, 3479.0, 3479.0, 3479.0, 3479.0, 3479.0, 3478.0, 3478.0, 3479.0, 3478.0, 3479.0, 3478.0, 3478.0, 3478.0, 3478.0, 3478.0, 3478.0, 3478.0, 3478.0, 3478.0, 3478.0, 3478.0, 3478.0, 3478.0, 3478.0, 3478.0, 3478.0, 3478.0, 3478.0, 3478.0, 3478.0, 3478.0, 3478.0, 3478.0, 3478.0, 3478.0, 3478.0, 3478.0, 3478.0, 3478.0, 3478.0, 3478.0, 3478.0, 3478.0, 3478.0, 3478.0, 3478.0, 3478.0, 3478.0, 3478.0, 3478.0, 3477.0, 3478.0, 3478.0, 3478.0, 3478.0, 3478.0, 3478.0, 3478.0, 3478.0, 3478.0, 3478.0, 3478.0, 3478.0, 3478.0, 3477.0, 3478.0, 3477.0, 3478.0, 3478.0, 3477.0, 3477.0, 3478.0, 3478.0, 3477.0, 3477.0, 3478.0, 3477.0, 3477.0, 3477.0, 3477.0, 3477.0, 3477.0, 3477.0, 3477.0, 3477.0, 3477.0, 3477.0, 3477.0, 3477.0, 3477.0, 3477.0, 3477.0, 3477.0, 3477.0, 3477.0, 3477.0, 3477.0, 3477.0, 3477.0, 3477.0, 3477.0, 3477.0, 3477.0, 3477.0, 3477.0, 3477.0, 3477.0, 3477.0, 3477.0, 3477.0, 3477.0, 3477.0]
    },
    "slices": {}
  }
}