{
  "AcquisitionMatrixPE": 122,
  "AcquisitionNumber": 1,
  "AcquisitionTime": "10:19:44.205000",
  "BandwidthPerPixelPhaseEncode": 28.76,
  "BaseResolution": 122,
  "BodyPartExamined": "BRAIN",
  "CoilCombinationMethod": "Adaptive Combine",
  "ConsistencyInfo": "N4_VE11C_LATEST_20160120",
  "ConversionSoftware": "dcm2niix",
  "ConversionSoftwareVersion": "v1.0.20220720",
  "DerivedVendorReportedEchoSpacing": 0.000570008,
  "DeviceSerialNumber": "66112",
  "DiffusionScheme": "Monopolar",
  "DwellTime": 2e-06,
  "EchoTime": 0.075,
  "EchoTrainLength": 61,
  "EffectiveEchoSpacing": 0.000285004,
  "FlipAngle": 90,
  "HeudiconvVersion": "0.13.1",
  "ImageOrientationPatientDICOM": [0.984406, -0.175862, 0.00416923, 0.166323, 0.938204, 0.303496],
  "ImageOrientationText": "Tra>Cor(17.4)>Sag(3.3)",
  "ImageType": [
    "ORIGINAL",
    "PRIMARY",
    "DIFFUSION",
    "NONE",
    "ND",
    "NORM"
],
  "ImagingFrequency": 123.252,
  "InPlanePhaseEncodingDirectionDICOM": "COL",
  "InstitutionAddress": "Maynard 3,Hanover,NH,US,03755",
  "InstitutionName": "Dartmouth College - PBS",
  "InstitutionalDepartmentName": "Department",
  "MRAcquisitionType": "2D",
  "MagneticFieldStrength": 3,
  "Manufacturer": "Siemens",
  "ManufacturersModelName": "Prisma",
  "MatrixCoilMode": "GRAPPA",
  "Modality": "MR",
  "NonlinearGradientCorrection": false,
  "ParallelReductionFactorInPlane": 2,
  "PartialFourier": 1,
  "PatientPosition": "HFS",
  "PercentPhaseFOV": 100,
  "PercentSampling": 100,
  "PhaseEncodingDirection": "j-",
  "PhaseEncodingSteps": 122,
  "PhaseResolution": 1,
  "PixelBandwidth": 2050,
  "ProcedureStepDescription": "dbic^QA",
  "ProtocolName": "dwi_acq-DTI-30-p2",
  "PulseSequenceDetails": "%SiemensSeq%\\ep2d_diff",
  "ReceiveCoilActiveElements": "HEA;HEP",
  "ReceiveCoilName": "Head_32",
  "ReconMatrixPE": 122,
  "RefLinesPE": 38,
  "RepetitionTime": 7.7,
  "SAR": 0.101341,
  "ScanOptions": "FS",
  "ScanningSequence": "EP",
  "SequenceName": "*ep_b0",
  "SequenceVariant": "SK\\SP",
  "SeriesDescription": "dwi_acq-DTI-30-p2",
  "SeriesNumber": 8,
  "ShimSetting": [4156, -7692, -7510, 299, -24, -144, -47, 105],
  "SliceThickness": 2,
  "SliceTiming": [3.83594, 0, 3.94531, 0.10156, 4.05469, 0.21875, 4.16406, 0.32812, 4.27344, 0.4375, 4.38281, 0.54688, 4.49219, 0.65625, 4.60156, 0.76562, 4.71875, 0.875, 4.82031, 0.98438, 4.92969, 1.09375, 5.03906, 1.20312, 5.15625, 1.3125, 5.26562, 1.42188, 5.375, 1.53125, 5.48438, 1.64062, 5.59375, 1.75, 5.70312, 1.85938, 5.8125, 1.97656, 5.92188, 2.07812, 6.03125, 2.1875, 6.14062, 2.29688, 6.25, 2.41406, 6.35938, 2.52344, 6.46875, 2.63281, 6.57812, 2.74219, 6.6875, 2.85156, 6.79688, 2.96094, 6.90625, 3.07031, 7.01562, 3.17969, 7.125, 3.28906, 7.23438, 3.39844, 7.35156, 3.50781, 7.46094, 3.61719, 7.57031, 3.72656],
  "SoftwareVersions": "syngo MR E11",
  "SpacingBetweenSlices": 2,
  "SpoilingState": true,
  "StationName": "AWP66112",
  "TotalReadoutTime": 0.0344855,
  "TxRefAmp": 225.629,
  "dcmmeta_affine": [
    [-1.9365363121032715, 0.32719287276268005, 0.11457014083862305, 92.66667938232422],
    [0.3459586203098297, 1.8456474542617798, 0.5961399078369141, -145.75531005859375],
    [0.008201763033866882, -0.5970409512519836, 1.9056510925292969, -31.496837615966797],
    [0.0, 0.0, 0.0, 1.0]
],
  "dcmmeta_reorient_transform": [
    [0.0, -1.0, 0.0, 121.0],
    [1.0, 0.0, 0.0, 0.0],
    [0.0, 0.0, -1.0, 69.0],
    [0.0, 0.0, 0.0, 1.0]
],
  "dcmmeta_shape": [122, 122, 70, 31],
  "dcmmeta_slice_dim": 2,
  "dcmmeta_version": 0.6,
  "global": {
    "const": {
      "AccessionNumber": "qa",
      "AcquisitionMatrix": [122, 0, 0, 122],
      "AngioFlag": "N",
      "BitsAllocated": 16,
      "BitsStored": 12,
      "BodyPartExamined": "BRAIN",
      "Columns": 122,
      "EchoNumbers": 1,
      "EchoTime": 75.0,
      "EchoTrainLength": 61,
      "FlipAngle": 90.0,
      "HighBit": 11,
      "ImageOrientationPatient": [0.98440594682886, -0.1758623023091, 0.00416922948621, 0.1663230395809, 0.93820409958296, 0.30349582209694],
      "ImageType": [
        "ORIGINAL",
        "PRIMARY",
        "DIFFUSION",
        "NONE",
        "ND",
        "NORM"
],
      "ImagedNucleus": "1H",
      "ImagingFrequency": 123.252459,
      "InPlanePhaseEncodingDirection": "COL",
      "MRAcquisitionType": "2D",
      "MagneticFieldStrength": 3.0,
      "Manufacturer": "SIEMENS",
      "ManufacturerModelName": "Prisma",
      "Modality": "MR",
      "NumberOfAverages": 1.0,
      "NumberOfPhaseEncodingSteps": 122,
      "PercentPhaseFieldOfView": 100.0,
      "PercentSampling": 100.0,
      "PerformedProcedureStepStartTime": "094200.109000",
      "PhotometricInterpretation": "MONOCHROME2",
      "PixelBandwidth": 2050.0,
      "PixelRepresentation": 0,
      "PixelSpacing": [1.9672131538391, 1.9672131538391],
      "ProtocolName": "dwi_acq-DTI-30-p2",
      "RepetitionTime": 7700.0,
      "Rows": 122,
      "SAR": 0.10134125020988,
      "SamplesPerPixel": 1,
      "ScanOptions": "FS",
      "ScanningSequence": "EP",
      "SequenceVariant": [
        "SK",
        "SP"
],
      "SeriesDescription": "dwi_acq-DTI-30-p2",
      "SeriesNumber": 8,
      "SeriesTime": "101946.027000",
      "SliceThickness": 2.0,
      "SmallestImagePixelValue": 0,
      "SoftwareVersions": "syngo MR E11",
      "SpacingBetweenSlices": 2.0,
      "SpecificCharacterSet": "ISO_IR 100",
      "StudyID": "85",
      "StudyTime": "094200.040000",
      "TransmitCoilName": "Body",
      "VariableFlipAngleFlag": "N",
      "WindowCenterWidthExplanation": "Algo1",
      "dBdt": 0.0},
    "slices": {
      "AcquisitionTime": ["101944.205000", "101940.365000", "101944.312500", "101940.472500", "101944.422500", "101940.582500", "101944.532500", "101940.692500", "101944.642500", "101940.802500", "101944.752500", "101940.912500", "101944.862500", "101941.022500", "101944.972500", "101941.132500", "101945.082500", "101941.242500", "101945.190000", "101941.352500", "101945.300000", "101941.460000", "101945.410000", "101941.570000", "101945.520000", "101941.680000", "101945.630000", "101941.790000", "101945.740000", "101941.900000", "101945.850000", "101942.010000", "101945.960000", "101942.120000", "101946.070000", "101942.230000", "101946.177500", "101942.340000", "101946.287500", "101942.447500", "101946.397500", "101942.557500", "101946.507500", "101942.667500", "101946.617500", "101942.777500", "101946.727500", "101942.887500", "101946.837500", "101942.997500", "101946.947500", "101943.107500", "101947.057500", "101943.217500", "101947.165000", "101943.325000", "101947.275000", "101943.435000", "101947.385000", "101943.545000", "101947.495000", "101943.655000", "101947.605000", "101943.765000", "101947.715000", "101943.875000", "101947.825000", "101943.985000", "101947.935000", "101944.095000", "101951.905000", "101948.065000", "101952.012500", "101948.172500", "101952.122500", "101948.282500", "101952.232500", "101948.392500", "101952.342500", "101948.502500", "101952.452500", "101948.612500", "101952.562500", "101948.722500", "101952.672500", "101948.832500", "101952.782500", "101948.942500", "101952.890000", "101949.052500", "101953.000000", "101949.160000", "101953.110000", "101949.270000", "101953.220000", "101949.380000", "101953.330000", "101949.490000", "101953.440000", "101949.600000", "101953.550000", "101949.710000", "101953.660000", "101949.820000", "101953.770000", "101949.930000", "101953.877500", "101950.040000", "101953.987500", "101950.147500", "101954.097500", "101950.257500", "101954.207500", "101950.367500", "101954.317500", "101950.477500", "101954.427500", "101950.587500", "101954.537500", "101950.697500", "101954.647500", "101950.807500", "101954.757500", "101950.917500", "101954.865000", "101951.025000", "101954.975000", "101951.135000", "101955.085000", "101951.245000", "101955.195000", "101951.355000", "101955.305000", "101951.465000", "101955.415000", "101951.575000", "101955.525000", "101951.685000", "101955.635000", "101951.795000", "101959.605000", "101955.765000", "101959.712500", "101955.872500", "101959.822500", "101955.982500", "101959.932500", "101956.092500", "102000.042500", "101956.202500", "102000.152500", "101956.312500", "102000.262500", "101956.422500", "102000.372500", "101956.532500", "102000.482500", "101956.642500", "102000.590000", "101956.752500", "102000.700000", "101956.860000", "102000.810000", "101956.970000", "102000.920000", "101957.080000", "102001.030000", "101957.190000", "102001.140000", "101957.300000", "102001.250000", "101957.410000", "102001.360000", "101957.520000", "102001.470000", "101957.630000", "102001.577500", "101957.740000", "102001.687500", "101957.847500", "102001.797500", "101957.957500", "102001.907500", "101958.067500", "102002.017500", "101958.177500", "102002.127500", "101958.287500", "102002.237500", "101958.397500", "102002.347500", "101958.507500", "102002.457500", "101958.617500", "102002.565000", "101958.725000", "102002.675000", "101958.835000", "102002.785000", "101958.945000", "102002.895000", "101959.055000", "102003.005000", "101959.165000", "102003.115000", "101959.275000", "102003.225000", "101959.385000", "102003.335000", "101959.495000", "102007.305000", "102003.465000", "102007.412500", "102003.572500", "102007.522500", "102003.682500", "102007.632500", "102003.792500", "102007.742500", "102003.902500", "102007.852500", "102004.012500", "102007.962500", "102004.122500", "102008.072500", "102004.232500", "102008.182500", "102004.342500", "102008.290000", "102004.452500", "102008.400000", "102004.560000", "102008.510000", "102004.670000", "102008.620000", "102004.780000", "102008.730000", "102004.890000", "102008.840000", "102005.000000", "102008.950000", "102005.110000", "102009.060000", "102005.220000", "102009.170000", "102005.330000", "102009.277500", "102005.440000", "102009.387500", "102005.547500", "102009.497500", "102005.657500", "102009.607500", "102005.767500", "102009.717500", "102005.877500", "102009.827500", "102005.987500", "102009.937500", "102006.097500", "102010.047500", "102006.207500", "102010.157500", "102006.317500", "102010.265000", "102006.425000", "102010.375000", "102006.535000", "102010.485000", "102006.645000", "102010.595000", "102006.755000", "102010.705000", "102006.865000", "102010.815000", "102006.975000", "102010.925000", "102007.085000", "102011.035000", "102007.195000", "102015.005000", "102011.165000", "102015.112500", "102011.272500", "102015.222500", "102011.382500", "102015.332500", "102011.492500", "102015.442500", "102011.602500", "102015.552500", "102011.712500", "102015.662500", "102011.822500", "102015.772500", "102011.932500", "102015.882500", "102012.042500", "102015.990000", "102012.152500", "102016.100000", "102012.260000", "102016.210000", "102012.370000", "102016.320000", "102012.480000", "102016.430000", "102012.590000", "102016.540000", "102012.700000", "102016.650000", "102012.810000", "102016.760000", "102012.920000", "102016.870000", "102013.030000", "102016.977500", "102013.140000", "102017.087500", "102013.247500", "102017.197500", "102013.357500", "102017.307500", "102013.467500", "102017.417500", "102013.577500", "102017.527500", "102013.687500", "102017.637500", "102013.797500", "102017.747500", "102013.907500", "102017.857500", "102014.017500", "102017.965000", "102014.125000", "102018.075000", "102014.235000", "102018.185000", "102014.345000", "102018.295000", "102014.455000", "102018.405000", "102014.565000", "102018.515000", "102014.675000", "102018.625000", "102014.785000", "102018.735000", "102014.895000", "102022.705000", "102018.865000", "102022.812500", "102018.972500", "102022.922500", "102019.082500", "102023.032500", "102019.192500", "102023.142500", "102019.302500", "102023.252500", "102019.412500", "102023.362500", "102019.522500", "102023.472500", "102019.632500", "102023.582500", "102019.742500", "102023.690000", "102019.852500", "102023.800000", "102019.960000", "102023.910000", "102020.070000", "102024.020000", "102020.180000", "102024.130000", "102020.290000", "102024.240000", "102020.400000", "102024.350000", "102020.510000", "102024.460000", "102020.620000", "102024.570000", "102020.730000", "102024.677500", "102020.840000", "102024.787500", "102020.947500", "102024.897500", "102021.057500", "102025.007500", "102021.167500", "102025.117500", "102021.277500", "102025.227500", "102021.387500", "102025.337500", "102021.497500", "102025.447500", "102021.607500", "102025.557500", "102021.717500", "102025.665000", "102021.825000", "102025.775000", "102021.935000", "102025.885000", "102022.045000", "102025.995000", "102022.155000", "102026.105000", "102022.265000", "102026.215000", "102022.375000", "102026.325000", "102022.485000", "102026.435000", "102022.595000", "102030.405000", "102026.565000", "102030.512500", "102026.672500", "102030.622500", "102026.782500", "102030.732500", "102026.892500", "102030.842500", "102027.002500", "102030.952500", "102027.112500", "102031.062500", "102027.222500", "102031.172500", "102027.332500", "102031.282500", "102027.442500", "102031.390000", "102027.552500", "102031.500000", "102027.660000", "102031.610000", "102027.770000", "102031.720000", "102027.880000", "102031.830000", "102027.990000", "102031.940000", "102028.100000", "102032.050000", "102028.210000", "102032.160000", "102028.320000", "102032.270000", "102028.430000", "102032.377500", "102028.540000", "102032.487500", "102028.647500", "102032.597500", "102028.757500", "102032.707500", "102028.867500", "102032.817500", "102028.977500", "102032.927500", "102029.087500", "102033.037500", "102029.197500", "102033.147500", "102029.307500", "102033.257500", "102029.417500", "102033.365000", "102029.525000", "102033.475000", "102029.635000", "102033.585000", "102029.745000", "102033.695000", "102029.855000", "102033.805000", "102029.965000", "102033.915000", "102030.075000", "102034.025000", "102030.185000", "102034.135000", "102030.295000", "102038.105000", "102034.265000", "102038.212500", "102034.372500", "102038.322500", "102034.482500", "102038.432500", "102034.592500", "102038.542500", "102034.702500", "102038.652500", "102034.812500", "102038.762500", "102034.922500", "102038.872500", "102035.032500", "102038.982500", "102035.142500", "102039.090000", "102035.252500", "102039.200000", "102035.360000", "102039.310000", "102035.470000", "102039.420000", "102035.580000", "102039.530000", "102035.690000", "102039.640000", "102035.800000", "102039.750000", "102035.910000", "102039.860000", "102036.020000", "102039.970000", "102036.130000", "102040.077500", "102036.240000", "102040.187500", "102036.347500", "102040.297500", "102036.457500", "102040.407500", "102036.567500", "102040.517500", "102036.677500", "102040.627500", "102036.787500", "102040.737500", "102036.897500", "102040.847500", "102037.007500", "102040.957500", "102037.117500", "102041.065000", "102037.225000", "102041.175000", "102037.335000", "102041.285000", "102037.445000", "102041.395000", "102037.555000", "102041.505000", "102037.665000", "102041.615000", "102037.775000", "102041.725000", "102037.885000", "102041.835000", "102037.995000", "102045.805000", "102041.965000", "102045.912500", "102042.072500", "102046.022500", "102042.182500", "102046.132500", "102042.292500", "102046.242500", "102042.402500", "102046.352500", "102042.512500", "102046.462500", "102042.622500", "102046.572500", "102042.732500", "102046.682500", "102042.842500", "102046.790000", "102042.952500", "102046.900000", "102043.060000", "102047.010000", "102043.170000", "102047.120000", "102043.280000", "102047.230000", "102043.390000", "102047.340000", "102043.500000", "102047.450000", "102043.610000", "102047.560000", "102043.720000", "102047.670000", "102043.830000", "102047.777500", "102043.940000", "102047.887500", "102044.047500", "102047.997500", "102044.157500", "102048.107500", "102044.267500", "102048.217500", "102044.377500", "102048.327500", "102044.487500", "102048.437500", "102044.597500", "102048.547500", "102044.707500", "102048.657500", "102044.817500", "102048.765000", "102044.925000", "102048.875000", "102045.035000", "102048.985000", "102045.145000", "102049.095000", "102045.255000", "102049.205000", "102045.365000", "102049.315000", "102045.475000", "102049.425000", "102045.585000", "102049.535000", "102045.695000", "102053.505000", "102049.665000", "102053.612500", "102049.772500", "102053.722500", "102049.882500", "102053.832500", "102049.992500", "102053.942500", "102050.102500", "102054.052500", "102050.212500", "102054.162500", "102050.322500", "102054.272500", "102050.432500", "102054.382500", "102050.542500", "102054.490000", "102050.652500", "102054.600000", "102050.760000", "102054.710000", "102050.870000", "102054.820000", "102050.980000", "102054.930000", "102051.090000", "102055.040000", "102051.200000", "102055.150000", "102051.310000", "102055.260000", "102051.420000", "102055.370000", "102051.530000", "102055.477500", "102051.640000", "102055.587500", "102051.747500", "102055.697500", "102051.857500", "102055.807500", "102051.967500", "102055.917500", "102052.077500", "102056.027500", "102052.187500", "102056.137500", "102052.297500", "102056.247500", "102052.407500", "102056.357500", "102052.517500", "102056.465000", "102052.625000", "102056.575000", "102052.735000", "102056.685000", "102052.845000", "102056.795000", "102052.955000", "102056.905000", "102053.065000", "102057.015000", "102053.175000", "102057.125000", "102053.285000", "102057.235000", "102053.395000", "102101.205000", "102057.365000", "102101.312500", "102057.472500", "102101.422500", "102057.582500", "102101.532500", "102057.692500", "102101.642500", "102057.802500", "102101.752500", "102057.912500", "102101.862500", "102058.022500", "102101.972500", "102058.132500", "102102.082500", "102058.242500", "102102.190000", "102058.352500", "102102.300000", "102058.460000", "102102.410000", "102058.570000", "102102.520000", "102058.680000", "102102.630000", "102058.790000", "102102.740000", "102058.900000", "102102.850000", "102059.010000", "102102.960000", "102059.120000", "102103.070000", "102059.230000", "102103.177500", "102059.340000", "102103.287500", "102059.447500", "102103.397500", "102059.557500", "102103.507500", "102059.667500", "102103.617500", "102059.777500", "102103.727500", "102059.887500", "102103.837500", "102059.997500", "102103.947500", "102100.107500", "102104.057500", "102100.217500", "102104.165000", "102100.325000", "102104.275000", "102100.435000", "102104.385000", "102100.545000", "102104.495000", "102100.655000", "102104.605000", "102100.765000", "102104.715000", "102100.875000", "102104.825000", "102100.985000", "102104.935000", "102101.095000", "102108.905000", "102105.065000", "102109.012500", "102105.172500", "102109.122500", "102105.282500", "102109.232500", "102105.392500", "102109.342500", "102105.502500", "102109.452500", "102105.612500", "102109.562500", "102105.722500", "102109.672500", "102105.832500", "102109.782500", "102105.942500", "102109.890000", "102106.052500", "102110.000000", "102106.160000", "102110.110000", "102106.270000", "102110.220000", "102106.380000", "102110.330000", "102106.490000", "102110.440000", "102106.600000", "102110.550000", "102106.710000", "102110.660000", "102106.820000", "102110.770000", "102106.930000", "102110.877500", "102107.040000", "102110.987500", "102107.147500", "102111.097500", "102107.257500", "102111.207500", "102107.367500", "102111.317500", "102107.477500", "102111.427500", "102107.587500", "102111.537500", "102107.697500", "102111.647500", "102107.807500", "102111.757500", "102107.917500", "102111.865000", "102108.025000", "102111.975000", "102108.135000", "102112.085000", "102108.245000", "102112.195000", "102108.355000", "102112.305000", "102108.465000", "102112.415000", "102108.575000", "102112.525000", "102108.685000", "102112.635000", "102108.795000", "102116.605000", "102112.765000", "102116.712500", "102112.872500", "102116.822500", "102112.982500", "102116.932500", "102113.092500", "102117.042500", "102113.202500", "102117.152500", "102113.312500", "102117.262500", "102113.422500", "102117.372500", "102113.532500", "102117.482500", "102113.642500", "102117.590000", "102113.752500", "102117.700000", "102113.860000", "102117.810000", "102113.970000", "102117.920000", "102114.080000", "102118.030000", "102114.190000", "102118.140000", "102114.300000", "102118.250000", "102114.410000", "102118.360000", "102114.520000", "102118.470000", "102114.630000", "102118.577500", "102114.740000", "102118.687500", "102114.847500", "102118.797500", "102114.957500", "102118.907500", "102115.067500", "102119.017500", "102115.177500", "102119.127500", "102115.287500", "102119.237500", "102115.397500", "102119.347500", "102115.507500", "102119.457500", "102115.617500", "102119.565000", "102115.725000", "102119.675000", "102115.835000", "102119.785000", "102115.945000", "102119.895000", "102116.055000", "102120.005000", "102116.165000", "102120.115000", "102116.275000", "102120.225000", "102116.385000", "102120.335000", "102116.495000", "102124.305000", "102120.465000", "102124.412500", "102120.572500", "102124.522500", "102120.682500", "102124.632500", "102120.792500", "102124.742500", "102120.902500", "102124.852500", "102121.012500", "102124.962500", "102121.122500", "102125.072500", "102121.232500", "102125.182500", "102121.342500", "102125.290000", "102121.452500", "102125.400000", "102121.560000", "102125.510000", "102121.670000", "102125.620000", "102121.780000", "102125.730000", "102121.890000", "102125.840000", "102122.000000", "102125.950000", "102122.110000", "102126.060000", "102122.220000", "102126.170000", "102122.330000", "102126.277500", "102122.440000", "102126.387500", "102122.547500", "102126.497500", "102122.657500", "102126.607500", "102122.767500", "102126.717500", "102122.877500", "102126.827500", "102122.987500", "102126.937500", "102123.097500", "102127.047500", "102123.207500", "102127.157500", "102123.317500", "102127.265000", "102123.425000", "102127.375000", "102123.535000", "102127.485000", "102123.645000", "102127.595000", "102123.755000", "102127.705000", "102123.865000", "102127.815000", "102123.975000", "102127.925000", "102124.085000", "102128.035000", "102124.195000", "102132.005000", "102128.165000", "102132.112500", "102128.272500", "102132.222500", "102128.382500", "102132.332500", "102128.492500", "102132.442500", "102128.602500", "102132.552500", "102128.712500", "102132.662500", "102128.822500", "102132.772500", "102128.932500", "102132.882500", "102129.042500", "102132.990000", "102129.152500", "102133.100000", "102129.260000", "102133.210000", "102129.370000", "102133.320000", "102129.480000", "102133.430000", "102129.590000", "102133.540000", "102129.700000", "102133.650000", "102129.810000", "102133.760000", "102129.920000", "102133.870000", "102130.030000", "102133.977500", "102130.140000", "102134.087500", "102130.247500", "102134.197500", "102130.357500", "102134.307500", "102130.467500", "102134.417500", "102130.577500", "102134.527500", "102130.687500", "102134.637500", "102130.797500", "102134.747500", "102130.907500", "102134.857500", "102131.017500", "102134.965000", "102131.125000", "102135.075000", "102131.235000", "102135.185000", "102131.345000", "102135.295000", "102131.455000", "102135.405000", "102131.565000", "102135.515000", "102131.675000", "102135.625000", "102131.785000", "102135.735000", "102131.895000", "102139.705000", "102135.865000", "102139.812500", "102135.972500", "102139.922500", "102136.082500", "102140.032500", "102136.192500", "102140.142500", "102136.302500", "102140.252500", "102136.412500", "102140.362500", "102136.522500", "102140.472500", "102136.632500", "102140.582500", "102136.742500", "102140.690000", "102136.852500", "102140.800000", "102136.960000", "102140.910000", "102137.070000", "102141.020000", "102137.180000", "102141.130000", "102137.290000", "102141.240000", "102137.400000", "102141.350000", "102137.510000", "102141.460000", "102137.620000", "102141.570000", "102137.730000", "102141.677500", "102137.840000", "102141.787500", "102137.947500", "102141.897500", "102138.057500", "102142.007500", "102138.167500", "102142.117500", "102138.277500", "102142.227500", "102138.387500", "102142.337500", "102138.497500", "102142.447500", "102138.607500", "102142.557500", "102138.717500", "102142.665000", "102138.825000", "102142.775000", "102138.935000", "102142.885000", "102139.045000", "102142.995000", "102139.155000", "102143.105000", "102139.265000", "102143.215000", "102139.375000", "102143.325000", "102139.485000", "102143.435000", "102139.595000", "102147.405000", "102143.565000", "102147.512500", "102143.672500", "102147.622500", "102143.782500", "102147.732500", "102143.892500", "102147.842500", "102144.002500", "102147.952500", "102144.112500", "102148.062500", "102144.222500", "102148.172500", "102144.332500", "102148.282500", "102144.442500", "102148.390000", "102144.552500", "102148.500000", "102144.660000", "102148.610000", "102144.770000", "102148.720000", "102144.880000", "102148.830000", "102144.990000", "102148.940000", "102145.100000", "102149.050000", "102145.210000", "102149.160000", "102145.320000", "102149.270000", "102145.430000", "102149.377500", "102145.540000", "102149.487500", "102145.647500", "102149.597500", "102145.757500", "102149.707500", "102145.867500", "102149.817500", "102145.977500", "102149.927500", "102146.087500", "102150.037500", "102146.197500", "102150.147500", "102146.307500", "102150.257500", "102146.417500", "102150.365000", "102146.525000", "102150.475000", "102146.635000", "102150.585000", "102146.745000", "102150.695000", "102146.855000", "102150.805000", "102146.965000", "102150.915000", "102147.075000", "102151.025000", "102147.185000", "102151.135000", "102147.295000", "102155.105000", "102151.265000", "102155.212500", "102151.372500", "102155.322500", "102151.482500", "102155.432500", "102151.592500", "102155.542500", "102151.702500", "102155.652500", "102151.812500", "102155.762500", "102151.922500", "102155.872500", "102152.032500", "102155.982500", "102152.142500", "102156.090000", "102152.252500", "102156.200000", "102152.360000", "102156.310000", "102152.470000", "102156.420000", "102152.580000", "102156.530000", "102152.690000", "102156.640000", "102152.800000", "102156.750000", "102152.910000", "102156.860000", "102153.020000", "102156.970000", "102153.130000", "102157.077500", "102153.240000", "102157.187500", "102153.347500", "102157.297500", "102153.457500", "102157.407500", "102153.567500", "102157.517500", "102153.677500", "102157.627500", "102153.787500", "102157.737500", "102153.897500", "102157.847500", "102154.007500", "102157.957500", "102154.117500", "102158.065000", "102154.225000", "102158.175000", "102154.335000", "102158.285000", "102154.445000", "102158.395000", "102154.555000", "102158.505000", "102154.665000", "102158.615000", "102154.775000", "102158.725000", "102154.885000", "102158.835000", "102154.995000", "102202.805000", "102158.965000", "102202.912500", "102159.072500", "102203.022500", "102159.182500", "102203.132500", "102159.292500", "102203.242500", "102159.402500", "102203.352500", "102159.512500", "102203.462500", "102159.622500", "102203.572500", "102159.732500", "102203.682500", "102159.842500", "102203.790000", "102159.952500", "102203.900000", "102200.060000", "102204.010000", "102200.170000", "102204.120000", "102200.280000", "102204.230000", "102200.390000", "102204.340000", "102200.500000", "102204.450000", "102200.610000", "102204.560000", "102200.720000", "102204.670000", "102200.830000", "102204.777500", "102200.940000", "102204.887500", "102201.047500", "102204.997500", "102201.157500", "102205.107500", "102201.267500", "102205.217500", "102201.377500", "102205.327500", "102201.487500", "102205.437500", "102201.597500", "102205.547500", "102201.707500", "102205.657500", "102201.817500", "102205.765000", "102201.925000", "102205.875000", "102202.035000", "102205.985000", "102202.145000", "102206.095000", "102202.255000", "102206.205000", "102202.365000", "102206.315000", "102202.475000", "102206.425000", "102202.585000", "102206.535000", "102202.695000", "102210.505000", "102206.665000", "102210.612500", "102206.772500", "102210.722500", "102206.882500", "102210.832500", "102206.992500", "102210.942500", "102207.102500", "102211.052500", "102207.212500", "102211.162500", "102207.322500", "102211.272500", "102207.432500", "102211.382500", "102207.542500", "102211.490000", "102207.652500", "102211.600000", "102207.760000", "102211.710000", "102207.870000", "102211.820000", "102207.980000", "102211.930000", "102208.090000", "102212.040000", "102208.200000", "102212.150000", "102208.310000", "102212.260000", "102208.420000", "102212.370000", "102208.530000", "102212.477500", "102208.640000", "102212.587500", "102208.747500", "102212.697500", "102208.857500", "102212.807500", "102208.967500", "102212.917500", "102209.077500", "102213.027500", "102209.187500", "102213.137500", "102209.297500", "102213.247500", "102209.407500", "102213.357500", "102209.517500", "102213.465000", "102209.625000", "102213.575000", "102209.735000", "102213.685000", "102209.845000", "102213.795000", "102209.955000", "102213.905000", "102210.065000", "102214.015000", "102210.175000", "102214.125000", "102210.285000", "102214.235000", "102210.395000", "102218.205000", "102214.365000", "102218.312500", "102214.472500", "102218.422500", "102214.582500", "102218.532500", "102214.692500", "102218.642500", "102214.802500", "102218.752500", "102214.912500", "102218.862500", "102215.022500", "102218.972500", "102215.132500", "102219.082500", "102215.242500", "102219.190000", "102215.352500", "102219.300000", "102215.460000", "102219.410000", "102215.570000", "102219.520000", "102215.680000", "102219.630000", "102215.790000", "102219.740000", "102215.900000", "102219.850000", "102216.010000", "102219.960000", "102216.120000", "102220.070000", "