{
  "AcquisitionMatrixPE": 80,
  "AcquisitionNumber": 1,
  "AcquisitionTime": "10:55:29.492500",
  "BandwidthPerPixelPhaseEncode": 25,
  "BaseResolution": 80,
  "BodyPartExamined": "BRAIN",
  "CoilCombinationMethod": "Sum of Squares",
  "ConsistencyInfo": "N4_VE11C_LATEST_20160120",
  "ConversionSoftware": "dcm2niix",
  "ConversionSoftwareVersion": "v1.0.20220720",
  "DerivedVendorReportedEchoSpacing": 0.0005,
  "DeviceSerialNumber": "66112",
  "DwellTime": 2.7e-06,
  "EchoTime": 0.03,
  "EchoTrainLength": 80,
  "EffectiveEchoSpacing": 0.0005,
  "FlipAngle": 77,
  "HeudiconvVersion": "0.13.1",
  "ImageOrientationPatientDICOM": [0.987911, 0.154772, 0.00874203, -0.149584, 0.936955, 0.315816],
  "ImageOrientationText": "Tra>Cor(18.3)>Sag(-2.3)",
  "ImageType": [
    "ORIGINAL",
    "PRIMARY",
    "M",
    "ND",
    "NORM",
    "MOSAIC"
],
  "ImagingFrequency": 123.252,
  "InPlanePhaseEncodingDirectionDICOM": "COL",
  "InstitutionAddress": "Maynard 3,Hanover,NH,US,03755",
  "InstitutionName": "Dartmouth College - PBS",
  "InstitutionalDepartmentName": "Department",
  "MRAcquisitionType": "2D",
  "MagneticFieldStrength": 3,
  "Manufacturer": "Siemens",
  "ManufacturersModelName": "Prisma",
  "MatrixCoilMode": "SENSE",
  "Modality": "MR",
  "NonlinearGradientCorrection": false,
  "PartialFourier": 1,
  "PatientPosition": "HFS",
  "PercentPhaseFOV": 100,
  "PercentSampling": 100,
  "PhaseEncodingDirection": "j-",
  "PhaseEncodingSteps": 80,
  "PhaseResolution": 1,
  "PixelBandwidth": 2315,
  "ProcedureStepDescription": "dbic^QA",
  "ProtocolName": "func-bold_fa-77",
  "PulseSequenceDetails": "%SiemensSeq%\\ep2d_bold",
  "ReceiveCoilActiveElements": "HEA;HEP",
  "ReceiveCoilName": "Head_32",
  "ReconMatrixPE": 80,
  "RepetitionTime": 2,
  "SAR": 0.0372953,
  "ScanOptions": "FS",
  "ScanningSequence": "EP",
  "SequenceName": "*epfid2d1_80",
  "SequenceVariant": "SK",
  "SeriesDescription": "func-bold_fa-77",
  "SeriesNumber": 8,
  "ShimSetting": [4144, -7694, -7523, 237, -47, -82, -33, 70],
  "SliceThickness": 3.5,
  "SliceTiming": [0.99, 0, 1.0575, 0.0675, 1.1225, 0.1325, 1.19, 0.2, 1.255, 0.265, 1.32, 0.33, 1.3875, 0.3975, 1.4525, 0.4625, 1.52, 0.53, 1.585, 0.595, 1.65, 0.66, 1.7175, 0.7275, 1.7825, 0.7925, 1.85, 0.86, 1.915, 0.925],
  "SoftwareVersions": "syngo MR E11",
  "SpacingBetweenSlices": 3.99,
  "StationName": "AWP66112",
  "TotalReadoutTime": 0.0395,
  "TxRefAmp": 221.534,
  "dcmmeta_affine": [
    [-2.9637343883514404, -0.44875168800354004, -0.16234809160232544, 140.93417358398438],
    [-0.4643171727657318, 2.8108651638031006, 1.250091552734375, -110.36520385742188],
    [0.026226086542010307, -0.94744873046875, 3.785632610321045, -14.827128410339355],
    [0.0, 0.0, 0.0, 1.0]
],
  "dcmmeta_reorient_transform": [
    [0.0, -1.0, 0.0, 79.0],
    [1.0, 0.0, 0.0, 0.0],
    [0.0, 0.0, 1.0, 0.0],
    [0.0, 0.0, 0.0, 1.0]
],
  "dcmmeta_shape": [80, 80, 30, 200],
  "dcmmeta_slice_dim": 2,
  "dcmmeta_version": 0.6,
  "global": {
    "const": {
      "AccessionNumber": "qa",
      "AcquisitionMatrix": [80, 0, 0, 80],
      "AngioFlag": "N",
      "BitsAllocated": 16,
      "BitsStored": 12,
      "BodyPartExamined": "BRAIN",
      "Columns": 480,
      "EchoNumbers": 1,
      "EchoTime": 30.0,
      "EchoTrainLength": 80,
      "FlipAngle": 77.0,
      "HighBit": 11,
      "ImageOrientationPatient": [0.98791147533055, 0.15477239367974, 0.0087420286466, -0.1495838988219, 0.93695504827132, 0.31581623570065],
      "ImagePositionPatient": [-608.47934040347, -766.7296045335, -284.41053461957],
      "ImageType": [
        "ORIGINAL",
        "PRIMARY",
        "M",
        "ND",
        "NORM",
        "MOSAIC"
],
      "ImagedNucleus": "1H",
      "ImagingFrequency": 123.252355,
      "InPlanePhaseEncodingDirection": "COL",
      "MRAcquisitionType": "2D",
      "MagneticFieldStrength": 3.0,
      "Manufacturer": "SIEMENS",
      "ManufacturerModelName": "Prisma",
      "Modality": "MR",
      "NumberOfAverages": 1.0,
      "NumberOfPhaseEncodingSteps": 80,
      "PercentPhaseFieldOfView": 100.0,
      "PercentSampling": 100.0,
      "PerformedProcedureStepStartTime": "103857.318000",
      "PhotometricInterpretation": "MONOCHROME2",
      "PixelBandwidth": 2315.0,
      "PixelRepresentation": 0,
      "PixelSpacing": [3.0, 3.0],
      "ProtocolName": "func-bold_fa-77",
      "RepetitionTime": 2000.0,
      "Rows": 480,
      "SAR": 0.03729527751067,
      "SamplesPerPixel": 1,
      "ScanOptions": "FS",
      "ScanningSequence": "EP",
      "SequenceName": "*epfid2d1_80",
      "SequenceVariant": "SK",
      "SeriesDescription": "func-bold_fa-77",
      "SeriesNumber": 8,
      "SeriesTime": "105608.959000",
      "SliceLocation": -54.380217409963,
      "SliceThickness": 3.5,
      "SmallestImagePixelValue": 0,
      "SoftwareVersions": "syngo MR E11",
      "SpacingBetweenSlices": 3.9899999605582,
      "SpecificCharacterSet": "ISO_IR 100",
      "StudyID": "33",
      "StudyTime": "103857.277000",
      "TransmitCoilName": "Body",
      "VariableFlipAngleFlag": "N",
      "WindowCenterWidthExplanation": "Algo1",
      "dBdt": 0.0},
    "slices": {}
  },
  "time": {
    "samples": {
      "AcquisitionNumber": [1, 2, 3, 4, 5, 6, 7, 8, 9, 10, 11, 12, 13, 14, 15, 16, 17, 18, 19, 20, 21, 22, 23, 24, 25, 26, 27, 28, 29, 30, 31, 32, 33, 34, 35, 36, 37, 38, 39, 40, 41, 42, 43, 44, 45, 46, 47, 48, 49, 50, 51, 52, 53, 54, 55, 56, 57, 58, 59, 60, 61, 62, 63, 64, 65, 66, 67, 68, 69, 70, 71, 72, 73, 74, 75, 76, 77, 78, 79, 80, 81, 82, 83, 84, 85, 86, 87, 88, 89, 90, 91, 92, 93, 94, 95, 96, 97, 98, 99, 100, 101, 102, 103, 104, 105, 106, 107, 108, 109, 110, 111, 112, 113, 114, 115, 116, 117, 118, 119, 120, 121, 122, 123, 124, 125, 126, 127, 128, 129, 130, 131, 132, 133, 134, 135, 136, 137, 138, 139, 140, 141, 142, 143, 144, 145, 146, 147, 148, 149, 150, 151, 152, 153, 154, 155, 156, 157, 158, 159, 160, 161, 162, 163, 164, 165, 166, 167, 168, 169, 170, 171, 172, 173, 174, 175, 176, 177, 178, 179, 180, 181, 182, 183, 184, 185, 186, 187, 188, 189, 190, 191, 192, 193, 194, 195, 196, 197, 198, 199, 200],
      "AcquisitionTime": ["105529.492500", "105531.492500", "105533.492500", "105535.492500", "105537.492500", "105539.492500", "105541.492500", "105543.492500", "105545.492500", "105547.492500", "105549.492500", "105551.492500", "105553.492500", "105555.492500", "105557.492500", "105559.492500", "105601.492500", "105603.492500", "105605.492500", "105607.492500", "105609.492500", "105611.492500", "105613.492500", "105615.492500", "105617.492500", "105619.492500", "105621.492500", "105623.492500", "105625.492500", "105627.492500", "105629.492500", "105631.492500", "105633.492500", "105635.492500", "105637.492500", "105639.492500", "105641.492500", "105643.492500", "105645.492500", "105647.492500", "105649.492500", "105651.492500", "105653.492500", "105655.492500", "105657.492500", "105659.492500", "105701.492500", "105703.492500", "105705.492500", "105707.492500", "105709.492500", "105711.492500", "105713.492500", "105715.492500", "105717.492500", "105719.492500", "105721.492500", "105723.492500", "105725.492500", "105727.492500", "105729.492500", "105731.492500", "105733.492500", "105735.492500", "105737.492500", "105739.492500", "105741.492500", "105743.492500", "105745.492500", "105747.492500", "105749.492500", "105751.492500", "105753.492500", "105755.492500", "105757.492500", "105759.492500", "105801.492500", "105803.492500", "105805.492500", "105807.492500", "105809.492500", "105811.492500", "105813.492500", "105815.492500", "105817.492500", "105819.492500", "105821.492500", "105823.492500", "105825.492500", "105827.492500", "105829.492500", "105831.492500", "105833.492500", "105835.492500", "105837.492500", "105839.492500", "105841.492500", "105843.492500", "105845.492500", "105847.492500", "105849.492500", "105851.492500", "105853.492500", "105855.492500", "105857.492500", "105859.492500", "105901.492500", "105903.492500", "105905.492500", "105907.492500", "105909.492500", "105911.492500", "105913.492500", "105915.492500", "105917.492500", "105919.492500", "105921.492500", "105923.492500", "105925.492500", "105927.492500", "105929.492500", "105931.492500", "105933.492500", "105935.492500", "105937.492500", "105939.492500", "105941.492500", "105943.492500", "105945.492500", "105947.492500", "105949.492500", "105951.492500", "105953.492500", "105955.492500", "105957.492500", "105959.492500", "110001.492500", "110003.492500", "110005.492500", "110007.492500", "110009.492500", "110011.492500", "110013.492500", "110015.492500", "110017.492500", "110019.492500", "110021.492500", "110023.492500", "110025.492500", "110027.492500", "110029.492500", "110031.492500", "110033.492500", "110035.492500", "110037.492500", "110039.492500", "110041.492500", "110043.492500", "110045.492500", "110047.492500", "110049.492500", "110051.492500", "110053.492500", "110055.492500", "110057.492500", "110059.492500", "110101.492500", "110103.492500", "110105.492500", "110107.492500", "110109.492500", "110111.492500", "110113.492500", "110115.492500", "110117.492500", "110119.492500", "110121.492500", "110123.492500", "110125.492500", "110127.492500", "110129.492500", "110131.492500", "110133.492500", "110135.492500", "110137.492500", "110139.492500", "110141.492500", "110143.492500", "110145.492500", "110147.492500", "110149.492500", "110151.492500", "110153.492500", "110155.492500", "110157.492500", "110159.492500", "110201.492500", "110203.492500", "110205.492500", "110207.492500"],
      "ContentTime": ["105608.962000", "105608.966000", "105608.968000", "105608.971000", "105608.973000", "105608.975000", "105608.978000", "105608.980000", "105608.983000", "105608.985000", "105608.988000", "105608.991000", "105608.993000", "105608.996000", "105608.998000", "105609.002000", "105609.004000", "105609.007000", "105609.009000", "105609.012000", "105648.947000", "105648.950000", "105648.953000", "105648.965000", "105648.968000", "105648.970000", "105648.973000", "105648.975000", "105648.978000", "105648.980000", "105648.983000", "105648.985000", "105648.988000", "105648.990000", "105648.993000", "105648.995000", "105648.998000", "105649.000000", "105649.003000", "105649.005000", "105728.947000", "105728.950000", "105728.953000", "105728.955000", "105728.958000", "105728.960000", "105728.963000", "105728.965000", "105728.968000", "105728.970000", "105728.973000", "105728.975000", "105728.978000", "105728.980000", "105728.983000", "105728.985000", "105728.988000", "105728.990000", "105728.993000", "105728.995000", "105808.948000", "105808.950000", "105808.953000", "105808.955000", "105808.958000", "105808.960000", "105808.963000", "105808.965000", "105808.968000", "105808.970000", "105808.973000", "105808.975000", "105808.978000", "105808.980000", "105808.983000", "105808.986000", "105808.988000", "105808.991000", "105808.993000", "105808.996000", "105848.946000", "105848.949000", "105848.952000", "105848.954000", "105848.957000", "105848.959000", "105848.962000", "105848.964000", "105848.967000", "105848.969000", "105848.972000", "105848.974000", "105848.977000", "105848.979000", "105848.982000", "105848.984000", "105848.987000", "105848.989000", "105848.992000", "105848.994000", "105928.947000", "105928.950000", "105928.953000", "105928.955000", "105928.958000", "105928.960000", "105928.963000", "105928.965000", "105928.968000", "105928.970000", "105928.973000", "105928.975000", "105928.978000", "105928.980000", "105928.983000", "105928.985000", "105928.988000", "105928.990000", "105928.993000", "105928.995000", "110008.947000", "110008.950000", "110008.953000", "110008.955000", "110008.958000", "110008.960000", "110008.963000", "110008.965000", "110008.968000", "110008.970000", "110008.973000", "110008.975000", "110008.978000", "110008.980000", "110008.983000", "110008.985000", "110008.988000", "110008.990000", "110008.993000", "110008.995000", "110048.946000", "110048.949000", "110048.952000", "110048.954000", "110048.957000", "110048.959000", "110048.962000", "110048.964000", "110048.967000", "110048.969000", "110048.972000", "110048.974000", "110048.977000", "110048.979000", "110048.982000", "110048.984000", "110048.987000", "110048.989000", "110048.992000", "110048.994000", "110128.947000", "110128.950000", "110128.953000", "110128.955000", "110128.958000", "110128.960000", "110128.963000", "110128.965000", "110128.968000", "110128.970000", "110128.973000", "110128.975000", "110128.978000", "110128.980000", "110128.983000", "110128.986000", "110128.988000", "110128.991000", "110128.993000", "110128.996000", "110208.872000", "110208.875000", "110208.878000", "110208.880000", "110208.883000", "110208.885000", "110208.888000", "110208.891000", "110208.893000", "110208.896000", "110208.898000", "110208.901000", "110208.903000", "110208.914000", "110208.918000", "110208.921000", "110208.926000", "110208.929000", "110208.931000", "110208.934000"],
      "InstanceCreationTime": ["105608.962000", "105608.966000", "105608.968000", "105608.971000", "105608.973000", "105608.975000", "105608.978000", "105608.980000", "105608.983000", "105608.985000", "105608.988000", "105608.991000", "105608.993000", "105608.996000", "105608.998000", "105609.002000", "105609.004000", "105609.007000", "105609.009000", "105609.012000", "105648.947000", "105648.950000", "105648.953000", "105648.965000", "105648.968000", "105648.970000", "105648.973000", "105648.975000", "105648.978000", "105648.980000", "105648.983000", "105648.985000", "105648.988000", "105648.990000", "105648.993000", "105648.995000", "105648.998000", "105649.000000", "105649.003000", "105649.005000", "105728.947000", "105728.950000", "105728.953000", "105728.955000", "105728.958000", "105728.960000", "105728.963000", "105728.965000", "105728.968000", "105728.970000", "105728.973000", "105728.975000", "105728.978000", "105728.980000", "105728.983000", "105728.985000", "105728.988000", "105728.990000", "105728.993000", "105728.995000", "105808.948000", "105808.950000", "105808.953000", "105808.955000", "105808.958000", "105808.960000", "105808.963000", "105808.965000", "105808.968000", "105808.970000", "105808.973000", "105808.975000", "105808.978000", "105808.980000", "105808.983000", "105808.986000", "105808.988000", "105808.991000", "105808.993000", "105808.996000", "105848.946000", "105848.949000", "105848.952000", "105848.954000", "105848.957000", "105848.959000", "105848.962000", "105848.964000", "105848.967000", "105848.969000", "105848.972000", "105848.974000", "105848.977000", "105848.979000", "105848.982000", "105848.984000", "105848.987000", "105848.989000", "105848.992000", "105848.994000", "105928.947000", "105928.950000", "105928.953000", "105928.955000", "105928.958000", "105928.960000", "105928.963000", "105928.965000", "105928.968000", "105928.970000", "105928.973000", "105928.975000", "105928.978000", "105928.980000", "105928.983000", "105928.985000", "105928.988000", "105928.990000", "105928.993000", "105928.995000", "110008.947000", "110008.950000", "110008.953000", "110008.955000", "110008.958000", "110008.960000", "110008.963000", "110008.965000", "110008.968000", "110008.970000", "110008.973000", "110008.975000", "110008.978000", "110008.980000", "110008.983000", "110008.985000", "110008.988000", "110008.990000", "110008.993000", "110008.995000", "110048.946000", "110048.949000", "110048.952000", "110048.954000", "110048.957000", "110048.959000", "110048.962000", "110048.964000", "110048.967000", "110048.969000", "110048.972000", "110048.974000", "110048.977000", "110048.979000", "110048.982000", "110048.984000", "110048.987000", "110048.989000", "110048.992000", "110048.994000", "110128.947000", "110128.950000", "110128.953000", "110128.955000", "110128.958000", "110128.960000", "110128.963000", "110128.965000", "110128.968000", "110128.970000", "110128.973000", "110128.975000", "110128.978000", "110128.980000", "110128.983000", "110128.986000", "110128.988000", "110128.991000", "110128.993000", "110128.996000", "110208.872000", "110208.875000", "110208.878000", "110208.880000", "110208.883000", "110208.885000", "110208.888000", "110208.891000", "110208.893000", "110208.896000", "110208.898000", "110208.901000", "110208.903000", "110208.914000", "110208.918000", "110208.921000", "110208.926000", "110208.929000", "110208.931000", "110208.934000"],
      "InstanceNumber": [1, 2, 3, 4, 5, 6, 7, 8, 9, 10, 11, 12, 13, 14, 15, 16, 17, 18, 19, 20, 21, 22, 23, 24, 25, 26, 27, 28, 29, 30, 31, 32, 33, 34, 35, 36, 37, 38, 39, 40, 41, 42, 43, 44, 45, 46, 47, 48, 49, 50, 51, 52, 53, 54, 55, 56, 57, 58, 59, 60, 61, 62, 63, 64, 65, 66, 67, 68, 69, 70, 71, 72, 73, 74, 75, 76, 77, 78, 79, 80, 81, 82, 83, 84, 85, 86, 87, 88, 89, 90, 91, 92, 93, 94, 95, 96, 97, 98, 99, 100, 101, 102, 103, 104, 105, 106, 107, 108, 109, 110, 111, 112, 113, 114, 115, 116, 117, 118, 119, 120, 121, 122, 123, 124, 125, 126, 127, 128, 129, 130, 131, 132, 133, 134, 135, 136, 137, 138, 139, 140, 141, 142, 143, 144, 145, 146, 147, 148, 149, 150, 151, 152, 153, 154, 155, 156, 157, 158, 159, 160, 161, 162, 163, 164, 165, 166, 167, 168, 169, 170, 171, 172, 173, 174, 175, 176, 177, 178, 179, 180, 181, 182, 183, 184, 185, 186, 187, 188, 189, 190, 191, 192, 193, 194, 195, 196, 197, 198, 199, 200],
      "LargestImagePixelValue": [2377, 2376, 2377, 2377, 2377, 2374, 2377, 2377, 2378, 2377, 2378, 2377, 2376, 2377, 2377, 2376, 2379, 2379, 2377, 2378, 2378, 2376, 2376, 2377, 2374, 2377, 2376, 2375, 2377, 2377, 2378, 2375, 2376, 2379, 2376, 2377, 2378, 2374, 2376, 2376, 2374, 2376, 2374, 2375, 2373, 2373, 2372, 2376, 2374, 2371, 2372, 2371, 2373, 2373, 2370, 2374, 2376, 2374, 2373, 2373, 2371, 2373, 2372, 2371, 2373, 2370, 2371, 2372, 2371, 2369, 2371, 2371, 2371, 2372, 2372, 2372, 2370, 2372, 2371, 2371, 2369, 2370, 2372, 2371, 2370, 2372, 2369, 2372, 2371, 2370, 2369, 2371, 2370, 2369, 2371, 2369, 2369, 2371, 2371, 2372, 2373, 2370, 2372, 2373, 2371, 2373, 2373, 2374, 2373, 2375, 2371, 2370, 2371, 2370, 2371, 2371, 2371, 2369, 2368, 2370, 2370, 2369, 2369, 2368, 2370, 2368, 2367, 2369, 2368, 2367, 2368, 2370, 2372, 2370, 2370, 2369, 2369, 2368, 2369, 2369, 2373, 2373, 2371, 2369, 2369, 2370, 2369, 2369, 2371, 2373, 2371, 2371, 2371, 2368, 2371, 2371, 2370, 2370, 2370, 2370, 2370, 2370, 2371, 2369, 2370, 2369, 2369, 2371, 2370, 2369, 2368, 2369, 2373, 2370, 2369, 2371, 2368, 2368, 2370, 2371, 2371, 2370, 2369, 2371, 2368, 2370, 2369, 2369, 2369, 2369, 2369, 2368, 2369, 2370, 2370, 2369, 2368, 2368, 2369, 2368],
      "WindowCenter": [1040.0, 1040.0, 1039.0, 1039.0, 1040.0, 1039.0, 1040.0, 1040.0, 1040.0, 1040.0, 1040.0, 1039.0, 1040.0, 1040.0, 1040.0, 1040.0, 1039.0, 1039.0, 1040.0, 1040.0, 1040.0, 1039.0, 1039.0, 1039.0, 1039.0, 1039.0, 1039.0, 1039.0, 1039.0, 1039.0, 1040.0, 1039.0, 1040.0, 1039.0, 1039.0, 1039.0, 1038.0, 1039.0, 1039.0, 1039.0, 1039.0, 1039.0, 1039.0, 1039.0, 1039.0, 1039.0, 1039.0, 1039.0, 1039.0, 1038.0, 1039.0, 1039.0, 1039.0, 1038.0, 1039.0, 1038.0, 1039.0, 1039.0, 1039.0, 1040.0, 1039.0, 1039.0, 1039.0, 1039.0, 1039.0, 1039.0, 1039.0, 1038.0, 1039.0, 1038.0, 1039.0, 1039.0, 1039.0, 1039.0, 1039.0, 1038.0, 1038.0, 1039.0, 1038.0, 1039.0, 1038.0, 1039.0, 1038.0, 1037.0, 1038.0, 1038.0, 1038.0, 1038.0, 1038.0, 1038.0, 1038.0, 1038.0, 1038.0, 1038.0, 1038.0, 1038.0, 1038.0, 1039.0, 1038.0, 1038.0, 1038.0, 1038.0, 1038.0, 1039.0, 1040.0, 1038.0, 1038.0, 1039.0, 1038.0, 1040.0, 1039.0, 1038.0, 1038.0, 1038.0, 1038.0, 1038.0, 1037.0, 1038.0, 1038.0, 1038.0, 1038.0, 1038.0, 1038.0, 1038.0, 1039.0, 1038.0, 1038.0, 1038.0, 1038.0, 1038.0, 1038.0, 1037.0, 1038.0, 1038.0, 1038.0, 1038.0, 1038.0, 1037.0, 1038.0, 1038.0, 1038.0, 1038.0, 1038.0, 1038.0, 1038.0, 1038.0, 1038.0, 1038.0, 1038.0, 1039.0, 1038.0, 1039.0, 1038.0, 1038.0, 1039.0, 1038.0, 1038.0, 1039.0, 1038.0, 1038.0, 1037.0, 1038.0, 1038.0, 1038.0, 1038.0, 1038.0, 1039.0, 1038.0, 1038.0, 1038.0, 1038.0, 1038.0, 1038.0, 1038.0, 1038.0, 1038.0, 1038.0, 1038.0, 1037.0, 1038.0, 1038.0, 1038.0, 1038.0, 1038.0, 1038.0, 1038.0, 1039.0, 1038.0, 1038.0, 1038.0, 1038.0, 1039.0, 1038.0, 1038.0, 1038.0, 1038.0, 1038.0, 1038.0, 1038.0, 1037.0],
      "WindowWidth": [2349.0, 2349.0, 2348.0, 2349.0, 2350.0, 2348.0, 2349.0, 2349.0, 2350.0, 2350.0, 2349.0, 2350.0, 2349.0, 2349.0, 2349.0, 2350.0, 2350.0, 2350.0, 2349.0, 2349.0, 2349.0, 2349.0, 2349.0, 2349.0, 2349.0, 2349.0, 2349.0, 2349.0, 2349.0, 2349.0, 2350.0, 2349.0, 2350.0, 2349.0, 2349.0, 2349.0, 2347.0, 2348.0, 2349.0, 2349.0, 2349.0, 2349.0, 2348.0, 2348.0, 2349.0, 2348.0, 2349.0, 2349.0, 2348.0, 2346.0, 2346.0, 2347.0, 2347.0, 2346.0, 2347.0, 2347.0, 2348.0, 2347.0, 2347.0, 2348.0, 2347.0, 2347.0, 2347.0, 2347.0, 2347.0, 2347.0, 2347.0, 2347.0, 2347.0, 2347.0, 2347.0, 2347.0, 2347.0, 2347.0, 2347.0, 2347.0, 2347.0, 2347.0, 2347.0, 2347.0, 2347.0, 2347.0, 2346.0, 2346.0, 2346.0, 2346.0, 2346.0, 2346.0, 2347.0, 2347.0, 2347.0, 2346.0, 2347.0, 2346.0, 2346.0, 2346.0, 2346.0, 2347.0, 2346.0, 2346.0, 2347.0, 2347.0, 2347.0, 2347.0, 2347.0, 2347.0, 2347.0, 2348.0, 2347.0, 2348.0, 2347.0, 2346.0, 2346.0, 2346.0, 2346.0, 2346.0, 2346.0, 2346.0, 2346.0, 2346.0, 2346.0, 2346.0, 2346.0, 2346.0, 2347.0, 2346.0, 2346.0, 2346.0, 2346.0, 2346.0, 2346.0, 2345.0, 2346.0, 2346.0, 2345.0, 2346.0, 2346.0, 2345.0, 2345.0, 2345.0, 2346.0, 2346.0, 2345.0, 2345.0, 2345.0, 2345.0, 2345.0, 2346.0, 2346.0, 2346.0, 2345.0, 2346.0, 2345.0, 2345.0, 2346.0, 2345.0, 2345.0, 2346.0, 2345.0, 2345.0, 2345.0, 2345.0, 2345.0, 2345.0, 2345.0, 2345.0, 2346.0, 2345.0, 2345.0, 2345.0, 2345.0, 2345.0, 2345.0, 2345.0, 2345.0, 2345.0, 2345.0, 2345.0, 2345.0, 2345.0, 2345.0, 2345.0, 2345.0, 2345.0, 2345.0, 2345.0, 2346.0, 2345.0, 2345.0, 2345.0, 2345.0, 2346.0, 2345.0, 2345.0, 2345.0, 2345.0, 2345.0, 2345.0, 2344.0, 2345.0]
    },
    "slices": {}
  }
}