{
  "AcquisitionMatrixPE": 80,
  "AcquisitionNumber": 1,
  "AcquisitionTime": "10:48:40.300000",
  "BandwidthPerPixelPhaseEncode": 44.643,
  "BaseResolution": 80,
  "BodyPartExamined": "BRAIN",
  "CoilCombinationMethod": "Sum of Squares",
  "ConsistencyInfo": "N4_VE11C_LATEST_20160120",
  "ConversionSoftware": "dcm2niix",
  "ConversionSoftwareVersion": "v1.0.20220720",
  "DerivedVendorReportedEchoSpacing": 0.000559998,
  "DeviceSerialNumber": "66112",
  "DwellTime": 2.7e-06,
  "EchoTime": 0.035,
  "EchoTrainLength": 39,
  "EffectiveEchoSpacing": 0.000279999,
  "FlipAngle": 90,
  "HeudiconvVersion": "0.13.1",
  "ImageOrientationPatientDICOM": [0.987911, 0.154772, 0.00874203, -0.149584, 0.936955, 0.315816],
  "ImageOrientationText": "Tra>Cor(18.3)>Sag(-2.3)",
  "ImageType": [
    "ORIGINAL",
    "PRIMARY",
    "M",
    "ND",
    "NORM",
    "MOSAIC"
],
  "ImagingFrequency": 123.252,
  "InPlanePhaseEncodingDirectionDICOM": "COL",
  "InstitutionAddress": "Maynard 3,Hanover,NH,US,03755",
  "InstitutionName": "Dartmouth College - PBS",
  "InstitutionalDepartmentName": "Department",
  "MRAcquisitionType": "2D",
  "MagneticFieldStrength": 3,
  "Manufacturer": "Siemens",
  "ManufacturersModelName": "Prisma",
  "Modality": "MR",
  "MultibandAccelerationFactor": 4,
  "NonlinearGradientCorrection": false,
  "ParallelReductionFactorInPlane": 2,
  "PartialFourier": 1,
  "PatientPosition": "HFS",
  "PercentPhaseFOV": 100,
  "PercentSampling": 100,
  "PhaseEncodingDirection": "j-",
  "PhaseEncodingSteps": 79,
  "PhaseResolution": 1,
  "PixelBandwidth": 2315,
  "ProcedureStepDescription": "dbic^QA",
  "ProtocolName": "func-bold_task-rest_acq-p2-s4-3.5mm",
  "PulseSequenceDetails": "%SiemensSeq%\\ep2d_bold",
  "ReceiveCoilActiveElements": "HEA;HEP",
  "ReceiveCoilName": "Head_32",
  "ReconMatrixPE": 80,
  "RefLinesPE": 24,
  "RepetitionTime": 2,
  "SAR": 0.0178458,
  "ScanOptions": "FS",
  "ScanningSequence": "EP",
  "SequenceName": "*epfid2d1_80",
  "SequenceVariant": "SK",
  "SeriesDescription": "func-bold_task-rest_acq-p2-s4-3.5mm",
  "SeriesNumber": 7,
  "ShimSetting": [4144, -7695, -7522, 243, -48, -89, -34, 71],
  "SliceThickness": 3.5,
  "SliceTiming": [1.485, 0, 0.99, 0.2475, 1.2375, 0.7425, 1.7325, 0.495, 1.485, 0, 0.99, 0.2475, 1.2375, 0.7425, 1.7325, 0.495, 1.485, 0, 0.99, 0.2475, 1.2375, 0.7425, 1.7325, 0.495, 1.485, 0, 0.99, 0.2475, 1.2375, 0.7425, 1.7325, 0.495],
  "SoftwareVersions": "syngo MR E11",
  "SpacingBetweenSlices": 3.99,
  "StationName": "AWP66112",
  "TaskName": "rest",
  "TotalReadoutTime": 0.0221199,
  "TxRefAmp": 221.534,
  "dcmmeta_affine": [
    [-2.9637343883514404, -0.44875168800354004, -0.16234810650348663, 141.60960388183594],
    [-0.4643171727657318, 2.8108651638031006, 1.250091552734375, -115.01638793945312],
    [0.026226086542010307, -0.94744873046875, 3.785632610321045, -20.841413497924805],
    [0.0, 0.0, 0.0, 1.0]
],
  "dcmmeta_reorient_transform": [
    [0.0, -1.0, 0.0, 79.0],
    [1.0, 0.0, 0.0, 0.0],
    [0.0, 0.0, 1.0, 0.0],
    [0.0, 0.0, 0.0, 1.0]
],
  "dcmmeta_shape": [80, 80, 32, 200],
  "dcmmeta_slice_dim": 2,
  "dcmmeta_version": 0.6,
  "global": {
    "const": {
      "AccessionNumber": "qa",
      "AcquisitionMatrix": [80, 0, 0, 80],
      "AngioFlag": "N",
      "BitsAllocated": 16,
      "BitsStored": 12,
      "BodyPartExamined": "BRAIN",
      "Columns": 480,
      "EchoNumbers": 1,
      "EchoTime": 35.0,
      "EchoTrainLength": 39,
      "FlipAngle": 90.0,
      "HighBit": 11,
      "ImageOrientationPatient": [0.98791147533055, 0.15477239367974, 0.0087420286466, -0.1495838988219, 0.93695504827132, 0.31581623570065],
      "ImagePositionPatient": [-609.15476545611, -762.07842045147, -290.42482066083],
      "ImageType": [
        "ORIGINAL",
        "PRIMARY",
        "M",
        "ND",
        "NORM",
        "MOSAIC"
],
      "ImagedNucleus": "1H",
      "ImagingFrequency": 123.252355,
      "InPlanePhaseEncodingDirection": "COL",
      "MRAcquisitionType": "2D",
      "MagneticFieldStrength": 3.0,
      "Manufacturer": "SIEMENS",
      "ManufacturerModelName": "Prisma",
      "Modality": "MR",
      "NumberOfAverages": 1.0,
      "NumberOfPhaseEncodingSteps": 79,
      "PercentPhaseFieldOfView": 100.0,
      "PercentSampling": 100.0,
      "PerformedProcedureStepStartTime": "103857.318000",
      "PhotometricInterpretation": "MONOCHROME2",
      "PixelBandwidth": 2315.0,
      "PixelRepresentation": 0,
      "PixelSpacing": [3.0, 3.0],
      "ProtocolName": "func-bold_task-rest_acq-p2-s4-3.5mm",
      "RepetitionTime": 2000.0,
      "Rows": 480,
      "SAR": 0.01784579028024,
      "SamplesPerPixel": 1,
      "ScanOptions": "FS",
      "ScanningSequence": "EP",
      "SequenceName": "*epfid2d1_80",
      "SequenceVariant": "SK",
      "SeriesDescription": "func-bold_task-rest_acq-p2-s4-3.5mm",
      "SeriesNumber": 7,
      "SeriesTime": "104929.103000",
      "SliceLocation": -61.571179111477,
      "SliceThickness": 3.5,
      "SmallestImagePixelValue": 0,
      "SoftwareVersions": "syngo MR E11",
      "SpacingBetweenSlices": 3.9899999931919,
      "SpecificCharacterSet": "ISO_IR 100",
      "StudyID": "33",
      "StudyTime": "103857.277000",
      "TransmitCoilName": "Body",
      "VariableFlipAngleFlag": "N",
      "WindowCenterWidthExplanation": "Algo1",
      "dBdt": 0.0},
    "slices": {}
  },
  "time": {
    "samples": {
      "AcquisitionNumber": [1, 2, 3, 4, 5, 6, 7, 8, 9, 10, 11, 12, 13, 14, 15, 16, 17, 18, 19, 20, 21, 22, 23, 24, 25, 26, 27, 28, 29, 30, 31, 32, 33, 34, 35, 36, 37, 38, 39, 40, 41, 42, 43, 44, 45, 46, 47, 48, 49, 50, 51, 52, 53, 54, 55, 56, 57, 58, 59, 60, 61, 62, 63, 64, 65, 66, 67, 68, 69, 70, 71, 72, 73, 74, 75, 76, 77, 78, 79, 80, 81, 82, 83, 84, 85, 86, 87, 88, 89, 90, 91, 92, 93, 94, 95, 96, 97, 98, 99, 100, 101, 102, 103, 104, 105, 106, 107, 108, 109, 110, 111, 112, 113, 114, 115, 116, 117, 118, 119, 120, 121, 122, 123, 124, 125, 126, 127, 128, 129, 130, 131, 132, 133, 134, 135, 136, 137, 138, 139, 140, 141, 142, 143, 144, 145, 146, 147, 148, 149, 150, 151, 152, 153, 154, 155, 156, 157, 158, 159, 160, 161, 162, 163, 164, 165, 166, 167, 168, 169, 170, 171, 172, 173, 174, 175, 176, 177, 178, 179, 180, 181, 182, 183, 184, 185, 186, 187, 188, 189, 190, 191, 192, 193, 194, 195, 196, 197, 198, 199, 200],
      "AcquisitionTime": ["104840.300000", "104842.300000", "104844.300000", "104846.300000", "104848.300000", "104850.300000", "104852.300000", "104854.300000", "104856.300000", "104858.300000", "104900.300000", "104902.300000", "104904.300000", "104906.300000", "104908.300000", "104910.300000", "104912.300000", "104914.300000", "104916.300000", "104918.300000", "104920.300000", "104922.300000", "104924.300000", "104926.300000", "104928.300000", "104930.300000", "104932.300000", "104934.300000", "104936.300000", "104938.300000", "104940.300000", "104942.300000", "104944.300000", "104946.300000", "104948.300000", "104950.300000", "104952.300000", "104954.300000", "104956.300000", "104958.300000", "105000.300000", "105002.300000", "105004.300000", "105006.300000", "105008.300000", "105010.300000", "105012.300000", "105014.300000", "105016.300000", "105018.300000", "105020.300000", "105022.300000", "105024.300000", "105026.300000", "105028.300000", "105030.300000", "105032.300000", "105034.300000", "105036.300000", "105038.300000", "105040.300000", "105042.300000", "105044.300000", "105046.300000", "105048.300000", "105050.300000", "105052.300000", "105054.300000", "105056.300000", "105058.300000", "105100.300000", "105102.300000", "105104.300000", "105106.300000", "105108.300000", "105110.300000", "105112.300000", "105114.300000", "105116.300000", "105118.300000", "105120.300000", "105122.300000", "105124.300000", "105126.300000", "105128.300000", "105130.300000", "105132.300000", "105134.300000", "105136.300000", "105138.300000", "105140.300000", "105142.300000", "105144.300000", "105146.300000", "105148.300000", "105150.300000", "105152.300000", "105154.300000", "105156.300000", "105158.300000", "105200.300000", "105202.300000", "105204.300000", "105206.300000", "105208.300000", "105210.300000", "105212.300000", "105214.300000", "105216.300000", "105218.300000", "105220.300000", "105222.300000", "105224.300000", "105226.300000", "105228.300000", "105230.300000", "105232.300000", "105234.300000", "105236.300000", "105238.300000", "105240.300000", "105242.300000", "105244.300000", "105246.300000", "105248.300000", "105250.300000", "105252.300000", "105254.300000", "105256.300000", "105258.300000", "105300.300000", "105302.300000", "105304.300000", "105306.300000", "105308.300000", "105310.300000", "105312.300000", "105314.300000", "105316.300000", "105318.300000", "105320.300000", "105322.300000", "105324.300000", "105326.300000", "105328.300000", "105330.300000", "105332.300000", "105334.300000", "105336.300000", "105338.300000", "105340.300000", "105342.300000", "105344.300000", "105346.300000", "105348.300000", "105350.300000", "105352.300000", "105354.300000", "105356.300000", "105358.300000", "105400.300000", "105402.300000", "105404.300000", "105406.300000", "105408.300000", "105410.300000", "105412.300000", "105414.300000", "105416.300000", "105418.300000", "105420.300000", "105422.300000", "105424.300000", "105426.300000", "105428.300000", "105430.300000", "105432.300000", "105434.300000", "105436.300000", "105438.300000", "105440.300000", "105442.300000", "105444.300000", "105446.300000", "105448.300000", "105450.300000", "105452.300000", "105454.300000", "105456.300000", "105458.300000", "105500.300000", "105502.300000", "105504.300000", "105506.300000", "105508.300000", "105510.300000", "105512.300000", "105514.300000", "105516.300000", "105518.300000"],
      "ContentTime": ["104929.107000", "104929.110000", "104929.112000", "104929.115000", "104929.124000", "104929.127000", "104929.129000", "104929.132000", "104929.134000", "104929.143000", "104929.146000", "104929.148000", "104929.156000", "104929.159000", "104929.161000", "104929.164000", "104929.166000", "104929.169000", "104929.171000", "104929.174000", "104929.176000", "104929.179000", "104929.182000", "104929.184000", "104929.187000", "105009.087000", "105009.090000", "105009.093000", "105009.095000", "105009.098000", "105009.101000", "105009.103000", "105009.106000", "105009.108000", "105009.111000", "105009.113000", "105009.116000", "105009.118000", "105009.127000", "105009.130000", "105009.132000", "105009.135000", "105009.137000", "105009.140000", "105009.142000", "105049.087000", "105049.090000", "105049.093000", "105049.095000", "105049.098000", "105049.101000", "105049.103000", "105049.106000", "105049.108000", "105049.111000", "105049.113000", "105049.116000", "105049.118000", "105049.121000", "105049.123000", "105049.126000", "105049.128000", "105049.131000", "105049.134000", "105049.136000", "105129.087000", "105129.090000", "105129.093000", "105129.095000", "105129.098000", "105129.100000", "105129.103000", "105129.105000", "105129.108000", "105129.111000", "105129.113000", "105129.116000", "105129.118000", "105129.121000", "105129.123000", "105129.126000", "105129.128000", "105129.131000", "105129.133000", "105129.136000", "105209.086000", "105209.089000", "105209.092000", "105209.095000", "105209.097000", "105209.100000", "105209.102000", "105209.105000", "105209.107000", "105209.110000", "105209.112000", "105209.115000", "105209.117000", "105209.120000", "105209.122000", "105209.125000", "105209.127000", "105209.130000", "105209.132000", "105209.135000", "105249.087000", "105249.090000", "105249.093000", "105249.096000", "105249.098000", "105249.101000", "105249.103000", "105249.106000", "105249.108000", "105249.111000", "105249.113000", "105249.116000", "105249.119000", "105249.121000", "105249.124000", "105249.126000", "105249.129000", "105249.131000", "105249.134000", "105249.136000", "105329.088000", "105329.090000", "105329.093000", "105329.096000", "105329.098000", "105329.101000", "105329.105000", "105329.108000", "105329.110000", "105329.113000", "105329.115000", "105329.118000", "105329.120000", "105329.123000", "105329.126000", "105329.128000", "105329.131000", "105329.133000", "105329.136000", "105329.138000", "105409.087000", "105409.089000", "105409.092000", "105409.095000", "105409.097000", "105409.100000", "105409.102000", "105409.105000", "105409.107000", "105409.110000", "105409.112000", "105409.115000", "105409.117000", "105409.120000", "105409.122000", "105409.125000", "105409.128000", "105409.130000", "105409.133000", "105409.135000", "105449.087000", "105449.090000", "105449.093000", "105449.095000", "105449.098000", "105449.101000", "105449.103000", "105449.106000", "105449.108000", "105449.111000", "105449.113000", "105449.116000", "105449.118000", "105449.121000", "105449.123000", "105449.126000", "105449.128000", "105449.131000", "105449.134000", "105449.136000", "105518.833000", "105518.836000", "105518.838000", "105518.841000", "105518.844000", "105518.846000", "105518.849000", "105518.852000", "105518.854000", "105518.857000", "105518.859000", "105518.862000", "105518.868000", "105518.871000", "105518.874000"],
      "InstanceCreationTime": ["104929.107000", "104929.110000", "104929.112000", "104929.115000", "104929.124000", "104929.127000", "104929.129000", "104929.132000", "104929.134000", "104929.143000", "104929.146000", "104929.148000", "104929.156000", "104929.159000", "104929.161000", "104929.164000", "104929.166000", "104929.169000", "104929.171000", "104929.174000", "104929.176000", "104929.179000", "104929.182000", "104929.184000", "104929.187000", "105009.087000", "105009.090000", "105009.093000", "105009.095000", "105009.098000", "105009.101000", "105009.103000", "105009.106000", "105009.108000", "105009.111000", "105009.113000", "105009.116000", "105009.118000", "105009.127000", "105009.130000", "105009.132000", "105009.135000", "105009.137000", "105009.140000", "105009.142000", "105049.087000", "105049.090000", "105049.093000", "105049.095000", "105049.098000", "105049.101000", "105049.103000", "105049.106000", "105049.108000", "105049.111000", "105049.113000", "105049.116000", "105049.118000", "105049.121000", "105049.123000", "105049.126000", "105049.128000", "105049.131000", "105049.134000", "105049.136000", "105129.087000", "105129.090000", "105129.093000", "105129.095000", "105129.098000", "105129.100000", "105129.103000", "105129.105000", "105129.108000", "105129.111000", "105129.113000", "105129.116000", "105129.118000", "105129.121000", "105129.123000", "105129.126000", "105129.128000", "105129.131000", "105129.133000", "105129.136000", "105209.086000", "105209.089000", "105209.092000", "105209.095000", "105209.097000", "105209.100000", "105209.102000", "105209.105000", "105209.107000", "105209.110000", "105209.112000", "105209.115000", "105209.117000", "105209.120000", "105209.122000", "105209.125000", "105209.127000", "105209.130000", "105209.132000", "105209.135000", "105249.087000", "105249.090000", "105249.093000", "105249.096000", "105249.098000", "105249.101000", "105249.103000", "105249.106000", "105249.108000", "105249.111000", "105249.113000", "105249.116000", "105249.119000", "105249.121000", "105249.124000", "105249.126000", "105249.129000", "105249.131000", "105249.134000", "105249.136000", "105329.088000", "105329.090000", "105329.093000", "105329.096000", "105329.098000", "105329.101000", "105329.105000", "105329.108000", "105329.110000", "105329.113000", "105329.115000", "105329.118000", "105329.120000", "105329.123000", "105329.126000", "105329.128000", "105329.131000", "105329.133000", "105329.136000", "105329.138000", "105409.087000", "105409.089000", "105409.092000", "105409.095000", "105409.097000", "105409.100000", "105409.102000", "105409.105000", "105409.107000", "105409.110000", "105409.112000", "105409.115000", "105409.117000", "105409.120000", "105409.122000", "105409.125000", "105409.128000", "105409.130000", "105409.133000", "105409.135000", "105449.087000", "105449.090000", "105449.093000", "105449.095000", "105449.098000", "105449.101000", "105449.103000", "105449.106000", "105449.108000", "105449.111000", "105449.113000", "105449.116000", "105449.118000", "105449.121000", "105449.123000", "105449.126000", "105449.128000", "105449.131000", "105449.134000", "105449.136000", "105518.833000", "105518.836000", "105518.838000", "105518.841000", "105518.844000", "105518.846000", "105518.849000", "105518.852000", "105518.854000", "105518.857000", "105518.859000", "105518.862000", "105518.868000", "105518.871000", "105518.874000"],
      "InstanceNumber": [1, 2, 3, 4, 5, 6, 7, 8, 9, 10, 11, 12, 13, 14, 15, 16, 17, 18, 19, 20, 21, 22, 23, 24, 25, 26, 27, 28, 29, 30, 31, 32, 33, 34, 35, 36, 37, 38, 39, 40, 41, 42, 43, 44, 45, 46, 47, 48, 49, 50, 51, 52, 53, 54, 55, 56, 57, 58, 59, 60, 61, 62, 63, 64, 65, 66, 67, 68, 69, 70, 71, 72, 73, 74, 75, 76, 77, 78, 79, 80, 81, 82, 83, 84, 85, 86, 87, 88, 89, 90, 91, 92, 93, 94, 95, 96, 97, 98, 99, 100, 101, 102, 103, 104, 105, 106, 107, 108, 109, 110, 111, 112, 113, 114, 115, 116, 117, 118, 119, 120, 121, 122, 123, 124, 125, 126, 127, 128, 129, 130, 131, 132, 133, 134, 135, 136, 137, 138, 139, 140, 141, 142, 143, 144, 145, 146, 147, 148, 149, 150, 151, 152, 153, 154, 155, 156, 157, 158, 159, 160, 161, 162, 163, 164, 165, 166, 167, 168, 169, 170, 171, 172, 173, 174, 175, 176, 177, 178, 179, 180, 181, 182, 183, 184, 185, 186, 187, 188, 189, 190, 191, 192, 193, 194, 195, 196, 197, 198, 199, 200],
      "LargestImagePixelValue": [2408, 2407, 2408, 2410, 2405, 2408, 2408, 2405, 2406, 2404, 2405, 2409, 2408, 2405, 2405, 2411, 2406, 2407, 2414, 2407, 2409, 2407, 2409, 2409, 2409, 2413, 2408, 2409, 2411, 2413, 2408, 2411, 2409, 2409, 2413, 2408, 2409, 2408, 2405, 2409, 2407, 2406, 2408, 2406, 2408, 2407, 2409, 2406, 2406, 2410, 2408, 2412, 2409, 2407, 2408, 2405, 2407, 2407, 2405, 2406, 2410, 2408, 2410, 2406, 2407, 2408, 2411, 2411, 2412, 2413, 2410, 2407, 2409, 2412, 2413, 2411, 2405, 2411, 2411, 2408, 2408, 2406, 2408, 2407, 2409, 2408, 2407, 2409, 2406, 2408, 2412, 2407, 2409, 2409, 2410, 2409, 2406, 2406, 2410, 2408, 2402, 2409, 2405, 2406, 2412, 2406, 2410, 2408, 2411, 2410, 2409, 2406, 2408, 2409, 2407, 2410, 2407, 2413, 2409, 2410, 2407, 2408, 2407, 2407, 2410, 2410, 2405, 2409, 2405, 2407, 2410, 2407, 2408, 2406, 2411, 2408, 2409, 2405, 2410, 2409, 2409, 2406, 2410, 2407, 2409, 2409, 2411, 2405, 2405, 2411, 2410, 2410, 2407, 2406, 2412, 2405, 2411, 2407, 2412, 2408, 2409, 2410, 2408, 2408, 2410, 2408, 2407, 2412, 2405, 2407, 2412, 2411, 2405, 2404, 2406, 2408, 2410, 2411, 2410, 2412, 2407, 2404, 2404, 2409, 2405, 2405, 2411, 2412, 2410, 2405, 2408, 2403, 2409, 2406, 2410, 2410, 2408, 2408, 2411, 2412],
      "WindowCenter": [975.0, 975.0, 974.0, 975.0, 975.0, 975.0, 975.0, 975.0, 975.0, 974.0, 975.0, 974.0, 974.0, 974.0, 975.0, 974.0, 975.0, 975.0, 975.0, 976.0, 975.0, 975.0, 975.0, 975.0, 975.0, 975.0, 975.0, 975.0, 975.0, 975.0, 975.0, 974.0, 974.0, 974.0, 974.0, 975.0, 975.0, 975.0, 975.0, 974.0, 975.0, 974.0, 975.0, 975.0, 974.0, 975.0, 975.0, 974.0, 976.0, 975.0, 974.0, 974.0, 975.0, 974.0, 974.0, 975.0, 974.0, 975.0, 975.0, 975.0, 975.0, 975.0, 975.0, 975.0, 974.0, 974.0, 974.0, 975.0, 974.0, 974.0, 975.0, 975.0, 976.0, 975.0, 975.0, 975.0, 975.0, 976.0, 975.0, 975.0, 975.0, 974.0, 974.0, 975.0, 975.0, 975.0, 975.0, 975.0, 974.0, 975.0, 975.0, 974.0, 975.0, 975.0, 975.0, 975.0, 975.0, 975.0, 975.0, 975.0, 975.0, 975.0, 975.0, 974.0, 975.0, 974.0, 974.0, 975.0, 975.0, 975.0, 975.0, 975.0, 974.0, 974.0, 974.0, 975.0, 975.0, 975.0, 975.0, 974.0, 975.0, 975.0, 975.0, 975.0, 975.0, 975.0, 975.0, 975.0, 975.0, 975.0, 975.0, 975.0, 974.0, 975.0, 974.0, 975.0, 976.0, 975.0, 975.0, 975.0, 975.0, 974.0, 974.0, 974.0, 975.0, 975.0, 974.0, 974.0, 975.0, 975.0, 975.0, 975.0, 974.0, 974.0, 975.0, 974.0, 975.0, 975.0, 975.0, 975.0, 975.0, 975.0, 975.0, 974.0, 975.0, 975.0, 975.0, 974.0, 976.0, 975.0, 975.0, 974.0, 975.0, 976.0, 974.0, 975.0, 974.0, 975.0, 975.0, 975.0, 975.0, 975.0, 975.0, 974.0, 975.0, 974.0, 976.0, 975.0, 974.0, 975.0, 975.0, 975.0, 974.0, 975.0, 975.0, 974.0, 974.0, 975.0, 975.0, 975.0],
      "WindowWidth": [2307.0, 2307.0, 2306.0, 2307.0, 2307.0, 2307.0, 2307.0, 2307.0, 2307.0, 2306.0, 2307.0, 2306.0, 2306.0, 2306.0, 2307.0, 2306.0, 2307.0, 2307.0, 2307.0, 2307.0, 2307.0, 2307.0, 2307.0, 2307.0, 2307.0, 2307.0, 2307.0, 2307.0, 2307.0, 2307.0, 2307.0, 2306.0, 2306.0, 2306.0, 2306.0, 2307.0, 2307.0, 2307.0, 2307.0, 2306.0, 2307.0, 2306.0, 2307.0, 2307.0, 2307.0, 2307.0, 2307.0, 2306.0, 2308.0, 2307.0, 2306.0, 2306.0, 2307.0, 2307.0, 2306.0, 2307.0, 2306.0, 2307.0, 2307.0, 2307.0, 2307.0, 2307.0, 2307.0, 2307.0, 2307.0, 2306.0, 2307.0, 2307.0, 2307.0, 2307.0, 2307.0, 2307.0, 2308.0, 2307.0, 2307.0, 2307.0, 2307.0, 2308.0, 2307.0, 2307.0, 2307.0, 2306.0, 2307.0, 2307.0, 2307.0, 2307.0, 2307.0, 2307.0, 2307.0, 2307.0, 2307.0, 2306.0, 2307.0, 2307.0, 2307.0, 2307.0, 2307.0, 2307.0, 2307.0, 2307.0, 2307.0, 2307.0, 2307.0, 2306.0, 2307.0, 2306.0, 2306.0, 2307.0, 2307.0, 2307.0, 2307.0, 2307.0, 2306.0, 2306.0, 2306.0, 2307.0, 2307.0, 2307.0, 2307.0, 2306.0, 2307.0, 2307.0, 2307.0, 2307.0, 2307.0, 2307.0, 2307.0, 2307.0, 2307.0, 2307.0, 2307.0, 2307.0, 2306.0, 2307.0, 2306.0, 2307.0, 2308.0, 2307.0, 2307.0, 2307.0, 2307.0, 2306.0, 2306.0, 2306.0, 2307.0, 2307.0, 2306.0, 2306.0, 2307.0, 2307.0, 2307.0, 2307.0, 2306.0, 2306.0, 2307.0, 2306.0, 2307.0, 2307.0, 2307.0, 2307.0, 2307.0, 2307.0, 2307.0, 2306.0, 2307.0, 2307.0, 2307.0, 2306.0, 2308.0, 2307.0, 2307.0, 2306.0, 2307.0, 2308.0, 2306.0, 2307.0, 2306.0, 2307.0, 2307.0, 2307.0, 2307.0, 2307.0, 2307.0, 2306.0, 2307.0, 2306.0, 2307.0, 2307.0, 2306.0, 2307.0, 2307.0, 2306.0, 2306.0, 2306.0, 2307.0, 2306.0, 2306.0, 2306.0, 2307.0, 2306.0]
    },
    "slices": {}
  }
}