{
  "AcquisitionMatrixPE": 122,
  "AcquisitionNumber": 1,
  "AcquisitionTime": "10:18:35.067500",
  "BandwidthPerPixelPhaseEncode": 28.76,
  "BaseResolution": 122,
  "BodyPartExamined": "BRAIN",
  "CoilCombinationMethod": "Adaptive Combine",
  "ConsistencyInfo": "N4_VE11C_LATEST_20160120",
  "ConversionSoftware": "dcm2niix",
  "ConversionSoftwareVersion": "v1.0.20220720",
  "DerivedVendorReportedEchoSpacing": 0.000570008,
  "DeviceSerialNumber": "66112",
  "DiffusionScheme": "Monopolar",
  "DwellTime": 2e-06,
  "EchoTime": 0.075,
  "EchoTrainLength": 61,
  "EffectiveEchoSpacing": 0.000285004,
  "FlipAngle": 90,
  "HeudiconvVersion": "0.13.1",
  "ImageOrientationPatientDICOM": [0.988116, 0.153352, 0.0105209, -0.149086, 0.939462, 0.308519],
  "ImageOrientationText": "Tra>Cor(17.9)>Sag(-2.1)",
  "ImageType": [
    "ORIGINAL",
    "PRIMARY",
    "DIFFUSION",
    "NONE",
    "ND",
    "NORM"
],
  "ImagingFrequency": 123.252,
  "InPlanePhaseEncodingDirectionDICOM": "COL",
  "InstitutionAddress": "Maynard 3,Hanover,NH,US,03755",
  "InstitutionName": "Dartmouth College - PBS",
  "InstitutionalDepartmentName": "Department",
  "MRAcquisitionType": "2D",
  "MagneticFieldStrength": 3,
  "Manufacturer": "Siemens",
  "ManufacturersModelName": "Prisma",
  "MatrixCoilMode": "GRAPPA",
  "Modality": "MR",
  "NonlinearGradientCorrection": false,
  "ParallelReductionFactorInPlane": 2,
  "PartialFourier": 1,
  "PatientPosition": "HFS",
  "PercentPhaseFOV": 100,
  "PercentSampling": 100,
  "PhaseEncodingDirection": "j-",
  "PhaseEncodingSteps": 122,
  "PhaseResolution": 1,
  "PixelBandwidth": 2050,
  "ProcedureStepDescription": "dbic^QA",
  "ProtocolName": "dwi_acq-DTI-30-p2",
  "PulseSequenceDetails": "%SiemensSeq%\\ep2d_diff",
  "ReceiveCoilActiveElements": "HEA;HEP",
  "ReceiveCoilName": "Head_32",
  "ReconMatrixPE": 122,
  "RefLinesPE": 38,
  "RepetitionTime": 7.7,
  "SAR": 0.102113,
  "ScanOptions": "FS",
  "ScanningSequence": "EP",
  "SequenceName": "*ep_b0",
  "SequenceVariant": "SK\\SP",
  "SeriesDescription": "dwi_acq-DTI-30-p2",
  "SeriesNumber": 12,
  "ShimSetting": [4144, -7698, -7517, 280, -75, -116, -41, 68],
  "SliceThickness": 2,
  "SliceTiming": [3.84375, 0, 3.95312, 0.10938, 4.0625, 0.21875, 4.17188, 0.32812, 4.28125, 0.4375, 4.39062, 0.54688, 4.5, 0.65625, 4.60938, 0.76562, 4.71875, 0.875, 4.82812, 0.99219, 4.9375, 1.10156, 5.04688, 1.21094, 5.15625, 1.3125, 5.26562, 1.42969, 5.375, 1.53906, 5.48438, 1.64844, 5.59375, 1.75781, 5.70312, 1.86719, 5.8125, 1.97656, 5.92969, 2.08594, 6.03125, 2.19531, 6.14062, 2.30469, 6.25, 2.41406, 6.36719, 2.52344, 6.47656, 2.63281, 6.58594, 2.74219, 6.69531, 2.85156, 6.80469, 2.96094, 6.91406, 3.07031, 7.02344, 3.17969, 7.13281, 3.28906, 7.24219, 3.39844, 7.35156, 3.50781, 7.46094, 3.61719, 7.57031, 3.73438],
  "SoftwareVersions": "syngo MR E11",
  "SpacingBetweenSlices": 2,
  "SpoilingState": true,
  "StationName": "AWP66112",
  "TotalReadoutTime": 0.0344855,
  "TxRefAmp": 223.074,
  "dcmmeta_affine": [
    [-1.9438341856002808, -0.2932833135128021, -0.07485592365264893, 142.80775451660156],
    [-0.3016752302646637, 1.8481223583221436, 0.6128425598144531, -105.89295959472656],
    [0.020696794614195824, -0.606923520565033, 1.9023208618164062, -35.52785873413086],
    [0.0, 0.0, 0.0, 1.0]
],
  "dcmmeta_reorient_transform": [
    [0.0, -1.0, 0.0, 121.0],
    [1.0, 0.0, 0.0, 0.0],
    [0.0, 0.0, -1.0, 69.0],
    [0.0, 0.0, 0.0, 1.0]
],
  "dcmmeta_shape": [122, 122, 70, 31],
  "dcmmeta_slice_dim": 2,
  "dcmmeta_version": 0.6,
  "global": {
    "const": {
      "AccessionNumber": "qa",
      "AcquisitionMatrix": [122, 0, 0, 122],
      "AngioFlag": "N",
      "BitsAllocated": 16,
      "BitsStored": 12,
      "BodyPartExamined": "BRAIN",
      "Columns": 122,
      "EchoNumbers": 1,
      "EchoTime": 75.0,
      "EchoTrainLength": 61,
      "FlipAngle": 90.0,
      "HighBit": 11,
      "ImageOrientationPatient": [0.98811568415632, 0.15335157645514, 0.0105208708294, -0.1490856831455, 0.93946219522147, 0.30851943671458],
      "ImageType": [
        "ORIGINAL",
        "PRIMARY",
        "DIFFUSION",
        "NONE",
        "ND",
        "NORM"
],
      "ImagedNucleus": "1H",
      "ImagingFrequency": 123.252363,
      "InPlanePhaseEncodingDirection": "COL",
      "MRAcquisitionType": "2D",
      "MagneticFieldStrength": 3.0,
      "Manufacturer": "SIEMENS",
      "ManufacturerModelName": "Prisma",
      "Modality": "MR",
      "NumberOfAverages": 1.0,
      "NumberOfPhaseEncodingSteps": 122,
      "PercentPhaseFieldOfView": 100.0,
      "PercentSampling": 100.0,
      "PerformedProcedureStepStartTime": "094602.676000",
      "PhotometricInterpretation": "MONOCHROME2",
      "PixelBandwidth": 2050.0,
      "PixelRepresentation": 0,
      "PixelSpacing": [1.9672131538391, 1.9672131538391],
      "ProtocolName": "dwi_acq-DTI-30-p2",
      "RepetitionTime": 7700.0,
      "Rows": 122,
      "SAR": 0.10211329930708,
      "SamplesPerPixel": 1,
      "ScanOptions": "FS",
      "ScanningSequence": "EP",
      "SequenceVariant": [
        "SK",
        "SP"
],
      "SeriesDescription": "dwi_acq-DTI-30-p2",
      "SeriesNumber": 12,
      "SeriesTime": "101853.568000",
      "SliceThickness": 2.0,
      "SmallestImagePixelValue": 0,
      "SoftwareVersions": "syngo MR E11",
      "SpacingBetweenSlices": 2.0,
      "SpecificCharacterSet": "ISO_IR 100",
      "StudyID": "15",
      "StudyTime": "094602.614000",
      "TransmitCoilName": "Body",
      "VariableFlipAngleFlag": "N",
      "WindowCenterWidthExplanation": "Algo1",
      "dBdt": 0.0},
    "slices": {
      "AcquisitionTime": ["101835.067500", "101831.227500", "101835.177500", "101831.337500", "101835.287500", "101831.447500", "101835.395000", "101831.555000", "101835.505000", "101831.665000", "101835.615000", "101831.775000", "101835.725000", "101831.885000", "101835.835000", "101831.995000", "101835.945000", "101832.105000", "101836.055000", "101832.215000", "101836.165000", "101832.325000", "101836.272500", "101832.435000", "101836.382500", "101832.542500", "101836.492500", "101832.652500", "101836.602500", "101832.762500", "101836.712500", "101832.872500", "101836.822500", "101832.982500", "101836.932500", "101833.092500", "101837.042500", "101833.202500", "101837.152500", "101833.312500", "101837.260000", "101833.420000", "101837.370000", "101833.530000", "101837.480000", "101833.640000", "101837.590000", "101833.750000", "101837.700000", "101833.860000", "101837.810000", "101833.970000", "101837.920000", "101834.080000", "101838.030000", "101834.190000", "101838.137500", "101834.300000", "101838.247500", "101834.407500", "101838.357500", "101834.517500", "101838.467500", "101834.627500", "101838.577500", "101834.737500", "101838.687500", "101834.847500", "101838.797500", "101834.957500", "101842.767500", "101838.927500", "101842.877500", "101839.037500", "101842.987500", "101839.147500", "101843.095000", "101839.255000", "101843.205000", "101839.365000", "101843.315000", "101839.475000", "101843.425000", "101839.585000", "101843.535000", "101839.695000", "101843.645000", "101839.805000", "101843.755000", "101839.915000", "101843.865000", "101840.025000", "101843.972500", "101840.135000", "101844.082500", "101840.242500", "101844.192500", "101840.352500", "101844.302500", "101840.462500", "101844.412500", "101840.572500", "101844.522500", "101840.682500", "101844.632500", "101840.792500", "101844.742500", "101840.902500", "101844.852500", "101841.012500", "101844.960000", "101841.120000", "101845.070000", "101841.230000", "101845.180000", "101841.340000", "101845.290000", "101841.450000", "101845.400000", "101841.560000", "101845.510000", "101841.670000", "101845.620000", "101841.780000", "101845.730000", "101841.890000", "101845.837500", "101842.000000", "101845.947500", "101842.107500", "101846.057500", "101842.217500", "101846.167500", "101842.327500", "101846.277500", "101842.437500", "101846.387500", "101842.547500", "101846.497500", "101842.657500", "101850.467500", "101846.627500", "101850.577500", "101846.737500", "101850.687500", "101846.847500", "101850.795000", "101846.955000", "101850.905000", "101847.065000", "101851.015000", "101847.175000", "101851.125000", "101847.285000", "101851.235000", "101847.395000", "101851.345000", "101847.505000", "101851.455000", "101847.615000", "101851.565000", "101847.725000", "101851.672500", "101847.835000", "101851.782500", "101847.942500", "101851.892500", "101848.052500", "101852.002500", "101848.162500", "101852.112500", "101848.272500", "101852.222500", "101848.382500", "101852.332500", "101848.492500", "101852.442500", "101848.602500", "101852.552500", "101848.712500", "101852.660000", "101848.820000", "101852.770000", "101848.930000", "101852.880000", "101849.040000", "101852.990000", "101849.150000", "101853.100000", "101849.260000", "101853.210000", "101849.370000", "101853.320000", "101849.480000", "101853.430000", "101849.590000", "101853.537500", "101849.700000", "101853.647500", "101849.807500", "101853.757500", "101849.917500", "101853.867500", "101850.027500", "101853.977500", "101850.137500", "101854.087500", "101850.247500", "101854.197500", "101850.357500", "101858.167500", "101854.327500", "101858.277500", "101854.437500", "101858.387500", "101854.547500", "101858.495000", "101854.655000", "101858.605000", "101854.765000", "101858.715000", "101854.875000", "101858.825000", "101854.985000", "101858.935000", "101855.095000", "101859.045000", "101855.205000", "101859.155000", "101855.315000", "101859.265000", "101855.425000", "101859.372500", "101855.535000", "101859.482500", "101855.642500", "101859.592500", "101855.752500", "101859.702500", "101855.862500", "101859.812500", "101855.972500", "101859.922500", "101856.082500", "101900.032500", "101856.192500", "101900.142500", "101856.302500", "101900.252500", "101856.412500", "101900.360000", "101856.520000", "101900.470000", "101856.630000", "101900.580000", "101856.740000", "101900.690000", "101856.850000", "101900.800000", "101856.960000", "101900.910000", "101857.070000", "101901.020000", "101857.180000", "101901.130000", "101857.290000", "101901.237500", "101857.400000", "101901.347500", "101857.507500", "101901.457500", "101857.617500", "101901.567500", "101857.727500", "101901.677500", "101857.837500", "101901.787500", "101857.947500", "101901.897500", "101858.057500", "101905.867500", "101902.027500", "101905.977500", "101902.137500", "101906.087500", "101902.247500", "101906.195000", "101902.355000", "101906.305000", "101902.465000", "101906.415000", "101902.575000", "101906.525000", "101902.685000", "101906.635000", "101902.795000", "101906.745000", "101902.905000", "101906.855000", "101903.015000", "101906.965000", "101903.125000", "101907.072500", "101903.235000", "101907.182500", "101903.342500", "101907.292500", "101903.452500", "101907.402500", "101903.562500", "101907.512500", "101903.672500", "101907.622500", "101903.782500", "101907.732500", "101903.892500", "101907.842500", "101904.002500", "101907.952500", "101904.112500", "101908.060000", "101904.220000", "101908.170000", "101904.330000", "101908.280000", "101904.440000", "101908.390000", "101904.550000", "101908.500000", "101904.660000", "101908.610000", "101904.770000", "101908.720000", "101904.880000", "101908.830000", "101904.990000", "101908.937500", "101905.100000", "101909.047500", "101905.207500", "101909.157500", "101905.317500", "101909.267500", "101905.427500", "101909.377500", "101905.537500", "101909.487500", "101905.647500", "101909.597500", "101905.757500", "101913.567500", "101909.727500", "101913.677500", "101909.837500", "101913.787500", "101909.947500", "101913.895000", "101910.055000", "101914.005000", "101910.165000", "101914.115000", "101910.275000", "101914.225000", "101910.385000", "101914.335000", "101910.495000", "101914.445000", "101910.605000", "101914.555000", "101910.715000", "101914.665000", "101910.825000", "101914.772500", "101910.935000", "101914.882500", "101911.042500", "101914.992500", "101911.152500", "101915.102500", "101911.262500", "101915.212500", "101911.372500", "101915.322500", "101911.482500", "101915.432500", "101911.592500", "101915.542500", "101911.702500", "101915.652500", "101911.812500", "101915.760000", "101911.920000", "101915.870000", "101912.030000", "101915.980000", "101912.140000", "101916.090000", "101912.250000", "101916.200000", "101912.360000", "101916.310000", "101912.470000", "101916.420000", "101912.580000", "101916.530000", "101912.690000", "101916.637500", "101912.800000", "101916.747500", "101912.907500", "101916.857500", "101913.017500", "101916.967500", "101913.127500", "101917.077500", "101913.237500", "101917.187500", "101913.347500", "101917.297500", "101913.457500", "101921.267500", "101917.427500", "101921.377500", "101917.537500", "101921.487500", "101917.647500", "101921.595000", "101917.755000", "101921.705000", "101917.865000", "101921.815000", "101917.975000", "101921.925000", "101918.085000", "101922.035000", "101918.195000", "101922.145000", "101918.305000", "101922.255000", "101918.415000", "101922.365000", "101918.525000", "101922.472500", "101918.635000", "101922.582500", "101918.742500", "101922.692500", "101918.852500", "101922.802500", "101918.962500", "101922.912500", "101919.072500", "101923.022500", "101919.182500", "101923.132500", "101919.292500", "101923.242500", "101919.402500", "101923.352500", "101919.512500", "101923.460000", "101919.620000", "101923.570000", "101919.730000", "101923.680000", "101919.840000", "101923.790000", "101919.950000", "101923.900000", "101920.060000", "101924.010000", "101920.170000", "101924.120000", "101920.280000", "101924.230000", "101920.390000", "101924.337500", "101920.500000", "101924.447500", "101920.607500", "101924.557500", "101920.717500", "101924.667500", "101920.827500", "101924.777500", "101920.937500", "101924.887500", "101921.047500", "101924.997500", "101921.157500", "101928.967500", "101925.127500", "101929.077500", "101925.237500", "101929.187500", "101925.347500", "101929.295000", "101925.455000", "101929.405000", "101925.565000", "101929.515000", "101925.675000", "101929.625000", "101925.785000", "101929.735000", "101925.895000", "101929.845000", "101926.005000", "101929.955000", "101926.115000", "101930.065000", "101926.225000", "101930.172500", "101926.335000", "101930.282500", "101926.442500", "101930.392500", "101926.552500", "101930.502500", "101926.662500", "101930.612500", "101926.772500", "101930.722500", "101926.882500", "101930.832500", "101926.992500", "101930.942500", "101927.102500", "101931.052500", "101927.212500", "101931.160000", "101927.320000", "101931.270000", "101927.430000", "101931.380000", "101927.540000", "101931.490000", "101927.650000", "101931.600000", "101927.760000", "101931.710000", "101927.870000", "101931.820000", "101927.980000", "101931.930000", "101928.090000", "101932.037500", "101928.200000", "101932.147500", "101928.307500", "101932.257500", "101928.417500", "101932.367500", "101928.527500", "101932.477500", "101928.637500", "101932.587500", "101928.747500", "101932.697500", "101928.857500", "101936.667500", "101932.827500", "101936.777500", "101932.937500", "101936.887500", "101933.047500", "101936.995000", "101933.155000", "101937.105000", "101933.265000", "101937.215000", "101933.375000", "101937.325000", "101933.485000", "101937.435000", "101933.595000", "101937.545000", "101933.705000", "101937.655000", "101933.815000", "101937.765000", "101933.925000", "101937.872500", "101934.035000", "101937.982500", "101934.142500", "101938.092500", "101934.252500", "101938.202500", "101934.362500", "101938.312500", "101934.472500", "101938.422500", "101934.582500", "101938.532500", "101934.692500", "101938.642500", "101934.802500", "101938.752500", "101934.912500", "101938.860000", "101935.020000", "101938.970000", "101935.130000", "101939.080000", "101935.240000", "101939.190000", "101935.350000", "101939.300000", "101935.460000", "101939.410000", "101935.570000", "101939.520000", "101935.680000", "101939.630000", "101935.790000", "101939.737500", "101935.900000", "101939.847500", "101936.007500", "101939.957500", "101936.117500", "101940.067500", "101936.227500", "101940.177500", "101936.337500", "101940.287500", "101936.447500", "101940.397500", "101936.557500", "101944.367500", "101940.527500", "101944.477500", "101940.637500", "101944.587500", "101940.747500", "101944.695000", "101940.855000", "101944.805000", "101940.965000", "101944.915000", "101941.075000", "101945.025000", "101941.185000", "101945.135000", "101941.295000", "101945.245000", "101941.405000", "101945.355000", "101941.515000", "101945.465000", "101941.625000", "101945.572500", "101941.735000", "101945.682500", "101941.842500", "101945.792500", "101941.952500", "101945.902500", "101942.062500", "101946.012500", "101942.172500", "101946.122500", "101942.282500", "101946.232500", "101942.392500", "101946.342500", "101942.502500", "101946.452500", "101942.612500", "101946.560000", "101942.720000", "101946.670000", "101942.830000", "101946.780000", "101942.940000", "101946.890000", "101943.050000", "101947.000000", "101943.160000", "101947.110000", "101943.270000", "101947.220000", "101943.380000", "101947.330000", "101943.490000", "101947.437500", "101943.600000", "101947.547500", "101943.707500", "101947.657500", "101943.817500", "101947.767500", "101943.927500", "101947.877500", "101944.037500", "101947.987500", "101944.147500", "101948.097500", "101944.257500", "101952.067500", "101948.227500", "101952.177500", "101948.337500", "101952.287500", "101948.447500", "101952.395000", "101948.555000", "101952.505000", "101948.665000", "101952.615000", "101948.775000", "101952.725000", "101948.885000", "101952.835000", "101948.995000", "101952.945000", "101949.105000", "101953.055000", "101949.215000", "101953.165000", "101949.325000", "101953.272500", "101949.435000", "101953.382500", "101949.542500", "101953.492500", "101949.652500", "101953.602500", "101949.762500", "101953.712500", "101949.872500", "101953.822500", "101949.982500", "101953.932500", "101950.092500", "101954.042500", "101950.202500", "101954.152500", "101950.312500", "101954.260000", "101950.420000", "101954.370000", "101950.530000", "101954.480000", "101950.640000", "101954.590000", "101950.750000", "101954.700000", "101950.860000", "101954.810000", "101950.970000", "101954.920000", "101951.080000", "101955.030000", "101951.190000", "101955.137500", "101951.300000", "101955.247500", "101951.407500", "101955.357500", "101951.517500", "101955.467500", "101951.627500", "101955.577500", "101951.737500", "101955.687500", "101951.847500", "101955.797500", "101951.957500", "101959.767500", "101955.927500", "101959.877500", "101956.037500", "101959.987500", "101956.147500", "102000.095000", "101956.255000", "102000.205000", "101956.365000", "102000.315000", "101956.475000", "102000.425000", "101956.585000", "102000.535000", "101956.695000", "102000.645000", "101956.805000", "102000.755000", "101956.915000", "102000.865000", "101957.025000", "102000.972500", "101957.135000", "102001.082500", "101957.242500", "102001.192500", "101957.352500", "102001.302500", "101957.462500", "102001.412500", "101957.572500", "102001.522500", "101957.682500", "102001.632500", "101957.792500", "102001.742500", "101957.902500", "102001.852500", "101958.012500", "102001.960000", "101958.120000", "102002.070000", "101958.230000", "102002.180000", "101958.340000", "102002.290000", "101958.450000", "102002.400000", "101958.560000", "102002.510000", "101958.670000", "102002.620000", "101958.780000", "102002.730000", "101958.890000", "102002.837500", "101959.000000", "102002.947500", "101959.107500", "102003.057500", "101959.217500", "102003.167500", "101959.327500", "102003.277500", "101959.437500", "102003.387500", "101959.547500", "102003.497500", "101959.657500", "102007.467500", "102003.627500", "102007.577500", "102003.737500", "102007.687500", "102003.847500", "102007.795000", "102003.955000", "102007.905000", "102004.065000", "102008.015000", "102004.175000", "102008.125000", "102004.285000", "102008.235000", "102004.395000", "102008.345000", "102004.505000", "102008.455000", "102004.615000", "102008.565000", "102004.725000", "102008.672500", "102004.835000", "102008.782500", "102004.942500", "102008.892500", "102005.052500", "102009.002500", "102005.162500", "102009.112500", "102005.272500", "102009.222500", "102005.382500", "102009.332500", "102005.492500", "102009.442500", "102005.602500", "102009.552500", "102005.712500", "102009.660000", "102005.820000", "102009.770000", "102005.930000", "102009.880000", "102006.040000", "102009.990000", "102006.150000", "102010.100000", "102006.260000", "102010.210000", "102006.370000", "102010.320000", "102006.480000", "102010.430000", "102006.590000", "102010.537500", "102006.700000", "102010.647500", "102006.807500", "102010.757500", "102006.917500", "102010.867500", "102007.027500", "102010.977500", "102007.137500", "102011.087500", "102007.247500", "102011.197500", "102007.357500", "102015.167500", "102011.327500", "102015.277500", "102011.437500", "102015.387500", "102011.547500", "102015.495000", "102011.655000", "102015.605000", "102011.765000", "102015.715000", "102011.875000", "102015.825000", "102011.985000", "102015.935000", "102012.095000", "102016.045000", "102012.205000", "102016.155000", "102012.315000", "102016.265000", "102012.425000", "102016.372500", "102012.535000", "102016.482500", "102012.642500", "102016.592500", "102012.752500", "102016.702500", "102012.862500", "102016.812500", "102012.972500", "102016.922500", "102013.082500", "102017.032500", "102013.192500", "102017.142500", "102013.302500", "102017.252500", "102013.412500", "102017.360000", "102013.520000", "102017.470000", "102013.630000", "102017.580000", "102013.740000", "102017.690000", "102013.850000", "102017.800000", "102013.960000", "102017.910000", "102014.070000", "102018.020000", "102014.180000", "102018.130000", "102014.290000", "102018.237500", "102014.400000", "102018.347500", "102014.507500", "102018.457500", "102014.617500", "102018.567500", "102014.727500", "102018.677500", "102014.837500", "102018.787500", "102014.947500", "102018.897500", "102015.057500", "102022.867500", "102019.027500", "102022.977500", "102019.137500", "102023.087500", "102019.247500", "102023.195000", "102019.355000", "102023.305000", "102019.465000", "102023.415000", "102019.575000", "102023.525000", "102019.685000", "102023.635000", "102019.795000", "102023.745000", "102019.905000", "102023.855000", "102020.015000", "102023.965000", "102020.125000", "102024.072500", "102020.235000", "102024.182500", "102020.342500", "102024.292500", "102020.452500", "102024.402500", "102020.562500", "102024.512500", "102020.672500", "102024.622500", "102020.782500", "102024.732500", "102020.892500", "102024.842500", "102021.002500", "102024.952500", "102021.112500", "102025.060000", "102021.220000", "102025.170000", "102021.330000", "102025.280000", "102021.440000", "102025.390000", "102021.550000", "102025.500000", "102021.660000", "102025.610000", "102021.770000", "102025.720000", "102021.880000", "102025.830000", "102021.990000", "102025.937500", "102022.100000", "102026.047500", "102022.207500", "102026.157500", "102022.317500", "102026.267500", "102022.427500", "102026.377500", "102022.537500", "102026.487500", "102022.647500", "102026.597500", "102022.757500", "102030.567500", "102026.727500", "102030.677500", "102026.837500", "102030.787500", "102026.947500", "102030.895000", "102027.055000", "102031.005000", "102027.165000", "102031.115000", "102027.275000", "102031.225000", "102027.385000", "102031.335000", "102027.495000", "102031.445000", "102027.605000", "102031.555000", "102027.715000", "102031.665000", "102027.825000", "102031.772500", "102027.935000", "102031.882500", "102028.042500", "102031.992500", "102028.152500", "102032.102500", "102028.262500", "102032.212500", "102028.372500", "102032.322500", "102028.482500", "102032.432500", "102028.592500", "102032.542500", "102028.702500", "102032.652500", "102028.812500", "102032.760000", "102028.920000", "102032.870000", "102029.030000", "102032.980000", "102029.140000", "102033.090000", "102029.250000", "102033.200000", "102029.360000", "102033.310000", "102029.470000", "102033.420000", "102029.580000", "102033.530000", "102029.690000", "102033.637500", "102029.800000", "102033.747500", "102029.907500", "102033.857500", "102030.017500", "102033.967500", "102030.127500", "102034.077500", "102030.237500", "102034.187500", "102030.347500", "102034.297500", "102030.457500", "102038.267500", "102034.427500", "102038.377500", "102034.537500", "102038.487500", "102034.647500", "102038.595000", "102034.755000", "102038.705000", "102034.865000", "102038.815000", "102034.975000", "102038.925000", "102035.085000", "102039.035000", "102035.195000", "102039.145000", "102035.305000", "102039.255000", "102035.415000", "102039.365000", "102035.525000", "102039.472500", "102035.635000", "102039.582500", "102035.742500", "102039.692500", "102035.852500", "102039.802500", "102035.962500", "102039.912500", "102036.072500", "102040.022500", "102036.182500", "102040.132500", "102036.292500", "102040.242500", "102036.402500", "102040.352500", "102036.512500", "102040.460000", "102036.620000", "102040.570000", "102036.730000", "102040.680000", "102036.840000", "102040.790000", "102036.950000", "102040.900000", "102037.060000", "102041.010000", "102037.170000", "102041.120000", "102037.280000", "102041.230000", "102037.390000", "102041.337500", "102037.500000", "102041.447500", "102037.607500", "102041.557500", "102037.717500", "102041.667500", "102037.827500", "102041.777500", "102037.937500", "102041.887500", "102038.047500", "102041.997500", "102038.157500", "102045.967500", "102042.127500", "102046.077500", "102042.237500", "102046.187500", "102042.347500", "102046.295000", "102042.455000", "102046.405000", "102042.565000", "102046.515000", "102042.675000", "102046.625000", "102042.785000", "102046.735000", "102042.895000", "102046.845000", "102043.005000", "102046.955000", "102043.115000", "102047.065000", "102043.225000", "102047.172500", "102043.335000", "102047.282500", "102043.442500", "102047.392500", "102043.552500", "102047.502500", "102043.662500", "102047.612500", "102043.772500", "102047.722500", "102043.882500", "102047.832500", "102043.992500", "102047.942500", "102044.102500", "102048.052500", "102044.212500", "102048.160000", "102044.320000", "102048.270000", "102044.430000", "102048.380000", "102044.540000", "102048.490000", "102044.650000", "102048.600000", "102044.760000", "102048.710000", "102044.870000", "102048.820000", "102044.980000", "102048.930000", "102045.090000", "102049.037500", "102045.200000", "102049.147500", "102045.307500", "102049.257500", "102045.417500", "102049.367500", "102045.527500", "102049.477500", "102045.637500", "102049.587500", "102045.747500", "102049.697500", "102045.857500", "102053.667500", "102049.827500", "102053.777500", "102049.937500", "102053.887500", "102050.047500", "102053.995000", "102050.155000", "102054.105000", "102050.265000", "102054.215000", "102050.375000", "102054.325000", "102050.485000", "102054.435000", "102050.595000", "102054.545000", "102050.705000", "102054.655000", "102050.815000", "102054.765000", "102050.925000", "102054.872500", "102051.035000", "102054.982500", "102051.142500", "102055.092500", "102051.252500", "102055.202500", "102051.362500", "102055.312500", "102051.472500", "102055.422500", "102051.582500", "102055.532500", "102051.692500", "102055.642500", "102051.802500", "102055.752500", "102051.912500", "102055.860000", "102052.020000", "102055.970000", "102052.130000", "102056.080000", "102052.240000", "102056.190000", "102052.350000", "102056.300000", "102052.460000", "102056.410000", "102052.570000", "102056.520000", "102052.680000", "102056.630000", "102052.790000", "102056.737500", "102052.900000", "102056.847500", "102053.007500", "102056.957500", "102053.117500", "102057.067500", "102053.227500", "102057.177500", "102053.337500", "102057.287500", "102053.447500", "102057.397500", "102053.557500", "102101.367500", "102057.527500", "102101.477500", "102057.637500", "102101.587500", "102057.747500", "102101.695000", "102057.855000", "102101.805000", "102057.965000", "102101.915000", "102058.075000", "102102.025000", "102058.185000", "102102.135000", "102058.295000", "102102.245000", "102058.405000", "102102.355000", "102058.515000", "102102.465000", "102058.625000", "102102.572500", "102058.735000", "102102.682500", "102058.842500", "102102.792500", "102058.952500", "102102.902500", "102059.062500", "102103.012500", "102059.172500", "102103.122500", "102059.282500", "102103.232500", "102059.392500", "102103.342500", "102059.502500", "102103.452500", "102059.612500", "102103.560000", "102059.720000", "102103.670000", "102059.830000", "102103.780000", "102059.940000", "102103.890000", "102100.050000", "102104.000000", "102100.160000", "102104.110000", "102100.270000", "102104.220000", "102100.380000", "102104.330000", "102100.490000", "102104.437500", "102100.600000", "102104.547500", "102100.707500", "102104.657500", "102100.817500", "102104.767500", "102100.927500", "102104.877500", "102101.037500", "102104.987500", "102101.147500", "102105.097500", "102101.257500", "102109.067500", "102105.227500", "102109.177500", "102105.337500", "102109.287500", "102105.447500", "102109.395000", "102105.555000", "102109.505000", "102105.665000", "102109.615000", "102105.775000", "102109.725000", "102105.885000", "102109.835000", "102105.995000", "102109.945000", "102106.105000", "102110.055000", "102106.215000", "102110.165000", "102106.325000", "102110.272500", "102106.435000", "102110.382500", "102106.542500", "102110.492500", "102106.652500", "102110.602500", "102106.762500", "102110.712500", "102106.872500", "102110.822500", "102106.982500", "102110.932500"