{
  "AcquisitionMatrixPE": 122,
  "AcquisitionNumber": 1,
  "AcquisitionTime": "10:02:18.132500",
  "BandwidthPerPixelPhaseEncode": 28.76,
  "BaseResolution": 122,
  "BodyPartExamined": "BRAIN",
  "CoilCombinationMethod": "Adaptive Combine",
  "ConsistencyInfo": "N4_VE11C_LATEST_20160120",
  "ConversionSoftware": "dcm2niix",
  "ConversionSoftwareVersion": "v1.0.20220720",
  "DerivedVendorReportedEchoSpacing": 0.000570008,
  "DeviceSerialNumber": "66112",
  "DiffusionScheme": "Monopolar",
  "DwellTime": 2e-06,
  "EchoTime": 0.075,
  "EchoTrainLength": 61,
  "EffectiveEchoSpacing": 0.000285004,
  "FlipAngle": 90,
  "HeudiconvVersion": "0.13.1",
  "ImageOrientationPatientDICOM": [0.985137, 0.171523, 0.00922154, -0.166093, 0.937509, 0.305761],
  "ImageOrientationText": "Tra>Cor(17.6)>Sag(-2.5)",
  "ImageType": [
    "ORIGINAL",
    "PRIMARY",
    "DIFFUSION",
    "NONE",
    "ND",
    "NORM"
],
  "ImagingFrequency": 123.252,
  "InPlanePhaseEncodingDirectionDICOM": "COL",
  "InstitutionAddress": "Maynard 3,Hanover,NH,US,03755",
  "InstitutionName": "Dartmouth College - PBS",
  "InstitutionalDepartmentName": "Department",
  "MRAcquisitionType": "2D",
  "MagneticFieldStrength": 3,
  "Manufacturer": "Siemens",
  "ManufacturersModelName": "Prisma",
  "MatrixCoilMode": "GRAPPA",
  "Modality": "MR",
  "NonlinearGradientCorrection": false,
  "ParallelReductionFactorInPlane": 2,
  "PartialFourier": 1,
  "PatientPosition": "HFS",
  "PercentPhaseFOV": 100,
  "PercentSampling": 100,
  "PhaseEncodingDirection": "j-",
  "PhaseEncodingSteps": 122,
  "PhaseResolution": 1,
  "PixelBandwidth": 2050,
  "ProcedureStepDescription": "dbic^QA",
  "ProtocolName": "dwi_acq-DTI-30-p2",
  "PulseSequenceDetails": "%SiemensSeq%\\ep2d_diff",
  "ReceiveCoilActiveElements": "HEA;HEP",
  "ReceiveCoilName": "Head_32",
  "ReconMatrixPE": 122,
  "RefLinesPE": 38,
  "RepetitionTime": 7.7,
  "SAR": 0.101827,
  "ScanOptions": "FS",
  "ScanningSequence": "EP",
  "SequenceName": "*ep_b0",
  "SequenceVariant": "SK\\SP",
  "SeriesDescription": "dwi_acq-DTI-30-p2",
  "SeriesNumber": 12,
  "ShimSetting": [4147, -7704, -7510, 254, -60, -110, -6, 47],
  "SliceThickness": 2,
  "SliceTiming": [3.84375, 0, 3.95312, 0.11719, 4.0625, 0.22656, 4.17188, 0.33594, 4.28125, 0.4375, 4.39062, 0.55469, 4.5, 0.66406, 4.60938, 0.77344, 4.71875, 0.88281, 4.82812, 0.99219, 4.9375, 1.10156, 5.05469, 1.21094, 5.15625, 1.32031, 5.26562, 1.42969, 5.375, 1.53906, 5.49219, 1.64844, 5.60156, 1.75781, 5.71094, 1.86719, 5.82031, 1.97656, 5.92969, 2.08594, 6.03906, 2.19531, 6.14844, 2.30469, 6.25781, 2.41406, 6.36719, 2.52344, 6.47656, 2.63281, 6.58594, 2.74219, 6.69531, 2.85938, 6.80469, 2.96875, 6.91406, 3.07812, 7.02344, 3.17969, 7.13281, 3.29688, 7.24219, 3.40625, 7.35156, 3.51562, 7.46094, 3.625, 7.57031, 3.73438],
  "SoftwareVersions": "syngo MR E11",
  "SpacingBetweenSlices": 2,
  "SpoilingState": true,
  "StationName": "AWP66112",
  "TotalReadoutTime": 0.0344855,
  "TxRefAmp": 233.503,
  "dcmmeta_affine": [
    [-1.937974214553833, -0.32674020528793335, -0.08759987354278564, 144.4248809814453],
    [-0.3374229967594147, 1.8442801237106323, 0.6054954528808594, -102.52027130126953],
    [0.018140725791454315, -0.6014976501464844, 1.9041213989257812, -22.7585391998291],
    [0.0, 0.0, 0.0, 1.0]
],
  "dcmmeta_reorient_transform": [
    [0.0, -1.0, 0.0, 121.0],
    [1.0, 0.0, 0.0, 0.0],
    [0.0, 0.0, -1.0, 69.0],
    [0.0, 0.0, 0.0, 1.0]
],
  "dcmmeta_shape": [122, 122, 70, 31],
  "dcmmeta_slice_dim": 2,
  "dcmmeta_version": 0.6,
  "global": {
    "const": {
      "AccessionNumber": "qa",
      "AcquisitionMatrix": [122, 0, 0, 122],
      "AngioFlag": "N",
      "BitsAllocated": 16,
      "BitsStored": 12,
      "BodyPartExamined": "BRAIN",
      "Columns": 122,
      "EchoNumbers": 1,
      "EchoTime": 75.0,
      "EchoTrainLength": 61,
      "FlipAngle": 90.0,
      "HighBit": 11,
      "ImageOrientationPatient": [0.98513689621992, 0.17152334825148, 0.00922153516443, -0.1660929312963, 0.93750902048568, 0.30576130344011],
      "ImageType": [
        "ORIGINAL",
        "PRIMARY",
        "DIFFUSION",
        "NONE",
        "ND",
        "NORM"
],
      "ImagedNucleus": "1H",
      "ImagingFrequency": 123.252388,
      "InPlanePhaseEncodingDirection": "COL",
      "MRAcquisitionType": "2D",
      "MagneticFieldStrength": 3.0,
      "Manufacturer": "SIEMENS",
      "ManufacturerModelName": "Prisma",
      "Modality": "MR",
      "NumberOfAverages": 1.0,
      "NumberOfPhaseEncodingSteps": 122,
      "PercentPhaseFieldOfView": 100.0,
      "PercentSampling": 100.0,
      "PerformedProcedureStepStartTime": "092925.352000",
      "PhotometricInterpretation": "MONOCHROME2",
      "PixelBandwidth": 2050.0,
      "PixelRepresentation": 0,
      "PixelSpacing": [1.9672131538391, 1.9672131538391],
      "ProtocolName": "dwi_acq-DTI-30-p2",
      "RepetitionTime": 7700.0,
      "Rows": 122,
      "SAR": 0.10182746509923,
      "SamplesPerPixel": 1,
      "ScanOptions": "FS",
      "ScanningSequence": "EP",
      "SequenceVariant": [
        "SK",
        "SP"
],
      "SeriesDescription": "dwi_acq-DTI-30-p2",
      "SeriesNumber": 12,
      "SeriesTime": "100218.614000",
      "SliceThickness": 2.0,
      "SmallestImagePixelValue": 0,
      "SoftwareVersions": "syngo MR E11",
      "SpacingBetweenSlices": 2.0,
      "SpecificCharacterSet": "ISO_IR 100",
      "StudyID": "5",
      "StudyTime": "092925.300000",
      "TransmitCoilName": "Body",
      "VariableFlipAngleFlag": "N",
      "WindowCenterWidthExplanation": "Algo1",
      "dBdt": 0.0},
    "slices": {
      "AcquisitionTime": ["100218.132500", "100214.292500", "100218.242500", "100214.402500", "100218.352500", "100214.512500", "100218.460000", "100214.622500", "100218.570000", "100214.730000", "100218.680000", "100214.840000", "100218.790000", "100214.950000", "100218.900000", "100215.060000", "100219.010000", "100215.170000", "100219.120000", "100215.280000", "100219.230000", "100215.390000", "100219.340000", "100215.500000", "100219.447500", "100215.607500", "100219.557500", "100215.717500", "100219.667500", "100215.827500", "100219.777500", "100215.937500", "100219.887500", "100216.047500", "100219.997500", "100216.157500", "100220.107500", "100216.267500", "100220.217500", "100216.377500", "100220.325000", "100216.487500", "100220.435000", "100216.595000", "100220.545000", "100216.705000", "100220.655000", "100216.815000", "100220.765000", "100216.925000", "100220.875000", "100217.035000", "100220.985000", "100217.145000", "100221.095000", "100217.255000", "100221.205000", "100217.365000", "100221.312500", "100217.472500", "100221.422500", "100217.582500", "100221.532500", "100217.692500", "100221.642500", "100217.802500", "100221.752500", "100217.912500", "100221.862500", "100218.022500", "100225.832500", "100221.992500", "100225.942500", "100222.102500", "100226.052500", "100222.212500", "100226.160000", "100222.322500", "100226.270000", "100222.430000", "100226.380000", "100222.540000", "100226.490000", "100222.650000", "100226.600000", "100222.760000", "100226.710000", "100222.870000", "100226.820000", "100222.980000", "100226.930000", "100223.090000", "100227.040000", "100223.200000", "100227.147500", "100223.307500", "100227.257500", "100223.417500", "100227.367500", "100223.527500", "100227.477500", "100223.637500", "100227.587500", "100223.747500", "100227.697500", "100223.857500", "100227.807500", "100223.967500", "100227.917500", "100224.077500", "100228.025000", "100224.187500", "100228.135000", "100224.295000", "100228.245000", "100224.405000", "100228.355000", "100224.515000", "100228.465000", "100224.625000", "100228.575000", "100224.735000", "100228.685000", "100224.845000", "100228.795000", "100224.955000", "100228.905000", "100225.065000", "100229.012500", "100225.172500", "100229.122500", "100225.282500", "100229.232500", "100225.392500", "100229.342500", "100225.502500", "100229.452500", "100225.612500", "100229.562500", "100225.722500", "100233.532500", "100229.692500", "100233.642500", "100229.802500", "100233.752500", "100229.912500", "100233.860000", "100230.022500", "100233.970000", "100230.130000", "100234.080000", "100230.240000", "100234.190000", "100230.350000", "100234.300000", "100230.460000", "100234.410000", "100230.570000", "100234.520000", "100230.680000", "100234.630000", "100230.790000", "100234.740000", "100230.900000", "100234.847500", "100231.007500", "100234.957500", "100231.117500", "100235.067500", "100231.227500", "100235.177500", "100231.337500", "100235.287500", "100231.447500", "100235.397500", "100231.557500", "100235.507500", "100231.667500", "100235.617500", "100231.777500", "100235.725000", "100231.887500", "100235.835000", "100231.995000", "100235.945000", "100232.105000", "100236.055000", "100232.215000", "100236.165000", "100232.325000", "100236.275000", "100232.435000", "100236.385000", "100232.545000", "100236.495000", "100232.655000", "100236.605000", "100232.765000", "100236.712500", "100232.872500", "100236.822500", "100232.982500", "100236.932500", "100233.092500", "100237.042500", "100233.202500", "100237.152500", "100233.312500", "100237.262500", "100233.422500", "100241.232500", "100237.392500", "100241.342500", "100237.502500", "100241.452500", "100237.612500", "100241.560000", "100237.722500", "100241.670000", "100237.830000", "100241.780000", "100237.940000", "100241.890000", "100238.050000", "100242.000000", "100238.160000", "100242.110000", "100238.270000", "100242.220000", "100238.380000", "100242.330000", "100238.490000", "100242.440000", "100238.600000", "100242.547500", "100238.707500", "100242.657500", "100238.817500", "100242.767500", "100238.927500", "100242.877500", "100239.037500", "100242.987500", "100239.147500", "100243.097500", "100239.257500", "100243.207500", "100239.367500", "100243.317500", "100239.477500", "100243.425000", "100239.587500", "100243.535000", "100239.695000", "100243.645000", "100239.805000", "100243.755000", "100239.915000", "100243.865000", "100240.025000", "100243.975000", "100240.135000", "100244.085000", "100240.245000", "100244.195000", "100240.355000", "100244.305000", "100240.465000", "100244.412500", "100240.572500", "100244.522500", "100240.682500", "100244.632500", "100240.792500", "100244.742500", "100240.902500", "100244.852500", "100241.012500", "100244.962500", "100241.122500", "100248.932500", "100245.092500", "100249.042500", "100245.202500", "100249.152500", "100245.312500", "100249.260000", "100245.422500", "100249.370000", "100245.530000", "100249.480000", "100245.640000", "100249.590000", "100245.750000", "100249.700000", "100245.860000", "100249.810000", "100245.970000", "100249.920000", "100246.080000", "100250.030000", "100246.190000", "100250.140000", "100246.300000", "100250.247500", "100246.407500", "100250.357500", "100246.517500", "100250.467500", "100246.627500", "100250.577500", "100246.737500", "100250.687500", "100246.847500", "100250.797500", "100246.957500", "100250.907500", "100247.067500", "100251.017500", "100247.177500", "100251.125000", "100247.287500", "100251.235000", "100247.395000", "100251.345000", "100247.505000", "100251.455000", "100247.615000", "100251.565000", "100247.725000", "100251.675000", "100247.835000", "100251.785000", "100247.945000", "100251.895000", "100248.055000", "100252.005000", "100248.165000", "100252.112500", "100248.272500", "100252.222500", "100248.382500", "100252.332500", "100248.492500", "100252.442500", "100248.602500", "100252.552500", "100248.712500", "100252.662500", "100248.822500", "100256.632500", "100252.792500", "100256.742500", "100252.902500", "100256.852500", "100253.012500", "100256.960000", "100253.122500", "100257.070000", "100253.230000", "100257.180000", "100253.340000", "100257.290000", "100253.450000", "100257.400000", "100253.560000", "100257.510000", "100253.670000", "100257.620000", "100253.780000", "100257.730000", "100253.890000", "100257.840000", "100254.000000", "100257.947500", "100254.107500", "100258.057500", "100254.217500", "100258.167500", "100254.327500", "100258.277500", "100254.437500", "100258.387500", "100254.547500", "100258.497500", "100254.657500", "100258.607500", "100254.767500", "100258.717500", "100254.877500", "100258.825000", "100254.987500", "100258.935000", "100255.095000", "100259.045000", "100255.205000", "100259.155000", "100255.315000", "100259.265000", "100255.425000", "100259.375000", "100255.535000", "100259.485000", "100255.645000", "100259.595000", "100255.755000", "100259.705000", "100255.865000", "100259.812500", "100255.972500", "100259.922500", "100256.082500", "100300.032500", "100256.192500", "100300.142500", "100256.302500", "100300.252500", "100256.412500", "100300.362500", "100256.522500", "100304.332500", "100300.492500", "100304.442500", "100300.602500", "100304.552500", "100300.712500", "100304.660000", "100300.822500", "100304.770000", "100300.930000", "100304.880000", "100301.040000", "100304.990000", "100301.150000", "100305.100000", "100301.260000", "100305.210000", "100301.370000", "100305.320000", "100301.480000", "100305.430000", "100301.590000", "100305.540000", "100301.700000", "100305.647500", "100301.807500", "100305.757500", "100301.917500", "100305.867500", "100302.027500", "100305.977500", "100302.137500", "100306.087500", "100302.247500", "100306.197500", "100302.357500", "100306.307500", "100302.467500", "100306.417500", "100302.577500", "100306.525000", "100302.687500", "100306.635000", "100302.795000", "100306.745000", "100302.905000", "100306.855000", "100303.015000", "100306.965000", "100303.125000", "100307.075000", "100303.235000", "100307.185000", "100303.345000", "100307.295000", "100303.455000", "100307.405000", "100303.565000", "100307.512500", "100303.672500", "100307.622500", "100303.782500", "100307.732500", "100303.892500", "100307.842500", "100304.002500", "100307.952500", "100304.112500", "100308.062500", "100304.222500", "100312.032500", "100308.192500", "100312.142500", "100308.302500", "100312.252500", "100308.412500", "100312.360000", "100308.522500", "100312.470000", "100308.630000", "100312.580000", "100308.740000", "100312.690000", "100308.850000", "100312.800000", "100308.960000", "100312.910000", "100309.070000", "100313.020000", "100309.180000", "100313.130000", "100309.290000", "100313.240000", "100309.400000", "100313.347500", "100309.507500", "100313.457500", "100309.617500", "100313.567500", "100309.727500", "100313.677500", "100309.837500", "100313.787500", "100309.947500", "100313.897500", "100310.057500", "100314.007500", "100310.167500", "100314.117500", "100310.277500", "100314.225000", "100310.387500", "100314.335000", "100310.495000", "100314.445000", "100310.605000", "100314.555000", "100310.715000", "100314.665000", "100310.825000", "100314.775000", "100310.935000", "100314.885000", "100311.045000", "100314.995000", "100311.155000", "100315.105000", "100311.265000", "100315.212500", "100311.372500", "100315.322500", "100311.482500", "100315.432500", "100311.592500", "100315.542500", "100311.702500", "100315.652500", "100311.812500", "100315.762500", "100311.922500", "100319.732500", "100315.892500", "100319.842500", "100316.002500", "100319.952500", "100316.112500", "100320.060000", "100316.222500", "100320.170000", "100316.330000", "100320.280000", "100316.440000", "100320.390000", "100316.550000", "100320.500000", "100316.660000", "100320.610000", "100316.770000", "100320.720000", "100316.880000", "100320.830000", "100316.990000", "100320.940000", "100317.100000", "100321.047500", "100317.207500", "100321.157500", "100317.317500", "100321.267500", "100317.427500", "100321.377500", "100317.537500", "100321.487500", "100317.647500", "100321.597500", "100317.757500", "100321.707500", "100317.867500", "100321.817500", "100317.977500", "100321.925000", "100318.087500", "100322.035000", "100318.195000", "100322.145000", "100318.305000", "100322.255000", "100318.415000", "100322.365000", "100318.525000", "100322.475000", "100318.635000", "100322.585000", "100318.745000", "100322.695000", "100318.855000", "100322.805000", "100318.965000", "100322.912500", "100319.072500", "100323.022500", "100319.182500", "100323.132500", "100319.292500", "100323.242500", "100319.402500", "100323.352500", "100319.512500", "100323.462500", "100319.622500", "100327.432500", "100323.592500", "100327.542500", "100323.702500", "100327.652500", "100323.812500", "100327.760000", "100323.922500", "100327.870000", "100324.030000", "100327.980000", "100324.140000", "100328.090000", "100324.250000", "100328.200000", "100324.360000", "100328.310000", "100324.470000", "100328.420000", "100324.580000", "100328.530000", "100324.690000", "100328.640000", "100324.800000", "100328.747500", "100324.907500", "100328.857500", "100325.017500", "100328.967500", "100325.127500", "100329.077500", "100325.237500", "100329.187500", "100325.347500", "100329.297500", "100325.457500", "100329.407500", "100325.567500", "100329.517500", "100325.677500", "100329.625000", "100325.787500", "100329.735000", "100325.895000", "100329.845000", "100326.005000", "100329.955000", "100326.115000", "100330.065000", "100326.225000", "100330.175000", "100326.335000", "100330.285000", "100326.445000", "100330.395000", "100326.555000", "100330.505000", "100326.665000", "100330.612500", "100326.772500", "100330.722500", "100326.882500", "100330.832500", "100326.992500", "100330.942500", "100327.102500", "100331.052500", "100327.212500", "100331.162500", "100327.322500", "100335.132500", "100331.292500", "100335.242500", "100331.402500", "100335.352500", "100331.512500", "100335.460000", "100331.622500", "100335.570000", "100331.730000", "100335.680000", "100331.840000", "100335.790000", "100331.950000", "100335.900000", "100332.060000", "100336.010000", "100332.170000", "100336.120000", "100332.280000", "100336.230000", "100332.390000", "100336.340000", "100332.500000", "100336.447500", "100332.607500", "100336.557500", "100332.717500", "100336.667500", "100332.827500", "100336.777500", "100332.937500", "100336.887500", "100333.047500", "100336.997500", "100333.157500", "100337.107500", "100333.267500", "100337.217500", "100333.377500", "100337.325000", "100333.487500", "100337.435000", "100333.595000", "100337.545000", "100333.705000", "100337.655000", "100333.815000", "100337.765000", "100333.925000", "100337.875000", "100334.035000", "100337.985000", "100334.145000", "100338.095000", "100334.255000", "100338.205000", "100334.365000", "100338.312500", "100334.472500", "100338.422500", "100334.582500", "100338.532500", "100334.692500", "100338.642500", "100334.802500", "100338.752500", "100334.912500", "100338.862500", "100335.022500", "100342.832500", "100338.992500", "100342.942500", "100339.102500", "100343.052500", "100339.212500", "100343.160000", "100339.322500", "100343.270000", "100339.430000", "100343.380000", "100339.540000", "100343.490000", "100339.650000", "100343.600000", "100339.760000", "100343.710000", "100339.870000", "100343.820000", "100339.980000", "100343.930000", "100340.090000", "100344.040000", "100340.200000", "100344.147500", "100340.307500", "100344.257500", "100340.417500", "100344.367500", "100340.527500", "100344.477500", "100340.637500", "100344.587500", "100340.747500", "100344.697500", "100340.857500", "100344.807500", "100340.967500", "100344.917500", "100341.077500", "100345.025000", "100341.187500", "100345.135000", "100341.295000", "100345.245000", "100341.405000", "100345.355000", "100341.515000", "100345.465000", "100341.625000", "100345.575000", "100341.735000", "100345.685000", "100341.845000", "100345.795000", "100341.955000", "100345.905000", "100342.065000", "100346.012500", "100342.172500", "100346.122500", "100342.282500", "100346.232500", "100342.392500", "100346.342500", "100342.502500", "100346.452500", "100342.612500", "100346.562500", "100342.722500", "100350.532500", "100346.692500", "100350.642500", "100346.802500", "100350.752500", "100346.912500", "100350.860000", "100347.022500", "100350.970000", "100347.130000", "100351.080000", "100347.240000", "100351.190000", "100347.350000", "100351.300000", "100347.460000", "100351.410000", "100347.570000", "100351.520000", "100347.680000", "100351.630000", "100347.790000", "100351.740000", "100347.900000", "100351.847500", "100348.007500", "100351.957500", "100348.117500", "100352.067500", "100348.227500", "100352.177500", "100348.337500", "100352.287500", "100348.447500", "100352.397500", "100348.557500", "100352.507500", "100348.667500", "100352.617500", "100348.777500", "100352.725000", "100348.887500", "100352.835000", "100348.995000", "100352.945000", "100349.105000", "100353.055000", "100349.215000", "100353.165000", "100349.325000", "100353.275000", "100349.435000", "100353.385000", "100349.545000", "100353.495000", "100349.655000", "100353.605000", "100349.765000", "100353.712500", "100349.872500", "100353.822500", "100349.982500", "100353.932500", "100350.092500", "100354.042500", "100350.202500", "100354.152500", "100350.312500", "100354.262500", "100350.422500", "100358.232500", "100354.392500", "100358.342500", "100354.502500", "100358.452500", "100354.612500", "100358.560000", "100354.722500", "100358.670000", "100354.830000", "100358.780000", "100354.940000", "100358.890000", "100355.050000", "100359.000000", "100355.160000", "100359.110000", "100355.270000", "100359.220000", "100355.380000", "100359.330000", "100355.490000", "100359.440000", "100355.600000", "100359.547500", "100355.707500", "100359.657500", "100355.817500", "100359.767500", "100355.927500", "100359.877500", "100356.037500", "100359.987500", "100356.147500", "100400.097500", "100356.257500", "100400.207500", "100356.367500", "100400.317500", "100356.477500", "100400.425000", "100356.587500", "100400.535000", "100356.695000", "100400.645000", "100356.805000", "100400.755000", "100356.915000", "100400.865000", "100357.025000", "100400.975000", "100357.135000", "100401.085000", "100357.245000", "100401.195000", "100357.355000", "100401.305000", "100357.465000", "100401.412500", "100357.572500", "100401.522500", "100357.682500", "100401.632500", "100357.792500", "100401.742500", "100357.902500", "100401.852500", "100358.012500", "100401.962500", "100358.122500", "100405.932500", "100402.092500", "100406.042500", "100402.202500", "100406.152500", "100402.312500", "100406.260000", "100402.422500", "100406.370000", "100402.530000", "100406.480000", "100402.640000", "100406.590000", "100402.750000", "100406.700000", "100402.860000", "100406.810000", "100402.970000", "100406.920000", "100403.080000", "100407.030000", "100403.190000", "100407.140000", "100403.300000", "100407.247500", "100403.407500", "100407.357500", "100403.517500", "100407.467500", "100403.627500", "100407.577500", "100403.737500", "100407.687500", "100403.847500", "100407.797500", "100403.957500", "100407.907500", "100404.067500", "100408.017500", "100404.177500", "100408.125000", "100404.287500", "100408.235000", "100404.395000", "100408.345000", "100404.505000", "100408.455000", "100404.615000", "100408.565000", "100404.725000", "100408.675000", "100404.835000", "100408.785000", "100404.945000", "100408.895000", "100405.055000", "100409.005000", "100405.165000", "100409.112500", "100405.272500", "100409.222500", "100405.382500", "100409.332500", "100405.492500", "100409.442500", "100405.602500", "100409.552500", "100405.712500", "100409.662500", "100405.822500", "100413.632500", "100409.792500", "100413.742500", "100409.902500", "100413.852500", "100410.012500", "100413.960000", "100410.122500", "100414.070000", "100410.230000", "100414.180000", "100410.340000", "100414.290000", "100410.450000", "100414.400000", "100410.560000", "100414.510000", "100410.670000", "100414.620000", "100410.780000", "100414.730000", "100410.890000", "100414.840000", "100411.000000", "100414.947500", "100411.107500", "100415.057500", "100411.217500", "100415.167500", "100411.327500", "100415.277500", "100411.437500", "100415.387500", "100411.547500", "100415.497500", "100411.657500", "100415.607500", "100411.767500", "100415.717500", "100411.877500", "100415.825000", "100411.987500", "100415.935000", "100412.095000", "100416.045000", "100412.205000", "100416.155000", "100412.315000", "100416.265000", "100412.425000", "100416.375000", "100412.535000", "100416.485000", "100412.645000", "100416.595000", "100412.755000", "100416.705000", "100412.865000", "100416.812500", "100412.972500", "100416.922500", "100413.082500", "100417.032500", "100413.192500", "100417.142500", "100413.302500", "100417.252500", "100413.412500", "100417.362500", "100413.522500", "100421.332500", "100417.492500", "100421.442500", "100417.602500", "100421.552500", "100417.712500", "100421.660000", "100417.822500", "100421.770000", "100417.930000", "100421.880000", "100418.040000", "100421.990000", "100418.150000", "100422.100000", "100418.260000", "100422.210000", "100418.370000", "100422.320000", "100418.480000", "100422.430000", "100418.590000", "100422.540000", "100418.700000", "100422.647500", "100418.807500", "100422.757500", "100418.917500", "100422.867500", "100419.027500", "100422.977500", "100419.137500", "100423.087500", "100419.247500", "100423.197500", "100419.357500", "100423.307500", "100419.467500", "100423.417500", "100419.577500", "100423.525000", "100419.687500", "100423.635000", "100419.795000", "100423.745000", "100419.905000", "100423.855000", "100420.015000", "100423.965000", "100420.125000", "100424.075000", "100420.235000", "100424.185000", "100420.345000", "100424.295000", "100420.455000", "100424.405000", "100420.565000", "100424.512500", "100420.672500", "100424.622500", "100420.782500", "100424.732500", "100420.892500", "100424.842500", "100421.002500", "100424.952500", "100421.112500", "100425.062500", "100421.222500", "100429.032500", "100425.192500", "100429.142500", "100425.302500", "100429.252500", "100425.412500", "100429.360000", "100425.522500", "100429.470000", "100425.630000", "100429.580000", "100425.740000", "100429.690000", "100425.850000", "100429.800000", "100425.960000", "100429.910000", "100426.070000", "100430.020000", "100426.180000", "100430.130000", "100426.290000", "100430.240000", "100426.400000", "100430.347500", "100426.507500", "100430.457500", "100426.617500", "100430.567500", "100426.727500", "100430.677500", "100426.837500", "100430.787500", "100426.947500", "100430.897500", "100427.057500", "100431.007500", "100427.167500", "100431.117500", "100427.277500", "100431.225000", "100427.387500", "100431.335000", "100427.495000", "100431.445000", "100427.605000", "100431.555000", "100427.715000", "100431.665000", "100427.825000", "100431.775000", "100427.935000", "100431.885000", "100428.045000", "100431.995000", "100428.155000", "100432.105000", "100428.265000", "100432.212500", "100428.372500", "100432.322500", "100428.482500", "100432.432500", "100428.592500", "100432.542500", "100428.702500", "100432.652500", "100428.812500", "100432.762500", "100428.922500", "100436.732500", "100432.892500", "100436.842500", "100433.002500", "100436.952500", "100433.112500", "100437.060000", "100433.222500", "100437.170000", "100433.330000", "100437.280000", "100433.440000", "100437.390000", "100433.550000", "100437.500000", "100433.660000", "100437.610000", "100433.770000", "100437.720000", "100433.880000", "100437.830000", "100433.990000", "100437.940000", "100434.100000", "100438.047500", "100434.207500", "100438.157500", "100434.317500", "100438.267500", "100434.427500", "100438.377500", "100434.537500", "100438.487500", "100434.647500", "100438.597500", "100434.757500", "100438.707500", "100434.867500", "100438.817500", "100434.977500", "100438.925000", "100435.087500", "100439.035000", "100435.195000", "100439.145000", "100435.305000", "100439.255000", "100435.415000", "100439.365000", "100435.525000", "100439.475000", "100435.635000", "100439.585000", "100435.745000", "100439.695000", "100435.855000", "100439.805000", "100435.965000", "100439.912500", "100436.072500", "100440.022500", "100436.182500", "100440.132500", "100436.292500", "100440.242500", "100436.402500", "100440.352500", "100436.512500", "100440.462500", "100436.622500", "100444.432500", "100440.592500", "100444.542500", "100440.702500", "100444.652500", "100440.812500", "100444.760000", "100440.922500", "100444.870000", "100441.030000", "100444.980000", "100441.140000", "100445.090000", "100441.250000", "100445.200000", "100441.360000", "100445.310000", "100441.470000", "100445.420000", "100441.580000", "100445.530000", "100441.690000", "100445.640000", "100441.800000", "100445.747500", "100441.907500", "100445.857500", "100442.017500", "100445.967500", "100442.127500", "100446.077500", "100442.237500", "100446.187500", "100442.347500", "100446.297500", "100442.457500", "100446.407500", "100442.567500", "100446.517500", "100442.677500", "100446.625000", "100442.787500", "100446.735000", "100442.895000", "100446.845000", "100443.005000", "100446.955000", "100443.115000", "100447.065000", "100443.225000", "100447.175000", "100443.335000", "100447.285000", "100443.445000", "100447.395000", "100443.555000", "100447.505000", "100443.665000", "100447.612500", "100443.772500", "100447.722500", "100443.882500", "100447.832500", "100443.992500", "100447.942500", "100444.102500", "100448.052500", "100444.212500", "100448.162500", "100444.322500", "100452.132500", "100448.292500", "100452.242500", "100448.402500", "100452.352500", "100448.512500", "100452.460000", "100448.622500", "100452.570000", "100448.730000", "100452.680000", "100448.840000", "100452.790000", "100448.950000", "100452.900000", "100449.060000", "100453.010000", "100449.170000", "100453.120000", "100449.280000", "100453.230000", "100449.390000", "100453.340000", "100449.500000", "100453.447500", "100449.607500", "100453.557500", "100449.717500", "100453.667500", "100449.827500", "100453.777500", "100449.937500", "100453.887500", "100450.047500", "100453.997