{
  "AcquisitionMatrixPE": 80,
  "AcquisitionNumber": 1,
  "AcquisitionTime": "09:16:54.430000",
  "BandwidthPerPixelPhaseEncode": 25,
  "BaseResolution": 80,
  "BodyPartExamined": "BRAIN",
  "CoilCombinationMethod": "Sum of Squares",
  "ConsistencyInfo": "N4_VE11E_LATEST_20181129",
  "ConversionSoftware": "dcm2niix",
  "ConversionSoftwareVersion": "v1.0.20220720",
  "DerivedVendorReportedEchoSpacing": 0.0005,
  "DeviceSerialNumber": "66112",
  "DwellTime": 2.7e-06,
  "EchoTime": 0.03,
  "EchoTrainLength": 80,
  "EffectiveEchoSpacing": 0.0005,
  "FlipAngle": 77,
  "HeudiconvVersion": "0.13.1",
  "ImageOrientationPatientDICOM": [0.999525, -0.0308132, 0.000919051, 0.0289668, 0.948995, 0.313959],
  "ImageOrientationText": "Tra>Cor(18.3)>Sag(0.6)",
  "ImageType": [
    "ORIGINAL",
    "PRIMARY",
    "M",
    "ND",
    "NORM",
    "MOSAIC"
],
  "ImagingFrequency": 123.261,
  "InPlanePhaseEncodingDirectionDICOM": "COL",
  "InstitutionAddress": "Maynard 3,Hanover,NH,US,03755",
  "InstitutionName": "Dartmouth College - PBS",
  "InstitutionalDepartmentName": "Department",
  "MRAcquisitionType": "2D",
  "MagneticFieldStrength": 3,
  "Manufacturer": "Siemens",
  "ManufacturersModelName": "Prisma",
  "MatrixCoilMode": "SENSE",
  "Modality": "MR",
  "NonlinearGradientCorrection": false,
  "PartialFourier": 1,
  "PatientPosition": "HFS",
  "PercentPhaseFOV": 100,
  "PercentSampling": 100,
  "PhaseEncodingDirection": "j-",
  "PhaseEncodingSteps": 80,
  "PhaseResolution": 1,
  "PixelBandwidth": 2315,
  "ProcedureStepDescription": "dbic^QA",
  "ProtocolName": "func-bold_fa-77",
  "PulseSequenceDetails": "%SiemensSeq%\\ep2d_bold",
  "ReceiveCoilActiveElements": "HC1-7;NC1,2",
  "ReceiveCoilName": "HeadNeck_64",
  "ReconMatrixPE": 80,
  "RepetitionTime": 2,
  "SAR": 0.0281242,
  "ScanOptions": "FS",
  "ScanningSequence": "EP",
  "SequenceName": "*epfid2d1_80",
  "SequenceVariant": "SK",
  "SeriesDescription": "func-bold_fa-77",
  "SeriesNumber": 6,
  "ShimSetting": [4244, -7734, -7489, -125, -162, -247, -73, 142],
  "SliceThickness": 3.5,
  "SliceTiming": [0.99, 0, 1.055, 0.065, 1.1225, 0.1325, 1.1875, 0.1975, 1.255, 0.265, 1.32, 0.33, 1.385, 0.395, 1.4525, 0.4625, 1.5175, 0.5275, 1.585, 0.595, 1.65, 0.66, 1.715, 0.725, 1.7825, 0.7925, 1.8475, 0.8575, 1.915, 0.925],
  "SoftwareVersions": "syngo MR E11",
  "SpacingBetweenSlices": 3.99,
  "StationName": "AWP66112",
  "TotalReadoutTime": 0.0395,
  "TxRefAmp": 208.682,
  "dcmmeta_affine": [
    [-2.9985742568969727, 0.08690037578344345, 0.04207954183220863, 115.01290130615234],
    [0.09243962913751602, 2.8469839096069336, 1.2519938945770264, -131.8169403076172],
    [0.0027571520768105984, -0.9418762922286987, 3.78825044631958, -28.103023529052734],
    [0.0, 0.0, 0.0, 1.0]
],
  "dcmmeta_reorient_transform": [
    [0.0, -1.0, 0.0, 79.0],
    [1.0, 0.0, 0.0, 0.0],
    [0.0, 0.0, 1.0, 0.0],
    [0.0, 0.0, 0.0, 1.0]
],
  "dcmmeta_shape": [80, 80, 30, 200],
  "dcmmeta_slice_dim": 2,
  "dcmmeta_version": 0.6,
  "global": {
    "const": {
      "AccessionNumber": "qa64",
      "AcquisitionMatrix": [80, 0, 0, 80],
      "AngioFlag": "N",
      "BitsAllocated": 16,
      "BitsStored": 12,
      "BodyPartExamined": "BRAIN",
      "Columns": 480,
      "EchoNumbers": 1,
      "EchoTime": 30.0,
      "EchoTrainLength": 80,
      "FlipAngle": 77.0,
      "HighBit": 11,
      "ImageOrientationPatient": [0.99952473780371, -0.0308132092501, 0.00091905067729, 0.02896679307685, 0.94899463522463, 0.3139587667413],
      "ImagePositionPatient": [-738.9729520549, -644.00363634524, -291.43794254285],
      "ImageType": [
        "ORIGINAL",
        "PRIMARY",
        "M",
        "ND",
        "NORM",
        "MOSAIC"
],
      "ImagedNucleus": "1H",
      "ImagingFrequency": 123.261259,
      "InPlanePhaseEncodingDirection": "COL",
      "LargestImagePixelValue": 4095,
      "MRAcquisitionType": "2D",
      "MagneticFieldStrength": 3.0,
      "Manufacturer": "SIEMENS",
      "ManufacturerModelName": "Prisma",
      "Modality": "MR",
      "NumberOfAverages": 1.0,
      "NumberOfPhaseEncodingSteps": 80,
      "PercentPhaseFieldOfView": 100.0,
      "PercentSampling": 100.0,
      "PerformedProcedureStepStartTime": "090804.125000",
      "PhotometricInterpretation": "MONOCHROME2",
      "PixelBandwidth": 2315.0,
      "PixelRepresentation": 0,
      "PixelSpacing": [3.0, 3.0],
      "ProtocolName": "func-bold_fa-77",
      "RepetitionTime": 2000.0,
      "Rows": 480,
      "SAR": 0.02812415085921,
      "SamplesPerPixel": 1,
      "ScanOptions": "FS",
      "ScanningSequence": "EP",
      "SequenceName": "*epfid2d1_80",
      "SequenceVariant": "SK",
      "SeriesDescription": "func-bold_fa-77",
      "SeriesNumber": 6,
      "SeriesTime": "091743.660000",
      "SliceLocation": -66.830981317644,
      "SliceThickness": 3.5,
      "SmallestImagePixelValue": 0,
      "SoftwareVersions": "syngo MR E11",
      "SpacingBetweenSlices": 3.99000000969,
      "SpecificCharacterSet": "ISO_IR 100",
      "StudyID": "25",
      "StudyTime": "090803.972000",
      "TransmitCoilName": "Body",
      "VariableFlipAngleFlag": "N",
      "WindowCenterWidthExplanation": "Algo1"
    },
    "slices": {}
  },
  "time": {
    "samples": {
      "AcquisitionNumber": [1, 2, 3, 4, 5, 6, 7, 8, 9, 10, 11, 12, 13, 14, 15, 16, 17, 18, 19, 20, 21, 22, 23, 24, 25, 26, 27, 28, 29, 30, 31, 32, 33, 34, 35, 36, 37, 38, 39, 40, 41, 42, 43, 44, 45, 46, 47, 48, 49, 50, 51, 52, 53, 54, 55, 56, 57, 58, 59, 60, 61, 62, 63, 64, 65, 66, 67, 68, 69, 70, 71, 72, 73, 74, 75, 76, 77, 78, 79, 80, 81, 82, 83, 84, 85, 86, 87, 88, 89, 90, 91, 92, 93, 94, 95, 96, 97, 98, 99, 100, 101, 102, 103, 104, 105, 106, 107, 108, 109, 110, 111, 112, 113, 114, 115, 116, 117, 118, 119, 120, 121, 122, 123, 124, 125, 126, 127, 128, 129, 130, 131, 132, 133, 134, 135, 136, 137, 138, 139, 140, 141, 142, 143, 144, 145, 146, 147, 148, 149, 150, 151, 152, 153, 154, 155, 156, 157, 158, 159, 160, 161, 162, 163, 164, 165, 166, 167, 168, 169, 170, 171, 172, 173, 174, 175, 176, 177, 178, 179, 180, 181, 182, 183, 184, 185, 186, 187, 188, 189, 190, 191, 192, 193, 194, 195, 196, 197, 198, 199, 200],
      "AcquisitionTime": ["091654.430000", "091656.430000", "091658.430000", "091700.430000", "091702.430000", "091704.430000", "091706.430000", "091708.430000", "091710.430000", "091712.430000", "091714.430000", "091716.430000", "091718.430000", "091720.430000", "091722.430000", "091724.430000", "091726.430000", "091728.430000", "091730.430000", "091732.430000", "091734.430000", "091736.430000", "091738.430000", "091740.430000", "091742.430000", "091744.430000", "091746.430000", "091748.430000", "091750.430000", "091752.430000", "091754.430000", "091756.430000", "091758.430000", "091800.430000", "091802.430000", "091804.430000", "091806.430000", "091808.430000", "091810.430000", "091812.430000", "091814.430000", "091816.430000", "091818.430000", "091820.430000", "091822.430000", "091824.430000", "091826.430000", "091828.430000", "091830.430000", "091832.430000", "091834.430000", "091836.430000", "091838.430000", "091840.430000", "091842.430000", "091844.430000", "091846.430000", "091848.430000", "091850.430000", "091852.430000", "091854.430000", "091856.430000", "091858.430000", "091900.430000", "091902.430000", "091904.430000", "091906.430000", "091908.430000", "091910.430000", "091912.430000", "091914.430000", "091916.430000", "091918.430000", "091920.430000", "091922.430000", "091924.430000", "091926.430000", "091928.430000", "091930.430000", "091932.430000", "091934.430000", "091936.430000", "091938.430000", "091940.430000", "091942.430000", "091944.430000", "091946.430000", "091948.430000", "091950.430000", "091952.430000", "091954.430000", "091956.430000", "091958.430000", "092000.430000", "092002.430000", "092004.430000", "092006.430000", "092008.430000", "092010.430000", "092012.430000", "092014.430000", "092016.430000", "092018.430000", "092020.430000", "092022.430000", "092024.430000", "092026.430000", "092028.430000", "092030.430000", "092032.430000", "092034.430000", "092036.430000", "092038.430000", "092040.430000", "092042.430000", "092044.430000", "092046.430000", "092048.430000", "092050.430000", "092052.430000", "092054.430000", "092056.430000", "092058.430000", "092100.430000", "092102.430000", "092104.430000", "092106.430000", "092108.430000", "092110.430000", "092112.430000", "092114.430000", "092116.430000", "092118.430000", "092120.430000", "092122.430000", "092124.430000", "092126.430000", "092128.430000", "092130.430000", "092132.430000", "092134.430000", "092136.430000", "092138.430000", "092140.430000", "092142.430000", "092144.430000", "092146.430000", "092148.430000", "092150.430000", "092152.430000", "092154.430000", "092156.430000", "092158.430000", "092200.430000", "092202.430000", "092204.430000", "092206.430000", "092208.430000", "092210.430000", "092212.430000", "092214.430000", "092216.430000", "092218.430000", "092220.430000", "092222.430000", "092224.430000", "092226.430000", "092228.430000", "092230.430000", "092232.430000", "092234.430000", "092236.430000", "092238.430000", "092240.430000", "092242.430000", "092244.430000", "092246.430000", "092248.430000", "092250.430000", "092252.430000", "092254.430000", "092256.430000", "092258.430000", "092300.430000", "092302.430000", "092304.430000", "092306.430000", "092308.430000", "092310.430000", "092312.430000", "092314.430000", "092316.430000", "092318.430000", "092320.430000", "092322.430000", "092324.430000", "092326.430000", "092328.430000", "092330.430000", "092332.430000"],
      "ContentTime": ["091743.663000", "091743.666000", "091743.668000", "091743.671000", "091743.673000", "091743.675000", "091743.678000", "091743.680000", "091743.682000", "091743.684000", "091743.687000", "091743.689000", "091743.702000", "091743.704000", "091743.706000", "091743.708000", "091743.711000", "091743.713000", "091743.715000", "091743.718000", "091743.720000", "091743.722000", "091743.725000", "091743.727000", "091823.658000", "091823.661000", "091823.663000", "091823.665000", "091823.668000", "091823.670000", "091823.672000", "091823.675000", "091823.677000", "091823.679000", "091823.682000", "091823.684000", "091823.686000", "091823.689000", "091823.691000", "091823.693000", "091823.695000", "091823.698000", "091823.700000", "091823.702000", "091903.658000", "091903.661000", "091903.663000", "091903.665000", "091903.668000", "091903.670000", "091903.672000", "091903.675000", "091903.677000", "091903.679000", "091903.681000", "091903.684000", "091903.686000", "091903.688000", "091903.691000", "091903.693000", "091903.695000", "091903.698000", "091903.700000", "091903.702000", "091943.658000", "091943.661000", "091943.663000", "091943.665000", "091943.668000", "091943.670000", "091943.672000", "091943.675000", "091943.677000", "091943.679000", "091943.681000", "091943.684000", "091943.686000", "091943.688000", "091943.691000", "091943.693000", "091943.695000", "091943.698000", "091943.700000", "091943.702000", "092023.658000", "092023.661000", "092023.663000", "092023.665000", "092023.667000", "092023.670000", "092023.672000", "092023.674000", "092023.677000", "092023.679000", "092023.681000", "092023.684000", "092023.686000", "092023.688000", "092023.691000", "092023.693000", "092023.695000", "092023.697000", "092023.700000", "092023.702000", "092103.657000", "092103.660000", "092103.662000", "092103.665000", "092103.667000", "092103.669000", "092103.672000", "092103.674000", "092103.676000", "092103.678000", "092103.681000", "092103.683000", "092103.685000", "092103.688000", "092103.690000", "092103.692000", "092103.695000", "092103.697000", "092103.699000", "092103.702000", "092143.658000", "092143.661000", "092143.669000", "092143.672000", "092143.674000", "092143.676000", "092143.679000", "092143.681000", "092143.683000", "092143.686000", "092143.688000", "092143.690000", "092143.693000", "092143.695000", "092143.697000", "092143.700000", "092143.702000", "092143.704000", "092143.707000", "092143.709000", "092223.658000", "092223.661000", "092223.663000", "092223.666000", "092223.668000", "092223.670000", "092223.673000", "092223.675000", "092223.677000", "092223.679000", "092223.682000", "092223.684000", "092223.686000", "092223.689000", "092223.691000", "092223.694000", "092223.696000", "092223.698000", "092223.701000", "092223.703000", "092303.658000", "092303.661000", "092303.663000", "092303.666000", "092303.668000", "092303.670000", "092303.680000", "092303.683000", "092303.685000", "092303.687000", "092303.690000", "092303.692000", "092303.694000", "092303.697000", "092303.699000", "092303.701000", "092303.704000", "092303.706000", "092303.708000", "092303.711000", "092334.323000", "092334.326000", "092334.328000", "092334.331000", "092334.333000", "092334.335000", "092334.338000", "092334.340000", "092334.342000", "092334.345000", "092334.347000", "092334.349000", "092334.352000", "092334.354000", "092334.356000", "092334.359000"],
      "InstanceCreationTime": ["091743.663000", "091743.666000", "091743.668000", "091743.671000", "091743.673000", "091743.675000", "091743.678000", "091743.680000", "091743.682000", "091743.684000", "091743.687000", "091743.689000", "091743.702000", "091743.704000", "091743.706000", "091743.708000", "091743.711000", "091743.713000", "091743.715000", "091743.718000", "091743.720000", "091743.722000", "091743.725000", "091743.727000", "091823.658000", "091823.661000", "091823.663000", "091823.665000", "091823.668000", "091823.670000", "091823.672000", "091823.675000", "091823.677000", "091823.679000", "091823.682000", "091823.684000", "091823.686000", "091823.689000", "091823.691000", "091823.693000", "091823.695000", "091823.698000", "091823.700000", "091823.702000", "091903.658000", "091903.661000", "091903.663000", "091903.665000", "091903.668000", "091903.670000", "091903.672000", "091903.675000", "091903.677000", "091903.679000", "091903.681000", "091903.684000", "091903.686000", "091903.688000", "091903.691000", "091903.693000", "091903.695000", "091903.698000", "091903.700000", "091903.702000", "091943.658000", "091943.661000", "091943.663000", "091943.665000", "091943.668000", "091943.670000", "091943.672000", "091943.675000", "091943.677000", "091943.679000", "091943.681000", "091943.684000", "091943.686000", "091943.688000", "091943.691000", "091943.693000", "091943.695000", "091943.698000", "091943.700000", "091943.702000", "092023.658000", "092023.661000", "092023.663000", "092023.665000", "092023.667000", "092023.670000", "092023.672000", "092023.674000", "092023.677000", "092023.679000", "092023.681000", "092023.684000", "092023.686000", "092023.688000", "092023.691000", "092023.693000", "092023.695000", "092023.697000", "092023.700000", "092023.702000", "092103.657000", "092103.660000", "092103.662000", "092103.665000", "092103.667000", "092103.669000", "092103.672000", "092103.674000", "092103.676000", "092103.678000", "092103.681000", "092103.683000", "092103.685000", "092103.688000", "092103.690000", "092103.692000", "092103.695000", "092103.697000", "092103.699000", "092103.702000", "092143.658000", "092143.661000", "092143.669000", "092143.672000", "092143.674000", "092143.676000", "092143.679000", "092143.681000", "092143.683000", "092143.686000", "092143.688000", "092143.690000", "092143.693000", "092143.695000", "092143.697000", "092143.700000", "092143.702000", "092143.704000", "092143.707000", "092143.709000", "092223.658000", "092223.661000", "092223.663000", "092223.666000", "092223.668000", "092223.670000", "092223.673000", "092223.675000", "092223.677000", "092223.679000", "092223.682000", "092223.684000", "092223.686000", "092223.689000", "092223.691000", "092223.694000", "092223.696000", "092223.698000", "092223.701000", "092223.703000", "092303.658000", "092303.661000", "092303.663000", "092303.666000", "092303.668000", "092303.670000", "092303.680000", "092303.683000", "092303.685000", "092303.687000", "092303.690000", "092303.692000", "092303.694000", "092303.697000", "092303.699000", "092303.701000", "092303.704000", "092303.706000", "092303.708000", "092303.711000", "092334.323000", "092334.326000", "092334.328000", "092334.331000", "092334.333000", "092334.335000", "092334.338000", "092334.340000", "092334.342000", "092334.345000", "092334.347000", "092334.349000", "092334.352000", "092334.354000", "092334.356000", "092334.359000"],
      "InstanceNumber": [1, 2, 3, 4, 5, 6, 7, 8, 9, 10, 11, 12, 13, 14, 15, 16, 17, 18, 19, 20, 21, 22, 23, 24, 25, 26, 27, 28, 29, 30, 31, 32, 33, 34, 35, 36, 37, 38, 39, 40, 41, 42, 43, 44, 45, 46, 47, 48, 49, 50, 51, 52, 53, 54, 55, 56, 57, 58, 59, 60, 61, 62, 63, 64, 65, 66, 67, 68, 69, 70, 71, 72, 73, 74, 75, 76, 77, 78, 79, 80, 81, 82, 83, 84, 85, 86, 87, 88, 89, 90, 91, 92, 93, 94, 95, 96, 97, 98, 99, 100, 101, 102, 103, 104, 105, 106, 107, 108, 109, 110, 111, 112, 113, 114, 115, 116, 117, 118, 119, 120, 121, 122, 123, 124, 125, 126, 127, 128, 129, 130, 131, 132, 133, 134, 135, 136, 137, 138, 139, 140, 141, 142, 143, 144, 145, 146, 147, 148, 149, 150, 151, 152, 153, 154, 155, 156, 157, 158, 159, 160, 161, 162, 163, 164, 165, 166, 167, 168, 169, 170, 171, 172, 173, 174, 175, 176, 177, 178, 179, 180, 181, 182, 183, 184, 185, 186, 187, 188, 189, 190, 191, 192, 193, 194, 195, 196, 197, 198, 199, 200],
      "WindowCenter": [1433.0, 1433.0, 1433.0, 1433.0, 1433.0, 1433.0, 1433.0, 1433.0, 1433.0, 1432.0, 1432.0, 1432.0, 1432.0, 1432.0, 1433.0, 1432.0, 1432.0, 1432.0, 1432.0, 1432.0, 1432.0, 1432.0, 1431.0, 1432.0, 1431.0, 1431.0, 1432.0, 1431.0, 1431.0, 1431.0, 1431.0, 1432.0, 1431.0, 1431.0, 1431.0, 1431.0, 1431.0, 1430.0, 1430.0, 1430.0, 1431.0, 1430.0, 1431.0, 1431.0, 1430.0, 1431.0, 1430.0, 1430.0, 1431.0, 1431.0, 1430.0, 1430.0, 1430.0, 1430.0, 1430.0, 1430.0, 1430.0, 1430.0, 1430.0, 1430.0, 1430.0, 1429.0, 1429.0, 1429.0, 1430.0, 1430.0, 1430.0, 1429.0, 1429.0, 1430.0, 1430.0, 1429.0, 1429.0, 1430.0, 1430.0, 1429.0, 1430.0, 1430.0, 1429.0, 1429.0, 1429.0, 1429.0, 1429.0, 1429.0, 1429.0, 1429.0, 1429.0, 1429.0, 1429.0, 1429.0, 1429.0, 1429.0, 1429.0, 1429.0, 1429.0, 1429.0, 1428.0, 1428.0, 1428.0, 1428.0, 1428.0, 1428.0, 1428.0, 1428.0, 1428.0, 1428.0, 1428.0, 1428.0, 1428.0, 1428.0, 1428.0, 1428.0, 1428.0, 1428.0, 1428.0, 1428.0, 1428.0, 1428.0, 1427.0, 1427.0, 1428.0, 1427.0, 1428.0, 1427.0, 1427.0, 1427.0, 1427.0, 1427.0, 1428.0, 1428.0, 1428.0, 1428.0, 1428.0, 1428.0, 1428.0, 1428.0, 1427.0, 1426.0, 1427.0, 1427.0, 1427.0, 1427.0, 1426.0, 1426.0, 1427.0, 1427.0, 1427.0, 1426.0, 1426.0, 1427.0, 1427.0, 1427.0, 1427.0, 1427.0, 1427.0, 1426.0, 1426.0, 1426.0, 1426.0, 1426.0, 1426.0, 1426.0, 1426.0, 1426.0, 1426.0, 1427.0, 1426.0, 1426.0, 1426.0, 1426.0, 1426.0, 1426.0, 1426.0, 1426.0, 1426.0, 1426.0, 1426.0, 1426.0, 1426.0, 1426.0, 1426.0, 1426.0, 1426.0, 1426.0, 1425.0, 1425.0, 1425.0, 1426.0, 1425.0, 1426.0, 1425.0, 1426.0, 1425.0, 1426.0, 1426.0, 1426.0, 1425.0, 1425.0, 1425.0, 1425.0],
      "WindowWidth": [3393.0, 3393.0, 3392.0, 3392.0, 3392.0, 3392.0, 3392.0, 3392.0, 3392.0, 3392.0, 3392.0, 3392.0, 3392.0, 3392.0, 3392.0, 3392.0, 3392.0, 3392.0, 3392.0, 3392.0, 3392.0, 3391.0, 3392.0, 3392.0, 3392.0, 3392.0, 3391.0, 3392.0, 3392.0, 3392.0, 3392.0, 3391.0, 3391.0, 3391.0, 3391.0, 3391.0, 3391.0, 3391.0, 3391.0, 3391.0, 3391.0, 3391.0, 3391.0, 3391.0, 3391.0, 3391.0, 3391.0, 3391.0, 3391.0, 3391.0, 3391.0, 3391.0, 3391.0, 3391.0, 3391.0, 3391.0, 3391.0, 3391.0, 3391.0, 3391.0, 3391.0, 3391.0, 3391.0, 3391.0, 3391.0, 3391.0, 3391.0, 3391.0, 3391.0, 3391.0, 3391.0, 3391.0, 3391.0, 3391.0, 3391.0, 3391.0, 3391.0, 3391.0, 3391.0, 3391.0, 3391.0, 3390.0, 3391.0, 3391.0, 3391.0, 3391.0, 3390.0, 3391.0, 3391.0, 3391.0, 3390.0, 3390.0, 3390.0, 3391.0, 3390.0, 3390.0, 3390.0, 3390.0, 3390.0, 3390.0, 3390.0, 3390.0, 3390.0, 3390.0, 3390.0, 3390.0, 3390.0, 3390.0, 3390.0, 3390.0, 3390.0, 3390.0, 3390.0, 3390.0, 3390.0, 3390.0, 3390.0, 3390.0, 3390.0, 3390.0, 3390.0, 3390.0, 3390.0, 3390.0, 3390.0, 3390.0, 3390.0, 3390.0, 3390.0, 3390.0, 3390.0, 3390.0, 3390.0, 3390.0, 3390.0, 3390.0, 3390.0, 3390.0, 3390.0, 3390.0, 3390.0, 3390.0, 3390.0, 3390.0, 3390.0, 3390.0, 3390.0, 3390.0, 3390.0, 3389.0, 3389.0, 3390.0, 3389.0, 3389.0, 3389.0, 3389.0, 3389.0, 3389.0, 3389.0, 3389.0, 3389.0, 3389.0, 3389.0, 3389.0, 3389.0, 3389.0, 3389.0, 3389.0, 3389.0, 3389.0, 3389.0, 3389.0, 3389.0, 3389.0, 3389.0, 3389.0, 3389.0, 3389.0, 3389.0, 3389.0, 3389.0, 3389.0, 3389.0, 3389.0, 3389.0, 3389.0, 3389.0, 3389.0, 3389.0, 3389.0, 3389.0, 3389.0, 3389.0, 3389.0, 3389.0, 3389.0, 3389.0, 3388.0, 3389.0, 3388.0]
    },
    "slices": {}
  }
}