{
  "AcquisitionMatrixPE": 80,
  "AcquisitionNumber": 1,
  "AcquisitionTime": "10:44:3.492500",
  "BandwidthPerPixelPhaseEncode": 48.077,
  "BaseResolution": 80,
  "BodyPartExamined": "BRAIN",
  "CoilCombinationMethod": "Sum of Squares",
  "ConsistencyInfo": "N4_VE11C_LATEST_20160120",
  "ConversionSoftware": "dcm2niix",
  "ConversionSoftwareVersion": "v1.0.20220720",
  "DerivedVendorReportedEchoSpacing": 0.000519999,
  "DeviceSerialNumber": "66112",
  "DwellTime": 2.7e-06,
  "EchoTime": 0.035,
  "EchoTrainLength": 39,
  "EffectiveEchoSpacing": 0.00026,
  "FlipAngle": 90,
  "HeudiconvVersion": "0.13.1",
  "ImageOrientationPatientDICOM": [0.976973, 0.21311, 0.0103851, -0.205881, 0.928817, 0.308078],
  "ImageOrientationText": "Tra>Cor(17.7)>Sag(-3.2)",
  "ImageType": [
    "ORIGINAL",
    "PRIMARY",
    "M",
    "ND",
    "NORM",
    "MOSAIC"
],
  "ImagingFrequency": 123.252,
  "InPlanePhaseEncodingDirectionDICOM": "COL",
  "InstitutionAddress": "Maynard 3,Hanover,NH,US,03755",
  "InstitutionName": "Dartmouth College - PBS",
  "InstitutionalDepartmentName": "Department",
  "MRAcquisitionType": "2D",
  "MagneticFieldStrength": 3,
  "Manufacturer": "Siemens",
  "ManufacturersModelName": "Prisma",
  "MatrixCoilMode": "GRAPPA",
  "Modality": "MR",
  "NonlinearGradientCorrection": false,
  "ParallelReductionFactorInPlane": 2,
  "PartialFourier": 1,
  "PatientPosition": "HFS",
  "PercentPhaseFOV": 100,
  "PercentSampling": 100,
  "PhaseEncodingDirection": "j-",
  "PhaseEncodingSteps": 79,
  "PhaseResolution": 1,
  "PixelBandwidth": 2315,
  "ProcedureStepDescription": "dbic^QA",
  "ProtocolName": "func-bold_task-rest_acq-p2",
  "PulseSequenceDetails": "%SiemensSeq%\\ep2d_bold",
  "ReceiveCoilActiveElements": "HEA;HEP",
  "ReceiveCoilName": "Head_32",
  "ReconMatrixPE": 80,
  "RefLinesPE": 24,
  "RepetitionTime": 2,
  "SAR": 0.055792,
  "ScanOptions": "FS",
  "ScanningSequence": "EP",
  "SequenceName": "*epfid2d1_80",
  "SequenceVariant": "SK",
  "SeriesDescription": "func-bold_task-rest_acq-p2",
  "SeriesNumber": 5,
  "ShimSetting": [4147, -7705, -7510, 256, -60, -119, -4, 66],
  "SliceThickness": 3.5,
  "SliceTiming": [0.99, 0, 1.055, 0.065, 1.1225, 0.1325, 1.1875, 0.1975, 1.2525, 0.2625, 1.32, 0.33, 1.385, 0.395, 1.4525, 0.4625, 1.5175, 0.5275, 1.5825, 0.5925, 1.65, 0.66, 1.715, 0.725, 1.7825, 0.7925, 1.8475, 0.8575, 1.9125, 0.9225],
  "SoftwareVersions": "syngo MR E11",
  "SpacingBetweenSlices": 3.99,
  "StationName": "AWP66112",
  "TaskName": "rest",
  "TotalReadoutTime": 0.02054,
  "TxRefAmp": 222.103,
  "dcmmeta_affine": [
    [-2.9309189319610596, -0.6176415681838989, -0.22347503900527954, 146.07608032226562],
    [-0.6393303871154785, 2.7864506244659424, 1.209458589553833, -88.85784149169922],
    [0.031155329197645187, -0.9242355227470398, 3.795703887939453, -15.94377613067627],
    [0.0, 0.0, 0.0, 1.0]
],
  "dcmmeta_reorient_transform": [
    [0.0, -1.0, 0.0, 79.0],
    [1.0, 0.0, 0.0, 0.0],
    [0.0, 0.0, 1.0, 0.0],
    [0.0, 0.0, 0.0, 1.0]
],
  "dcmmeta_shape": [80, 80, 30, 200],
  "dcmmeta_slice_dim": 2,
  "dcmmeta_version": 0.6,
  "global": {
    "const": {
      "AccessionNumber": "qa",
      "AcquisitionMatrix": [80, 0, 0, 80],
      "AngioFlag": "N",
      "BitsAllocated": 16,
      "BitsStored": 12,
      "BodyPartExamined": "BRAIN",
      "Columns": 480,
      "EchoNumbers": 1,
      "EchoTime": 35.0,
      "EchoTrainLength": 39,
      "FlipAngle": 90.0,
      "HighBit": 11,
      "ImageOrientationPatient": [0.97697299033006, 0.213110125677, 0.01038510950713, -0.2058805290588, 0.92881690371904, 0.30807850804663],
      "ImagePositionPatient": [-559.93787149654, -816.42798593398, -280.03655289921],
      "ImageType": [
        "ORIGINAL",
        "PRIMARY",
        "M",
        "ND",
        "NORM",
        "MOSAIC"
],
      "ImagedNucleus": "1H",
      "ImagingFrequency": 123.252311,
      "InPlanePhaseEncodingDirection": "COL",
      "MRAcquisitionType": "2D",
      "MagneticFieldStrength": 3.0,
      "Manufacturer": "SIEMENS",
      "ManufacturerModelName": "Prisma",
      "Modality": "MR",
      "NumberOfAverages": 1.0,
      "NumberOfPhaseEncodingSteps": 79,
      "PercentPhaseFieldOfView": 100.0,
      "PercentSampling": 100.0,
      "PerformedProcedureStepStartTime": "104046.674000",
      "PhotometricInterpretation": "MONOCHROME2",
      "PixelBandwidth": 2315.0,
      "PixelRepresentation": 0,
      "PixelSpacing": [3.0, 3.0],
      "ProtocolName": "func-bold_task-rest_acq-p2",
      "RepetitionTime": 2000.0,
      "Rows": 480,
      "SAR": 0.05579204068697,
      "SamplesPerPixel": 1,
      "ScanOptions": "FS",
      "ScanningSequence": "EP",
      "SequenceName": "*epfid2d1_80",
      "SequenceVariant": "SK",
      "SeriesDescription": "func-bold_task-rest_acq-p2",
      "SeriesNumber": 5,
      "SeriesTime": "104452.881000",
      "SliceLocation": -50.283733123326,
      "SliceThickness": 3.5,
      "SmallestImagePixelValue": 0,
      "SoftwareVersions": "syngo MR E11",
      "SpacingBetweenSlices": 3.9899999100062,
      "SpecificCharacterSet": "ISO_IR 100",
      "StudyID": "5",
      "StudyTime": "104046.615000",
      "TransmitCoilName": "Body",
      "VariableFlipAngleFlag": "N",
      "WindowCenterWidthExplanation": "Algo1",
      "dBdt": 0.0},
    "slices": {}
  },
  "time": {
    "samples": {
      "AcquisitionNumber": [1, 2, 3, 4, 5, 6, 7, 8, 9, 10, 11, 12, 13, 14, 15, 16, 17, 18, 19, 20, 21, 22, 23, 24, 25, 26, 27, 28, 29, 30, 31, 32, 33, 34, 35, 36, 37, 38, 39, 40, 41, 42, 43, 44, 45, 46, 47, 48, 49, 50, 51, 52, 53, 54, 55, 56, 57, 58, 59, 60, 61, 62, 63, 64, 65, 66, 67, 68, 69, 70, 71, 72, 73, 74, 75, 76, 77, 78, 79, 80, 81, 82, 83, 84, 85, 86, 87, 88, 89, 90, 91, 92, 93, 94, 95, 96, 97, 98, 99, 100, 101, 102, 103, 104, 105, 106, 107, 108, 109, 110, 111, 112, 113, 114, 115, 116, 117, 118, 119, 120, 121, 122, 123, 124, 125, 126, 127, 128, 129, 130, 131, 132, 133, 134, 135, 136, 137, 138, 139, 140, 141, 142, 143, 144, 145, 146, 147, 148, 149, 150, 151, 152, 153, 154, 155, 156, 157, 158, 159, 160, 161, 162, 163, 164, 165, 166, 167, 168, 169, 170, 171, 172, 173, 174, 175, 176, 177, 178, 179, 180, 181, 182, 183, 184, 185, 186, 187, 188, 189, 190, 191, 192, 193, 194, 195, 196, 197, 198, 199, 200],
      "AcquisitionTime": ["104403.492500", "104405.492500", "104407.492500", "104409.492500", "104411.492500", "104413.492500", "104415.492500", "104417.492500", "104419.492500", "104421.492500", "104423.492500", "104425.492500", "104427.492500", "104429.492500", "104431.492500", "104433.492500", "104435.492500", "104437.492500", "104439.492500", "104441.492500", "104443.492500", "104445.492500", "104447.492500", "104449.492500", "104451.492500", "104453.492500", "104455.492500", "104457.492500", "104459.492500", "104501.492500", "104503.492500", "104505.492500", "104507.492500", "104509.492500", "104511.492500", "104513.492500", "104515.492500", "104517.492500", "104519.492500", "104521.492500", "104523.492500", "104525.492500", "104527.492500", "104529.492500", "104531.492500", "104533.492500", "104535.492500", "104537.492500", "104539.492500", "104541.492500", "104543.492500", "104545.492500", "104547.492500", "104549.492500", "104551.492500", "104553.492500", "104555.492500", "104557.492500", "104559.492500", "104601.492500", "104603.492500", "104605.492500", "104607.492500", "104609.492500", "104611.492500", "104613.492500", "104615.492500", "104617.492500", "104619.492500", "104621.492500", "104623.492500", "104625.492500", "104627.492500", "104629.492500", "104631.492500", "104633.492500", "104635.492500", "104637.492500", "104639.492500", "104641.492500", "104643.492500", "104645.492500", "104647.492500", "104649.492500", "104651.492500", "104653.492500", "104655.492500", "104657.492500", "104659.492500", "104701.492500", "104703.492500", "104705.492500", "104707.492500", "104709.492500", "104711.492500", "104713.492500", "104715.492500", "104717.492500", "104719.492500", "104721.492500", "104723.492500", "104725.492500", "104727.492500", "104729.492500", "104731.492500", "104733.492500", "104735.492500", "104737.492500", "104739.492500", "104741.492500", "104743.492500", "104745.492500", "104747.492500", "104749.492500", "104751.492500", "104753.492500", "104755.492500", "104757.492500", "104759.492500", "104801.492500", "104803.492500", "104805.492500", "104807.492500", "104809.492500", "104811.492500", "104813.492500", "104815.492500", "104817.492500", "104819.492500", "104821.492500", "104823.492500", "104825.492500", "104827.492500", "104829.492500", "104831.492500", "104833.492500", "104835.492500", "104837.492500", "104839.492500", "104841.492500", "104843.492500", "104845.492500", "104847.492500", "104849.492500", "104851.492500", "104853.492500", "104855.492500", "104857.492500", "104859.492500", "104901.492500", "104903.492500", "104905.492500", "104907.492500", "104909.492500", "104911.492500", "104913.492500", "104915.492500", "104917.492500", "104919.492500", "104921.492500", "104923.492500", "104925.492500", "104927.492500", "104929.492500", "104931.492500", "104933.492500", "104935.492500", "104937.492500", "104939.492500", "104941.492500", "104943.492500", "104945.492500", "104947.492500", "104949.492500", "104951.492500", "104953.492500", "104955.492500", "104957.492500", "104959.492500", "105001.492500", "105003.492500", "105005.492500", "105007.492500", "105009.492500", "105011.492500", "105013.492500", "105015.492500", "105017.492500", "105019.492500", "105021.492500", "105023.492500", "105025.492500", "105027.492500", "105029.492500", "105031.492500", "105033.492500", "105035.492500", "105037.492500", "105039.492500", "105041.492500"],
      "ContentTime": ["104452.884000", "104452.888000", "104452.890000", "104452.893000", "104452.895000", "104452.898000", "104452.901000", "104452.903000", "104452.906000", "104452.908000", "104452.911000", "104452.913000", "104452.916000", "104452.919000", "104452.921000", "104452.923000", "104452.926000", "104452.929000", "104452.931000", "104452.934000", "104452.936000", "104452.939000", "104452.941000", "104452.944000", "104532.879000", "104532.882000", "104532.885000", "104532.888000", "104532.890000", "104532.893000", "104532.895000", "104532.898000", "104532.900000", "104532.903000", "104532.906000", "104532.908000", "104532.911000", "104532.913000", "104532.916000", "104532.918000", "104532.921000", "104532.923000", "104532.926000", "104532.928000", "104612.878000", "104612.881000", "104612.884000", "104612.887000", "104612.889000", "104612.892000", "104612.895000", "104612.897000", "104612.900000", "104612.902000", "104612.905000", "104612.907000", "104612.910000", "104612.912000", "104612.915000", "104612.918000", "104612.920000", "104612.923000", "104612.925000", "104612.928000", "104652.879000", "104652.882000", "104652.885000", "104652.887000", "104652.890000", "104652.893000", "104652.895000", "104652.898000", "104652.900000", "104652.903000", "104652.906000", "104652.908000", "104652.911000", "104652.913000", "104652.916000", "104652.918000", "104652.921000", "104652.923000", "104652.926000", "104652.928000", "104732.879000", "104732.882000", "104732.885000", "104732.888000", "104732.890000", "104732.893000", "104732.895000", "104732.898000", "104732.900000", "104732.903000", "104732.906000", "104732.908000", "104732.911000", "104732.913000", "104732.916000", "104732.918000", "104732.921000", "104732.923000", "104732.926000", "104732.929000", "104812.879000", "104812.881000", "104812.884000", "104812.887000", "104812.889000", "104812.892000", "104812.895000", "104812.897000", "104812.900000", "104812.902000", "104812.905000", "104812.907000", "104812.910000", "104812.913000", "104812.915000", "104812.918000", "104812.920000", "104812.923000", "104812.926000", "104812.928000", "104852.879000", "104852.882000", "104852.885000", "104852.888000", "104852.890000", "104852.893000", "104852.895000", "104852.898000", "104852.900000", "104852.903000", "104852.905000", "104852.908000", "104852.910000", "104852.913000", "104852.916000", "104852.918000", "104852.921000", "104852.923000", "104852.926000", "104852.929000", "104932.880000", "104932.882000", "104932.885000", "104932.888000", "104932.890000", "104932.893000", "104932.896000", "104932.898000", "104932.901000", "104932.903000", "104932.906000", "104932.908000", "104932.911000", "104932.914000", "104932.916000", "104932.919000", "104932.921000", "104932.924000", "104932.927000", "104932.929000", "105012.880000", "105012.882000", "105012.885000", "105012.888000", "105012.890000", "105012.893000", "105012.895000", "105012.898000", "105012.900000", "105012.903000", "105012.906000", "105012.908000", "105012.911000", "105012.913000", "105012.916000", "105012.918000", "105012.921000", "105012.923000", "105012.926000", "105012.929000", "105043.313000", "105043.316000", "105043.319000", "105043.322000", "105043.324000", "105043.327000", "105043.330000", "105043.332000", "105043.335000", "105043.337000", "105043.340000", "105043.347000", "105043.350000", "105043.359000", "105043.365000", "105043.368000"],
      "InstanceCreationTime": ["104452.884000", "104452.888000", "104452.890000", "104452.893000", "104452.895000", "104452.898000", "104452.901000", "104452.903000", "104452.906000", "104452.908000", "104452.911000", "104452.913000", "104452.916000", "104452.919000", "104452.921000", "104452.923000", "104452.926000", "104452.929000", "104452.931000", "104452.934000", "104452.936000", "104452.939000", "104452.941000", "104452.944000", "104532.879000", "104532.882000", "104532.885000", "104532.888000", "104532.890000", "104532.893000", "104532.895000", "104532.898000", "104532.900000", "104532.903000", "104532.906000", "104532.908000", "104532.911000", "104532.913000", "104532.916000", "104532.918000", "104532.921000", "104532.923000", "104532.926000", "104532.928000", "104612.878000", "104612.881000", "104612.884000", "104612.887000", "104612.889000", "104612.892000", "104612.895000", "104612.897000", "104612.900000", "104612.902000", "104612.905000", "104612.907000", "104612.910000", "104612.912000", "104612.915000", "104612.918000", "104612.920000", "104612.923000", "104612.925000", "104612.928000", "104652.879000", "104652.882000", "104652.885000", "104652.887000", "104652.890000", "104652.893000", "104652.895000", "104652.898000", "104652.900000", "104652.903000", "104652.906000", "104652.908000", "104652.911000", "104652.913000", "104652.916000", "104652.918000", "104652.921000", "104652.923000", "104652.926000", "104652.928000", "104732.879000", "104732.882000", "104732.885000", "104732.888000", "104732.890000", "104732.893000", "104732.895000", "104732.898000", "104732.900000", "104732.903000", "104732.906000", "104732.908000", "104732.911000", "104732.913000", "104732.916000", "104732.918000", "104732.921000", "104732.923000", "104732.926000", "104732.929000", "104812.879000", "104812.881000", "104812.884000", "104812.887000", "104812.889000", "104812.892000", "104812.895000", "104812.897000", "104812.900000", "104812.902000", "104812.905000", "104812.907000", "104812.910000", "104812.913000", "104812.915000", "104812.918000", "104812.920000", "104812.923000", "104812.926000", "104812.928000", "104852.879000", "104852.882000", "104852.885000", "104852.888000", "104852.890000", "104852.893000", "104852.895000", "104852.898000", "104852.900000", "104852.903000", "104852.905000", "104852.908000", "104852.910000", "104852.913000", "104852.916000", "104852.918000", "104852.921000", "104852.923000", "104852.926000", "104852.929000", "104932.880000", "104932.882000", "104932.885000", "104932.888000", "104932.890000", "104932.893000", "104932.896000", "104932.898000", "104932.901000", "104932.903000", "104932.906000", "104932.908000", "104932.911000", "104932.914000", "104932.916000", "104932.919000", "104932.921000", "104932.924000", "104932.927000", "104932.929000", "105012.880000", "105012.882000", "105012.885000", "105012.888000", "105012.890000", "105012.893000", "105012.895000", "105012.898000", "105012.900000", "105012.903000", "105012.906000", "105012.908000", "105012.911000", "105012.913000", "105012.916000", "105012.918000", "105012.921000", "105012.923000", "105012.926000", "105012.929000", "105043.313000", "105043.316000", "105043.319000", "105043.322000", "105043.324000", "105043.327000", "105043.330000", "105043.332000", "105043.335000", "105043.337000", "105043.340000", "105043.347000", "105043.350000", "105043.359000", "105043.365000", "105043.368000"],
      "InstanceNumber": [1, 2, 3, 4, 5, 6, 7, 8, 9, 10, 11, 12, 13, 14, 15, 16, 17, 18, 19, 20, 21, 22, 23, 24, 25, 26, 27, 28, 29, 30, 31, 32, 33, 34, 35, 36, 37, 38, 39, 40, 41, 42, 43, 44, 45, 46, 47, 48, 49, 50, 51, 52, 53, 54, 55, 56, 57, 58, 59, 60, 61, 62, 63, 64, 65, 66, 67, 68, 69, 70, 71, 72, 73, 74, 75, 76, 77, 78, 79, 80, 81, 82, 83, 84, 85, 86, 87, 88, 89, 90, 91, 92, 93, 94, 95, 96, 97, 98, 99, 100, 101, 102, 103, 104, 105, 106, 107, 108, 109, 110, 111, 112, 113, 114, 115, 116, 117, 118, 119, 120, 121, 122, 123, 124, 125, 126, 127, 128, 129, 130, 131, 132, 133, 134, 135, 136, 137, 138, 139, 140, 141, 142, 143, 144, 145, 146, 147, 148, 149, 150, 151, 152, 153, 154, 155, 156, 157, 158, 159, 160, 161, 162, 163, 164, 165, 166, 167, 168, 169, 170, 171, 172, 173, 174, 175, 176, 177, 178, 179, 180, 181, 182, 183, 184, 185, 186, 187, 188, 189, 190, 191, 192, 193, 194, 195, 196, 197, 198, 199, 200],
      "LargestImagePixelValue": [1974, 1970, 1974, 1964, 1974, 1964, 1978, 1974, 1972, 1970, 1977, 1976, 1970, 1968, 1969, 1973, 1973, 1973, 1978, 1965, 1973, 1978, 1972, 1971, 1969, 1971, 1970, 1972, 1969, 1971, 1969, 1971, 1978, 1970, 1970, 1965, 1970, 1969, 1975, 1967, 1969, 1974, 1975, 1965, 1974, 1976, 1976, 1971, 1976, 1973, 1972, 1970, 1970, 1975, 1971, 1972, 1965, 1970, 1969, 1968, 1969, 1968, 1972, 1974, 1977, 1967, 1967, 1971, 1976, 1975, 1973, 1972, 1965, 1974, 1970, 1969, 1969, 1972, 1969, 1973, 1976, 1971, 1977, 1974, 1971, 1967, 1974, 1973, 1967, 1978, 1972, 1971, 1978, 1971, 1965, 1973, 1972, 1970, 1973, 1969, 1973, 1970, 1964, 1973, 1969, 1961, 1969, 1966, 1970, 1966, 1972, 1968, 1968, 1967, 1971, 1970, 1969, 1968, 1968, 1969, 1973, 1971, 1971, 1966, 1970, 1966, 1975, 1975, 1967, 1965, 1975, 1966, 1972, 1962, 1975, 1966, 1965, 1968, 1975, 1969, 1968, 1966, 1973, 1971, 1974, 1966, 1969, 1973, 1966, 1969, 1974, 1973, 1968, 1973, 1968, 1972, 1974, 1968, 1967, 1971, 1965, 1969, 1967, 1967, 1974, 1973, 1972, 1966, 1967, 1965, 1971, 1973, 1966, 1967, 1965, 1967, 1971, 1966, 1968, 1972, 1967, 1968, 1972, 1970, 1970, 1963, 1970, 1970, 1968, 1968, 1968, 1967, 1972, 1967, 1966, 1974, 1975, 1965, 1975, 1970],
      "WindowCenter": [987.0, 988.0, 987.0, 987.0, 987.0, 988.0, 987.0, 987.0, 987.0, 988.0, 987.0, 987.0, 987.0, 987.0, 987.0, 987.0, 987.0, 987.0, 987.0, 987.0, 987.0, 987.0, 987.0, 987.0, 987.0, 987.0, 987.0, 986.0, 987.0, 986.0, 987.0, 987.0, 987.0, 987.0, 986.0, 987.0, 987.0, 987.0, 987.0, 986.0, 986.0, 986.0, 986.0, 987.0, 986.0, 987.0, 986.0, 986.0, 986.0, 986.0, 986.0, 987.0, 986.0, 986.0, 987.0, 986.0, 986.0, 987.0, 986.0, 986.0, 986.0, 987.0, 987.0, 987.0, 988.0, 986.0, 986.0, 986.0, 987.0, 986.0, 986.0, 987.0, 986.0, 986.0, 986.0, 986.0, 986.0, 986.0, 986.0, 986.0, 986.0, 986.0, 986.0, 986.0, 986.0, 986.0, 986.0, 986.0, 986.0, 986.0, 986.0, 986.0, 986.0, 987.0, 986.0, 986.0, 987.0, 986.0, 987.0, 986.0, 987.0, 986.0, 986.0, 986.0, 986.0, 987.0, 986.0, 986.0, 986.0, 986.0, 986.0, 986.0, 986.0, 987.0, 986.0, 986.0, 987.0, 986.0, 986.0, 986.0, 986.0, 987.0, 987.0, 986.0, 986.0, 987.0, 986.0, 986.0, 986.0, 986.0, 986.0, 986.0, 987.0, 986.0, 986.0, 986.0, 986.0, 987.0, 987.0, 986.0, 986.0, 986.0, 987.0, 986.0, 986.0, 987.0, 986.0, 986.0, 986.0, 986.0, 986.0, 986.0, 986.0, 987.0, 986.0, 987.0, 986.0, 986.0, 986.0, 986.0, 986.0, 987.0, 986.0, 986.0, 986.0, 986.0, 987.0, 986.0, 986.0, 987.0, 987.0, 986.0, 987.0, 986.0, 987.0, 986.0, 986.0, 986.0, 986.0, 987.0, 986.0, 986.0, 986.0, 987.0, 986.0, 986.0, 986.0, 986.0, 986.0, 986.0, 986.0, 986.0, 986.0, 986.0, 986.0, 986.0, 986.0, 986.0, 987.0, 986.0],
      "WindowWidth": [2162.0, 2162.0, 2162.0, 2161.0, 2162.0, 2162.0, 2161.0, 2161.0, 2161.0, 2162.0, 2161.0, 2161.0, 2161.0, 2161.0, 2161.0, 2161.0, 2161.0, 2162.0, 2161.0, 2161.0, 2161.0, 2160.0, 2160.0, 2160.0, 2161.0, 2161.0, 2160.0, 2160.0, 2160.0, 2160.0, 2160.0, 2161.0, 2160.0, 2160.0, 2160.0, 2161.0, 2161.0, 2161.0, 2160.0, 2160.0, 2160.0, 2160.0, 2160.0, 2161.0, 2160.0, 2161.0, 2160.0, 2160.0, 2160.0, 2160.0, 2160.0, 2161.0, 2160.0, 2160.0, 2161.0, 2159.0, 2160.0, 2160.0, 2160.0, 2160.0, 2160.0, 2160.0, 2160.0, 2160.0, 2161.0, 2160.0, 2159.0, 2159.0, 2160.0, 2160.0, 2160.0, 2160.0, 2159.0, 2159.0, 2160.0, 2159.0, 2160.0, 2160.0, 2159.0, 2160.0, 2159.0, 2159.0, 2159.0, 2159.0, 2159.0, 2159.0, 2159.0, 2159.0, 2159.0, 2159.0, 2159.0, 2159.0, 2159.0, 2160.0, 2159.0, 2159.0, 2160.0, 2159.0, 2160.0, 2159.0, 2160.0, 2159.0, 2159.0, 2159.0, 2159.0, 2160.0, 2159.0, 2159.0, 2159.0, 2159.0, 2159.0, 2159.0, 2159.0, 2160.0, 2159.0, 2159.0, 2160.0, 2159.0, 2159.0, 2159.0, 2159.0, 2160.0, 2160.0, 2159.0, 2159.0, 2160.0, 2159.0, 2159.0, 2159.0, 2159.0, 2159.0, 2159.0, 2160.0, 2159.0, 2159.0, 2159.0, 2159.0, 2160.0, 2160.0, 2159.0, 2159.0, 2159.0, 2159.0, 2159.0, 2159.0, 2160.0, 2159.0, 2159.0, 2159.0, 2159.0, 2159.0, 2159.0, 2159.0, 2159.0, 2159.0, 2159.0, 2159.0, 2159.0, 2159.0, 2159.0, 2159.0, 2159.0, 2159.0, 2159.0, 2159.0, 2159.0, 2159.0, 2159.0, 2159.0, 2159.0, 2159.0, 2159.0, 2159.0, 2159.0, 2160.0, 2159.0, 2159.0, 2159.0, 2159.0, 2160.0, 2159.0, 2159.0, 2159.0, 2159.0, 2159.0, 2159.0, 2159.0, 2159.0, 2159.0, 2159.0, 2159.0, 2159.0, 2158.0, 2158.0, 2158.0, 2158.0, 2159.0, 2158.0, 2160.0, 2158.0]
    },
    "slices": {}
  }
}