{
  "AcquisitionMatrixPE": 80,
  "AcquisitionNumber": 1,
  "AcquisitionTime": "11:04:31.517500",
  "BandwidthPerPixelPhaseEncode": 25,
  "BaseResolution": 80,
  "BodyPartExamined": "BRAIN",
  "CoilCombinationMethod": "Sum of Squares",
  "ConsistencyInfo": "N4_VE11C_LATEST_20160120",
  "ConversionSoftware": "dcm2niix",
  "ConversionSoftwareVersion": "v1.0.20220720",
  "DerivedVendorReportedEchoSpacing": 0.0005,
  "DeviceSerialNumber": "66112",
  "DwellTime": 2.7e-06,
  "EchoTime": 0.03,
  "EchoTrainLength": 80,
  "EffectiveEchoSpacing": 0.0005,
  "FlipAngle": 10,
  "HeudiconvVersion": "0.13.1",
  "ImageOrientationPatientDICOM": [0.976973, 0.21311, 0.0103851, -0.205881, 0.928817, 0.308078],
  "ImageOrientationText": "Tra>Cor(17.7)>Sag(-3.2)",
  "ImageType": [
    "ORIGINAL",
    "PRIMARY",
    "M",
    "ND",
    "NORM",
    "MOSAIC"
],
  "ImagingFrequency": 123.252,
  "InPlanePhaseEncodingDirectionDICOM": "COL",
  "InstitutionAddress": "Maynard 3,Hanover,NH,US,03755",
  "InstitutionName": "Dartmouth College - PBS",
  "InstitutionalDepartmentName": "Department",
  "MRAcquisitionType": "2D",
  "MagneticFieldStrength": 3,
  "Manufacturer": "Siemens",
  "ManufacturersModelName": "Prisma",
  "MatrixCoilMode": "SENSE",
  "Modality": "MR",
  "NonlinearGradientCorrection": false,
  "PartialFourier": 1,
  "PatientPosition": "HFS",
  "PercentPhaseFOV": 100,
  "PercentSampling": 100,
  "PhaseEncodingDirection": "j-",
  "PhaseEncodingSteps": 80,
  "PhaseResolution": 1,
  "PixelBandwidth": 2315,
  "ProcedureStepDescription": "dbic^QA",
  "ProtocolName": "func-bold_fa-10",
  "PulseSequenceDetails": "%SiemensSeq%\\ep2d_bold",
  "ReceiveCoilActiveElements": "HEA;HEP",
  "ReceiveCoilName": "Head_32",
  "ReconMatrixPE": 80,
  "RepetitionTime": 2,
  "SAR": 0.0117612,
  "ScanOptions": "FS",
  "ScanningSequence": "EP",
  "SequenceName": "*epfid2d1_80",
  "SequenceVariant": "SK",
  "SeriesDescription": "func-bold_fa-10",
  "SeriesNumber": 10,
  "ShimSetting": [4147, -7705, -7511, 256, -60, -116, -3, 66],
  "SliceThickness": 3.5,
  "SliceTiming": [0.99, 0, 1.055, 0.065, 1.12, 0.13, 1.1875, 0.1975, 1.2525, 0.2625, 1.32, 0.33, 1.385, 0.395, 1.45, 0.46, 1.5175, 0.5275, 1.5825, 0.5925, 1.65, 0.66, 1.715, 0.725, 1.78, 0.79, 1.8475, 0.8575, 1.9125, 0.9225],
  "SoftwareVersions": "syngo MR E11",
  "SpacingBetweenSlices": 3.99,
  "StationName": "AWP66112",
  "TotalReadoutTime": 0.0395,
  "TxRefAmp": 222.103,
  "dcmmeta_affine": [
    [-2.9309189319610596, -0.6176415681838989, -0.22347505390644073, 145.96847534179688],
    [-0.6393303871154785, 2.7864506244659424, 1.2094587087631226, -88.27561950683594],
    [0.031155329197645187, -0.9242355227470398, 3.795703887939453, -14.119454383850098],
    [0.0, 0.0, 0.0, 1.0]
],
  "dcmmeta_reorient_transform": [
    [0.0, -1.0, 0.0, 79.0],
    [1.0, 0.0, 0.0, 0.0],
    [0.0, 0.0, 1.0, 0.0],
    [0.0, 0.0, 0.0, 1.0]
],
  "dcmmeta_shape": [80, 80, 30, 200],
  "dcmmeta_slice_dim": 2,
  "dcmmeta_version": 0.6,
  "global": {
    "const": {
      "AccessionNumber": "qa",
      "AcquisitionMatrix": [80, 0, 0, 80],
      "AngioFlag": "N",
      "BitsAllocated": 16,
      "BitsStored": 12,
      "BodyPartExamined": "BRAIN",
      "Columns": 480,
      "EchoNumbers": 1,
      "EchoTime": 30.0,
      "EchoTrainLength": 80,
      "FlipAngle": 10.0,
      "HighBit": 11,
      "ImageOrientationPatient": [0.97697299033006, 0.213110125677, 0.01038510950713, -0.2058805290588, 0.92881690371904, 0.30807850804663],
      "ImagePositionPatient": [-559.83026365505, -817.01020076628, -278.21223115238],
      "ImageType": [
        "ORIGINAL",
        "PRIMARY",
        "M",
        "ND",
        "NORM",
        "MOSAIC"
],
      "ImagedNucleus": "1H",
      "ImagingFrequency": 123.252315,
      "InPlanePhaseEncodingDirection": "COL",
      "MRAcquisitionType": "2D",
      "MagneticFieldStrength": 3.0,
      "Manufacturer": "SIEMENS",
      "ManufacturerModelName": "Prisma",
      "Modality": "MR",
      "NumberOfAverages": 1.0,
      "NumberOfPhaseEncodingSteps": 80,
      "PercentPhaseFieldOfView": 100.0,
      "PercentSampling": 100.0,
      "PerformedProcedureStepStartTime": "104046.674000",
      "PhotometricInterpretation": "MONOCHROME2",
      "PixelBandwidth": 2315.0,
      "PixelRepresentation": 0,
      "PixelSpacing": [3.0, 3.0],
      "ProtocolName": "func-bold_fa-10",
      "RepetitionTime": 2000.0,
      "Rows": 480,
      "SAR": 0.01176115926102,
      "SamplesPerPixel": 1,
      "ScanOptions": "FS",
      "ScanningSequence": "EP",
      "SequenceName": "*epfid2d1_80",
      "SequenceVariant": "SK",
      "SeriesDescription": "func-bold_fa-10",
      "SeriesNumber": 10,
      "SeriesTime": "110512.881000",
      "SliceLocation": -48.36573870192,
      "SliceThickness": 3.5,
      "SmallestImagePixelValue": 0,
      "SoftwareVersions": "syngo MR E11",
      "SpacingBetweenSlices": 3.9900000303881,
      "SpecificCharacterSet": "ISO_IR 100",
      "StudyID": "5",
      "StudyTime": "104046.615000",
      "TransmitCoilName": "Body",
      "VariableFlipAngleFlag": "N",
      "WindowCenterWidthExplanation": "Algo1",
      "dBdt": 0.0},
    "slices": {}
  },
  "time": {
    "samples": {
      "AcquisitionNumber": [1, 2, 3, 4, 5, 6, 7, 8, 9, 10, 11, 12, 13, 14, 15, 16, 17, 18, 19, 20, 21, 22, 23, 24, 25, 26, 27, 28, 29, 30, 31, 32, 33, 34, 35, 36, 37, 38, 39, 40, 41, 42, 43, 44, 45, 46, 47, 48, 49, 50, 51, 52, 53, 54, 55, 56, 57, 58, 59, 60, 61, 62, 63, 64, 65, 66, 67, 68, 69, 70, 71, 72, 73, 74, 75, 76, 77, 78, 79, 80, 81, 82, 83, 84, 85, 86, 87, 88, 89, 90, 91, 92, 93, 94, 95, 96, 97, 98, 99, 100, 101, 102, 103, 104, 105, 106, 107, 108, 109, 110, 111, 112, 113, 114, 115, 116, 117, 118, 119, 120, 121, 122, 123, 124, 125, 126, 127, 128, 129, 130, 131, 132, 133, 134, 135, 136, 137, 138, 139, 140, 141, 142, 143, 144, 145, 146, 147, 148, 149, 150, 151, 152, 153, 154, 155, 156, 157, 158, 159, 160, 161, 162, 163, 164, 165, 166, 167, 168, 169, 170, 171, 172, 173, 174, 175, 176, 177, 178, 179, 180, 181, 182, 183, 184, 185, 186, 187, 188, 189, 190, 191, 192, 193, 194, 195, 196, 197, 198, 199, 200],
      "AcquisitionTime": ["110431.517500", "110433.517500", "110435.517500", "110437.517500", "110439.517500", "110441.517500", "110443.517500", "110445.517500", "110447.517500", "110449.517500", "110451.517500", "110453.517500", "110455.517500", "110457.517500", "110459.517500", "110501.517500", "110503.517500", "110505.517500", "110507.517500", "110509.517500", "110511.517500", "110513.517500", "110515.517500", "110517.517500", "110519.517500", "110521.517500", "110523.517500", "110525.517500", "110527.517500", "110529.517500", "110531.517500", "110533.517500", "110535.517500", "110537.517500", "110539.517500", "110541.517500", "110543.517500", "110545.517500", "110547.517500", "110549.517500", "110551.517500", "110553.517500", "110555.517500", "110557.517500", "110559.517500", "110601.517500", "110603.517500", "110605.517500", "110607.517500", "110609.517500", "110611.517500", "110613.517500", "110615.517500", "110617.517500", "110619.517500", "110621.517500", "110623.517500", "110625.517500", "110627.517500", "110629.517500", "110631.517500", "110633.517500", "110635.517500", "110637.517500", "110639.517500", "110641.517500", "110643.517500", "110645.517500", "110647.517500", "110649.517500", "110651.517500", "110653.517500", "110655.517500", "110657.517500", "110659.517500", "110701.517500", "110703.517500", "110705.517500", "110707.517500", "110709.517500", "110711.517500", "110713.517500", "110715.517500", "110717.517500", "110719.517500", "110721.517500", "110723.517500", "110725.517500", "110727.517500", "110729.517500", "110731.517500", "110733.517500", "110735.517500", "110737.517500", "110739.517500", "110741.517500", "110743.517500", "110745.517500", "110747.517500", "110749.517500", "110751.517500", "110753.517500", "110755.517500", "110757.517500", "110759.517500", "110801.517500", "110803.517500", "110805.517500", "110807.517500", "110809.517500", "110811.517500", "110813.517500", "110815.517500", "110817.517500", "110819.517500", "110821.517500", "110823.517500", "110825.517500", "110827.517500", "110829.517500", "110831.517500", "110833.517500", "110835.517500", "110837.517500", "110839.517500", "110841.517500", "110843.517500", "110845.517500", "110847.517500", "110849.517500", "110851.517500", "110853.517500", "110855.517500", "110857.517500", "110859.517500", "110901.517500", "110903.517500", "110905.517500", "110907.517500", "110909.517500", "110911.517500", "110913.517500", "110915.517500", "110917.517500", "110919.517500", "110921.517500", "110923.517500", "110925.517500", "110927.517500", "110929.517500", "110931.517500", "110933.517500", "110935.517500", "110937.517500", "110939.517500", "110941.517500", "110943.517500", "110945.517500", "110947.517500", "110949.517500", "110951.517500", "110953.517500", "110955.517500", "110957.517500", "110959.517500", "111001.517500", "111003.517500", "111005.517500", "111007.517500", "111009.517500", "111011.517500", "111013.517500", "111015.517500", "111017.517500", "111019.517500", "111021.517500", "111023.517500", "111025.517500", "111027.517500", "111029.517500", "111031.517500", "111033.517500", "111035.517500", "111037.517500", "111039.517500", "111041.517500", "111043.517500", "111045.517500", "111047.517500", "111049.517500", "111051.517500", "111053.517500", "111055.517500", "111057.517500", "111059.517500", "111101.517500", "111103.517500", "111105.517500", "111107.517500", "111109.517500"],
      "ContentTime": ["110512.884000", "110512.888000", "110512.890000", "110512.893000", "110512.895000", "110512.898000", "110512.900000", "110512.903000", "110512.905000", "110512.908000", "110512.910000", "110512.913000", "110512.915000", "110512.918000", "110512.920000", "110512.923000", "110512.925000", "110512.928000", "110512.930000", "110512.933000", "110552.879000", "110552.882000", "110552.885000", "110552.899000", "110552.901000", "110552.904000", "110552.906000", "110552.909000", "110552.911000", "110552.914000", "110552.916000", "110552.919000", "110552.921000", "110552.924000", "110552.926000", "110552.929000", "110552.931000", "110552.934000", "110552.936000", "110552.939000", "110632.879000", "110632.882000", "110632.885000", "110632.887000", "110632.890000", "110632.893000", "110632.895000", "110632.898000", "110632.900000", "110632.903000", "110632.905000", "110632.908000", "110632.910000", "110632.913000", "110632.915000", "110632.918000", "110632.920000", "110632.923000", "110632.925000", "110632.928000", "110712.878000", "110712.881000", "110712.884000", "110712.887000", "110712.889000", "110712.892000", "110712.894000", "110712.897000", "110712.899000", "110712.902000", "110712.904000", "110712.907000", "110712.909000", "110712.912000", "110712.914000", "110712.917000", "110712.919000", "110712.922000", "110712.925000", "110712.927000", "110752.879000", "110752.882000", "110752.885000", "110752.887000", "110752.890000", "110752.893000", "110752.895000", "110752.898000", "110752.900000", "110752.903000", "110752.905000", "110752.908000", "110752.910000", "110752.913000", "110752.915000", "110752.918000", "110752.920000", "110752.923000", "110752.925000", "110752.928000", "110832.879000", "110832.882000", "110832.885000", "110832.887000", "110832.890000", "110832.892000", "110832.895000", "110832.897000", "110832.900000", "110832.903000", "110832.905000", "110832.908000", "110832.910000", "110832.913000", "110832.915000", "110832.918000", "110832.920000", "110832.923000", "110832.925000", "110832.928000", "110912.878000", "110912.882000", "110912.884000", "110912.887000", "110912.889000", "110912.892000", "110912.894000", "110912.897000", "110912.899000", "110912.902000", "110912.904000", "110912.907000", "110912.909000", "110912.915000", "110912.917000", "110912.920000", "110912.922000", "110912.925000", "110912.927000", "110912.930000", "110932.878000", "110932.881000", "110932.884000", "110932.886000", "110932.889000", "110932.892000", "110932.894000", "110932.897000", "110932.899000", "110932.902000", "111012.879000", "111012.882000", "111012.885000", "111012.887000", "111012.890000", "111012.893000", "111012.895000", "111012.898000", "111012.900000", "111012.903000", "111012.905000", "111012.908000", "111012.910000", "111012.913000", "111012.915000", "111012.918000", "111012.920000", "111012.923000", "111012.925000", "111012.928000", "111052.879000", "111052.882000", "111052.885000", "111052.887000", "111052.890000", "111052.892000", "111052.895000", "111052.915000", "111052.918000", "111052.920000", "111052.923000", "111052.925000", "111052.928000", "111052.930000", "111052.933000", "111052.935000", "111052.938000", "111052.941000", "111052.943000", "111052.945000", "111111.307000", "111111.310000", "111111.312000", "111111.315000", "111111.317000", "111111.320000", "111111.322000", "111111.325000", "111111.327000", "111111.330000"],
      "InstanceCreationTime": ["110512.884000", "110512.888000", "110512.890000", "110512.893000", "110512.895000", "110512.898000", "110512.900000", "110512.903000", "110512.905000", "110512.908000", "110512.910000", "110512.913000", "110512.915000", "110512.918000", "110512.920000", "110512.923000", "110512.925000", "110512.928000", "110512.930000", "110512.933000", "110552.879000", "110552.882000", "110552.885000", "110552.899000", "110552.901000", "110552.904000", "110552.906000", "110552.909000", "110552.911000", "110552.914000", "110552.916000", "110552.919000", "110552.921000", "110552.924000", "110552.926000", "110552.929000", "110552.931000", "110552.934000", "110552.936000", "110552.939000", "110632.879000", "110632.882000", "110632.885000", "110632.887000", "110632.890000", "110632.893000", "110632.895000", "110632.898000", "110632.900000", "110632.903000", "110632.905000", "110632.908000", "110632.910000", "110632.913000", "110632.915000", "110632.918000", "110632.920000", "110632.923000", "110632.925000", "110632.928000", "110712.878000", "110712.881000", "110712.884000", "110712.887000", "110712.889000", "110712.892000", "110712.894000", "110712.897000", "110712.899000", "110712.902000", "110712.904000", "110712.907000", "110712.909000", "110712.912000", "110712.914000", "110712.917000", "110712.919000", "110712.922000", "110712.925000", "110712.927000", "110752.879000", "110752.882000", "110752.885000", "110752.887000", "110752.890000", "110752.893000", "110752.895000", "110752.898000", "110752.900000", "110752.903000", "110752.905000", "110752.908000", "110752.910000", "110752.913000", "110752.915000", "110752.918000", "110752.920000", "110752.923000", "110752.925000", "110752.928000", "110832.879000", "110832.882000", "110832.885000", "110832.887000", "110832.890000", "110832.892000", "110832.895000", "110832.897000", "110832.900000", "110832.903000", "110832.905000", "110832.908000", "110832.910000", "110832.913000", "110832.915000", "110832.918000", "110832.920000", "110832.923000", "110832.925000", "110832.928000", "110912.878000", "110912.882000", "110912.884000", "110912.887000", "110912.889000", "110912.892000", "110912.894000", "110912.897000", "110912.899000", "110912.902000", "110912.904000", "110912.907000", "110912.909000", "110912.915000", "110912.917000", "110912.920000", "110912.922000", "110912.925000", "110912.927000", "110912.930000", "110932.878000", "110932.881000", "110932.884000", "110932.886000", "110932.889000", "110932.892000", "110932.894000", "110932.897000", "110932.899000", "110932.902000", "111012.879000", "111012.882000", "111012.885000", "111012.887000", "111012.890000", "111012.893000", "111012.895000", "111012.898000", "111012.900000", "111012.903000", "111012.905000", "111012.908000", "111012.910000", "111012.913000", "111012.915000", "111012.918000", "111012.920000", "111012.923000", "111012.925000", "111012.928000", "111052.879000", "111052.882000", "111052.885000", "111052.887000", "111052.890000", "111052.892000", "111052.895000", "111052.915000", "111052.918000", "111052.920000", "111052.923000", "111052.925000", "111052.928000", "111052.930000", "111052.933000", "111052.935000", "111052.938000", "111052.941000", "111052.943000", "111052.945000", "111111.307000", "111111.310000", "111111.312000", "111111.315000", "111111.317000", "111111.320000", "111111.322000", "111111.325000", "111111.327000", "111111.330000"],
      "InstanceNumber": [1, 2, 3, 4, 5, 6, 7, 8, 9, 10, 11, 12, 13, 14, 15, 16, 17, 18, 19, 20, 21, 22, 23, 24, 25, 26, 27, 28, 29, 30, 31, 32, 33, 34, 35, 36, 37, 38, 39, 40, 41, 42, 43, 44, 45, 46, 47, 48, 49, 50, 51, 52, 53, 54, 55, 56, 57, 58, 59, 60, 61, 62, 63, 64, 65, 66, 67, 68, 69, 70, 71, 72, 73, 74, 75, 76, 77, 78, 79, 80, 81, 82, 83, 84, 85, 86, 87, 88, 89, 90, 91, 92, 93, 94, 95, 96, 97, 98, 99, 100, 101, 102, 103, 104, 105, 106, 107, 108, 109, 110, 111, 112, 113, 114, 115, 116, 117, 118, 119, 120, 121, 122, 123, 124, 125, 126, 127, 128, 129, 130, 131, 132, 133, 134, 135, 136, 137, 138, 139, 140, 141, 142, 143, 144, 145, 146, 147, 148, 149, 150, 151, 152, 153, 154, 155, 156, 157, 158, 159, 160, 161, 162, 163, 164, 165, 166, 167, 168, 169, 170, 171, 172, 173, 174, 175, 176, 177, 178, 179, 180, 181, 182, 183, 184, 185, 186, 187, 188, 189, 190, 191, 192, 193, 194, 195, 196, 197, 198, 199, 200],
      "LargestImagePixelValue": [331, 335, 331, 335, 337, 335, 330, 334, 331, 331, 335, 332, 335, 334, 332, 332, 334, 332, 332, 335, 331, 333, 334, 334, 331, 334, 329, 334, 332, 333, 333, 335, 335, 332, 333, 331, 334, 332, 330, 332, 331, 331, 334, 332, 333, 330, 332, 334, 330, 336, 331, 330, 335, 334, 333, 336, 332, 331, 338, 333, 332, 333, 331, 333, 332, 334, 334, 333, 332, 332, 334, 334, 330, 333, 332, 333, 331, 334, 331, 334, 335, 330, 331, 331, 332, 331, 332, 329, 332, 334, 330, 331, 331, 331, 333, 334, 334, 331, 334, 332, 334, 334, 334, 331, 334, 333, 334, 332, 333, 330, 332, 333, 336, 335, 331, 331, 330, 331, 334, 333, 333, 331, 332, 331, 331, 333, 333, 332, 335, 333, 331, 334, 333, 333, 330, 334, 332, 330, 330, 330, 331, 333, 333, 333, 329, 335, 330, 331, 331, 331, 334, 333, 333, 336, 332, 331, 333, 331, 332, 330, 331, 333, 331, 332, 331, 335, 329, 333, 333, 331, 331, 333, 333, 335, 334, 331, 330, 329, 332, 328, 331, 332, 331, 331, 331, 331, 332, 331, 332, 332, 328, 334, 336, 331, 331, 333, 329, 330, 332, 332],
      "WindowCenter": [276.0, 276.0, 276.0, 276.0, 276.0, 276.0, 276.0, 276.0, 276.0, 276.0, 276.0, 276.0, 276.0, 276.0, 276.0, 276.0, 276.0, 276.0, 276.0, 276.0, 276.0, 276.0, 276.0, 276.0, 276.0, 276.0, 275.0, 276.0, 276.0, 276.0, 276.0, 276.0, 276.0, 276.0, 276.0, 276.0, 276.0, 276.0, 276.0, 276.0, 276.0, 276.0, 276.0, 276.0, 276.0, 276.0, 276.0, 276.0, 276.0, 276.0, 276.0, 276.0, 276.0, 276.0, 276.0, 276.0, 276.0, 276.0, 276.0, 276.0, 276.0, 276.0, 276.0, 276.0, 276.0, 276.0, 276.0, 276.0, 276.0, 276.0, 276.0, 276.0, 276.0, 276.0, 276.0, 276.0, 276.0, 276.0, 276.0, 276.0, 276.0, 276.0, 276.0, 276.0, 276.0, 276.0, 276.0, 276.0, 276.0, 276.0, 276.0, 276.0, 276.0, 276.0, 276.0, 276.0, 275.0, 276.0, 276.0, 276.0, 276.0, 276.0, 276.0, 276.0, 276.0, 276.0, 276.0, 276.0, 276.0, 276.0, 276.0, 276.0, 276.0, 276.0, 276.0, 275.0, 276.0, 275.0, 275.0, 275.0, 276.0, 276.0, 276.0, 276.0, 276.0, 275.0, 276.0, 275.0, 276.0, 276.0, 276.0, 275.0, 276.0, 275.0, 276.0, 275.0, 276.0, 275.0, 275.0, 275.0, 276.0, 276.0, 276.0, 276.0, 275.0, 275.0, 276.0, 275.0, 276.0, 275.0, 276.0, 275.0, 275.0, 275.0, 276.0, 275.0, 275.0, 275.0, 275.0, 276.0, 275.0, 275.0, 275.0, 275.0, 275.0, 276.0, 275.0, 275.0, 275.0, 275.0, 275.0, 275.0, 276.0, 275.0, 276.0, 276.0, 276.0, 275.0, 275.0, 275.0, 275.0, 276.0, 275.0, 275.0, 275.0, 275.0, 275.0, 275.0, 275.0, 275.0, 275.0, 276.0, 276.0, 276.0, 275.0, 275.0, 275.0, 275.0, 275.0, 275.0],
      "WindowWidth": [605.0, 606.0, 605.0, 606.0, 606.0, 605.0, 605.0, 606.0, 605.0, 605.0, 605.0, 606.0, 605.0, 605.0, 605.0, 605.0, 605.0, 605.0, 606.0, 605.0, 605.0, 605.0, 605.0, 605.0, 605.0, 605.0, 604.0, 605.0, 605.0, 605.0, 605.0, 605.0, 605.0, 605.0, 605.0, 605.0, 605.0, 605.0, 605.0, 605.0, 606.0, 605.0, 605.0, 605.0, 605.0, 605.0, 605.0, 605.0, 605.0, 605.0, 605.0, 605.0, 606.0, 605.0, 605.0, 605.0, 605.0, 605.0, 605.0, 605.0, 605.0, 605.0, 605.0, 605.0, 605.0, 605.0, 605.0, 605.0, 605.0, 605.0, 605.0, 605.0, 605.0, 605.0, 605.0, 605.0, 605.0, 605.0, 605.0, 605.0, 605.0, 605.0, 605.0, 605.0, 605.0, 605.0, 604.0, 605.0, 605.0, 604.0, 605.0, 605.0, 605.0, 605.0, 605.0, 605.0, 604.0, 605.0, 605.0, 604.0, 605.0, 605.0, 605.0, 605.0, 605.0, 605.0, 605.0, 605.0, 605.0, 605.0, 604.0, 604.0, 605.0, 605.0, 605.0, 604.0, 604.0, 604.0, 604.0, 604.0, 605.0, 604.0, 605.0, 605.0, 604.0, 604.0, 605.0, 604.0, 605.0, 604.0, 605.0, 604.0, 605.0, 604.0, 604.0, 604.0, 605.0, 604.0, 604.0, 604.0, 605.0, 605.0, 605.0, 605.0, 603.0, 604.0, 604.0, 604.0, 605.0, 604.0, 604.0, 604.0, 604.0, 604.0, 605.0, 604.0, 604.0, 604.0, 604.0, 604.0, 604.0, 604.0, 603.0, 604.0, 604.0, 604.0, 603.0, 604.0, 604.0, 604.0, 604.0, 604.0, 604.0, 604.0, 604.0, 605.0, 605.0, 603.0, 604.0, 603.0, 604.0, 604.0, 604.0, 604.0, 603.0, 604.0, 604.0, 604.0, 604.0, 604.0, 603.0, 604.0, 604.0, 604.0, 604.0, 603.0, 603.0, 604.0, 604.0, 604.0]
    },
    "slices": {}
  }
}