{
  "AcquisitionMatrixPE": 80,
  "AcquisitionNumber": 1,
  "AcquisitionTime": "10:57:45.505000",
  "BandwidthPerPixelPhaseEncode": 25,
  "BaseResolution": 80,
  "BodyPartExamined": "BRAIN",
  "CoilCombinationMethod": "Sum of Squares",
  "ConsistencyInfo": "N4_VE11C_LATEST_20160120",
  "ConversionSoftware": "dcm2niix",
  "ConversionSoftwareVersion": "v1.0.20220720",
  "DerivedVendorReportedEchoSpacing": 0.0005,
  "DeviceSerialNumber": "66112",
  "DwellTime": 2.7e-06,
  "EchoTime": 0.03,
  "EchoTrainLength": 80,
  "EffectiveEchoSpacing": 0.0005,
  "FlipAngle": 77,
  "HeudiconvVersion": "0.13.1",
  "ImageOrientationPatientDICOM": [0.976973, 0.21311, 0.0103851, -0.205881, 0.928817, 0.308078],
  "ImageOrientationText": "Tra>Cor(17.7)>Sag(-3.2)",
  "ImageType": [
    "ORIGINAL",
    "PRIMARY",
    "M",
    "ND",
    "NORM",
    "MOSAIC"
],
  "ImagingFrequency": 123.252,
  "InPlanePhaseEncodingDirectionDICOM": "COL",
  "InstitutionAddress": "Maynard 3,Hanover,NH,US,03755",
  "InstitutionName": "Dartmouth College - PBS",
  "InstitutionalDepartmentName": "Department",
  "MRAcquisitionType": "2D",
  "MagneticFieldStrength": 3,
  "Manufacturer": "Siemens",
  "ManufacturersModelName": "Prisma",
  "MatrixCoilMode": "SENSE",
  "Modality": "MR",
  "NonlinearGradientCorrection": false,
  "PartialFourier": 1,
  "PatientPosition": "HFS",
  "PercentPhaseFOV": 100,
  "PercentSampling": 100,
  "PhaseEncodingDirection": "j-",
  "PhaseEncodingSteps": 80,
  "PhaseResolution": 1,
  "PixelBandwidth": 2315,
  "ProcedureStepDescription": "dbic^QA",
  "ProtocolName": "func-bold_fa-77",
  "PulseSequenceDetails": "%SiemensSeq%\\ep2d_bold",
  "ReceiveCoilActiveElements": "HEA;HEP",
  "ReceiveCoilName": "Head_32",
  "ReconMatrixPE": 80,
  "RepetitionTime": 2,
  "SAR": 0.0438442,
  "ScanOptions": "FS",
  "ScanningSequence": "EP",
  "SequenceName": "*epfid2d1_80",
  "SequenceVariant": "SK",
  "SeriesDescription": "func-bold_fa-77",
  "SeriesNumber": 8,
  "ShimSetting": [4147, -7705, -7511, 256, -60, -116, -3, 66],
  "SliceThickness": 3.5,
  "SliceTiming": [0.99, 0, 1.055, 0.065, 1.12, 0.13, 1.1875, 0.1975, 1.2525, 0.2625, 1.32, 0.33, 1.385, 0.395, 1.45, 0.46, 1.5175, 0.5275, 1.5825, 0.5925, 1.65, 0.66, 1.715, 0.725, 1.78, 0.79, 1.8475, 0.8575, 1.9125, 0.9225],
  "SoftwareVersions": "syngo MR E11",
  "SpacingBetweenSlices": 3.99,
  "StationName": "AWP66112",
  "TotalReadoutTime": 0.0395,
  "TxRefAmp": 222.103,
  "dcmmeta_affine": [
    [-2.9309189319610596, -0.6176415681838989, -0.22347505390644073, 145.96847534179688],
    [-0.6393303871154785, 2.7864506244659424, 1.2094587087631226, -88.27561950683594],
    [0.031155329197645187, -0.9242355227470398, 3.795703887939453, -14.119454383850098],
    [0.0, 0.0, 0.0, 1.0]
],
  "dcmmeta_reorient_transform": [
    [0.0, -1.0, 0.0, 79.0],
    [1.0, 0.0, 0.0, 0.0],
    [0.0, 0.0, 1.0, 0.0],
    [0.0, 0.0, 0.0, 1.0]
],
  "dcmmeta_shape": [80, 80, 30, 200],
  "dcmmeta_slice_dim": 2,
  "dcmmeta_version": 0.6,
  "global": {
    "const": {
      "AccessionNumber": "qa",
      "AcquisitionMatrix": [80, 0, 0, 80],
      "AngioFlag": "N",
      "BitsAllocated": 16,
      "BitsStored": 12,
      "BodyPartExamined": "BRAIN",
      "Columns": 480,
      "EchoNumbers": 1,
      "EchoTime": 30.0,
      "EchoTrainLength": 80,
      "FlipAngle": 77.0,
      "HighBit": 11,
      "ImageOrientationPatient": [0.97697299033006, 0.213110125677, 0.01038510950713, -0.2058805290588, 0.92881690371904, 0.30807850804663],
      "ImagePositionPatient": [-559.83026365505, -817.01020076628, -278.21223115238],
      "ImageType": [
        "ORIGINAL",
        "PRIMARY",
        "M",
        "ND",
        "NORM",
        "MOSAIC"
],
      "ImagedNucleus": "1H",
      "ImagingFrequency": 123.252311,
      "InPlanePhaseEncodingDirection": "COL",
      "MRAcquisitionType": "2D",
      "MagneticFieldStrength": 3.0,
      "Manufacturer": "SIEMENS",
      "ManufacturerModelName": "Prisma",
      "Modality": "MR",
      "NumberOfAverages": 1.0,
      "NumberOfPhaseEncodingSteps": 80,
      "PercentPhaseFieldOfView": 100.0,
      "PercentSampling": 100.0,
      "PerformedProcedureStepStartTime": "104046.674000",
      "PhotometricInterpretation": "MONOCHROME2",
      "PixelBandwidth": 2315.0,
      "PixelRepresentation": 0,
      "PixelSpacing": [3.0, 3.0],
      "ProtocolName": "func-bold_fa-77",
      "RepetitionTime": 2000.0,
      "Rows": 480,
      "SAR": 0.04384417026795,
      "SamplesPerPixel": 1,
      "ScanOptions": "FS",
      "ScanningSequence": "EP",
      "SequenceName": "*epfid2d1_80",
      "SequenceVariant": "SK",
      "SeriesDescription": "func-bold_fa-77",
      "SeriesNumber": 8,
      "SeriesTime": "105832.811000",
      "SliceLocation": -48.36573870192,
      "SliceThickness": 3.5,
      "SmallestImagePixelValue": 0,
      "SoftwareVersions": "syngo MR E11",
      "SpacingBetweenSlices": 3.9900000303881,
      "SpecificCharacterSet": "ISO_IR 100",
      "StudyID": "5",
      "StudyTime": "104046.615000",
      "TransmitCoilName": "Body",
      "VariableFlipAngleFlag": "N",
      "WindowCenterWidthExplanation": "Algo1",
      "dBdt": 0.0},
    "slices": {}
  },
  "time": {
    "samples": {
      "AcquisitionNumber": [1, 2, 3, 4, 5, 6, 7, 8, 9, 10, 11, 12, 13, 14, 15, 16, 17, 18, 19, 20, 21, 22, 23, 24, 25, 26, 27, 28, 29, 30, 31, 32, 33, 34, 35, 36, 37, 38, 39, 40, 41, 42, 43, 44, 45, 46, 47, 48, 49, 50, 51, 52, 53, 54, 55, 56, 57, 58, 59, 60, 61, 62, 63, 64, 65, 66, 67, 68, 69, 70, 71, 72, 73, 74, 75, 76, 77, 78, 79, 80, 81, 82, 83, 84, 85, 86, 87, 88, 89, 90, 91, 92, 93, 94, 95, 96, 97, 98, 99, 100, 101, 102, 103, 104, 105, 106, 107, 108, 109, 110, 111, 112, 113, 114, 115, 116, 117, 118, 119, 120, 121, 122, 123, 124, 125, 126, 127, 128, 129, 130, 131, 132, 133, 134, 135, 136, 137, 138, 139, 140, 141, 142, 143, 144, 145, 146, 147, 148, 149, 150, 151, 152, 153, 154, 155, 156, 157, 158, 159, 160, 161, 162, 163, 164, 165, 166, 167, 168, 169, 170, 171, 172, 173, 174, 175, 176, 177, 178, 179, 180, 181, 182, 183, 184, 185, 186, 187, 188, 189, 190, 191, 192, 193, 194, 195, 196, 197, 198, 199, 200],
      "AcquisitionTime": ["105745.505000", "105747.505000", "105749.505000", "105751.505000", "105753.505000", "105755.505000", "105757.505000", "105759.505000", "105801.505000", "105803.505000", "105805.505000", "105807.505000", "105809.505000", "105811.505000", "105813.505000", "105815.505000", "105817.505000", "105819.505000", "105821.505000", "105823.505000", "105825.505000", "105827.505000", "105829.505000", "105831.505000", "105833.505000", "105835.505000", "105837.505000", "105839.505000", "105841.505000", "105843.505000", "105845.505000", "105847.505000", "105849.505000", "105851.505000", "105853.505000", "105855.505000", "105857.505000", "105859.505000", "105901.505000", "105903.505000", "105905.505000", "105907.505000", "105909.505000", "105911.505000", "105913.505000", "105915.505000", "105917.505000", "105919.505000", "105921.505000", "105923.505000", "105925.505000", "105927.505000", "105929.505000", "105931.505000", "105933.505000", "105935.505000", "105937.505000", "105939.505000", "105941.505000", "105943.505000", "105945.505000", "105947.505000", "105949.505000", "105951.505000", "105953.505000", "105955.505000", "105957.505000", "105959.505000", "110001.505000", "110003.505000", "110005.505000", "110007.505000", "110009.505000", "110011.505000", "110013.505000", "110015.505000", "110017.505000", "110019.505000", "110021.505000", "110023.505000", "110025.505000", "110027.505000", "110029.505000", "110031.505000", "110033.505000", "110035.505000", "110037.505000", "110039.505000", "110041.505000", "110043.505000", "110045.505000", "110047.505000", "110049.505000", "110051.505000", "110053.505000", "110055.505000", "110057.505000", "110059.505000", "110101.505000", "110103.505000", "110105.505000", "110107.505000", "110109.505000", "110111.505000", "110113.505000", "110115.505000", "110117.505000", "110119.505000", "110121.505000", "110123.505000", "110125.505000", "110127.505000", "110129.505000", "110131.505000", "110133.505000", "110135.505000", "110137.505000", "110139.505000", "110141.505000", "110143.505000", "110145.505000", "110147.505000", "110149.505000", "110151.505000", "110153.505000", "110155.505000", "110157.505000", "110159.505000", "110201.505000", "110203.505000", "110205.505000", "110207.505000", "110209.505000", "110211.505000", "110213.505000", "110215.505000", "110217.505000", "110219.505000", "110221.505000", "110223.505000", "110225.505000", "110227.505000", "110229.505000", "110231.505000", "110233.505000", "110235.505000", "110237.505000", "110239.505000", "110241.505000", "110243.505000", "110245.505000", "110247.505000", "110249.505000", "110251.505000", "110253.505000", "110255.505000", "110257.505000", "110259.505000", "110301.505000", "110303.505000", "110305.505000", "110307.505000", "110309.505000", "110311.505000", "110313.505000", "110315.505000", "110317.505000", "110319.505000", "110321.505000", "110323.505000", "110325.505000", "110327.505000", "110329.505000", "110331.505000", "110333.505000", "110335.505000", "110337.505000", "110339.505000", "110341.505000", "110343.505000", "110345.505000", "110347.505000", "110349.505000", "110351.505000", "110353.505000", "110355.505000", "110357.505000", "110359.505000", "110401.505000", "110403.505000", "110405.505000", "110407.505000", "110409.505000", "110411.505000", "110413.505000", "110415.505000", "110417.505000", "110419.505000", "110421.505000", "110423.505000"],
      "ContentTime": ["105832.814000", "105832.817000", "105832.820000", "105832.822000", "105832.825000", "105832.828000", "105832.830000", "105832.833000", "105832.835000", "105832.838000", "105832.841000", "105832.845000", "105832.847000", "105832.850000", "105832.852000", "105832.855000", "105832.858000", "105832.860000", "105832.863000", "105832.865000", "105832.868000", "105832.870000", "105832.873000", "105912.809000", "105912.956000", "105912.958000", "105912.961000", "105912.963000", "105912.966000", "105912.969000", "105912.971000", "105912.973000", "105912.976000", "105912.979000", "105912.981000", "105912.984000", "105912.986000", "105912.989000", "105912.991000", "105912.994000", "105912.997000", "105913.000000", "105913.003000", "105952.808000", "105953.034000", "105953.037000", "105953.039000", "105953.042000", "105953.045000", "105953.047000", "105953.050000", "105953.052000", "105953.055000", "105953.057000", "105953.060000", "105953.062000", "105953.065000", "105953.067000", "105953.070000", "105953.072000", "105953.075000", "105953.077000", "105953.080000", "110032.810000", "110032.813000", "110032.816000", "110032.818000", "110032.821000", "110032.823000", "110032.826000", "110032.830000", "110032.833000", "110032.835000", "110032.838000", "110032.841000", "110032.844000", "110032.847000", "110032.849000", "110032.852000", "110032.854000", "110032.857000", "110032.859000", "110032.862000", "110112.809000", "110112.812000", "110112.815000", "110112.817000", "110112.820000", "110112.823000", "110112.827000", "110112.829000", "110112.832000", "110112.834000", "110112.838000", "110112.841000", "110112.843000", "110112.846000", "110112.848000", "110112.851000", "110112.853000", "110112.856000", "110112.858000", "110112.861000", "110152.809000", "110152.812000", "110152.815000", "110152.817000", "110152.820000", "110152.823000", "110152.825000", "110152.828000", "110152.831000", "110152.833000", "110152.836000", "110152.839000", "110152.842000", "110152.845000", "110152.847000", "110152.850000", "110152.852000", "110152.855000", "110152.857000", "110152.860000", "110232.808000", "110232.811000", "110232.814000", "110232.816000", "110232.819000", "110232.822000", "110232.824000", "110232.827000", "110232.847000", "110232.850000", "110232.853000", "110232.855000", "110232.858000", "110232.860000", "110232.863000", "110232.866000", "110232.868000", "110232.871000", "110232.873000", "110232.876000", "110312.809000", "110312.812000", "110312.815000", "110312.817000", "110312.820000", "110312.823000", "110312.827000", "110312.830000", "110312.832000", "110312.836000", "110312.838000", "110312.841000", "110312.844000", "110312.846000", "110312.849000", "110312.851000", "110312.854000", "110312.856000", "110312.859000", "110312.862000", "110352.809000", "110352.812000", "110352.815000", "110352.817000", "110352.820000", "110352.824000", "110352.827000", "110352.830000", "110352.832000", "110352.836000", "110352.838000", "110352.841000", "110352.844000", "110352.846000", "110352.849000", "110352.852000", "110352.854000", "110352.857000", "110352.859000", "110352.862000", "110424.889000", "110424.892000", "110424.895000", "110424.897000", "110424.900000", "110424.902000", "110424.905000", "110424.907000", "110424.910000", "110424.913000", "110424.915000", "110424.918000", "110424.922000", "110424.928000", "110424.931000", "110424.934000", "110424.937000"],
      "InstanceCreationTime": ["105832.814000", "105832.817000", "105832.820000", "105832.822000", "105832.825000", "105832.828000", "105832.830000", "105832.833000", "105832.835000", "105832.838000", "105832.841000", "105832.845000", "105832.847000", "105832.850000", "105832.852000", "105832.855000", "105832.858000", "105832.860000", "105832.863000", "105832.865000", "105832.868000", "105832.870000", "105832.873000", "105912.809000", "105912.956000", "105912.958000", "105912.961000", "105912.963000", "105912.966000", "105912.969000", "105912.971000", "105912.973000", "105912.976000", "105912.979000", "105912.981000", "105912.984000", "105912.986000", "105912.989000", "105912.991000", "105912.994000", "105912.997000", "105913.000000", "105913.003000", "105952.808000", "105953.034000", "105953.037000", "105953.039000", "105953.042000", "105953.045000", "105953.047000", "105953.050000", "105953.052000", "105953.055000", "105953.057000", "105953.060000", "105953.062000", "105953.065000", "105953.067000", "105953.070000", "105953.072000", "105953.075000", "105953.077000", "105953.080000", "110032.810000", "110032.813000", "110032.816000", "110032.818000", "110032.821000", "110032.823000", "110032.826000", "110032.830000", "110032.833000", "110032.835000", "110032.838000", "110032.841000", "110032.844000", "110032.847000", "110032.849000", "110032.852000", "110032.854000", "110032.857000", "110032.859000", "110032.862000", "110112.809000", "110112.812000", "110112.815000", "110112.817000", "110112.820000", "110112.823000", "110112.827000", "110112.829000", "110112.832000", "110112.834000", "110112.838000", "110112.841000", "110112.843000", "110112.846000", "110112.848000", "110112.851000", "110112.853000", "110112.856000", "110112.858000", "110112.861000", "110152.809000", "110152.812000", "110152.815000", "110152.817000", "110152.820000", "110152.823000", "110152.825000", "110152.828000", "110152.831000", "110152.833000", "110152.836000", "110152.839000", "110152.842000", "110152.845000", "110152.847000", "110152.850000", "110152.852000", "110152.855000", "110152.857000", "110152.860000", "110232.808000", "110232.811000", "110232.814000", "110232.816000", "110232.819000", "110232.822000", "110232.824000", "110232.827000", "110232.847000", "110232.850000", "110232.853000", "110232.855000", "110232.858000", "110232.860000", "110232.863000", "110232.866000", "110232.868000", "110232.871000", "110232.873000", "110232.876000", "110312.809000", "110312.812000", "110312.815000", "110312.817000", "110312.820000", "110312.823000", "110312.827000", "110312.830000", "110312.832000", "110312.836000", "110312.838000", "110312.841000", "110312.844000", "110312.846000", "110312.849000", "110312.851000", "110312.854000", "110312.856000", "110312.859000", "110312.862000", "110352.809000", "110352.812000", "110352.815000", "110352.817000", "110352.820000", "110352.824000", "110352.827000", "110352.830000", "110352.832000", "110352.836000", "110352.838000", "110352.841000", "110352.844000", "110352.846000", "110352.849000", "110352.852000", "110352.854000", "110352.857000", "110352.859000", "110352.862000", "110424.889000", "110424.892000", "110424.895000", "110424.897000", "110424.900000", "110424.902000", "110424.905000", "110424.907000", "110424.910000", "110424.913000", "110424.915000", "110424.918000", "110424.922000", "110424.928000", "110424.931000", "110424.934000", "110424.937000"],
      "InstanceNumber": [1, 2, 3, 4, 5, 6, 7, 8, 9, 10, 11, 12, 13, 14, 15, 16, 17, 18, 19, 20, 21, 22, 23, 24, 25, 26, 27, 28, 29, 30, 31, 32, 33, 34, 35, 36, 37, 38, 39, 40, 41, 42, 43, 44, 45, 46, 47, 48, 49, 50, 51, 52, 53, 54, 55, 56, 57, 58, 59, 60, 61, 62, 63, 64, 65, 66, 67, 68, 69, 70, 71, 72, 73, 74, 75, 76, 77, 78, 79, 80, 81, 82, 83, 84, 85, 86, 87, 88, 89, 90, 91, 92, 93, 94, 95, 96, 97, 98, 99, 100, 101, 102, 103, 104, 105, 106, 107, 108, 109, 110, 111, 112, 113, 114, 115, 116, 117, 118, 119, 120, 121, 122, 123, 124, 125, 126, 127, 128, 129, 130, 131, 132, 133, 134, 135, 136, 137, 138, 139, 140, 141, 142, 143, 144, 145, 146, 147, 148, 149, 150, 151, 152, 153, 154, 155, 156, 157, 158, 159, 160, 161, 162, 163, 164, 165, 166, 167, 168, 169, 170, 171, 172, 173, 174, 175, 176, 177, 178, 179, 180, 181, 182, 183, 184, 185, 186, 187, 188, 189, 190, 191, 192, 193, 194, 195, 196, 197, 198, 199, 200],
      "LargestImagePixelValue": [1906, 1906, 1906, 1906, 1908, 1909, 1908, 1905, 1907, 1909, 1908, 1906, 1907, 1908, 1907, 1907, 1905, 1906, 1906, 1906, 1905, 1908, 1907, 1906, 1906, 1907, 1907, 1905, 1907, 1908, 1905, 1909, 1907, 1906, 1905, 1908, 1909, 1907, 1907, 1908, 1907, 1909, 1906, 1908, 1908, 1906, 1906, 1908, 1908, 1909, 1908, 1905, 1906, 1907, 1907, 1906, 1907, 1908, 1907, 1910, 1908, 1907, 1907, 1908, 1907, 1907, 1906, 1909, 1907, 1909, 1905, 1908, 1907, 1907, 1906, 1906, 1908, 1906, 1906, 1910, 1908, 1907, 1907, 1909, 1910, 1909, 1909, 1909, 1906, 1908, 1908, 1908, 1907, 1908, 1907, 1905, 1909, 1906, 1908, 1907, 1907, 1909, 1906, 1908, 1907, 1910, 1907, 1907, 1907, 1907, 1908, 1907, 1907, 1911, 1908, 1907, 1907, 1908, 1907, 1908, 1907, 1908, 1907, 1908, 1908, 1907, 1909, 1906, 1907, 1909, 1907, 1907, 1907, 1906, 1907, 1907, 1907, 1908, 1909, 1908, 1906, 1908, 1906, 1907, 1908, 1906, 1907, 1910, 1907, 1908, 1909, 1907, 1908, 1907, 1908, 1909, 1909, 1908, 1908, 1909, 1908, 1907, 1908, 1906, 1908, 1907, 1910, 1906, 1906, 1908, 1909, 1908, 1908, 1907, 1909, 1909, 1906, 1908, 1907, 1905, 1907, 1906, 1907, 1907, 1907, 1910, 1908, 1909, 1907, 1906, 1909, 1907, 1909, 1907, 1908, 1908, 1907, 1906, 1908, 1907],
      "WindowCenter": [975.0, 975.0, 975.0, 975.0, 975.0, 973.0, 975.0, 974.0, 975.0, 975.0, 975.0, 974.0, 975.0, 975.0, 975.0, 974.0, 974.0, 974.0, 974.0, 974.0, 974.0, 974.0, 974.0, 975.0, 975.0, 975.0, 975.0, 975.0, 974.0, 974.0, 974.0, 974.0, 974.0, 974.0, 975.0, 974.0, 974.0, 974.0, 975.0, 974.0, 974.0, 974.0, 974.0, 974.0, 974.0, 974.0, 974.0, 973.0, 974.0, 974.0, 975.0, 974.0, 974.0, 974.0, 974.0, 974.0, 974.0, 974.0, 973.0, 974.0, 973.0, 974.0, 974.0, 974.0, 974.0, 974.0, 974.0, 974.0, 974.0, 974.0, 974.0, 974.0, 974.0, 974.0, 974.0, 974.0, 974.0, 974.0, 974.0, 974.0, 973.0, 974.0, 974.0, 974.0, 974.0, 974.0, 974.0, 974.0, 974.0, 974.0, 974.0, 974.0, 974.0, 974.0, 974.0, 973.0, 973.0, 973.0, 973.0, 974.0, 974.0, 974.0, 973.0, 973.0, 973.0, 973.0, 973.0, 973.0, 973.0, 973.0, 973.0, 973.0, 973.0, 973.0, 973.0, 973.0, 973.0, 973.0, 973.0, 973.0, 973.0, 974.0, 973.0, 973.0, 973.0, 973.0, 973.0, 973.0, 973.0, 973.0, 973.0, 973.0, 973.0, 973.0, 973.0, 973.0, 974.0, 973.0, 973.0, 973.0, 973.0, 973.0, 973.0, 973.0, 973.0, 973.0, 974.0, 973.0, 973.0, 973.0, 973.0, 973.0, 973.0, 973.0, 973.0, 973.0, 973.0, 973.0, 973.0, 973.0, 973.0, 973.0, 973.0, 973.0, 973.0, 973.0, 973.0, 973.0, 973.0, 973.0, 974.0, 973.0, 974.0, 973.0, 973.0, 973.0, 973.0, 974.0, 973.0, 973.0, 973.0, 973.0, 973.0, 973.0, 973.0, 973.0, 973.0, 973.0, 971.0, 973.0, 973.0, 973.0, 973.0, 973.0, 973.0, 973.0, 973.0, 973.0, 973.0, 973.0],
      "WindowWidth": [2133.0, 2133.0, 2133.0, 2133.0, 2133.0, 2132.0, 2133.0, 2132.0, 2133.0, 2133.0, 2133.0, 2132.0, 2133.0, 2133.0, 2133.0, 2132.0, 2132.0, 2132.0, 2132.0, 2132.0, 2132.0, 2132.0, 2132.0, 2133.0, 2133.0, 2134.0, 2133.0, 2133.0, 2133.0, 2133.0, 2132.0, 2132.0, 2132.0, 2132.0, 2133.0, 2132.0, 2132.0, 2132.0, 2133.0, 2132.0, 2132.0, 2132.0, 2132.0, 2132.0, 2132.0, 2132.0, 2132.0, 2131.0, 2132.0, 2132.0, 2133.0, 2132.0, 2132.0, 2131.0, 2131.0, 2131.0, 2131.0, 2131.0, 2130.0, 2131.0, 2130.0, 2131.0, 2131.0, 2131.0, 2131.0, 2131.0, 2131.0, 2131.0, 2131.0, 2131.0, 2131.0, 2131.0, 2131.0, 2131.0, 2131.0, 2131.0, 2131.0, 2131.0, 2131.0, 2131.0, 2130.0, 2131.0, 2131.0, 2131.0, 2131.0, 2131.0, 2131.0, 2131.0, 2131.0, 2131.0, 2131.0, 2131.0, 2131.0, 2131.0, 2131.0, 2131.0, 2130.0, 2131.0, 2131.0, 2131.0, 2131.0, 2131.0, 2131.0, 2131.0, 2130.0, 2131.0, 2130.0, 2130.0, 2130.0, 2130.0, 2130.0, 2130.0, 2130.0, 2130.0, 2130.0, 2130.0, 2130.0, 2130.0, 2130.0, 2130.0, 2130.0, 2131.0, 2130.0, 2130.0, 2130.0, 2130.0, 2130.0, 2130.0, 2130.0, 2130.0, 2130.0, 2130.0, 2130.0, 2130.0, 2130.0, 2130.0, 2130.0, 2130.0, 2130.0, 2130.0, 2130.0, 2130.0, 2130.0, 2130.0, 2130.0, 2130.0, 2130.0, 2130.0, 2130.0, 2130.0, 2130.0, 2130.0, 2130.0, 2130.0, 2130.0, 2130.0, 2130.0, 2130.0, 2130.0, 2130.0, 2130.0, 2130.0, 2130.0, 2130.0, 2130.0, 2130.0, 2130.0, 2130.0, 2130.0, 2130.0, 2130.0, 2130.0, 2130.0, 2130.0, 2130.0, 2130.0, 2129.0, 2130.0, 2129.0, 2129.0, 2129.0, 2129.0, 2129.0, 2129.0, 2129.0, 2129.0, 2129.0, 2129.0, 2128.0, 2129.0, 2129.0, 2129.0, 2129.0, 2129.0, 2129.0, 2129.0, 2129.0, 2129.0, 2129.0, 2129.0]
    },
    "slices": {}
  }
}