{
  "AcquisitionMatrixPE": 80,
  "AcquisitionNumber": 1,
  "AcquisitionTime": "11:30:11.155000",
  "BandwidthPerPixelPhaseEncode": 44.643,
  "BaseResolution": 80,
  "BodyPartExamined": "BRAIN",
  "CoilCombinationMethod": "Sum of Squares",
  "ConsistencyInfo": "N4_VE11C_LATEST_20160120",
  "ConversionSoftware": "dcm2niix",
  "ConversionSoftwareVersion": "v1.0.20220720",
  "DerivedVendorReportedEchoSpacing": 0.000559998,
  "DeviceSerialNumber": "66112",
  "DwellTime": 2.7e-06,
  "EchoTime": 0.035,
  "EchoTrainLength": 39,
  "EffectiveEchoSpacing": 0.000279999,
  "FlipAngle": 90,
  "HeudiconvVersion": "0.13.1",
  "ImageOrientationPatientDICOM": [0.986548, 0.163228, 0.00893029, -0.158019, 0.938225, 0.307837],
  "ImageOrientationText": "Tra>Cor(17.8)>Sag(-2.4)",
  "ImageType": [
    "ORIGINAL",
    "PRIMARY",
    "M",
    "ND",
    "NORM",
    "MOSAIC"
],
  "ImagingFrequency": 123.252,
  "InPlanePhaseEncodingDirectionDICOM": "COL",
  "InstitutionAddress": "Maynard 3,Hanover,NH,US,03755",
  "InstitutionName": "Dartmouth College - PBS",
  "InstitutionalDepartmentName": "Department",
  "MRAcquisitionType": "2D",
  "MagneticFieldStrength": 3,
  "Manufacturer": "Siemens",
  "ManufacturersModelName": "Prisma",
  "Modality": "MR",
  "MultibandAccelerationFactor": 4,
  "NonlinearGradientCorrection": false,
  "ParallelReductionFactorInPlane": 2,
  "PartialFourier": 1,
  "PatientPosition": "HFS",
  "PercentPhaseFOV": 100,
  "PercentSampling": 100,
  "PhaseEncodingDirection": "j-",
  "PhaseEncodingSteps": 79,
  "PhaseResolution": 1,
  "PixelBandwidth": 2315,
  "ProcedureStepDescription": "dbic^QA",
  "ProtocolName": "func-bold_task-rest_acq-p2-s4-3.5mm",
  "PulseSequenceDetails": "%SiemensSeq%\\ep2d_bold",
  "ReceiveCoilActiveElements": "HEA;HEP",
  "ReceiveCoilName": "Head_32",
  "ReconMatrixPE": 80,
  "RefLinesPE": 24,
  "RepetitionTime": 2,
  "SAR": 0.0209168,
  "ScanOptions": "FS",
  "ScanningSequence": "EP",
  "SequenceName": "*epfid2d1_80",
  "SequenceVariant": "SK",
  "SeriesDescription": "func-bold_task-rest_acq-p2-s4-3.5mm",
  "SeriesNumber": 7,
  "ShimSetting": [4141, -7700, -7509, 270, -89, -76, -36, 61],
  "SliceThickness": 3.5,
  "SliceTiming": [1.485, 0, 0.99, 0.2475, 1.2375, 0.7425, 1.7325, 0.495, 1.485, 0, 0.99, 0.2475, 1.2375, 0.7425, 1.7325, 0.495, 1.485, 0, 0.99, 0.2475, 1.2375, 0.7425, 1.7325, 0.495, 1.485, 0, 0.99, 0.2475, 1.2375, 0.7425, 1.7325, 0.495],
  "SoftwareVersions": "syngo MR E11",
  "SpacingBetweenSlices": 3.99,
  "StationName": "AWP66112",
  "TaskName": "rest",
  "TotalReadoutTime": 0.0221199,
  "TxRefAmp": 227.741,
  "dcmmeta_affine": [
    [-2.959643840789795, -0.47405827045440674, -0.16705718636512756, 141.26527404785156],
    [-0.48968416452407837, 2.8146753311157227, 1.2173763513565063, -101.7552261352539],
    [0.02679087035357952, -0.9235101342201233, 3.7960751056671143, -15.600239753723145],
    [0.0, 0.0, 0.0, 1.0]
],
  "dcmmeta_reorient_transform": [
    [0.0, -1.0, 0.0, 79.0],
    [1.0, 0.0, 0.0, 0.0],
    [0.0, 0.0, 1.0, 0.0],
    [0.0, 0.0, 0.0, 1.0]
],
  "dcmmeta_shape": [80, 80, 32, 200],
  "dcmmeta_slice_dim": 2,
  "dcmmeta_version": 0.6,
  "global": {
    "const": {
      "AccessionNumber": "qa",
      "AcquisitionMatrix": [80, 0, 0, 80],
      "AngioFlag": "N",
      "BitsAllocated": 16,
      "BitsStored": 12,
      "BodyPartExamined": "BRAIN",
      "Columns": 480,
      "EchoNumbers": 1,
      "EchoTime": 35.0,
      "EchoTrainLength": 39,
      "FlipAngle": 90.0,
      "HighBit": 11,
      "ImageOrientationPatient": [0.98654794641629, 0.16322805930308, 0.00893028991374, -0.1580194258279, 0.93822514054839, 0.30783672085051],
      "ImagePositionPatient": [-600.93178591086, -781.47605433556, -278.61774945924],
      "ImageType": [
        "ORIGINAL",
        "PRIMARY",
        "M",
        "ND",
        "NORM",
        "MOSAIC"
],
      "ImagedNucleus": "1H",
      "ImagingFrequency": 123.252371,
      "InPlanePhaseEncodingDirection": "COL",
      "MRAcquisitionType": "2D",
      "MagneticFieldStrength": 3.0,
      "Manufacturer": "SIEMENS",
      "ManufacturerModelName": "Prisma",
      "Modality": "MR",
      "NumberOfAverages": 1.0,
      "NumberOfPhaseEncodingSteps": 79,
      "PercentPhaseFieldOfView": 100.0,
      "PercentSampling": 100.0,
      "PerformedProcedureStepStartTime": "112154.832000",
      "PhotometricInterpretation": "MONOCHROME2",
      "PixelBandwidth": 2315.0,
      "PixelRepresentation": 0,
      "PixelSpacing": [3.0, 3.0],
      "ProtocolName": "func-bold_task-rest_acq-p2-s4-3.5mm",
      "RepetitionTime": 2000.0,
      "Rows": 480,
      "SAR": 0.02091678323819,
      "SamplesPerPixel": 1,
      "ScanOptions": "FS",
      "ScanningSequence": "EP",
      "SequenceName": "*epfid2d1_80",
      "SequenceVariant": "SK",
      "SeriesDescription": "func-bold_task-rest_acq-p2-s4-3.5mm",
      "SeriesNumber": 7,
      "SeriesTime": "113056.173000",
      "SliceLocation": -51.8028728212,
      "SliceThickness": 3.5,
      "SmallestImagePixelValue": 0,
      "SoftwareVersions": "syngo MR E11",
      "SpacingBetweenSlices": 3.9899999685894,
      "SpecificCharacterSet": "ISO_IR 100",
      "StudyID": "5",
      "StudyTime": "112154.785000",
      "TransmitCoilName": "Body",
      "VariableFlipAngleFlag": "N",
      "WindowCenterWidthExplanation": "Algo1",
      "dBdt": 0.0},
    "slices": {}
  },
  "time": {
    "samples": {
      "AcquisitionNumber": [1, 2, 3, 4, 5, 6, 7, 8, 9, 10, 11, 12, 13, 14, 15, 16, 17, 18, 19, 20, 21, 22, 23, 24, 25, 26, 27, 28, 29, 30, 31, 32, 33, 34, 35, 36, 37, 38, 39, 40, 41, 42, 43, 44, 45, 46, 47, 48, 49, 50, 51, 52, 53, 54, 55, 56, 57, 58, 59, 60, 61, 62, 63, 64, 65, 66, 67, 68, 69, 70, 71, 72, 73, 74, 75, 76, 77, 78, 79, 80, 81, 82, 83, 84, 85, 86, 87, 88, 89, 90, 91, 92, 93, 94, 95, 96, 97, 98, 99, 100, 101, 102, 103, 104, 105, 106, 107, 108, 109, 110, 111, 112, 113, 114, 115, 116, 117, 118, 119, 120, 121, 122, 123, 124, 125, 126, 127, 128, 129, 130, 131, 132, 133, 134, 135, 136, 137, 138, 139, 140, 141, 142, 143, 144, 145, 146, 147, 148, 149, 150, 151, 152, 153, 154, 155, 156, 157, 158, 159, 160, 161, 162, 163, 164, 165, 166, 167, 168, 169, 170, 171, 172, 173, 174, 175, 176, 177, 178, 179, 180, 181, 182, 183, 184, 185, 186, 187, 188, 189, 190, 191, 192, 193, 194, 195, 196, 197, 198, 199, 200],
      "AcquisitionTime": ["113011.155000", "113013.155000", "113015.155000", "113017.155000", "113019.155000", "113021.155000", "113023.155000", "113025.155000", "113027.155000", "113029.155000", "113031.155000", "113033.155000", "113035.155000", "113037.155000", "113039.155000", "113041.155000", "113043.155000", "113045.155000", "113047.155000", "113049.155000", "113051.155000", "113053.155000", "113055.155000", "113057.155000", "113059.155000", "113101.155000", "113103.155000", "113105.155000", "113107.155000", "113109.155000", "113111.155000", "113113.155000", "113115.155000", "113117.155000", "113119.155000", "113121.155000", "113123.155000", "113125.155000", "113127.155000", "113129.155000", "113131.155000", "113133.155000", "113135.155000", "113137.155000", "113139.155000", "113141.155000", "113143.155000", "113145.155000", "113147.155000", "113149.155000", "113151.155000", "113153.155000", "113155.155000", "113157.155000", "113159.155000", "113201.155000", "113203.155000", "113205.155000", "113207.155000", "113209.155000", "113211.155000", "113213.155000", "113215.155000", "113217.155000", "113219.155000", "113221.155000", "113223.155000", "113225.155000", "113227.155000", "113229.155000", "113231.155000", "113233.155000", "113235.155000", "113237.155000", "113239.155000", "113241.155000", "113243.155000", "113245.155000", "113247.155000", "113249.155000", "113251.155000", "113253.155000", "113255.155000", "113257.155000", "113259.155000", "113301.155000", "113303.155000", "113305.155000", "113307.155000", "113309.155000", "113311.155000", "113313.155000", "113315.155000", "113317.155000", "113319.155000", "113321.155000", "113323.155000", "113325.155000", "113327.155000", "113329.155000", "113331.155000", "113333.155000", "113335.155000", "113337.155000", "113339.155000", "113341.155000", "113343.155000", "113345.155000", "113347.155000", "113349.155000", "113351.155000", "113353.155000", "113355.155000", "113357.155000", "113359.155000", "113401.155000", "113403.155000", "113405.155000", "113407.155000", "113409.155000", "113411.155000", "113413.155000", "113415.155000", "113417.155000", "113419.155000", "113421.155000", "113423.155000", "113425.155000", "113427.155000", "113429.155000", "113431.155000", "113433.155000", "113435.155000", "113437.155000", "113439.155000", "113441.155000", "113443.155000", "113445.155000", "113447.155000", "113449.155000", "113451.155000", "113453.155000", "113455.155000", "113457.155000", "113459.155000", "113501.155000", "113503.155000", "113505.155000", "113507.155000", "113509.155000", "113511.155000", "113513.155000", "113515.155000", "113517.155000", "113519.155000", "113521.155000", "113523.155000", "113525.155000", "113527.155000", "113529.155000", "113531.155000", "113533.155000", "113535.155000", "113537.155000", "113539.155000", "113541.155000", "113543.155000", "113545.155000", "113547.155000", "113549.155000", "113551.155000", "113553.155000", "113555.155000", "113557.155000", "113559.155000", "113601.155000", "113603.155000", "113605.155000", "113607.155000", "113609.155000", "113611.155000", "113613.155000", "113615.155000", "113617.155000", "113619.155000", "113621.155000", "113623.155000", "113625.155000", "113627.155000", "113629.155000", "113631.155000", "113633.155000", "113635.155000", "113637.155000", "113639.155000", "113641.155000", "113643.155000", "113645.155000", "113647.155000", "113649.155000"],
      "ContentTime": ["113056.177000", "113056.180000", "113056.183000", "113056.185000", "113056.188000", "113056.190000", "113056.193000", "113056.196000", "113056.198000", "113056.201000", "113056.203000", "113056.206000", "113056.213000", "113056.218000", "113056.224000", "113056.226000", "113056.229000", "113056.232000", "113056.234000", "113056.237000", "113056.239000", "113056.242000", "113136.167000", "113136.169000", "113136.172000", "113136.175000", "113136.177000", "113136.180000", "113136.182000", "113136.185000", "113136.187000", "113136.190000", "113136.193000", "113136.195000", "113136.198000", "113136.200000", "113136.203000", "113136.205000", "113136.208000", "113136.210000", "113136.224000", "113136.227000", "113216.167000", "113216.169000", "113216.172000", "113216.175000", "113216.177000", "113216.180000", "113216.182000", "113216.197000", "113216.200000", "113216.202000", "113216.205000", "113216.207000", "113216.210000", "113216.212000", "113216.215000", "113216.218000", "113216.220000", "113216.223000", "113216.225000", "113216.228000", "113256.167000", "113256.170000", "113256.173000", "113256.175000", "113256.178000", "113256.181000", "113256.183000", "113256.186000", "113256.188000", "113256.191000", "113256.193000", "113256.196000", "113256.198000", "113256.201000", "113256.204000", "113256.206000", "113256.209000", "113256.211000", "113256.214000", "113256.217000", "113336.166000", "113336.169000", "113336.172000", "113336.175000", "113336.177000", "113336.180000", "113336.182000", "113336.185000", "113336.187000", "113336.190000", "113336.193000", "113336.195000", "113336.198000", "113336.200000", "113336.203000", "113336.205000", "113336.208000", "113336.211000", "113336.213000", "113336.216000", "113416.167000", "113416.169000", "113416.172000", "113416.175000", "113416.177000", "113416.180000", "113416.182000", "113416.185000", "113416.188000", "113416.190000", "113416.193000", "113416.195000", "113416.198000", "113416.200000", "113416.203000", "113416.205000", "113416.208000", "113416.211000", "113416.213000", "113416.216000", "113456.166000", "113456.169000", "113456.172000", "113456.174000", "113456.177000", "113456.180000", "113456.182000", "113456.185000", "113456.187000", "113456.190000", "113456.193000", "113456.195000", "113456.198000", "113456.200000", "113456.203000", "113456.205000", "113456.208000", "113456.211000", "113456.213000", "113456.216000", "113536.166000", "113536.169000", "113536.172000", "113536.174000", "113536.177000", "113536.180000", "113536.182000", "113536.185000", "113536.187000", "113536.190000", "113536.193000", "113536.195000", "113536.198000", "113536.200000", "113536.203000", "113536.205000", "113536.208000", "113536.210000", "113536.213000", "113536.216000", "113616.166000", "113616.169000", "113616.172000", "113616.175000", "113616.177000", "113616.180000", "113616.182000", "113616.185000", "113616.187000", "113616.190000", "113616.193000", "113616.195000", "113616.198000", "113616.200000", "113616.203000", "113616.205000", "113616.208000", "113616.210000", "113616.213000", "113616.216000", "113650.453000", "113650.456000", "113650.458000", "113650.461000", "113650.464000", "113650.466000", "113650.469000", "113650.472000", "113650.474000", "113650.477000", "113650.480000", "113650.482000", "113650.486000", "113650.490000", "113650.494000", "113650.497000", "113650.500000", "113650.504000"],
      "InstanceCreationTime": ["113056.177000", "113056.180000", "113056.183000", "113056.185000", "113056.188000", "113056.190000", "113056.193000", "113056.196000", "113056.198000", "113056.201000", "113056.203000", "113056.206000", "113056.213000", "113056.218000", "113056.224000", "113056.226000", "113056.229000", "113056.232000", "113056.234000", "113056.237000", "113056.239000", "113056.242000", "113136.167000", "113136.169000", "113136.172000", "113136.175000", "113136.177000", "113136.180000", "113136.182000", "113136.185000", "113136.187000", "113136.190000", "113136.193000", "113136.195000", "113136.198000", "113136.200000", "113136.203000", "113136.205000", "113136.208000", "113136.210000", "113136.224000", "113136.227000", "113216.167000", "113216.169000", "113216.172000", "113216.175000", "113216.177000", "113216.180000", "113216.182000", "113216.197000", "113216.200000", "113216.202000", "113216.205000", "113216.207000", "113216.210000", "113216.212000", "113216.215000", "113216.218000", "113216.220000", "113216.223000", "113216.225000", "113216.228000", "113256.167000", "113256.170000", "113256.173000", "113256.175000", "113256.178000", "113256.181000", "113256.183000", "113256.186000", "113256.188000", "113256.191000", "113256.193000", "113256.196000", "113256.198000", "113256.201000", "113256.204000", "113256.206000", "113256.209000", "113256.211000", "113256.214000", "113256.217000", "113336.166000", "113336.169000", "113336.172000", "113336.175000", "113336.177000", "113336.180000", "113336.182000", "113336.185000", "113336.187000", "113336.190000", "113336.193000", "113336.195000", "113336.198000", "113336.200000", "113336.203000", "113336.205000", "113336.208000", "113336.211000", "113336.213000", "113336.216000", "113416.167000", "113416.169000", "113416.172000", "113416.175000", "113416.177000", "113416.180000", "113416.182000", "113416.185000", "113416.188000", "113416.190000", "113416.193000", "113416.195000", "113416.198000", "113416.200000", "113416.203000", "113416.205000", "113416.208000", "113416.211000", "113416.213000", "113416.216000", "113456.166000", "113456.169000", "113456.172000", "113456.174000", "113456.177000", "113456.180000", "113456.182000", "113456.185000", "113456.187000", "113456.190000", "113456.193000", "113456.195000", "113456.198000", "113456.200000", "113456.203000", "113456.205000", "113456.208000", "113456.211000", "113456.213000", "113456.216000", "113536.166000", "113536.169000", "113536.172000", "113536.174000", "113536.177000", "113536.180000", "113536.182000", "113536.185000", "113536.187000", "113536.190000", "113536.193000", "113536.195000", "113536.198000", "113536.200000", "113536.203000", "113536.205000", "113536.208000", "113536.210000", "113536.213000", "113536.216000", "113616.166000", "113616.169000", "113616.172000", "113616.175000", "113616.177000", "113616.180000", "113616.182000", "113616.185000", "113616.187000", "113616.190000", "113616.193000", "113616.195000", "113616.198000", "113616.200000", "113616.203000", "113616.205000", "113616.208000", "113616.210000", "113616.213000", "113616.216000", "113650.453000", "113650.456000", "113650.458000", "113650.461000", "113650.464000", "113650.466000", "113650.469000", "113650.472000", "113650.474000", "113650.477000", "113650.480000", "113650.482000", "113650.486000", "113650.490000", "113650.494000", "113650.497000", "113650.500000", "113650.504000"],
      "InstanceNumber": [1, 2, 3, 4, 5, 6, 7, 8, 9, 10, 11, 12, 13, 14, 15, 16, 17, 18, 19, 20, 21, 22, 23, 24, 25, 26, 27, 28, 29, 30, 31, 32, 33, 34, 35, 36, 37, 38, 39, 40, 41, 42, 43, 44, 45, 46, 47, 48, 49, 50, 51, 52, 53, 54, 55, 56, 57, 58, 59, 60, 61, 62, 63, 64, 65, 66, 67, 68, 69, 70, 71, 72, 73, 74, 75, 76, 77, 78, 79, 80, 81, 82, 83, 84, 85, 86, 87, 88, 89, 90, 91, 92, 93, 94, 95, 96, 97, 98, 99, 100, 101, 102, 103, 104, 105, 106, 107, 108, 109, 110, 111, 112, 113, 114, 115, 116, 117, 118, 119, 120, 121, 122, 123, 124, 125, 126, 127, 128, 129, 130, 131, 132, 133, 134, 135, 136, 137, 138, 139, 140, 141, 142, 143, 144, 145, 146, 147, 148, 149, 150, 151, 152, 153, 154, 155, 156, 157, 158, 159, 160, 161, 162, 163, 164, 165, 166, 167, 168, 169, 170, 171, 172, 173, 174, 175, 176, 177, 178, 179, 180, 181, 182, 183, 184, 185, 186, 187, 188, 189, 190, 191, 192, 193, 194, 195, 196, 197, 198, 199, 200],
      "LargestImagePixelValue": [1893, 1887, 1896, 1889, 1892, 1892, 1896, 1895, 1894, 1895, 1897, 1891, 1897, 1894, 1889, 1892, 1896, 1895, 1900, 1895, 1895, 1897, 1890, 1891, 1898, 1903, 1897, 1900, 1892, 1898, 1897, 1897, 1894, 1901, 1898, 1902, 1895, 1897, 1900, 1895, 1899, 1898, 1897, 1900, 1897, 1900, 1894, 1898, 1904, 1901, 1900, 1895, 1898, 1894, 1893, 1895, 1891, 1888, 1890, 1894, 1890, 1890, 1898, 1894, 1893, 1893, 1899, 1893, 1894, 1894, 1898, 1896, 1893, 1896, 1895, 1895, 1894, 1896, 1895, 1901, 1897, 1896, 1897, 1897, 1898, 1896, 1904, 1904, 1904, 1903, 1901, 1899, 1903, 1900, 1899, 1897, 1901, 1904, 1906, 1902, 1904, 1902, 1907, 1902, 1909, 1903, 1905, 1907, 1902, 1905, 1901, 1909, 1911, 1911, 1900, 1910, 1904, 1903, 1908, 1904, 1897, 1906, 1902, 1902, 1904, 1898, 1898, 1903, 1903, 1908, 1904, 1901, 1901, 1895, 1902, 1908, 1906, 1907, 1905, 1904, 1904, 1907, 1905, 1902, 1908, 1907, 1908, 1909, 1905, 1908, 1907, 1903, 1911, 1905, 1905, 1907, 1904, 1899, 1899, 1900, 1903, 1898, 1895, 1898, 1894, 1895, 1897, 1895, 1897, 1895, 1895, 1901, 1895, 1893, 1889, 1897, 1889, 1897, 1892, 1899, 1895, 1894, 1899, 1894, 1894, 1892, 1899, 1898, 1897, 1894, 1896, 1894, 1896, 1895, 1891, 1902, 1897, 1898, 1901, 1900],
      "WindowCenter": [907.0, 907.0, 907.0, 907.0, 907.0, 907.0, 907.0, 907.0, 907.0, 907.0, 907.0, 907.0, 907.0, 907.0, 907.0, 907.0, 907.0, 907.0, 907.0, 907.0, 907.0, 907.0, 907.0, 907.0, 907.0, 907.0, 907.0, 907.0, 907.0, 907.0, 907.0, 907.0, 907.0, 907.0, 907.0, 907.0, 907.0, 907.0, 907.0, 907.0, 907.0, 907.0, 907.0, 907.0, 907.0, 907.0, 907.0, 907.0, 907.0, 907.0, 907.0, 907.0, 907.0, 907.0, 907.0, 907.0, 907.0, 907.0, 907.0, 907.0, 907.0, 907.0, 907.0, 907.0, 907.0, 907.0, 907.0, 907.0, 907.0, 907.0, 907.0, 907.0, 907.0, 907.0, 907.0, 907.0, 907.0, 907.0, 907.0, 907.0, 907.0, 907.0, 907.0, 907.0, 907.0, 907.0, 907.0, 907.0, 907.0, 907.0, 907.0, 907.0, 907.0, 907.0, 907.0, 907.0, 907.0, 907.0, 907.0, 907.0, 907.0, 907.0, 907.0, 907.0, 907.0, 907.0, 907.0, 907.0, 907.0, 907.0, 907.0, 907.0, 907.0, 907.0, 907.0, 907.0, 907.0, 907.0, 907.0, 907.0, 907.0, 907.0, 907.0, 907.0, 907.0, 907.0, 907.0, 907.0, 907.0, 907.0, 907.0, 907.0, 907.0, 907.0, 907.0, 907.0, 907.0, 907.0, 907.0, 907.0, 907.0, 907.0, 907.0, 907.0, 907.0, 907.0, 907.0, 907.0, 907.0, 907.0, 907.0, 907.0, 907.0, 907.0, 907.0, 907.0, 907.0, 907.0, 907.0, 907.0, 907.0, 908.0, 907.0, 907.0, 907.0, 907.0, 907.0, 907.0, 907.0, 907.0, 907.0, 907.0, 907.0, 907.0, 907.0, 907.0, 907.0, 907.0, 907.0, 907.0, 907.0, 907.0, 907.0, 907.0, 907.0, 907.0, 907.0, 907.0, 907.0, 907.0, 907.0, 907.0, 907.0, 907.0, 907.0, 907.0, 907.0, 907.0, 907.0, 907.0],
      "WindowWidth": [2047.0, 2046.0, 2047.0, 2046.0, 2046.0, 2047.0, 2046.0, 2047.0, 2046.0, 2046.0, 2047.0, 2047.0, 2046.0, 2046.0, 2046.0, 2047.0, 2047.0, 2047.0, 2047.0, 2046.0, 2046.0, 2047.0, 2047.0, 2047.0, 2047.0, 2047.0, 2047.0, 2047.0, 2047.0, 2046.0, 2047.0, 2047.0, 2047.0, 2047.0, 2047.0, 2047.0, 2047.0, 2047.0, 2047.0, 2047.0, 2047.0, 2047.0, 2047.0, 2047.0, 2047.0, 2047.0, 2047.0, 2047.0, 2047.0, 2047.0, 2047.0, 2047.0, 2047.0, 2047.0, 2047.0, 2047.0, 2047.0, 2047.0, 2047.0, 2047.0, 2047.0, 2047.0, 2047.0, 2046.0, 2047.0, 2047.0, 2047.0, 2047.0, 2047.0, 2047.0, 2047.0, 2047.0, 2047.0, 2047.0, 2047.0, 2047.0, 2047.0, 2047.0, 2047.0, 2047.0, 2047.0, 2047.0, 2047.0, 2047.0, 2047.0, 2047.0, 2047.0, 2047.0, 2047.0, 2047.0, 2047.0, 2047.0, 2047.0, 2047.0, 2047.0, 2047.0, 2047.0, 2047.0, 2047.0, 2047.0, 2047.0, 2047.0, 2047.0, 2047.0, 2047.0, 2047.0, 2047.0, 2047.0, 2047.0, 2047.0, 2047.0, 2047.0, 2047.0, 2047.0, 2047.0, 2047.0, 2047.0, 2047.0, 2047.0, 2047.0, 2047.0, 2047.0, 2047.0, 2047.0, 2047.0, 2047.0, 2047.0, 2047.0, 2047.0, 2047.0, 2047.0, 2047.0, 2047.0, 2047.0, 2047.0, 2047.0, 2047.0, 2047.0, 2047.0, 2047.0, 2047.0, 2047.0, 2047.0, 2047.0, 2047.0, 2047.0, 2047.0, 2047.0, 2047.0, 2047.0, 2047.0, 2047.0, 2047.0, 2047.0, 2047.0, 2047.0, 2047.0, 2047.0, 2047.0, 2047.0, 2047.0, 2048.0, 2047.0, 2047.0, 2047.0, 2047.0, 2047.0, 2047.0, 2047.0, 2047.0, 2047.0, 2047.0, 2047.0, 2047.0, 2047.0, 2047.0, 2047.0, 2047.0, 2047.0, 2047.0, 2047.0, 2047.0, 2047.0, 2047.0, 2047.0, 2047.0, 2047.0, 2047.0, 2047.0, 2047.0, 2047.0, 2047.0, 2047.0, 2047.0, 2047.0, 2047.0, 2047.0, 2047.0, 2047.0, 2047.0]
    },
    "slices": {}
  }
}