{
  "AcquisitionMatrixPE": 80,
  "AcquisitionNumber": 1,
  "AcquisitionTime": "11:37:1.492500",
  "BandwidthPerPixelPhaseEncode": 25,
  "BaseResolution": 80,
  "BodyPartExamined": "BRAIN",
  "CoilCombinationMethod": "Sum of Squares",
  "ConsistencyInfo": "N4_VE11C_LATEST_20160120",
  "ConversionSoftware": "dcm2niix",
  "ConversionSoftwareVersion": "v1.0.20220720",
  "DerivedVendorReportedEchoSpacing": 0.0005,
  "DeviceSerialNumber": "66112",
  "DwellTime": 2.7e-06,
  "EchoTime": 0.03,
  "EchoTrainLength": 80,
  "EffectiveEchoSpacing": 0.0005,
  "FlipAngle": 77,
  "HeudiconvVersion": "0.13.1",
  "ImageOrientationPatientDICOM": [0.986548, 0.163228, 0.00893029, -0.158019, 0.938225, 0.307837],
  "ImageOrientationText": "Tra>Cor(17.8)>Sag(-2.4)",
  "ImageType": [
    "ORIGINAL",
    "PRIMARY",
    "M",
    "ND",
    "NORM",
    "MOSAIC"
],
  "ImagingFrequency": 123.252,
  "InPlanePhaseEncodingDirectionDICOM": "COL",
  "InstitutionAddress": "Maynard 3,Hanover,NH,US,03755",
  "InstitutionName": "Dartmouth College - PBS",
  "InstitutionalDepartmentName": "Department",
  "MRAcquisitionType": "2D",
  "MagneticFieldStrength": 3,
  "Manufacturer": "Siemens",
  "ManufacturersModelName": "Prisma",
  "MatrixCoilMode": "SENSE",
  "Modality": "MR",
  "NonlinearGradientCorrection": false,
  "PartialFourier": 1,
  "PatientPosition": "HFS",
  "PercentPhaseFOV": 100,
  "PercentSampling": 100,
  "PhaseEncodingDirection": "j-",
  "PhaseEncodingSteps": 80,
  "PhaseResolution": 1,
  "PixelBandwidth": 2315,
  "ProcedureStepDescription": "dbic^QA",
  "ProtocolName": "func-bold_fa-77",
  "PulseSequenceDetails": "%SiemensSeq%\\ep2d_bold",
  "ReceiveCoilActiveElements": "HEA;HEP",
  "ReceiveCoilName": "Head_32",
  "ReconMatrixPE": 80,
  "RepetitionTime": 2,
  "SAR": 0.0437132,
  "ScanOptions": "FS",
  "ScanningSequence": "EP",
  "SequenceName": "*epfid2d1_80",
  "SequenceVariant": "SK",
  "SeriesDescription": "func-bold_fa-77",
  "SeriesNumber": 8,
  "ShimSetting": [4141, -7699, -7510, 267, -91, -69, -34, 61],
  "SliceThickness": 3.5,
  "SliceTiming": [0.99, 0, 1.055, 0.0675, 1.1225, 0.1325, 1.1875, 0.1975, 1.255, 0.265, 1.32, 0.33, 1.385, 0.3975, 1.4525, 0.4625, 1.5175, 0.5275, 1.585, 0.595, 1.65, 0.66, 1.715, 0.7275, 1.7825, 0.7925, 1.8475, 0.8575, 1.915, 0.925],
  "SoftwareVersions": "syngo MR E11",
  "SpacingBetweenSlices": 3.99,
  "StationName": "AWP66112",
  "TotalReadoutTime": 0.0395,
  "TxRefAmp": 227.741,
  "dcmmeta_affine": [
    [-2.959643840789795, -0.47405827045440674, -0.16705718636512756, 140.53309631347656],
    [-0.48968416452407837, 2.8146753311157227, 1.2173763513565063, -96.96449279785156],
    [0.02679087035357952, -0.9235101342201233, 3.7960753440856934, -8.9375581741333],
    [0.0, 0.0, 0.0, 1.0]
],
  "dcmmeta_reorient_transform": [
    [0.0, -1.0, 0.0, 79.0],
    [1.0, 0.0, 0.0, 0.0],
    [0.0, 0.0, 1.0, 0.0],
    [0.0, 0.0, 0.0, 1.0]
],
  "dcmmeta_shape": [80, 80, 30, 200],
  "dcmmeta_slice_dim": 2,
  "dcmmeta_version": 0.6,
  "global": {
    "const": {
      "AccessionNumber": "qa",
      "AcquisitionMatrix": [80, 0, 0, 80],
      "AngioFlag": "N",
      "BitsAllocated": 16,
      "BitsStored": 12,
      "BodyPartExamined": "BRAIN",
      "Columns": 480,
      "EchoNumbers": 1,
      "EchoTime": 30.0,
      "EchoTrainLength": 80,
      "FlipAngle": 77.0,
      "HighBit": 11,
      "ImageOrientationPatient": [0.98654794641629, 0.16322805930308, 0.00893028991374, -0.1580194258279, 0.93822514054839, 0.30783672085051],
      "ImagePositionPatient": [-600.19960817648, -786.26678862664, -271.95506787965],
      "ImageType": [
        "ORIGINAL",
        "PRIMARY",
        "M",
        "ND",
        "NORM",
        "MOSAIC"
],
      "ImagedNucleus": "1H",
      "ImagingFrequency": 123.252371,
      "InPlanePhaseEncodingDirection": "COL",
      "MRAcquisitionType": "2D",
      "MagneticFieldStrength": 3.0,
      "Manufacturer": "SIEMENS",
      "ManufacturerModelName": "Prisma",
      "Modality": "MR",
      "NumberOfAverages": 1.0,
      "NumberOfPhaseEncodingSteps": 80,
      "PercentPhaseFieldOfView": 100.0,
      "PercentSampling": 100.0,
      "PerformedProcedureStepStartTime": "112154.832000",
      "PhotometricInterpretation": "MONOCHROME2",
      "PixelBandwidth": 2315.0,
      "PixelRepresentation": 0,
      "PixelSpacing": [3.0, 3.0],
      "ProtocolName": "func-bold_fa-77",
      "RepetitionTime": 2000.0,
      "Rows": 480,
      "SAR": 0.0437132358964,
      "SamplesPerPixel": 1,
      "ScanOptions": "FS",
      "ScanningSequence": "EP",
      "SequenceName": "*epfid2d1_80",
      "SequenceVariant": "SK",
      "SeriesDescription": "func-bold_fa-77",
      "SeriesNumber": 8,
      "SeriesTime": "113756.028000",
      "SliceLocation": -43.971674276473,
      "SliceThickness": 3.5,
      "SmallestImagePixelValue": 0,
      "SoftwareVersions": "syngo MR E11",
      "SpacingBetweenSlices": 3.9900000515374,
      "SpecificCharacterSet": "ISO_IR 100",
      "StudyID": "5",
      "StudyTime": "112154.785000",
      "TransmitCoilName": "Body",
      "VariableFlipAngleFlag": "N",
      "WindowCenterWidthExplanation": "Algo1",
      "dBdt": 0.0},
    "slices": {}
  },
  "time": {
    "samples": {
      "AcquisitionNumber": [1, 2, 3, 4, 5, 6, 7, 8, 9, 10, 11, 12, 13, 14, 15, 16, 17, 18, 19, 20, 21, 22, 23, 24, 25, 26, 27, 28, 29, 30, 31, 32, 33, 34, 35, 36, 37, 38, 39, 40, 41, 42, 43, 44, 45, 46, 47, 48, 49, 50, 51, 52, 53, 54, 55, 56, 57, 58, 59, 60, 61, 62, 63, 64, 65, 66, 67, 68, 69, 70, 71, 72, 73, 74, 75, 76, 77, 78, 79, 80, 81, 82, 83, 84, 85, 86, 87, 88, 89, 90, 91, 92, 93, 94, 95, 96, 97, 98, 99, 100, 101, 102, 103, 104, 105, 106, 107, 108, 109, 110, 111, 112, 113, 114, 115, 116, 117, 118, 119, 120, 121, 122, 123, 124, 125, 126, 127, 128, 129, 130, 131, 132, 133, 134, 135, 136, 137, 138, 139, 140, 141, 142, 143, 144, 145, 146, 147, 148, 149, 150, 151, 152, 153, 154, 155, 156, 157, 158, 159, 160, 161, 162, 163, 164, 165, 166, 167, 168, 169, 170, 171, 172, 173, 174, 175, 176, 177, 178, 179, 180, 181, 182, 183, 184, 185, 186, 187, 188, 189, 190, 191, 192, 193, 194, 195, 196, 197, 198, 199, 200],
      "AcquisitionTime": ["113701.492500", "113703.492500", "113705.492500", "113707.492500", "113709.492500", "113711.492500", "113713.492500", "113715.492500", "113717.492500", "113719.492500", "113721.492500", "113723.492500", "113725.492500", "113727.492500", "113729.492500", "113731.492500", "113733.492500", "113735.492500", "113737.492500", "113739.492500", "113741.492500", "113743.492500", "113745.492500", "113747.492500", "113749.492500", "113751.492500", "113753.492500", "113755.492500", "113757.492500", "113759.492500", "113801.492500", "113803.492500", "113805.492500", "113807.492500", "113809.492500", "113811.492500", "113813.492500", "113815.492500", "113817.492500", "113819.492500", "113821.492500", "113823.492500", "113825.492500", "113827.492500", "113829.492500", "113831.492500", "113833.492500", "113835.492500", "113837.492500", "113839.492500", "113841.492500", "113843.492500", "113845.492500", "113847.492500", "113849.492500", "113851.492500", "113853.492500", "113855.492500", "113857.492500", "113859.492500", "113901.492500", "113903.492500", "113905.492500", "113907.492500", "113909.492500", "113911.492500", "113913.492500", "113915.492500", "113917.492500", "113919.492500", "113921.492500", "113923.492500", "113925.492500", "113927.492500", "113929.492500", "113931.492500", "113933.492500", "113935.492500", "113937.492500", "113939.492500", "113941.492500", "113943.492500", "113945.492500", "113947.492500", "113949.492500", "113951.492500", "113953.492500", "113955.492500", "113957.492500", "113959.492500", "114001.492500", "114003.492500", "114005.492500", "114007.492500", "114009.492500", "114011.492500", "114013.492500", "114015.492500", "114017.492500", "114019.492500", "114021.492500", "114023.492500", "114025.492500", "114027.492500", "114029.492500", "114031.492500", "114033.492500", "114035.492500", "114037.492500", "114039.492500", "114041.492500", "114043.492500", "114045.492500", "114047.492500", "114049.492500", "114051.492500", "114053.492500", "114055.492500", "114057.492500", "114059.492500", "114101.492500", "114103.492500", "114105.492500", "114107.492500", "114109.492500", "114111.492500", "114113.492500", "114115.492500", "114117.492500", "114119.492500", "114121.492500", "114123.492500", "114125.492500", "114127.492500", "114129.492500", "114131.492500", "114133.492500", "114135.492500", "114137.492500", "114139.492500", "114141.492500", "114143.492500", "114145.492500", "114147.492500", "114149.492500", "114151.492500", "114153.492500", "114155.492500", "114157.492500", "114159.492500", "114201.492500", "114203.492500", "114205.492500", "114207.492500", "114209.492500", "114211.492500", "114213.492500", "114215.492500", "114217.492500", "114219.492500", "114221.492500", "114223.492500", "114225.492500", "114227.492500", "114229.492500", "114231.492500", "114233.492500", "114235.492500", "114237.492500", "114239.492500", "114241.492500", "114243.492500", "114245.492500", "114247.492500", "114249.492500", "114251.492500", "114253.492500", "114255.492500", "114257.492500", "114259.492500", "114301.492500", "114303.492500", "114305.492500", "114307.492500", "114309.492500", "114311.492500", "114313.492500", "114315.492500", "114317.492500", "114319.492500", "114321.492500", "114323.492500", "114325.492500", "114327.492500", "114329.492500", "114331.492500", "114333.492500", "114335.492500", "114337.492500", "114339.492500"],
      "ContentTime": ["113756.032000", "113756.035000", "113756.038000", "113756.040000", "113756.043000", "113756.046000", "113756.048000", "113756.051000", "113756.053000", "113756.056000", "113756.058000", "113756.061000", "113756.063000", "113756.066000", "113756.068000", "113756.071000", "113756.073000", "113756.076000", "113756.078000", "113756.087000", "113756.090000", "113756.092000", "113756.095000", "113756.097000", "113756.100000", "113756.102000", "113756.105000", "113836.026000", "113836.029000", "113836.032000", "113836.034000", "113836.037000", "113836.040000", "113836.042000", "113836.045000", "113836.047000", "113836.050000", "113836.052000", "113836.055000", "113836.057000", "113836.060000", "113836.062000", "113836.065000", "113836.075000", "113836.078000", "113836.080000", "113836.083000", "113916.026000", "113916.029000", "113916.032000", "113916.034000", "113916.037000", "113916.039000", "113916.042000", "113916.045000", "113916.047000", "113916.050000", "113916.052000", "113916.055000", "113916.057000", "113916.060000", "113916.062000", "113916.065000", "113916.068000", "113916.070000", "113916.073000", "113916.075000", "113956.027000", "113956.030000", "113956.033000", "113956.035000", "113956.038000", "113956.041000", "113956.043000", "113956.046000", "113956.048000", "113956.051000", "113956.053000", "113956.056000", "113956.059000", "113956.061000", "113956.064000", "113956.066000", "113956.069000", "113956.071000", "113956.074000", "113956.076000", "114036.026000", "114036.029000", "114036.032000", "114036.034000", "114036.037000", "114036.040000", "114036.042000", "114036.045000", "114036.047000", "114036.050000", "114036.052000", "114036.055000", "114036.058000", "114036.060000", "114036.063000", "114036.065000", "114036.068000", "114036.077000", "114036.080000", "114036.082000", "114116.027000", "114116.029000", "114116.032000", "114116.034000", "114116.037000", "114116.040000", "114116.042000", "114116.045000", "114116.047000", "114116.050000", "114116.052000", "114116.055000", "114116.058000", "114116.060000", "114116.063000", "114116.065000", "114116.068000", "114116.070000", "114116.073000", "114116.076000", "114156.027000", "114156.030000", "114156.032000", "114156.035000", "114156.037000", "114156.040000", "114156.042000", "114156.045000", "114156.048000", "114156.050000", "114156.053000", "114156.055000", "114156.058000", "114156.060000", "114156.063000", "114156.065000", "114156.068000", "114156.070000", "114156.073000", "114156.076000", "114236.027000", "114236.029000", "114236.032000", "114236.034000", "114236.037000", "114236.040000", "114236.042000", "114236.045000", "114236.047000", "114236.050000", "114236.052000", "114236.055000", "114236.057000", "114236.060000", "114236.062000", "114236.065000", "114236.068000", "114236.070000", "114236.073000", "114236.075000", "114316.027000", "114316.029000", "114316.032000", "114316.034000", "114316.037000", "114316.039000", "114316.042000", "114316.045000", "114316.047000", "114316.050000", "114316.053000", "114316.055000", "114316.058000", "114316.060000", "114316.063000", "114316.065000", "114316.068000", "114316.070000", "114316.073000", "114316.075000", "114340.709000", "114340.712000", "114340.715000", "114340.717000", "114340.720000", "114340.723000", "114340.725000", "114340.728000", "114340.730000", "114340.733000", "114340.736000", "114340.738000", "114340.742000"],
      "InstanceCreationTime": ["113756.032000", "113756.035000", "113756.038000", "113756.040000", "113756.043000", "113756.046000", "113756.048000", "113756.051000", "113756.053000", "113756.056000", "113756.058000", "113756.061000", "113756.063000", "113756.066000", "113756.068000", "113756.071000", "113756.073000", "113756.076000", "113756.078000", "113756.087000", "113756.090000", "113756.092000", "113756.095000", "113756.097000", "113756.100000", "113756.102000", "113756.105000", "113836.026000", "113836.029000", "113836.032000", "113836.034000", "113836.037000", "113836.040000", "113836.042000", "113836.045000", "113836.047000", "113836.050000", "113836.052000", "113836.055000", "113836.057000", "113836.060000", "113836.062000", "113836.065000", "113836.075000", "113836.078000", "113836.080000", "113836.083000", "113916.026000", "113916.029000", "113916.032000", "113916.034000", "113916.037000", "113916.039000", "113916.042000", "113916.045000", "113916.047000", "113916.050000", "113916.052000", "113916.055000", "113916.057000", "113916.060000", "113916.062000", "113916.065000", "113916.068000", "113916.070000", "113916.073000", "113916.075000", "113956.027000", "113956.030000", "113956.033000", "113956.035000", "113956.038000", "113956.041000", "113956.043000", "113956.046000", "113956.048000", "113956.051000", "113956.053000", "113956.056000", "113956.059000", "113956.061000", "113956.064000", "113956.066000", "113956.069000", "113956.071000", "113956.074000", "113956.076000", "114036.026000", "114036.029000", "114036.032000", "114036.034000", "114036.037000", "114036.040000", "114036.042000", "114036.045000", "114036.047000", "114036.050000", "114036.052000", "114036.055000", "114036.058000", "114036.060000", "114036.063000", "114036.065000", "114036.068000", "114036.077000", "114036.080000", "114036.082000", "114116.027000", "114116.029000", "114116.032000", "114116.034000", "114116.037000", "114116.040000", "114116.042000", "114116.045000", "114116.047000", "114116.050000", "114116.052000", "114116.055000", "114116.058000", "114116.060000", "114116.063000", "114116.065000", "114116.068000", "114116.070000", "114116.073000", "114116.076000", "114156.027000", "114156.030000", "114156.032000", "114156.035000", "114156.037000", "114156.040000", "114156.042000", "114156.045000", "114156.048000", "114156.050000", "114156.053000", "114156.055000", "114156.058000", "114156.060000", "114156.063000", "114156.065000", "114156.068000", "114156.070000", "114156.073000", "114156.076000", "114236.027000", "114236.029000", "114236.032000", "114236.034000", "114236.037000", "114236.040000", "114236.042000", "114236.045000", "114236.047000", "114236.050000", "114236.052000", "114236.055000", "114236.057000", "114236.060000", "114236.062000", "114236.065000", "114236.068000", "114236.070000", "114236.073000", "114236.075000", "114316.027000", "114316.029000", "114316.032000", "114316.034000", "114316.037000", "114316.039000", "114316.042000", "114316.045000", "114316.047000", "114316.050000", "114316.053000", "114316.055000", "114316.058000", "114316.060000", "114316.063000", "114316.065000", "114316.068000", "114316.070000", "114316.073000", "114316.075000", "114340.709000", "114340.712000", "114340.715000", "114340.717000", "114340.720000", "114340.723000", "114340.725000", "114340.728000", "114340.730000", "114340.733000", "114340.736000", "114340.738000", "114340.742000"],
      "InstanceNumber": [1, 2, 3, 4, 5, 6, 7, 8, 9, 10, 11, 12, 13, 14, 15, 16, 17, 18, 19, 20, 21, 22, 23, 24, 25, 26, 27, 28, 29, 30, 31, 32, 33, 34, 35, 36, 37, 38, 39, 40, 41, 42, 43, 44, 45, 46, 47, 48, 49, 50, 51, 52, 53, 54, 55, 56, 57, 58, 59, 60, 61, 62, 63, 64, 65, 66, 67, 68, 69, 70, 71, 72, 73, 74, 75, 76, 77, 78, 79, 80, 81, 82, 83, 84, 85, 86, 87, 88, 89, 90, 91, 92, 93, 94, 95, 96, 97, 98, 99, 100, 101, 102, 103, 104, 105, 106, 107, 108, 109, 110, 111, 112, 113, 114, 115, 116, 117, 118, 119, 120, 121, 122, 123, 124, 125, 126, 127, 128, 129, 130, 131, 132, 133, 134, 135, 136, 137, 138, 139, 140, 141, 142, 143, 144, 145, 146, 147, 148, 149, 150, 151, 152, 153, 154, 155, 156, 157, 158, 159, 160, 161, 162, 163, 164, 165, 166, 167, 168, 169, 170, 171, 172, 173, 174, 175, 176, 177, 178, 179, 180, 181, 182, 183, 184, 185, 186, 187, 188, 189, 190, 191, 192, 193, 194, 195, 196, 197, 198, 199, 200],
      "LargestImagePixelValue": [1850, 1851, 1853, 1854, 1853, 1852, 1853, 1850, 1850, 1850, 1849, 1850, 1851, 1850, 1849, 1852, 1851, 1854, 1854, 1856, 1857, 1859, 1859, 1858, 1858, 1856, 1855, 1855, 1854, 1854, 1855, 1855, 1854, 1853, 1854, 1852, 1851, 1852, 1855, 1855, 1854, 1853, 1853, 1853, 1853, 1855, 1853, 1857, 1854, 1855, 1853, 1855, 1855, 1853, 1855, 1855, 1855, 1855, 1854, 1855, 1855, 1853, 1854, 1854, 1855, 1855, 1856, 1856, 1855, 1852, 1852, 1852, 1852, 1853, 1854, 1851, 1854, 1858, 1860, 1860, 1861, 1859, 1858, 1856, 1857, 1855, 1855, 1853, 1853, 1855, 1858, 1859, 1861, 1859, 1857, 1856, 1851, 1851, 1851, 1850, 1851, 1852, 1854, 1853, 1855, 1854, 1855, 1854, 1853, 1854, 1853, 1855, 1855, 1855, 1856, 1857, 1853, 1852, 1851, 1850, 1850, 1850, 1851, 1848, 1850, 1849, 1849, 1848, 1851, 1851, 1850, 1848, 1850, 1851, 1854, 1851, 1850, 1849, 1851, 1852, 1853, 1852, 1854, 1856, 1856, 1859, 1860, 1858, 1856, 1855, 1854, 1853, 1856, 1856, 1856, 1854, 1852, 1851, 1852, 1855, 1855, 1854, 1852, 1852, 1853, 1854, 1852, 1851, 1850, 1850, 1849, 1850, 1846, 1847, 1845, 1849, 1847, 1850, 1848, 1848, 1848, 1849, 1850, 1851, 1849, 1850, 1850, 1849, 1849, 1851, 1851, 1850, 1850, 1847, 1845, 1846, 1848, 1848, 1849, 1847],
      "WindowCenter": [959.0, 959.0, 959.0, 959.0, 959.0, 959.0, 958.0, 958.0, 958.0, 958.0, 958.0, 958.0, 958.0, 958.0, 959.0, 958.0, 958.0, 958.0, 958.0, 958.0, 958.0, 958.0, 959.0, 959.0, 958.0, 958.0, 958.0, 958.0, 958.0, 958.0, 958.0, 958.0, 958.0, 958.0, 958.0, 958.0, 959.0, 959.0, 958.0, 958.0, 958.0, 957.0, 958.0, 956.0, 958.0, 958.0, 958.0, 958.0, 958.0, 959.0, 958.0, 958.0, 958.0, 958.0, 958.0, 959.0, 956.0, 958.0, 958.0, 958.0, 958.0, 959.0, 958.0, 958.0, 958.0, 957.0, 958.0, 958.0, 956.0, 958.0, 958.0, 958.0, 956.0, 958.0, 958.0, 958.0, 958.0, 958.0, 958.0, 958.0, 958.0, 958.0, 958.0, 958.0, 958.0, 958.0, 958.0, 958.0, 958.0, 958.0, 958.0, 958.0, 958.0, 958.0, 958.0, 958.0, 958.0, 958.0, 958.0, 958.0, 958.0, 958.0, 957.0, 958.0, 957.0, 958.0, 957.0, 957.0, 957.0, 957.0, 957.0, 957.0, 957.0, 957.0, 957.0, 958.0, 957.0, 957.0, 957.0, 957.0, 957.0, 957.0, 957.0, 957.0, 957.0, 957.0, 957.0, 957.0, 958.0, 957.0, 957.0, 957.0, 957.0, 957.0, 957.0, 958.0, 957.0, 957.0, 958.0, 958.0, 957.0, 957.0, 957.0, 957.0, 957.0, 958.0, 957.0, 957.0, 957.0, 957.0, 958.0, 957.0, 957.0, 956.0, 958.0, 958.0, 957.0, 957.0, 957.0, 957.0, 957.0, 957.0, 957.0, 957.0, 957.0, 957.0, 957.0, 957.0, 957.0, 957.0, 957.0, 957.0, 957.0, 957.0, 957.0, 957.0, 957.0, 957.0, 957.0, 958.0, 957.0, 956.0, 957.0, 958.0, 957.0, 957.0, 957.0, 957.0, 957.0, 957.0, 956.0, 956.0, 957.0, 958.0, 957.0, 957.0, 957.0, 957.0, 957.0, 958.0],
      "WindowWidth": [2085.0, 2084.0, 2084.0, 2085.0, 2085.0, 2084.0, 2084.0, 2084.0, 2084.0, 2084.0, 2084.0, 2084.0, 2084.0, 2084.0, 2084.0, 2084.0, 2084.0, 2084.0, 2084.0, 2083.0, 2083.0, 2083.0, 2084.0, 2084.0, 2083.0, 2083.0, 2083.0, 2083.0, 2083.0, 2083.0, 2083.0, 2083.0, 2083.0, 2083.0, 2083.0, 2083.0, 2084.0, 2084.0, 2083.0, 2083.0, 2083.0, 2082.0, 2082.0, 2082.0, 2082.0, 2083.0, 2083.0, 2083.0, 2082.0, 2083.0, 2082.0, 2082.0, 2082.0, 2082.0, 2082.0, 2084.0, 2081.0, 2082.0, 2082.0, 2082.0, 2082.0, 2083.0, 2082.0, 2082.0, 2082.0, 2082.0, 2082.0, 2083.0, 2081.0, 2082.0, 2083.0, 2082.0, 2081.0, 2082.0, 2082.0, 2082.0, 2083.0, 2082.0, 2082.0, 2082.0, 2082.0, 2082.0, 2082.0, 2082.0, 2082.0, 2083.0, 2082.0, 2082.0, 2082.0, 2082.0, 2082.0, 2082.0, 2082.0, 2082.0, 2082.0, 2082.0, 2082.0, 2083.0, 2082.0, 2082.0, 2082.0, 2082.0, 2082.0, 2083.0, 2082.0, 2083.0, 2082.0, 2082.0, 2082.0, 2082.0, 2082.0, 2082.0, 2082.0, 2082.0, 2082.0, 2083.0, 2082.0, 2082.0, 2082.0, 2082.0, 2081.0, 2082.0, 2082.0, 2082.0, 2082.0, 2082.0, 2082.0, 2081.0, 2083.0, 2082.0, 2081.0, 2081.0, 2082.0, 2081.0, 2082.0, 2082.0, 2082.0, 2081.0, 2082.0, 2083.0, 2082.0, 2082.0, 2082.0, 2082.0, 2082.0, 2082.0, 2082.0, 2082.0, 2082.0, 2082.0, 2082.0, 2082.0, 2082.0, 2081.0, 2082.0, 2082.0, 2082.0, 2082.0, 2082.0, 2081.0, 2081.0, 2081.0, 2081.0, 2082.0, 2082.0, 2082.0, 2082.0, 2082.0, 2082.0, 2082.0, 2081.0, 2081.0, 2082.0, 2081.0, 2081.0, 2081.0, 2081.0, 2081.0, 2081.0, 2082.0, 2081.0, 2080.0, 2081.0, 2082.0, 2081.0, 2081.0, 2081.0, 2081.0, 2081.0, 2082.0, 2080.0, 2080.0, 2081.0, 2082.0, 2081.0, 2081.0, 2081.0, 2081.0, 2081.0, 2082.0]
    },
    "slices": {}
  }
}