{
  "AcquisitionMatrixPE": 80,
  "AcquisitionNumber": 1,
  "AcquisitionTime": "11:23:16.500000",
  "BandwidthPerPixelPhaseEncode": 48.077,
  "BaseResolution": 80,
  "BodyPartExamined": "BRAIN",
  "CoilCombinationMethod": "Sum of Squares",
  "ConsistencyInfo": "N4_VE11C_LATEST_20160120",
  "ConversionSoftware": "dcm2niix",
  "ConversionSoftwareVersion": "v1.0.20220720",
  "DerivedVendorReportedEchoSpacing": 0.000519999,
  "DeviceSerialNumber": "66112",
  "DwellTime": 2.7e-06,
  "EchoTime": 0.035,
  "EchoTrainLength": 39,
  "EffectiveEchoSpacing": 0.00026,
  "FlipAngle": 90,
  "HeudiconvVersion": "0.13.1",
  "ImageOrientationPatientDICOM": [0.986548, 0.163228, 0.00893029, -0.158019, 0.938225, 0.307837],
  "ImageOrientationText": "Tra>Cor(17.8)>Sag(-2.4)",
  "ImageType": [
    "ORIGINAL",
    "PRIMARY",
    "M",
    "ND",
    "NORM",
    "MOSAIC"
],
  "ImagingFrequency": 123.252,
  "InPlanePhaseEncodingDirectionDICOM": "COL",
  "InstitutionAddress": "Maynard 3,Hanover,NH,US,03755",
  "InstitutionName": "Dartmouth College - PBS",
  "InstitutionalDepartmentName": "Department",
  "MRAcquisitionType": "2D",
  "MagneticFieldStrength": 3,
  "Manufacturer": "Siemens",
  "ManufacturersModelName": "Prisma",
  "MatrixCoilMode": "GRAPPA",
  "Modality": "MR",
  "NonlinearGradientCorrection": false,
  "ParallelReductionFactorInPlane": 2,
  "PartialFourier": 1,
  "PatientPosition": "HFS",
  "PercentPhaseFOV": 100,
  "PercentSampling": 100,
  "PhaseEncodingDirection": "j-",
  "PhaseEncodingSteps": 79,
  "PhaseResolution": 1,
  "PixelBandwidth": 2315,
  "ProcedureStepDescription": "dbic^QA",
  "ProtocolName": "func-bold_task-rest_acq-p2",
  "PulseSequenceDetails": "%SiemensSeq%\\ep2d_bold",
  "ReceiveCoilActiveElements": "HEA;HEP",
  "ReceiveCoilName": "Head_32",
  "ReconMatrixPE": 80,
  "RefLinesPE": 24,
  "RepetitionTime": 2,
  "SAR": 0.0556254,
  "ScanOptions": "FS",
  "ScanningSequence": "EP",
  "SequenceName": "*epfid2d1_80",
  "SequenceVariant": "SK",
  "SeriesDescription": "func-bold_task-rest_acq-p2",
  "SeriesNumber": 5,
  "ShimSetting": [4141, -7700, -7510, 275, -89, -74, -38, 60],
  "SliceThickness": 3.5,
  "SliceTiming": [0.99, 0, 1.0575, 0.0675, 1.1225, 0.1325, 1.19, 0.2, 1.255, 0.265, 1.32, 0.33, 1.3875, 0.3975, 1.4525, 0.4625, 1.52, 0.53, 1.585, 0.595, 1.65, 0.66, 1.7175, 0.7275, 1.7825, 0.7925, 1.8475, 0.86, 1.915, 0.925],
  "SoftwareVersions": "syngo MR E11",
  "SpacingBetweenSlices": 3.99,
  "StationName": "AWP66112",
  "TaskName": "rest",
  "TotalReadoutTime": 0.02054,
  "TxRefAmp": 227.741,
  "dcmmeta_affine": [
    [-2.959643840789795, -0.47405827045440674, -0.16705718636512756, 141.0982208251953],
    [-0.48968416452407837, 2.8146753311157227, 1.2173763513565063, -100.53784942626953],
    [0.02679087035357952, -0.9235101342201233, 3.7960753440856934, -11.804165840148926],
    [0.0, 0.0, 0.0, 1.0]
],
  "dcmmeta_reorient_transform": [
    [0.0, -1.0, 0.0, 79.0],
    [1.0, 0.0, 0.0, 0.0],
    [0.0, 0.0, 1.0, 0.0],
    [0.0, 0.0, 0.0, 1.0]
],
  "dcmmeta_shape": [80, 80, 30, 200],
  "dcmmeta_slice_dim": 2,
  "dcmmeta_version": 0.6,
  "global": {
    "const": {
      "AccessionNumber": "qa",
      "AcquisitionMatrix": [80, 0, 0, 80],
      "AngioFlag": "N",
      "BitsAllocated": 16,
      "BitsStored": 12,
      "BodyPartExamined": "BRAIN",
      "Columns": 480,
      "EchoNumbers": 1,
      "EchoTime": 35.0,
      "EchoTrainLength": 39,
      "FlipAngle": 90.0,
      "HighBit": 11,
      "ImageOrientationPatient": [0.98654794641629, 0.16322805930308, 0.00893028991374, -0.1580194258279, 0.93822514054839, 0.30783672085051],
      "ImagePositionPatient": [-600.76472839667, -782.69343104455, -274.82167554567],
      "ImageType": [
        "ORIGINAL",
        "PRIMARY",
        "M",
        "ND",
        "NORM",
        "MOSAIC"
],
      "ImagedNucleus": "1H",
      "ImagingFrequency": 123.252371,
      "InPlanePhaseEncodingDirection": "COL",
      "MRAcquisitionType": "2D",
      "MagneticFieldStrength": 3.0,
      "Manufacturer": "SIEMENS",
      "ManufacturerModelName": "Prisma",
      "Modality": "MR",
      "NumberOfAverages": 1.0,
      "NumberOfPhaseEncodingSteps": 79,
      "PercentPhaseFieldOfView": 100.0,
      "PercentSampling": 100.0,
      "PerformedProcedureStepStartTime": "112154.832000",
      "PhotometricInterpretation": "MONOCHROME2",
      "PixelBandwidth": 2315.0,
      "PixelRepresentation": 0,
      "PixelSpacing": [3.0, 3.0],
      "ProtocolName": "func-bold_task-rest_acq-p2",
      "RepetitionTime": 2000.0,
      "Rows": 480,
      "SAR": 0.0556254297673,
      "SamplesPerPixel": 1,
      "ScanOptions": "FS",
      "ScanningSequence": "EP",
      "SequenceName": "*epfid2d1_80",
      "SequenceVariant": "SK",
      "SeriesDescription": "func-bold_task-rest_acq-p2",
      "SeriesNumber": 5,
      "SeriesTime": "112416.098000",
      "SliceLocation": -47.812873896145,
      "SliceThickness": 3.5,
      "SmallestImagePixelValue": 0,
      "SoftwareVersions": "syngo MR E11",
      "SpacingBetweenSlices": 3.9900000611407,
      "SpecificCharacterSet": "ISO_IR 100",
      "StudyID": "5",
      "StudyTime": "112154.785000",
      "TransmitCoilName": "Body",
      "VariableFlipAngleFlag": "N",
      "WindowCenterWidthExplanation": "Algo1",
      "dBdt": 0.0},
    "slices": {}
  },
  "time": {
    "samples": {
      "AcquisitionNumber": [1, 2, 3, 4, 5, 6, 7, 8, 9, 10, 11, 12, 13, 14, 15, 16, 17, 18, 19, 20, 21, 22, 23, 24, 25, 26, 27, 28, 29, 30, 31, 32, 33, 34, 35, 36, 37, 38, 39, 40, 41, 42, 43, 44, 45, 46, 47, 48, 49, 50, 51, 52, 53, 54, 55, 56, 57, 58, 59, 60, 61, 62, 63, 64, 65, 66, 67, 68, 69, 70, 71, 72, 73, 74, 75, 76, 77, 78, 79, 80, 81, 82, 83, 84, 85, 86, 87, 88, 89, 90, 91, 92, 93, 94, 95, 96, 97, 98, 99, 100, 101, 102, 103, 104, 105, 106, 107, 108, 109, 110, 111, 112, 113, 114, 115, 116, 117, 118, 119, 120, 121, 122, 123, 124, 125, 126, 127, 128, 129, 130, 131, 132, 133, 134, 135, 136, 137, 138, 139, 140, 141, 142, 143, 144, 145, 146, 147, 148, 149, 150, 151, 152, 153, 154, 155, 156, 157, 158, 159, 160, 161, 162, 163, 164, 165, 166, 167, 168, 169, 170, 171, 172, 173, 174, 175, 176, 177, 178, 179, 180, 181, 182, 183, 184, 185, 186, 187, 188, 189, 190, 191, 192, 193, 194, 195, 196, 197, 198, 199, 200],
      "AcquisitionTime": ["112316.500000", "112318.500000", "112320.500000", "112322.500000", "112324.500000", "112326.500000", "112328.500000", "112330.500000", "112332.500000", "112334.500000", "112336.500000", "112338.500000", "112340.500000", "112342.500000", "112344.500000", "112346.500000", "112348.500000", "112350.500000", "112352.500000", "112354.500000", "112356.500000", "112358.500000", "112400.500000", "112402.500000", "112404.500000", "112406.500000", "112408.500000", "112410.500000", "112412.500000", "112414.500000", "112416.500000", "112418.500000", "112420.500000", "112422.500000", "112424.500000", "112426.500000", "112428.500000", "112430.500000", "112432.500000", "112434.500000", "112436.500000", "112438.500000", "112440.500000", "112442.500000", "112444.500000", "112446.500000", "112448.500000", "112450.500000", "112452.500000", "112454.500000", "112456.500000", "112458.500000", "112500.500000", "112502.500000", "112504.500000", "112506.500000", "112508.500000", "112510.500000", "112512.500000", "112514.500000", "112516.500000", "112518.500000", "112520.500000", "112522.500000", "112524.500000", "112526.500000", "112528.500000", "112530.500000", "112532.500000", "112534.500000", "112536.500000", "112538.500000", "112540.500000", "112542.500000", "112544.500000", "112546.500000", "112548.500000", "112550.500000", "112552.500000", "112554.500000", "112556.500000", "112558.500000", "112600.500000", "112602.500000", "112604.500000", "112606.500000", "112608.500000", "112610.500000", "112612.500000", "112614.500000", "112616.500000", "112618.500000", "112620.500000", "112622.500000", "112624.500000", "112626.500000", "112628.500000", "112630.500000", "112632.500000", "112634.500000", "112636.500000", "112638.500000", "112640.500000", "112642.500000", "112644.500000", "112646.500000", "112648.500000", "112650.500000", "112652.500000", "112654.500000", "112656.500000", "112658.500000", "112700.500000", "112702.500000", "112704.500000", "112706.500000", "112708.500000", "112710.500000", "112712.500000", "112714.500000", "112716.500000", "112718.500000", "112720.500000", "112722.500000", "112724.500000", "112726.500000", "112728.500000", "112730.500000", "112732.500000", "112734.500000", "112736.500000", "112738.500000", "112740.500000", "112742.500000", "112744.500000", "112746.500000", "112748.500000", "112750.500000", "112752.500000", "112754.500000", "112756.500000", "112758.500000", "112800.500000", "112802.500000", "112804.500000", "112806.500000", "112808.500000", "112810.500000", "112812.500000", "112814.500000", "112816.500000", "112818.500000", "112820.500000", "112822.500000", "112824.500000", "112826.500000", "112828.500000", "112830.500000", "112832.500000", "112834.500000", "112836.500000", "112838.500000", "112840.500000", "112842.500000", "112844.500000", "112846.500000", "112848.500000", "112850.500000", "112852.500000", "112854.500000", "112856.500000", "112858.500000", "112900.500000", "112902.500000", "112904.500000", "112906.500000", "112908.500000", "112910.500000", "112912.500000", "112914.500000", "112916.500000", "112918.500000", "112920.500000", "112922.500000", "112924.500000", "112926.500000", "112928.500000", "112930.500000", "112932.500000", "112934.500000", "112936.500000", "112938.500000", "112940.500000", "112942.500000", "112944.500000", "112946.500000", "112948.500000", "112950.500000", "112952.500000", "112954.500000"],
      "ContentTime": ["112416.101000", "112416.105000", "112416.107000", "112416.110000", "112416.113000", "112416.115000", "112416.118000", "112416.120000", "112416.123000", "112416.125000", "112416.128000", "112416.131000", "112416.133000", "112416.136000", "112416.138000", "112416.141000", "112416.143000", "112416.146000", "112416.149000", "112416.151000", "112416.154000", "112416.156000", "112416.159000", "112416.162000", "112416.164000", "112416.167000", "112416.174000", "112416.177000", "112416.179000", "112456.096000", "112456.099000", "112456.102000", "112456.104000", "112456.107000", "112456.118000", "112456.121000", "112456.123000", "112456.126000", "112456.129000", "112456.131000", "112456.134000", "112456.136000", "112456.139000", "112456.142000", "112456.144000", "112456.147000", "112456.149000", "112456.152000", "112456.154000", "112536.097000", "112536.099000", "112536.102000", "112536.105000", "112536.107000", "112536.110000", "112536.112000", "112536.115000", "112536.117000", "112536.120000", "112536.131000", "112536.133000", "112536.136000", "112536.138000", "112536.141000", "112536.144000", "112536.146000", "112536.149000", "112536.151000", "112536.154000", "112616.096000", "112616.099000", "112616.102000", "112616.104000", "112616.107000", "112616.110000", "112616.112000", "112616.115000", "112616.117000", "112616.120000", "112616.123000", "112616.125000", "112616.128000", "112616.130000", "112616.133000", "112616.136000", "112616.138000", "112616.141000", "112616.143000", "112616.146000", "112636.096000", "112636.099000", "112636.102000", "112636.105000", "112636.107000", "112636.110000", "112636.112000", "112636.115000", "112636.117000", "112636.120000", "112716.097000", "112716.099000", "112716.102000", "112716.105000", "112716.107000", "112716.110000", "112716.112000", "112716.115000", "112716.117000", "112716.120000", "112716.123000", "112716.125000", "112716.128000", "112716.130000", "112716.133000", "112716.136000", "112716.138000", "112716.141000", "112716.143000", "112716.146000", "112756.097000", "112756.099000", "112756.102000", "112756.105000", "112756.107000", "112756.110000", "112756.112000", "112756.119000", "112756.122000", "112756.125000", "112756.127000", "112756.130000", "112756.132000", "112756.135000", "112756.138000", "112756.140000", "112756.143000", "112756.145000", "112756.148000", "112756.151000", "112836.096000", "112836.099000", "112836.102000", "112836.105000", "112836.107000", "112836.110000", "112836.112000", "112836.115000", "112836.118000", "112836.120000", "112836.123000", "112836.125000", "112836.128000", "112836.130000", "112836.133000", "112836.136000", "112836.138000", "112836.141000", "112836.143000", "112836.146000", "112916.097000", "112916.099000", "112916.102000", "112916.105000", "112916.107000", "112916.110000", "112916.113000", "112916.115000", "112916.118000", "112916.120000", "112916.123000", "112916.125000", "112916.128000", "112916.131000", "112916.133000", "112916.136000", "112916.138000", "112916.141000", "112916.143000", "112916.146000", "112956.096000", "112956.099000", "112956.102000", "112956.105000", "112956.107000", "112956.110000", "112956.113000", "112956.115000", "112956.118000", "112956.120000", "112956.123000", "112956.125000", "112956.128000", "112956.131000", "112956.133000", "112956.136000", "112956.138000", "112956.141000", "112956.144000", "112956.146000", "112956.402000"],
      "InstanceCreationTime": ["112416.101000", "112416.105000", "112416.107000", "112416.110000", "112416.113000", "112416.115000", "112416.118000", "112416.120000", "112416.123000", "112416.125000", "112416.128000", "112416.131000", "112416.133000", "112416.136000", "112416.138000", "112416.141000", "112416.143000", "112416.146000", "112416.149000", "112416.151000", "112416.154000", "112416.156000", "112416.159000", "112416.162000", "112416.164000", "112416.167000", "112416.174000", "112416.177000", "112416.179000", "112456.096000", "112456.099000", "112456.102000", "112456.104000", "112456.107000", "112456.118000", "112456.121000", "112456.123000", "112456.126000", "112456.129000", "112456.131000", "112456.134000", "112456.136000", "112456.139000", "112456.142000", "112456.144000", "112456.147000", "112456.149000", "112456.152000", "112456.154000", "112536.097000", "112536.099000", "112536.102000", "112536.105000", "112536.107000", "112536.110000", "112536.112000", "112536.115000", "112536.117000", "112536.120000", "112536.131000", "112536.133000", "112536.136000", "112536.138000", "112536.141000", "112536.144000", "112536.146000", "112536.149000", "112536.151000", "112536.154000", "112616.096000", "112616.099000", "112616.102000", "112616.104000", "112616.107000", "112616.110000", "112616.112000", "112616.115000", "112616.117000", "112616.120000", "112616.123000", "112616.125000", "112616.128000", "112616.130000", "112616.133000", "112616.136000", "112616.138000", "112616.141000", "112616.143000", "112616.146000", "112636.096000", "112636.099000", "112636.102000", "112636.105000", "112636.107000", "112636.110000", "112636.112000", "112636.115000", "112636.117000", "112636.120000", "112716.097000", "112716.099000", "112716.102000", "112716.105000", "112716.107000", "112716.110000", "112716.112000", "112716.115000", "112716.117000", "112716.120000", "112716.123000", "112716.125000", "112716.128000", "112716.130000", "112716.133000", "112716.136000", "112716.138000", "112716.141000", "112716.143000", "112716.146000", "112756.097000", "112756.099000", "112756.102000", "112756.105000", "112756.107000", "112756.110000", "112756.112000", "112756.119000", "112756.122000", "112756.125000", "112756.127000", "112756.130000", "112756.132000", "112756.135000", "112756.138000", "112756.140000", "112756.143000", "112756.145000", "112756.148000", "112756.151000", "112836.096000", "112836.099000", "112836.102000", "112836.105000", "112836.107000", "112836.110000", "112836.112000", "112836.115000", "112836.118000", "112836.120000", "112836.123000", "112836.125000", "112836.128000", "112836.130000", "112836.133000", "112836.136000", "112836.138000", "112836.141000", "112836.143000", "112836.146000", "112916.097000", "112916.099000", "112916.102000", "112916.105000", "112916.107000", "112916.110000", "112916.113000", "112916.115000", "112916.118000", "112916.120000", "112916.123000", "112916.125000", "112916.128000", "112916.131000", "112916.133000", "112916.136000", "112916.138000", "112916.141000", "112916.143000", "112916.146000", "112956.096000", "112956.099000", "112956.102000", "112956.105000", "112956.107000", "112956.110000", "112956.113000", "112956.115000", "112956.118000", "112956.120000", "112956.123000", "112956.125000", "112956.128000", "112956.131000", "112956.133000", "112956.136000", "112956.138000", "112956.141000", "112956.144000", "112956.146000", "112956.402000"],
      "InstanceNumber": [1, 2, 3, 4, 5, 6, 7, 8, 9, 10, 11, 12, 13, 14, 15, 16, 17, 18, 19, 20, 21, 22, 23, 24, 25, 26, 27, 28, 29, 30, 31, 32, 33, 34, 35, 36, 37, 38, 39, 40, 41, 42, 43, 44, 45, 46, 47, 48, 49, 50, 51, 52, 53, 54, 55, 56, 57, 58, 59, 60, 61, 62, 63, 64, 65, 66, 67, 68, 69, 70, 71, 72, 73, 74, 75, 76, 77, 78, 79, 80, 81, 82, 83, 84, 85, 86, 87, 88, 89, 90, 91, 92, 93, 94, 95, 96, 97, 98, 99, 100, 101, 102, 103, 104, 105, 106, 107, 108, 109, 110, 111, 112, 113, 114, 115, 116, 117, 118, 119, 120, 121, 122, 123, 124, 125, 126, 127, 128, 129, 130, 131, 132, 133, 134, 135, 136, 137, 138, 139, 140, 141, 142, 143, 144, 145, 146, 147, 148, 149, 150, 151, 152, 153, 154, 155, 156, 157, 158, 159, 160, 161, 162, 163, 164, 165, 166, 167, 168, 169, 170, 171, 172, 173, 174, 175, 176, 177, 178, 179, 180, 181, 182, 183, 184, 185, 186, 187, 188, 189, 190, 191, 192, 193, 194, 195, 196, 197, 198, 199, 200],
      "LargestImagePixelValue": [1919, 1916, 1916, 1915, 1912, 1913, 1908, 1913, 1918, 1919, 1910, 1914, 1914, 1915, 1920, 1926, 1915, 1918, 1918, 1918, 1919, 1912, 1909, 1927, 1918, 1918, 1922, 1925, 1926, 1924, 1922, 1937, 1922, 1930, 1925, 1931, 1919, 1922, 1918, 1925, 1924, 1936, 1922, 1931, 1923, 1929, 1937, 1932, 1925, 1926, 1929, 1928, 1928, 1932, 1934, 1926, 1930, 1933, 1935, 1937, 1937, 1934, 1932, 1937, 1935, 1940, 1923, 1934, 1930, 1931, 1932, 1932, 1930, 1944, 1930, 1938, 1941, 1935, 1934, 1931, 1936, 1941, 1927, 1933, 1930, 1935, 1933, 1925, 1929, 1937, 1927, 1926, 1933, 1929, 1921, 1924, 1930, 1933, 1929, 1929, 1925, 1929, 1926, 1927, 1917, 1928, 1924, 1923, 1919, 1921, 1922, 1914, 1916, 1926, 1926, 1918, 1918, 1927, 1918, 1920, 1923, 1917, 1923, 1918, 1918, 1919, 1917, 1917, 1918, 1922, 1917, 1927, 1928, 1911, 1921, 1926, 1924, 1922, 1920, 1922, 1924, 1923, 1924, 1925, 1916, 1924, 1925, 1922, 1920, 1927, 1925, 1923, 1921, 1919, 1925, 1917, 1921, 1920, 1919, 1927, 1914, 1926, 1924, 1921, 1925, 1921, 1912, 1919, 1921, 1918, 1921, 1916, 1918, 1917, 1926, 1917, 1922, 1917, 1915, 1917, 1922, 1922, 1920, 1923, 1919, 1922, 1914, 1920, 1921, 1914, 1922, 1921, 1921, 1922, 1921, 1915, 1923, 1918, 1922, 1919],
      "WindowCenter": [972.0, 970.0, 970.0, 970.0, 970.0, 970.0, 970.0, 970.0, 970.0, 970.0, 970.0, 970.0, 971.0, 971.0, 970.0, 970.0, 970.0, 969.0, 970.0, 969.0, 970.0, 970.0, 969.0, 970.0, 969.0, 969.0, 969.0, 969.0, 971.0, 971.0, 971.0, 969.0, 970.0, 969.0, 970.0, 970.0, 970.0, 970.0, 971.0, 969.0, 970.0, 970.0, 969.0, 969.0, 969.0, 969.0, 969.0, 969.0, 970.0, 970.0, 969.0, 970.0, 970.0, 971.0, 970.0, 969.0, 970.0, 970.0, 970.0, 970.0, 970.0, 969.0, 969.0, 969.0, 970.0, 970.0, 969.0, 969.0, 970.0, 969.0, 969.0, 970.0, 969.0, 971.0, 970.0, 969.0, 969.0, 969.0, 969.0, 970.0, 969.0, 970.0, 971.0, 970.0, 970.0, 969.0, 969.0, 970.0, 969.0, 970.0, 970.0, 969.0, 969.0, 969.0, 969.0, 969.0, 970.0, 969.0, 969.0, 969.0, 969.0, 969.0, 969.0, 969.0, 969.0, 969.0, 969.0, 969.0, 969.0, 969.0, 969.0, 969.0, 969.0, 969.0, 969.0, 970.0, 969.0, 969.0, 969.0, 969.0, 969.0, 969.0, 969.0, 969.0, 969.0, 969.0, 969.0, 969.0, 969.0, 969.0, 970.0, 969.0, 969.0, 969.0, 969.0, 969.0, 968.0, 969.0, 969.0, 969.0, 969.0, 969.0, 969.0, 969.0, 969.0, 968.0, 971.0, 969.0, 970.0, 969.0, 968.0, 968.0, 970.0, 969.0, 969.0, 969.0, 969.0, 969.0, 969.0, 969.0, 969.0, 969.0, 969.0, 968.0, 968.0, 968.0, 968.0, 968.0, 969.0, 969.0, 968.0, 969.0, 968.0, 968.0, 969.0, 968.0, 969.0, 968.0, 968.0, 968.0, 968.0, 969.0, 969.0, 969.0, 968.0, 968.0, 968.0, 969.0, 970.0, 969.0, 968.0, 969.0, 968.0, 969.0, 968.0, 968.0, 968.0, 969.0, 968.0, 969.0],
      "WindowWidth": [2111.0, 2109.0, 2109.0, 2109.0, 2109.0, 2109.0, 2109.0, 2109.0, 2109.0, 2109.0, 2109.0, 2109.0, 2109.0, 2110.0, 2109.0, 2109.0, 2109.0, 2108.0, 2109.0, 2108.0, 2108.0, 2108.0, 2108.0, 2108.0, 2107.0, 2107.0, 2107.0, 2107.0, 2109.0, 2109.0, 2109.0, 2107.0, 2109.0, 2108.0, 2109.0, 2109.0, 2109.0, 2109.0, 2110.0, 2108.0, 2109.0, 2109.0, 2108.0, 2108.0, 2108.0, 2107.0, 2107.0, 2107.0, 2108.0, 2108.0, 2107.0, 2108.0, 2108.0, 2109.0, 2108.0, 2107.0, 2108.0, 2108.0, 2108.0, 2108.0, 2108.0, 2107.0, 2107.0, 2107.0, 2108.0, 2108.0, 2107.0, 2107.0, 2108.0, 2107.0, 2107.0, 2108.0, 2107.0, 2109.0, 2108.0, 2107.0, 2107.0, 2107.0, 2107.0, 2107.0, 2107.0, 2107.0, 2108.0, 2107.0, 2108.0, 2107.0, 2107.0, 2107.0, 2107.0, 2108.0, 2107.0, 2106.0, 2106.0, 2106.0, 2106.0, 2106.0, 2107.0, 2107.0, 2106.0, 2107.0, 2107.0, 2107.0, 2106.0, 2106.0, 2106.0, 2106.0, 2106.0, 2107.0, 2107.0, 2106.0, 2106.0, 2106.0, 2106.0, 2106.0, 2106.0, 2108.0, 2106.0, 2106.0, 2106.0, 2106.0, 2106.0, 2106.0, 2106.0, 2106.0, 2106.0, 2106.0, 2106.0, 2106.0, 2106.0, 2107.0, 2107.0, 2106.0, 2106.0, 2106.0, 2106.0, 2106.0, 2106.0, 2106.0, 2106.0, 2106.0, 2107.0, 2106.0, 2106.0, 2106.0, 2106.0, 2105.0, 2108.0, 2106.0, 2107.0, 2106.0, 2106.0, 2105.0, 2107.0, 2106.0, 2106.0, 2106.0, 2106.0, 2106.0, 2106.0, 2106.0, 2106.0, 2106.0, 2106.0, 2105.0, 2105.0, 2106.0, 2105.0, 2106.0, 2106.0, 2106.0, 2105.0, 2106.0, 2105.0, 2105.0, 2106.0, 2105.0, 2105.0, 2105.0, 2105.0, 2105.0, 2105.0, 2106.0, 2106.0, 2106.0, 2105.0, 2105.0, 2105.0, 2106.0, 2106.0, 2106.0, 2105.0, 2105.0, 2105.0, 2106.0, 2105.0, 2105.0, 2105.0, 2105.0, 2105.0, 2105.0]
    },
    "slices": {}
  }
}