{
  "AcquisitionMatrixPE": 80,
  "AcquisitionNumber": 1,
  "AcquisitionTime": "11:43:47.517500",
  "BandwidthPerPixelPhaseEncode": 25,
  "BaseResolution": 80,
  "BodyPartExamined": "BRAIN",
  "CoilCombinationMethod": "Sum of Squares",
  "ConsistencyInfo": "N4_VE11C_LATEST_20160120",
  "ConversionSoftware": "dcm2niix",
  "ConversionSoftwareVersion": "v1.0.20220720",
  "DerivedVendorReportedEchoSpacing": 0.0005,
  "DeviceSerialNumber": "66112",
  "DwellTime": 2.7e-06,
  "EchoTime": 0.03,
  "EchoTrainLength": 80,
  "EffectiveEchoSpacing": 0.0005,
  "FlipAngle": 10,
  "HeudiconvVersion": "0.13.1",
  "ImageOrientationPatientDICOM": [0.986548, 0.163228, 0.00893029, -0.158019, 0.938225, 0.307837],
  "ImageOrientationText": "Tra>Cor(17.8)>Sag(-2.4)",
  "ImageType": [
    "ORIGINAL",
    "PRIMARY",
    "M",
    "ND",
    "NORM",
    "MOSAIC"
],
  "ImagingFrequency": 123.252,
  "InPlanePhaseEncodingDirectionDICOM": "COL",
  "InstitutionAddress": "Maynard 3,Hanover,NH,US,03755",
  "InstitutionName": "Dartmouth College - PBS",
  "InstitutionalDepartmentName": "Department",
  "MRAcquisitionType": "2D",
  "MagneticFieldStrength": 3,
  "Manufacturer": "Siemens",
  "ManufacturersModelName": "Prisma",
  "MatrixCoilMode": "SENSE",
  "Modality": "MR",
  "NonlinearGradientCorrection": false,
  "PartialFourier": 1,
  "PatientPosition": "HFS",
  "PercentPhaseFOV": 100,
  "PercentSampling": 100,
  "PhaseEncodingDirection": "j-",
  "PhaseEncodingSteps": 80,
  "PhaseResolution": 1,
  "PixelBandwidth": 2315,
  "ProcedureStepDescription": "dbic^QA",
  "ProtocolName": "func-bold_fa-10",
  "PulseSequenceDetails": "%SiemensSeq%\\ep2d_bold",
  "ReceiveCoilActiveElements": "HEA;HEP",
  "ReceiveCoilName": "Head_32",
  "ReconMatrixPE": 80,
  "RepetitionTime": 2,
  "SAR": 0.011726,
  "ScanOptions": "FS",
  "ScanningSequence": "EP",
  "SequenceName": "*epfid2d1_80",
  "SequenceVariant": "SK",
  "SeriesDescription": "func-bold_fa-10",
  "SeriesNumber": 10,
  "ShimSetting": [4141, -7699, -7510, 267, -91, -69, -34, 61],
  "SliceThickness": 3.5,
  "SliceTiming": [0.99, 0, 1.055, 0.065, 1.1225, 0.1325, 1.1875, 0.1975, 1.2525, 0.2625, 1.32, 0.33, 1.385, 0.395, 1.45, 0.4625, 1.5175, 0.5275, 1.5825, 0.5925, 1.65, 0.66, 1.715, 0.725, 1.78, 0.7925, 1.8475, 0.8575, 1.9125, 0.9225],
  "SoftwareVersions": "syngo MR E11",
  "SpacingBetweenSlices": 3.99,
  "StationName": "AWP66112",
  "TotalReadoutTime": 0.0395,
  "TxRefAmp": 227.741,
  "dcmmeta_affine": [
    [-2.959643840789795, -0.47405827045440674, -0.16705718636512756, 140.53309631347656],
    [-0.48968416452407837, 2.8146753311157227, 1.2173763513565063, -96.96449279785156],
    [0.02679087035357952, -0.9235101342201233, 3.7960753440856934, -8.9375581741333],
    [0.0, 0.0, 0.0, 1.0]
],
  "dcmmeta_reorient_transform": [
    [0.0, -1.0, 0.0, 79.0],
    [1.0, 0.0, 0.0, 0.0],
    [0.0, 0.0, 1.0, 0.0],
    [0.0, 0.0, 0.0, 1.0]
],
  "dcmmeta_shape": [80, 80, 30, 200],
  "dcmmeta_slice_dim": 2,
  "dcmmeta_version": 0.6,
  "global": {
    "const": {
      "AccessionNumber": "qa",
      "AcquisitionMatrix": [80, 0, 0, 80],
      "AngioFlag": "N",
      "BitsAllocated": 16,
      "BitsStored": 12,
      "BodyPartExamined": "BRAIN",
      "Columns": 480,
      "EchoNumbers": 1,
      "EchoTime": 30.0,
      "EchoTrainLength": 80,
      "FlipAngle": 10.0,
      "HighBit": 11,
      "ImageOrientationPatient": [0.98654794641629, 0.16322805930308, 0.00893028991374, -0.1580194258279, 0.93822514054839, 0.30783672085051],
      "ImagePositionPatient": [-600.19960817648, -786.26678862664, -271.95506787965],
      "ImageType": [
        "ORIGINAL",
        "PRIMARY",
        "M",
        "ND",
        "NORM",
        "MOSAIC"
],
      "ImagedNucleus": "1H",
      "ImagingFrequency": 123.252371,
      "InPlanePhaseEncodingDirection": "COL",
      "MRAcquisitionType": "2D",
      "MagneticFieldStrength": 3.0,
      "Manufacturer": "SIEMENS",
      "ManufacturerModelName": "Prisma",
      "Modality": "MR",
      "NumberOfAverages": 1.0,
      "NumberOfPhaseEncodingSteps": 80,
      "PercentPhaseFieldOfView": 100.0,
      "PercentSampling": 100.0,
      "PerformedProcedureStepStartTime": "112154.832000",
      "PhotometricInterpretation": "MONOCHROME2",
      "PixelBandwidth": 2315.0,
      "PixelRepresentation": 0,
      "PixelSpacing": [3.0, 3.0],
      "ProtocolName": "func-bold_fa-10",
      "RepetitionTime": 2000.0,
      "Rows": 480,
      "SAR": 0.01172603703859,
      "SamplesPerPixel": 1,
      "ScanOptions": "FS",
      "ScanningSequence": "EP",
      "SequenceName": "*epfid2d1_80",
      "SequenceVariant": "SK",
      "SeriesDescription": "func-bold_fa-10",
      "SeriesNumber": 10,
      "SeriesTime": "114436.099000",
      "SliceLocation": -43.971674276473,
      "SliceThickness": 3.5,
      "SmallestImagePixelValue": 0,
      "SoftwareVersions": "syngo MR E11",
      "SpacingBetweenSlices": 3.9900000515374,
      "SpecificCharacterSet": "ISO_IR 100",
      "StudyID": "5",
      "StudyTime": "112154.785000",
      "TransmitCoilName": "Body",
      "VariableFlipAngleFlag": "N",
      "WindowCenterWidthExplanation": "Algo1",
      "dBdt": 0.0},
    "slices": {}
  },
  "time": {
    "samples": {
      "AcquisitionNumber": [1, 2, 3, 4, 5, 6, 7, 8, 9, 10, 11, 12, 13, 14, 15, 16, 17, 18, 19, 20, 21, 22, 23, 24, 25, 26, 27, 28, 29, 30, 31, 32, 33, 34, 35, 36, 37, 38, 39, 40, 41, 42, 43, 44, 45, 46, 47, 48, 49, 50, 51, 52, 53, 54, 55, 56, 57, 58, 59, 60, 61, 62, 63, 64, 65, 66, 67, 68, 69, 70, 71, 72, 73, 74, 75, 76, 77, 78, 79, 80, 81, 82, 83, 84, 85, 86, 87, 88, 89, 90, 91, 92, 93, 94, 95, 96, 97, 98, 99, 100, 101, 102, 103, 104, 105, 106, 107, 108, 109, 110, 111, 112, 113, 114, 115, 116, 117, 118, 119, 120, 121, 122, 123, 124, 125, 126, 127, 128, 129, 130, 131, 132, 133, 134, 135, 136, 137, 138, 139, 140, 141, 142, 143, 144, 145, 146, 147, 148, 149, 150, 151, 152, 153, 154, 155, 156, 157, 158, 159, 160, 161, 162, 163, 164, 165, 166, 167, 168, 169, 170, 171, 172, 173, 174, 175, 176, 177, 178, 179, 180, 181, 182, 183, 184, 185, 186, 187, 188, 189, 190, 191, 192, 193, 194, 195, 196, 197, 198, 199, 200],
      "AcquisitionTime": ["114347.517500", "114349.517500", "114351.517500", "114353.517500", "114355.517500", "114357.517500", "114359.517500", "114401.517500", "114403.517500", "114405.517500", "114407.517500", "114409.517500", "114411.517500", "114413.517500", "114415.517500", "114417.517500", "114419.517500", "114421.517500", "114423.517500", "114425.517500", "114427.517500", "114429.517500", "114431.517500", "114433.517500", "114435.517500", "114437.517500", "114439.517500", "114441.517500", "114443.517500", "114445.517500", "114447.517500", "114449.517500", "114451.517500", "114453.517500", "114455.517500", "114457.517500", "114459.517500", "114501.517500", "114503.517500", "114505.517500", "114507.517500", "114509.517500", "114511.517500", "114513.517500", "114515.517500", "114517.517500", "114519.517500", "114521.517500", "114523.517500", "114525.517500", "114527.517500", "114529.517500", "114531.517500", "114533.517500", "114535.517500", "114537.517500", "114539.517500", "114541.517500", "114543.517500", "114545.517500", "114547.517500", "114549.517500", "114551.517500", "114553.517500", "114555.517500", "114557.517500", "114559.517500", "114601.517500", "114603.517500", "114605.517500", "114607.517500", "114609.517500", "114611.517500", "114613.517500", "114615.517500", "114617.517500", "114619.517500", "114621.517500", "114623.517500", "114625.517500", "114627.517500", "114629.517500", "114631.517500", "114633.517500", "114635.517500", "114637.517500", "114639.517500", "114641.517500", "114643.517500", "114645.517500", "114647.517500", "114649.517500", "114651.517500", "114653.517500", "114655.517500", "114657.517500", "114659.517500", "114701.517500", "114703.517500", "114705.517500", "114707.517500", "114709.517500", "114711.517500", "114713.517500", "114715.517500", "114717.517500", "114719.517500", "114721.517500", "114723.517500", "114725.517500", "114727.517500", "114729.517500", "114731.517500", "114733.517500", "114735.517500", "114737.517500", "114739.517500", "114741.517500", "114743.517500", "114745.517500", "114747.517500", "114749.517500", "114751.517500", "114753.517500", "114755.517500", "114757.517500", "114759.517500", "114801.517500", "114803.517500", "114805.517500", "114807.517500", "114809.517500", "114811.517500", "114813.517500", "114815.517500", "114817.517500", "114819.517500", "114821.517500", "114823.517500", "114825.517500", "114827.517500", "114829.517500", "114831.517500", "114833.517500", "114835.517500", "114837.517500", "114839.517500", "114841.517500", "114843.517500", "114845.517500", "114847.517500", "114849.517500", "114851.517500", "114853.517500", "114855.517500", "114857.517500", "114859.517500", "114901.517500", "114903.517500", "114905.517500", "114907.517500", "114909.517500", "114911.517500", "114913.517500", "114915.517500", "114917.517500", "114919.517500", "114921.517500", "114923.517500", "114925.517500", "114927.517500", "114929.517500", "114931.517500", "114933.517500", "114935.517500", "114937.517500", "114939.517500", "114941.517500", "114943.517500", "114945.517500", "114947.517500", "114949.517500", "114951.517500", "114953.517500", "114955.517500", "114957.517500", "114959.517500", "115001.517500", "115003.517500", "115005.517500", "115007.517500", "115009.517500", "115011.517500", "115013.517500", "115015.517500", "115017.517500", "115019.517500", "115021.517500", "115023.517500", "115025.517500"],
      "ContentTime": ["114436.102000", "114436.105000", "114436.108000", "114436.121000", "114436.123000", "114436.126000", "114436.128000", "114436.131000", "114436.133000", "114436.136000", "114436.139000", "114436.141000", "114436.144000", "114436.146000", "114436.149000", "114436.151000", "114436.154000", "114436.156000", "114436.159000", "114436.161000", "114436.164000", "114436.166000", "114436.169000", "114436.171000", "114516.096000", "114516.099000", "114516.102000", "114516.104000", "114516.107000", "114516.110000", "114516.112000", "114516.115000", "114516.117000", "114516.120000", "114516.122000", "114516.125000", "114516.127000", "114516.130000", "114516.132000", "114516.135000", "114516.137000", "114516.140000", "114516.150000", "114516.153000", "114556.096000", "114556.099000", "114556.102000", "114556.104000", "114556.107000", "114556.109000", "114556.112000", "114556.115000", "114556.117000", "114556.120000", "114556.122000", "114556.125000", "114556.127000", "114556.130000", "114556.132000", "114556.142000", "114556.145000", "114556.147000", "114556.149000", "114556.152000", "114636.097000", "114636.099000", "114636.102000", "114636.104000", "114636.107000", "114636.109000", "114636.112000", "114636.115000", "114636.118000", "114636.120000", "114636.123000", "114636.125000", "114636.128000", "114636.130000", "114636.133000", "114636.135000", "114636.138000", "114636.140000", "114636.143000", "114636.145000", "114716.097000", "114716.099000", "114716.102000", "114716.104000", "114716.107000", "114716.109000", "114716.112000", "114716.115000", "114716.117000", "114716.120000", "114716.123000", "114716.125000", "114716.128000", "114716.130000", "114716.133000", "114716.135000", "114716.138000", "114716.140000", "114716.143000", "114716.146000", "114756.096000", "114756.099000", "114756.102000", "114756.104000", "114756.107000", "114756.109000", "114756.112000", "114756.115000", "114756.117000", "114756.120000", "114756.122000", "114756.125000", "114756.127000", "114756.130000", "114756.133000", "114756.135000", "114756.138000", "114756.140000", "114756.143000", "114756.145000", "114836.096000", "114836.099000", "114836.102000", "114836.104000", "114836.107000", "114836.109000", "114836.112000", "114836.115000", "114836.117000", "114836.120000", "114836.123000", "114836.125000", "114836.128000", "114836.130000", "114836.133000", "114836.135000", "114836.138000", "114836.140000", "114836.143000", "114836.146000", "114916.097000", "114916.099000", "114916.102000", "114916.105000", "114916.107000", "114916.110000", "114916.112000", "114916.115000", "114916.118000", "114916.120000", "114916.123000", "114916.125000", "114916.128000", "114916.130000", "114916.133000", "114916.135000", "114916.138000", "114916.140000", "114916.143000", "114916.145000", "114956.096000", "114956.099000", "114956.102000", "114956.104000", "114956.107000", "114956.111000", "114956.113000", "114956.116000", "114956.118000", "114956.121000", "114956.123000", "114956.126000", "114956.128000", "114956.131000", "114956.133000", "114956.136000", "114956.139000", "114956.141000", "114956.144000", "114956.146000", "115027.113000", "115027.115000", "115027.118000", "115027.120000", "115027.123000", "115027.126000", "115027.128000", "115027.131000", "115027.133000", "115027.136000", "115027.138000", "115027.141000", "115027.146000", "115027.150000", "115027.152000", "115027.155000"],
      "InstanceCreationTime": ["114436.102000", "114436.105000", "114436.108000", "114436.121000", "114436.123000", "114436.126000", "114436.128000", "114436.131000", "114436.133000", "114436.136000", "114436.139000", "114436.141000", "114436.144000", "114436.146000", "114436.149000", "114436.151000", "114436.154000", "114436.156000", "114436.159000", "114436.161000", "114436.164000", "114436.166000", "114436.169000", "114436.171000", "114516.096000", "114516.099000", "114516.102000", "114516.104000", "114516.107000", "114516.110000", "114516.112000", "114516.115000", "114516.117000", "114516.120000", "114516.122000", "114516.125000", "114516.127000", "114516.130000", "114516.132000", "114516.135000", "114516.137000", "114516.140000", "114516.150000", "114516.153000", "114556.096000", "114556.099000", "114556.102000", "114556.104000", "114556.107000", "114556.109000", "114556.112000", "114556.115000", "114556.117000", "114556.120000", "114556.122000", "114556.125000", "114556.127000", "114556.130000", "114556.132000", "114556.142000", "114556.145000", "114556.147000", "114556.149000", "114556.152000", "114636.097000", "114636.099000", "114636.102000", "114636.104000", "114636.107000", "114636.109000", "114636.112000", "114636.115000", "114636.118000", "114636.120000", "114636.123000", "114636.125000", "114636.128000", "114636.130000", "114636.133000", "114636.135000", "114636.138000", "114636.140000", "114636.143000", "114636.145000", "114716.097000", "114716.099000", "114716.102000", "114716.104000", "114716.107000", "114716.109000", "114716.112000", "114716.115000", "114716.117000", "114716.120000", "114716.123000", "114716.125000", "114716.128000", "114716.130000", "114716.133000", "114716.135000", "114716.138000", "114716.140000", "114716.143000", "114716.146000", "114756.096000", "114756.099000", "114756.102000", "114756.104000", "114756.107000", "114756.109000", "114756.112000", "114756.115000", "114756.117000", "114756.120000", "114756.122000", "114756.125000", "114756.127000", "114756.130000", "114756.133000", "114756.135000", "114756.138000", "114756.140000", "114756.143000", "114756.145000", "114836.096000", "114836.099000", "114836.102000", "114836.104000", "114836.107000", "114836.109000", "114836.112000", "114836.115000", "114836.117000", "114836.120000", "114836.123000", "114836.125000", "114836.128000", "114836.130000", "114836.133000", "114836.135000", "114836.138000", "114836.140000", "114836.143000", "114836.146000", "114916.097000", "114916.099000", "114916.102000", "114916.105000", "114916.107000", "114916.110000", "114916.112000", "114916.115000", "114916.118000", "114916.120000", "114916.123000", "114916.125000", "114916.128000", "114916.130000", "114916.133000", "114916.135000", "114916.138000", "114916.140000", "114916.143000", "114916.145000", "114956.096000", "114956.099000", "114956.102000", "114956.104000", "114956.107000", "114956.111000", "114956.113000", "114956.116000", "114956.118000", "114956.121000", "114956.123000", "114956.126000", "114956.128000", "114956.131000", "114956.133000", "114956.136000", "114956.139000", "114956.141000", "114956.144000", "114956.146000", "115027.113000", "115027.115000", "115027.118000", "115027.120000", "115027.123000", "115027.126000", "115027.128000", "115027.131000", "115027.133000", "115027.136000", "115027.138000", "115027.141000", "115027.146000", "115027.150000", "115027.152000", "115027.155000"],
      "InstanceNumber": [1, 2, 3, 4, 5, 6, 7, 8, 9, 10, 11, 12, 13, 14, 15, 16, 17, 18, 19, 20, 21, 22, 23, 24, 25, 26, 27, 28, 29, 30, 31, 32, 33, 34, 35, 36, 37, 38, 39, 40, 41, 42, 43, 44, 45, 46, 47, 48, 49, 50, 51, 52, 53, 54, 55, 56, 57, 58, 59, 60, 61, 62, 63, 64, 65, 66, 67, 68, 69, 70, 71, 72, 73, 74, 75, 76, 77, 78, 79, 80, 81, 82, 83, 84, 85, 86, 87, 88, 89, 90, 91, 92, 93, 94, 95, 96, 97, 98, 99, 100, 101, 102, 103, 104, 105, 106, 107, 108, 109, 110, 111, 112, 113, 114, 115, 116, 117, 118, 119, 120, 121, 122, 123, 124, 125, 126, 127, 128, 129, 130, 131, 132, 133, 134, 135, 136, 137, 138, 139, 140, 141, 142, 143, 144, 145, 146, 147, 148, 149, 150, 151, 152, 153, 154, 155, 156, 157, 158, 159, 160, 161, 162, 163, 164, 165, 166, 167, 168, 169, 170, 171, 172, 173, 174, 175, 176, 177, 178, 179, 180, 181, 182, 183, 184, 185, 186, 187, 188, 189, 190, 191, 192, 193, 194, 195, 196, 197, 198, 199, 200],
      "LargestImagePixelValue": [320, 322, 322, 322, 321, 320, 322, 322, 321, 323, 321, 321, 320, 319, 318, 326, 322, 323, 321, 325, 321, 323, 320, 324, 322, 323, 323, 321, 321, 324, 322, 323, 321, 322, 322, 323, 323, 321, 323, 322, 321, 322, 325, 321, 320, 322, 321, 324, 321, 323, 325, 320, 320, 322, 322, 321, 322, 322, 322, 322, 320, 321, 320, 322, 321, 321, 321, 321, 320, 321, 322, 319, 321, 320, 322, 320, 322, 318, 321, 322, 320, 319, 323, 322, 320, 322, 320, 322, 322, 320, 324, 321, 320, 322, 321, 322, 319, 325, 320, 320, 323, 324, 320, 319, 322, 326, 321, 321, 320, 318, 320, 319, 321, 321, 321, 322, 319, 320, 323, 320, 321, 320, 319, 321, 322, 321, 321, 319, 323, 319, 318, 319, 325, 320, 319, 319, 322, 320, 322, 319, 319, 319, 321, 320, 321, 321, 319, 320, 319, 318, 320, 320, 319, 320, 320, 319, 321, 318, 320, 321, 318, 321, 321, 318, 323, 324, 324, 324, 319, 320, 322, 322, 326, 325, 324, 322, 321, 318, 319, 318, 319, 319, 321, 321, 317, 322, 320, 319, 317, 318, 320, 319, 320, 324, 320, 320, 320, 324, 323, 322],
      "WindowCenter": [268.0, 268.0, 268.0, 268.0, 268.0, 268.0, 268.0, 268.0, 268.0, 268.0, 268.0, 268.0, 268.0, 268.0, 268.0, 268.0, 268.0, 268.0, 269.0, 268.0, 268.0, 268.0, 268.0, 268.0, 268.0, 268.0, 268.0, 268.0, 268.0, 268.0, 268.0, 268.0, 268.0, 268.0, 268.0, 268.0, 268.0, 268.0, 268.0, 268.0, 268.0, 268.0, 268.0, 268.0, 268.0, 268.0, 268.0, 268.0, 268.0, 269.0, 268.0, 268.0, 268.0, 268.0, 268.0, 268.0, 268.0, 268.0, 268.0, 268.0, 268.0, 268.0, 268.0, 268.0, 268.0, 268.0, 268.0, 268.0, 268.0, 268.0, 268.0, 268.0, 268.0, 268.0, 268.0, 268.0, 268.0, 268.0, 268.0, 268.0, 268.0, 268.0, 268.0, 268.0, 268.0, 268.0, 268.0, 268.0, 268.0, 268.0, 268.0, 268.0, 268.0, 268.0, 268.0, 268.0, 268.0, 268.0, 268.0, 268.0, 268.0, 270.0, 268.0, 267.0, 267.0, 268.0, 268.0, 268.0, 268.0, 268.0, 268.0, 268.0, 268.0, 268.0, 268.0, 268.0, 268.0, 268.0, 268.0, 268.0, 268.0, 268.0, 268.0, 269.0, 268.0, 268.0, 268.0, 268.0, 268.0, 268.0, 268.0, 268.0, 268.0, 268.0, 268.0, 268.0, 268.0, 268.0, 268.0, 268.0, 268.0, 268.0, 268.0, 268.0, 268.0, 267.0, 268.0, 268.0, 268.0, 268.0, 268.0, 268.0, 268.0, 268.0, 268.0, 268.0, 268.0, 268.0, 268.0, 268.0, 268.0, 268.0, 268.0, 268.0, 269.0, 270.0, 270.0, 269.0, 268.0, 268.0, 269.0, 270.0, 270.0, 270.0, 270.0, 270.0, 267.0, 268.0, 268.0, 268.0, 268.0, 267.0, 268.0, 268.0, 268.0, 267.0, 267.0, 267.0, 267.0, 267.0, 267.0, 267.0, 267.0, 267.0, 268.0, 268.0, 270.0, 270.0, 269.0, 267.0],
      "WindowWidth": [591.0, 591.0, 591.0, 590.0, 590.0, 591.0, 590.0, 591.0, 590.0, 590.0, 591.0, 591.0, 591.0, 591.0, 590.0, 590.0, 591.0, 591.0, 592.0, 590.0, 591.0, 590.0, 591.0, 591.0, 591.0, 590.0, 591.0, 591.0, 591.0, 591.0, 591.0, 591.0, 591.0, 590.0, 590.0, 591.0, 590.0, 591.0, 590.0, 591.0, 591.0, 590.0, 591.0, 591.0, 590.0, 591.0, 591.0, 591.0, 591.0, 592.0, 591.0, 591.0, 590.0, 590.0, 591.0, 590.0, 590.0, 590.0, 590.0, 590.0, 590.0, 590.0, 590.0, 591.0, 590.0, 590.0, 591.0, 590.0, 590.0, 590.0, 590.0, 591.0, 590.0, 591.0, 590.0, 590.0, 590.0, 590.0, 590.0, 591.0, 590.0, 590.0, 590.0, 591.0, 591.0, 590.0, 591.0, 590.0, 590.0, 590.0, 590.0, 590.0, 590.0, 590.0, 590.0, 590.0, 591.0, 590.0, 590.0, 590.0, 590.0, 594.0, 590.0, 589.0, 589.0, 590.0, 591.0, 590.0, 590.0, 590.0, 590.0, 590.0, 590.0, 590.0, 590.0, 590.0, 590.0, 590.0, 590.0, 590.0, 590.0, 590.0, 590.0, 592.0, 590.0, 590.0, 590.0, 590.0, 589.0, 590.0, 590.0, 590.0, 590.0, 589.0, 590.0, 590.0, 590.0, 590.0, 591.0, 590.0, 590.0, 590.0, 590.0, 590.0, 590.0, 589.0, 590.0, 590.0, 590.0, 589.0, 590.0, 590.0, 590.0, 590.0, 590.0, 590.0, 590.0, 590.0, 590.0, 590.0, 590.0, 590.0, 590.0, 590.0, 592.0, 594.0, 594.0, 592.0, 590.0, 590.0, 592.0, 594.0, 595.0, 594.0, 594.0, 594.0, 589.0, 590.0, 590.0, 590.0, 590.0, 589.0, 590.0, 590.0, 590.0, 589.0, 589.0, 589.0, 589.0, 588.0, 589.0, 589.0, 589.0, 588.0, 590.0, 590.0, 594.0, 593.0, 593.0, 589.0]
    },
    "slices": {}
  }
}