{
  "AcquisitionMatrixPE": 80,
  "AcquisitionNumber": 1,
  "AcquisitionTime": "10:38:52.090000",
  "BandwidthPerPixelPhaseEncode": 46.296,
  "BaseResolution": 80,
  "BodyPartExamined": "BRAIN",
  "CoilCombinationMethod": "Sum of Squares",
  "ConsistencyInfo": "N4_VE11E_LATEST_20181129",
  "ConversionSoftware": "dcm2niix",
  "ConversionSoftwareVersion": "v1.0.20220720",
  "DerivedVendorReportedEchoSpacing": 0.000540003,
  "DeviceSerialNumber": "66112",
  "DwellTime": 2.7e-06,
  "EchoTime": 0.035,
  "EchoTrainLength": 39,
  "EffectiveEchoSpacing": 0.000270002,
  "FlipAngle": 90,
  "HeudiconvVersion": "0.13.1",
  "ImageOrientationPatientDICOM": [0.999557, 0.0292632, 0.00535853, -0.0294916, 0.950997, 0.307789],
  "ImageOrientationText": "Tra>Cor(17.9)>Sag(-0.2)",
  "ImageType": [
    "ORIGINAL",
    "PRIMARY",
    "M",
    "ND",
    "NORM",
    "MOSAIC"
],
  "ImagingFrequency": 123.259,
  "InPlanePhaseEncodingDirectionDICOM": "COL",
  "InstitutionAddress": "Maynard 3,Hanover,NH,US,03755",
  "InstitutionName": "Dartmouth College - PBS",
  "InstitutionalDepartmentName": "Department",
  "MRAcquisitionType": "2D",
  "MagneticFieldStrength": 3,
  "Manufacturer": "Siemens",
  "ManufacturersModelName": "Prisma",
  "Modality": "MR",
  "MultibandAccelerationFactor": 4,
  "NonlinearGradientCorrection": false,
  "ParallelReductionFactorInPlane": 2,
  "PartialFourier": 1,
  "PatientPosition": "HFS",
  "PercentPhaseFOV": 100,
  "PercentSampling": 100,
  "PhaseEncodingDirection": "j-",
  "PhaseEncodingSteps": 79,
  "PhaseResolution": 1,
  "PixelBandwidth": 2315,
  "ProcedureStepDescription": "dbic^QA",
  "ProtocolName": "func-bold_task-rest_acq-p2-s4-3.5mm",
  "PulseSequenceDetails": "%SiemensSeq%\\ep2d_bold",
  "ReceiveCoilActiveElements": "HEA;HEP",
  "ReceiveCoilName": "Head_32",
  "ReconMatrixPE": 80,
  "RefLinesPE": 24,
  "RepetitionTime": 2,
  "SAR": 0.0305746,
  "ScanOptions": "FS",
  "ScanningSequence": "EP",
  "SequenceName": "*epfid2d1_80",
  "SequenceVariant": "SK",
  "SeriesDescription": "func-bold_task-rest_acq-p2-s4-3.5mm",
  "SeriesNumber": 6,
  "ShimSetting": [4220, -7747, -7486, -31, -130, -20, -12, 75],
  "SliceThickness": 3.5,
  "SliceTiming": [1.485, 0, 0.99, 0.2475, 1.2375, 0.7425, 1.7325, 0.495, 1.485, 0, 0.99, 0.2475, 1.2375, 0.7425, 1.7325, 0.495, 1.485, 0, 0.99, 0.2475, 1.2375, 0.7425, 1.7325, 0.495, 1.485, 0, 0.99, 0.2475, 1.2375, 0.7425, 1.7325, 0.495],
  "SoftwareVersions": "syngo MR E11",
  "SpacingBetweenSlices": 3.99,
  "StationName": "AWP66112",
  "TaskName": "rest",
  "TotalReadoutTime": 0.0213301,
  "TxRefAmp": 224.43,
  "dcmmeta_affine": [
    [-2.9986722469329834, -0.08847475796937943, -0.015604719519615173, 124.19180297851562],
    [-0.0877896249294281, 2.852992057800293, 1.2281662225723267, -125.90106201171875],
    [0.016075579449534416, -0.9233678579330444, 3.79624342918396, -25.61443519592285],
    [0.0, 0.0, 0.0, 1.0]
],
  "dcmmeta_reorient_transform": [
    [0.0, -1.0, 0.0, 79.0],
    [1.0, 0.0, 0.0, 0.0],
    [0.0, 0.0, 1.0, 0.0],
    [0.0, 0.0, 0.0, 1.0]
],
  "dcmmeta_shape": [80, 80, 32, 200],
  "dcmmeta_slice_dim": 2,
  "dcmmeta_version": 0.6,
  "global": {
    "const": {
      "AccessionNumber": "qa",
      "AcquisitionMatrix": [80, 0, 0, 80],
      "AngioFlag": "N",
      "BitsAllocated": 16,
      "BitsStored": 12,
      "BodyPartExamined": "BRAIN",
      "Columns": 480,
      "EchoNumbers": 1,
      "EchoTime": 35.0,
      "EchoTrainLength": 39,
      "FlipAngle": 90.0,
      "HighBit": 11,
      "ImageOrientationPatient": [0.99955737744879, 0.02926320866785, 0.00535852649142, -0.0294915852468, 0.95099737369025, 0.30778928121994],
      "ImagePositionPatient": [-699.24177292518, -687.64166325841, -286.44917912054],
      "ImageType": [
        "ORIGINAL",
        "PRIMARY",
        "M",
        "ND",
        "NORM",
        "MOSAIC"
],
      "ImagedNucleus": "1H",
      "ImagingFrequency": 123.259169,
      "InPlanePhaseEncodingDirection": "COL",
      "MRAcquisitionType": "2D",
      "MagneticFieldStrength": 3.0,
      "Manufacturer": "SIEMENS",
      "ManufacturerModelName": "Prisma",
      "Modality": "MR",
      "NumberOfAverages": 1.0,
      "NumberOfPhaseEncodingSteps": 79,
      "PercentPhaseFieldOfView": 100.0,
      "PercentSampling": 100.0,
      "PerformedProcedureStepStartTime": "102749.691000",
      "PhotometricInterpretation": "MONOCHROME2",
      "PixelBandwidth": 2315.0,
      "PixelRepresentation": 0,
      "PixelSpacing": [3.0, 3.0],
      "ProtocolName": "func-bold_task-rest_acq-p2-s4-3.5mm",
      "RepetitionTime": 2000.0,
      "Rows": 480,
      "SAR": 0.03057459125741,
      "SamplesPerPixel": 1,
      "ScanOptions": "FS",
      "ScanningSequence": "EP",
      "SequenceName": "*epfid2d1_80",
      "SequenceVariant": "SK",
      "SeriesDescription": "func-bold_task-rest_acq-p2-s4-3.5mm",
      "SeriesNumber": 6,
      "SeriesTime": "103941.917000",
      "SliceLocation": -63.610035050174,
      "SliceThickness": 3.5,
      "SmallestImagePixelValue": 0,
      "SoftwareVersions": "syngo MR E11",
      "SpacingBetweenSlices": 3.9899999245526,
      "SpecificCharacterSet": "ISO_IR 100",
      "StudyID": "31",
      "StudyTime": "102749.649000",
      "TransmitCoilName": "Body",
      "VariableFlipAngleFlag": "N",
      "WindowCenterWidthExplanation": "Algo1"
    },
    "slices": {}
  },
  "time": {
    "samples": {
      "AcquisitionNumber": [1, 2, 3, 4, 5, 6, 7, 8, 9, 10, 11, 12, 13, 14, 15, 16, 17, 18, 19, 20, 21, 22, 23, 24, 25, 26, 27, 28, 29, 30, 31, 32, 33, 34, 35, 36, 37, 38, 39, 40, 41, 42, 43, 44, 45, 46, 47, 48, 49, 50, 51, 52, 53, 54, 55, 56, 57, 58, 59, 60, 61, 62, 63, 64, 65, 66, 67, 68, 69, 70, 71, 72, 73, 74, 75, 76, 77, 78, 79, 80, 81, 82, 83, 84, 85, 86, 87, 88, 89, 90, 91, 92, 93, 94, 95, 96, 97, 98, 99, 100, 101, 102, 103, 104, 105, 106, 107, 108, 109, 110, 111, 112, 113, 114, 115, 116, 117, 118, 119, 120, 121, 122, 123, 124, 125, 126, 127, 128, 129, 130, 131, 132, 133, 134, 135, 136, 137, 138, 139, 140, 141, 142, 143, 144, 145, 146, 147, 148, 149, 150, 151, 152, 153, 154, 155, 156, 157, 158, 159, 160, 161, 162, 163, 164, 165, 166, 167, 168, 169, 170, 171, 172, 173, 174, 175, 176, 177, 178, 179, 180, 181, 182, 183, 184, 185, 186, 187, 188, 189, 190, 191, 192, 193, 194, 195, 196, 197, 198, 199, 200],
      "AcquisitionTime": ["103852.090000", "103854.090000", "103856.090000", "103858.090000", "103900.090000", "103902.090000", "103904.090000", "103906.090000", "103908.090000", "103910.090000", "103912.090000", "103914.090000", "103916.090000", "103918.090000", "103920.090000", "103922.090000", "103924.090000", "103926.090000", "103928.090000", "103930.090000", "103932.090000", "103934.090000", "103936.090000", "103938.090000", "103940.090000", "103942.090000", "103944.090000", "103946.090000", "103948.090000", "103950.090000", "103952.090000", "103954.090000", "103956.090000", "103958.090000", "104000.090000", "104002.090000", "104004.090000", "104006.090000", "104008.090000", "104010.090000", "104012.090000", "104014.090000", "104016.090000", "104018.090000", "104020.090000", "104022.090000", "104024.090000", "104026.090000", "104028.090000", "104030.090000", "104032.090000", "104034.090000", "104036.090000", "104038.090000", "104040.090000", "104042.090000", "104044.090000", "104046.090000", "104048.090000", "104050.090000", "104052.090000", "104054.090000", "104056.090000", "104058.090000", "104100.090000", "104102.090000", "104104.090000", "104106.090000", "104108.090000", "104110.090000", "104112.090000", "104114.090000", "104116.090000", "104118.090000", "104120.090000", "104122.090000", "104124.090000", "104126.090000", "104128.090000", "104130.090000", "104132.090000", "104134.090000", "104136.090000", "104138.090000", "104140.090000", "104142.090000", "104144.090000", "104146.090000", "104148.090000", "104150.090000", "104152.090000", "104154.090000", "104156.090000", "104158.090000", "104200.090000", "104202.090000", "104204.090000", "104206.090000", "104208.090000", "104210.090000", "104212.090000", "104214.090000", "104216.090000", "104218.090000", "104220.090000", "104222.090000", "104224.090000", "104226.090000", "104228.090000", "104230.090000", "104232.090000", "104234.090000", "104236.090000", "104238.090000", "104240.090000", "104242.090000", "104244.090000", "104246.090000", "104248.090000", "104250.090000", "104252.090000", "104254.090000", "104256.090000", "104258.090000", "104300.090000", "104302.090000", "104304.090000", "104306.090000", "104308.090000", "104310.090000", "104312.090000", "104314.090000", "104316.090000", "104318.090000", "104320.090000", "104322.090000", "104324.090000", "104326.090000", "104328.090000", "104330.090000", "104332.090000", "104334.090000", "104336.090000", "104338.090000", "104340.090000", "104342.090000", "104344.090000", "104346.090000", "104348.090000", "104350.090000", "104352.090000", "104354.090000", "104356.090000", "104358.090000", "104400.090000", "104402.090000", "104404.090000", "104406.090000", "104408.090000", "104410.090000", "104412.090000", "104414.090000", "104416.090000", "104418.090000", "104420.090000", "104422.090000", "104424.090000", "104426.090000", "104428.090000", "104430.090000", "104432.090000", "104434.090000", "104436.090000", "104438.090000", "104440.090000", "104442.090000", "104444.090000", "104446.090000", "104448.090000", "104450.090000", "104452.090000", "104454.090000", "104456.090000", "104458.090000", "104500.090000", "104502.090000", "104504.090000", "104506.090000", "104508.090000", "104510.090000", "104512.090000", "104514.090000", "104516.090000", "104518.090000", "104520.090000", "104522.090000", "104524.090000", "104526.090000", "104528.090000", "104530.090000"],
      "ContentTime": ["103941.920000", "103941.923000", "103941.926000", "103941.928000", "103941.930000", "103941.932000", "103941.935000", "103941.942000", "103941.944000", "103941.946000", "103941.949000", "103941.951000", "103941.953000", "103941.955000", "103941.958000", "103941.960000", "103941.962000", "103941.965000", "103941.978000", "103941.980000", "103941.983000", "103941.985000", "103941.987000", "103941.990000", "103941.992000", "104021.914000", "104021.917000", "104021.919000", "104021.921000", "104021.923000", "104021.926000", "104021.933000", "104021.935000", "104021.938000", "104021.940000", "104021.942000", "104021.944000", "104021.947000", "104021.949000", "104021.951000", "104021.954000", "104021.956000", "104021.958000", "104021.961000", "104021.963000", "104101.914000", "104101.916000", "104101.919000", "104101.921000", "104101.923000", "104101.926000", "104101.928000", "104101.930000", "104101.933000", "104101.935000", "104101.937000", "104101.940000", "104101.942000", "104101.944000", "104101.947000", "104101.949000", "104101.951000", "104101.953000", "104101.956000", "104101.958000", "104141.915000", "104141.918000", "104141.920000", "104141.923000", "104141.925000", "104141.927000", "104141.929000", "104141.932000", "104141.934000", "104141.937000", "104141.939000", "104141.941000", "104141.943000", "104141.946000", "104141.948000", "104141.950000", "104141.953000", "104141.955000", "104141.957000", "104141.960000", "104221.915000", "104221.918000", "104221.920000", "104221.922000", "104221.924000", "104221.927000", "104221.929000", "104221.931000", "104221.934000", "104221.936000", "104221.938000", "104221.941000", "104221.943000", "104221.945000", "104221.948000", "104221.950000", "104221.952000", "104221.955000", "104221.957000", "104221.959000", "104301.914000", "104301.917000", "104301.919000", "104301.921000", "104301.924000", "104301.926000", "104301.928000", "104301.931000", "104301.933000", "104301.935000", "104301.937000", "104301.940000", "104301.942000", "104301.944000", "104301.947000", "104301.949000", "104301.951000", "104301.954000", "104301.956000", "104301.958000", "104341.915000", "104341.918000", "104341.920000", "104341.923000", "104341.925000", "104341.927000", "104341.929000", "104341.932000", "104341.934000", "104341.936000", "104341.939000", "104341.941000", "104341.943000", "104341.946000", "104341.948000", "104341.950000", "104341.953000", "104341.955000", "104341.957000", "104341.960000", "104421.915000", "104421.918000", "104421.920000", "104421.922000", "104421.925000", "104421.927000", "104421.929000", "104421.932000", "104421.934000", "104421.936000", "104421.939000", "104421.941000", "104421.943000", "104421.945000", "104421.948000", "104421.950000", "104421.952000", "104421.955000", "104421.957000", "104421.959000", "104501.914000", "104501.917000", "104501.919000", "104501.921000", "104501.924000", "104501.926000", "104501.929000", "104501.931000", "104501.934000", "104501.936000", "104501.939000", "104501.941000", "104501.943000", "104501.945000", "104501.948000", "104501.950000", "104501.952000", "104501.955000", "104501.957000", "104501.959000", "104531.342000", "104531.345000", "104531.347000", "104531.349000", "104531.352000", "104531.354000", "104531.357000", "104531.359000", "104531.361000", "104531.364000", "104531.366000", "104531.368000", "104531.371000", "104531.373000", "104531.375000"],
      "InstanceCreationTime": ["103941.920000", "103941.923000", "103941.926000", "103941.928000", "103941.930000", "103941.932000", "103941.935000", "103941.942000", "103941.944000", "103941.946000", "103941.949000", "103941.951000", "103941.953000", "103941.955000", "103941.958000", "103941.960000", "103941.962000", "103941.965000", "103941.978000", "103941.980000", "103941.983000", "103941.985000", "103941.987000", "103941.990000", "103941.992000", "104021.914000", "104021.917000", "104021.919000", "104021.921000", "104021.923000", "104021.926000", "104021.933000", "104021.935000", "104021.938000", "104021.940000", "104021.942000", "104021.944000", "104021.947000", "104021.949000", "104021.951000", "104021.954000", "104021.956000", "104021.958000", "104021.961000", "104021.963000", "104101.914000", "104101.916000", "104101.919000", "104101.921000", "104101.923000", "104101.926000", "104101.928000", "104101.930000", "104101.933000", "104101.935000", "104101.937000", "104101.940000", "104101.942000", "104101.944000", "104101.947000", "104101.949000", "104101.951000", "104101.953000", "104101.956000", "104101.958000", "104141.915000", "104141.918000", "104141.920000", "104141.923000", "104141.925000", "104141.927000", "104141.929000", "104141.932000", "104141.934000", "104141.937000", "104141.939000", "104141.941000", "104141.943000", "104141.946000", "104141.948000", "104141.950000", "104141.953000", "104141.955000", "104141.957000", "104141.960000", "104221.915000", "104221.918000", "104221.920000", "104221.922000", "104221.924000", "104221.927000", "104221.929000", "104221.931000", "104221.934000", "104221.936000", "104221.938000", "104221.941000", "104221.943000", "104221.945000", "104221.948000", "104221.950000", "104221.952000", "104221.955000", "104221.957000", "104221.959000", "104301.914000", "104301.917000", "104301.919000", "104301.921000", "104301.924000", "104301.926000", "104301.928000", "104301.931000", "104301.933000", "104301.935000", "104301.937000", "104301.940000", "104301.942000", "104301.944000", "104301.947000", "104301.949000", "104301.951000", "104301.954000", "104301.956000", "104301.958000", "104341.915000", "104341.918000", "104341.920000", "104341.923000", "104341.925000", "104341.927000", "104341.929000", "104341.932000", "104341.934000", "104341.936000", "104341.939000", "104341.941000", "104341.943000", "104341.946000", "104341.948000", "104341.950000", "104341.953000", "104341.955000", "104341.957000", "104341.960000", "104421.915000", "104421.918000", "104421.920000", "104421.922000", "104421.925000", "104421.927000", "104421.929000", "104421.932000", "104421.934000", "104421.936000", "104421.939000", "104421.941000", "104421.943000", "104421.945000", "104421.948000", "104421.950000", "104421.952000", "104421.955000", "104421.957000", "104421.959000", "104501.914000", "104501.917000", "104501.919000", "104501.921000", "104501.924000", "104501.926000", "104501.929000", "104501.931000", "104501.934000", "104501.936000", "104501.939000", "104501.941000", "104501.943000", "104501.945000", "104501.948000", "104501.950000", "104501.952000", "104501.955000", "104501.957000", "104501.959000", "104531.342000", "104531.345000", "104531.347000", "104531.349000", "104531.352000", "104531.354000", "104531.357000", "104531.359000", "104531.361000", "104531.364000", "104531.366000", "104531.368000", "104531.371000", "104531.373000", "104531.375000"],
      "InstanceNumber": [1, 2, 3, 4, 5, 6, 7, 8, 9, 10, 11, 12, 13, 14, 15, 16, 17, 18, 19, 20, 21, 22, 23, 24, 25, 26, 27, 28, 29, 30, 31, 32, 33, 34, 35, 36, 37, 38, 39, 40, 41, 42, 43, 44, 45, 46, 47, 48, 49, 50, 51, 52, 53, 54, 55, 56, 57, 58, 59, 60, 61, 62, 63, 64, 65, 66, 67, 68, 69, 70, 71, 72, 73, 74, 75, 76, 77, 78, 79, 80, 81, 82, 83, 84, 85, 86, 87, 88, 89, 90, 91, 92, 93, 94, 95, 96, 97, 98, 99, 100, 101, 102, 103, 104, 105, 106, 107, 108, 109, 110, 111, 112, 113, 114, 115, 116, 117, 118, 119, 120, 121, 122, 123, 124, 125, 126, 127, 128, 129, 130, 131, 132, 133, 134, 135, 136, 137, 138, 139, 140, 141, 142, 143, 144, 145, 146, 147, 148, 149, 150, 151, 152, 153, 154, 155, 156, 157, 158, 159, 160, 161, 162, 163, 164, 165, 166, 167, 168, 169, 170, 171, 172, 173, 174, 175, 176, 177, 178, 179, 180, 181, 182, 183, 184, 185, 186, 187, 188, 189, 190, 191, 192, 193, 194, 195, 196, 197, 198, 199, 200],
      "LargestImagePixelValue": [2162, 2163, 2159, 2166, 2163, 2160, 2164, 2161, 2164, 2164, 2165, 2162, 2165, 2163, 2165, 2166, 2166, 2165, 2164, 2157, 2168, 2159, 2163, 2161, 2163, 2165, 2163, 2156, 2159, 2162, 2164, 2159, 2164, 2161, 2166, 2160, 2163, 2165, 2166, 2162, 2166, 2160, 2163, 2162, 2166, 2163, 2161, 2159, 2169, 2162, 2165, 2168, 2163, 2162, 2163, 2161, 2167, 2163, 2161, 2165, 2160, 2163, 2166, 2160, 2167, 2171, 2164, 2165, 2167, 2164, 2160, 2163, 2162, 2168, 2158, 2163, 2165, 2163, 2165, 2168, 2160, 2170, 2166, 2166, 2168, 2163, 2163, 2167, 2161, 2165, 2165, 2160, 2163, 2165, 2167, 2164, 2162, 2166, 2163, 2161, 2164, 2166, 2167, 2165, 2167, 2160, 2166, 2159, 2164, 2165, 2164, 2165, 2163, 2160, 2160, 2166, 2161, 2170, 2164, 2166, 2168, 2163, 2163, 2167, 2160, 2165, 2163, 2162, 2167, 2165, 2159, 2163, 2163, 2161, 2168, 2162, 2164, 2167, 2161, 2167, 2166, 2166, 2161, 2168, 2162, 2165, 2160, 2168, 2163, 2163, 2168, 2165, 2163, 2162, 2167, 2162, 2169, 2163, 2163, 2166, 2160, 2162, 2164, 2164, 2164, 2161, 2162, 2171, 2161, 2160, 2164, 2163, 2164, 2167, 2164, 2164, 2167, 2166, 2164, 2166, 2163, 2169, 2164, 2164, 2169, 2166, 2167, 2167, 2162, 2167, 2167, 2161, 2167, 2170, 2166, 2168, 2162, 2166, 2163, 2167],
      "WindowCenter": [955.0, 955.0, 955.0, 953.0, 955.0, 954.0, 955.0, 955.0, 954.0, 954.0, 955.0, 955.0, 955.0, 955.0, 954.0, 955.0, 955.0, 954.0, 955.0, 955.0, 955.0, 955.0, 955.0, 954.0, 955.0, 955.0, 955.0, 954.0, 955.0, 954.0, 955.0, 955.0, 955.0, 955.0, 955.0, 955.0, 955.0, 955.0, 955.0, 955.0, 954.0, 955.0, 955.0, 955.0, 955.0, 955.0, 955.0, 955.0, 955.0, 954.0, 955.0, 955.0, 953.0, 955.0, 954.0, 954.0, 955.0, 954.0, 955.0, 955.0, 955.0, 955.0, 954.0, 955.0, 955.0, 954.0, 955.0, 955.0, 955.0, 954.0, 955.0, 955.0, 955.0, 955.0, 954.0, 955.0, 954.0, 955.0, 955.0, 954.0, 954.0, 954.0, 954.0, 955.0, 955.0, 955.0, 955.0, 954.0, 954.0, 955.0, 955.0, 955.0, 954.0, 955.0, 955.0, 955.0, 954.0, 955.0, 955.0, 954.0, 954.0, 955.0, 955.0, 955.0, 955.0, 955.0, 953.0, 955.0, 954.0, 954.0, 955.0, 955.0, 955.0, 955.0, 953.0, 955.0, 954.0, 955.0, 955.0, 955.0, 955.0, 955.0, 955.0, 955.0, 955.0, 955.0, 954.0, 955.0, 954.0, 955.0, 955.0, 955.0, 955.0, 954.0, 955.0, 955.0, 954.0, 955.0, 955.0, 955.0, 955.0, 955.0, 954.0, 955.0, 954.0, 955.0, 955.0, 955.0, 955.0, 955.0, 954.0, 955.0, 955.0, 955.0, 955.0, 954.0, 955.0, 955.0, 955.0, 954.0, 954.0, 954.0, 955.0, 954.0, 955.0, 954.0, 955.0, 955.0, 955.0, 955.0, 955.0, 954.0, 955.0, 955.0, 955.0, 955.0, 954.0, 954.0, 955.0, 955.0, 955.0, 955.0, 955.0, 955.0, 955.0, 955.0, 955.0, 955.0, 955.0, 955.0, 954.0, 955.0, 954.0, 954.0, 955.0, 955.0, 954.0, 955.0, 955.0, 954.0],
      "WindowWidth": [2234.0, 2234.0, 2234.0, 2232.0, 2234.0, 2233.0, 2234.0, 2234.0, 2233.0, 2233.0, 2234.0, 2234.0, 2234.0, 2234.0, 2232.0, 2234.0, 2234.0, 2233.0, 2234.0, 2233.0, 2234.0, 2234.0, 2234.0, 2232.0, 2234.0, 2233.0, 2234.0, 2233.0, 2234.0, 2232.0, 2233.0, 2234.0, 2234.0, 2233.0, 2234.0, 2234.0, 2234.0, 2233.0, 2234.0, 2233.0, 2233.0, 2234.0, 2233.0, 2233.0, 2234.0, 2233.0, 2233.0, 2234.0, 2233.0, 2232.0, 2234.0, 2234.0, 2232.0, 2233.0, 2233.0, 2232.0, 2233.0, 2233.0, 2233.0, 2234.0, 2234.0, 2234.0, 2233.0, 2233.0, 2234.0, 2233.0, 2234.0, 2233.0, 2233.0, 2232.0, 2233.0, 2234.0, 2233.0, 2234.0, 2232.0, 2233.0, 2232.0, 2234.0, 2234.0, 2233.0, 2232.0, 2233.0, 2232.0, 2233.0, 2233.0, 2233.0, 2233.0, 2232.0, 2232.0, 2233.0, 2234.0, 2233.0, 2232.0, 2233.0, 2233.0, 2234.0, 2232.0, 2233.0, 2233.0, 2232.0, 2232.0, 2233.0, 2233.0, 2233.0, 2233.0, 2233.0, 2231.0, 2233.0, 2232.0, 2232.0, 2233.0, 2233.0, 2233.0, 2233.0, 2231.0, 2233.0, 2232.0, 2233.0, 2233.0, 2233.0, 2233.0, 2233.0, 2233.0, 2233.0, 2233.0, 2233.0, 2232.0, 2232.0, 2232.0, 2233.0, 2232.0, 2233.0, 2233.0, 2232.0, 2233.0, 2232.0, 2232.0, 2233.0, 2233.0, 2233.0, 2233.0, 2232.0, 2232.0, 2233.0, 2232.0, 2233.0, 2233.0, 2233.0, 2233.0, 2233.0, 2232.0, 2233.0, 2233.0, 2233.0, 2233.0, 2231.0, 2232.0, 2233.0, 2233.0, 2232.0, 2232.0, 2233.0, 2233.0, 2232.0, 2232.0, 2232.0, 2232.0, 2233.0, 2232.0, 2232.0, 2232.0, 2231.0, 2233.0, 2232.0, 2233.0, 2233.0, 2233.0, 2232.0, 2232.0, 2232.0, 2232.0, 2233.0, 2232.0, 2232.0, 2233.0, 2232.0, 2233.0, 2232.0, 2232.0, 2233.0, 2231.0, 2232.0, 2231.0, 2231.0, 2232.0, 2233.0, 2232.0, 2232.0, 2232.0, 2232.0]
    },
    "slices": {}
  }
}