{
  "AcquisitionMatrixPE": 80,
  "AcquisitionNumber": 1,
  "AcquisitionTime": "10:52:27.465000",
  "BandwidthPerPixelPhaseEncode": 25,
  "BaseResolution": 80,
  "BodyPartExamined": "BRAIN",
  "CoilCombinationMethod": "Sum of Squares",
  "ConsistencyInfo": "N4_VE11E_LATEST_20181129",
  "ConversionSoftware": "dcm2niix",
  "ConversionSoftwareVersion": "v1.0.20220720",
  "DerivedVendorReportedEchoSpacing": 0.0005,
  "DeviceSerialNumber": "66112",
  "DwellTime": 2.7e-06,
  "EchoTime": 0.03,
  "EchoTrainLength": 80,
  "EffectiveEchoSpacing": 0.0005,
  "FlipAngle": 10,
  "HeudiconvVersion": "0.13.1",
  "ImageOrientationPatientDICOM": [0.999557, 0.0292632, 0.00535853, -0.0294916, 0.950997, 0.307789],
  "ImageOrientationText": "Tra>Cor(17.9)>Sag(-0.2)",
  "ImageType": [
    "ORIGINAL",
    "PRIMARY",
    "M",
    "ND",
    "NORM",
    "MOSAIC"
],
  "ImagingFrequency": 123.259,
  "InPlanePhaseEncodingDirectionDICOM": "COL",
  "InstitutionAddress": "Maynard 3,Hanover,NH,US,03755",
  "InstitutionName": "Dartmouth College - PBS",
  "InstitutionalDepartmentName": "Department",
  "MRAcquisitionType": "2D",
  "MagneticFieldStrength": 3,
  "Manufacturer": "Siemens",
  "ManufacturersModelName": "Prisma",
  "MatrixCoilMode": "SENSE",
  "Modality": "MR",
  "NonlinearGradientCorrection": false,
  "PartialFourier": 1,
  "PatientPosition": "HFS",
  "PercentPhaseFOV": 100,
  "PercentSampling": 100,
  "PhaseEncodingDirection": "j-",
  "PhaseEncodingSteps": 80,
  "PhaseResolution": 1,
  "PixelBandwidth": 2315,
  "ProcedureStepDescription": "dbic^QA",
  "ProtocolName": "func-bold_fa-10",
  "PulseSequenceDetails": "%SiemensSeq%\\ep2d_bold",
  "ReceiveCoilActiveElements": "HEA;HEP",
  "ReceiveCoilName": "Head_32",
  "ReconMatrixPE": 80,
  "RepetitionTime": 2,
  "SAR": 0.0171391,
  "ScanOptions": "FS",
  "ScanningSequence": "EP",
  "SequenceName": "*epfid2d1_80",
  "SequenceVariant": "SK",
  "SeriesDescription": "func-bold_fa-10",
  "SeriesNumber": 8,
  "ShimSetting": [4220, -7746, -7486, -35, -130, -13, -11, 75],
  "SliceThickness": 3.5,
  "SliceTiming": [0.99, 0, 1.0575, 0.0675, 1.1225, 0.1325, 1.19, 0.2, 1.255, 0.265, 1.32, 0.33, 1.3875, 0.3975, 1.4525, 0.4625, 1.52, 0.53, 1.585, 0.595, 1.65, 0.66, 1.7175, 0.7275, 1.7825, 0.7925, 1.85, 0.86, 1.915, 0.925],
  "SoftwareVersions": "syngo MR E11",
  "SpacingBetweenSlices": 3.99,
  "StationName": "AWP66112",
  "TotalReadoutTime": 0.0395,
  "TxRefAmp": 224.43,
  "dcmmeta_affine": [
    [-2.9986722469329834, -0.08847475796937943, -0.015604719519615173, 124.1865234375],
    [-0.0877896249294281, 2.852992057800293, 1.2281662225723267, -123.7235336303711],
    [0.016075579449534416, -0.9233678579330444, 3.79624342918396, -14.722768783569336],
    [0.0, 0.0, 0.0, 1.0]
],
  "dcmmeta_reorient_transform": [
    [0.0, -1.0, 0.0, 79.0],
    [1.0, 0.0, 0.0, 0.0],
    [0.0, 0.0, 1.0, 0.0],
    [0.0, 0.0, 0.0, 1.0]
],
  "dcmmeta_shape": [80, 80, 30, 200],
  "dcmmeta_slice_dim": 2,
  "dcmmeta_version": 0.6,
  "global": {
    "const": {
      "AccessionNumber": "qa",
      "AcquisitionMatrix": [80, 0, 0, 80],
      "AngioFlag": "N",
      "BitsAllocated": 16,
      "BitsStored": 12,
      "BodyPartExamined": "BRAIN",
      "Columns": 480,
      "EchoNumbers": 1,
      "EchoTime": 30.0,
      "EchoTrainLength": 80,
      "FlipAngle": 10.0,
      "HighBit": 11,
      "ImageOrientationPatient": [0.99955737744879, 0.02926320866785, 0.00535852649142, -0.0294915852468, 0.95099737369025, 0.30778928121994],
      "ImagePositionPatient": [-699.236496424, -689.81919450078, -275.55751270819],
      "ImageType": [
        "ORIGINAL",
        "PRIMARY",
        "M",
        "ND",
        "NORM",
        "MOSAIC"
],
      "ImagedNucleus": "1H",
      "ImagingFrequency": 123.259171,
      "InPlanePhaseEncodingDirection": "COL",
      "MRAcquisitionType": "2D",
      "MagneticFieldStrength": 3.0,
      "Manufacturer": "SIEMENS",
      "ManufacturerModelName": "Prisma",
      "Modality": "MR",
      "NumberOfAverages": 1.0,
      "NumberOfPhaseEncodingSteps": 80,
      "PercentPhaseFieldOfView": 100.0,
      "PercentSampling": 100.0,
      "PerformedProcedureStepStartTime": "102749.691000",
      "PhotometricInterpretation": "MONOCHROME2",
      "PixelBandwidth": 2315.0,
      "PixelRepresentation": 0,
      "PixelSpacing": [3.0, 3.0],
      "ProtocolName": "func-bold_fa-10",
      "RepetitionTime": 2000.0,
      "Rows": 480,
      "SAR": 0.01713914362986,
      "SamplesPerPixel": 1,
      "ScanOptions": "FS",
      "ScanningSequence": "EP",
      "SequenceName": "*epfid2d1_80",
      "SequenceVariant": "SK",
      "SeriesDescription": "func-bold_fa-10",
      "SeriesNumber": 8,
      "SeriesTime": "105321.832000",
      "SliceLocation": -52.576984973141,
      "SliceThickness": 3.5,
      "SmallestImagePixelValue": 0,
      "SoftwareVersions": "syngo MR E11",
      "SpacingBetweenSlices": 3.9900000318074,
      "SpecificCharacterSet": "ISO_IR 100",
      "StudyID": "31",
      "StudyTime": "102749.649000",
      "TransmitCoilName": "Body",
      "VariableFlipAngleFlag": "N",
      "WindowCenterWidthExplanation": "Algo1"
    },
    "slices": {}
  },
  "time": {
    "samples": {
      "AcquisitionNumber": [1, 2, 3, 4, 5, 6, 7, 8, 9, 10, 11, 12, 13, 14, 15, 16, 17, 18, 19, 20, 21, 22, 23, 24, 25, 26, 27, 28, 29, 30, 31, 32, 33, 34, 35, 36, 37, 38, 39, 40, 41, 42, 43, 44, 45, 46, 47, 48, 49, 50, 51, 52, 53, 54, 55, 56, 57, 58, 59, 60, 61, 62, 63, 64, 65, 66, 67, 68, 69, 70, 71, 72, 73, 74, 75, 76, 77, 78, 79, 80, 81, 82, 83, 84, 85, 86, 87, 88, 89, 90, 91, 92, 93, 94, 95, 96, 97, 98, 99, 100, 101, 102, 103, 104, 105, 106, 107, 108, 109, 110, 111, 112, 113, 114, 115, 116, 117, 118, 119, 120, 121, 122, 123, 124, 125, 126, 127, 128, 129, 130, 131, 132, 133, 134, 135, 136, 137, 138, 139, 140, 141, 142, 143, 144, 145, 146, 147, 148, 149, 150, 151, 152, 153, 154, 155, 156, 157, 158, 159, 160, 161, 162, 163, 164, 165, 166, 167, 168, 169, 170, 171, 172, 173, 174, 175, 176, 177, 178, 179, 180, 181, 182, 183, 184, 185, 186, 187, 188, 189, 190, 191, 192, 193, 194, 195, 196, 197, 198, 199, 200],
      "AcquisitionTime": ["105227.465000", "105229.465000", "105231.465000", "105233.465000", "105235.465000", "105237.465000", "105239.465000", "105241.465000", "105243.465000", "105245.465000", "105247.465000", "105249.465000", "105251.465000", "105253.465000", "105255.465000", "105257.465000", "105259.465000", "105301.465000", "105303.465000", "105305.465000", "105307.465000", "105309.465000", "105311.465000", "105313.465000", "105315.465000", "105317.465000", "105319.465000", "105321.465000", "105323.465000", "105325.465000", "105327.465000", "105329.465000", "105331.465000", "105333.465000", "105335.465000", "105337.465000", "105339.465000", "105341.465000", "105343.465000", "105345.465000", "105347.465000", "105349.465000", "105351.465000", "105353.465000", "105355.465000", "105357.465000", "105359.465000", "105401.465000", "105403.465000", "105405.465000", "105407.465000", "105409.465000", "105411.465000", "105413.465000", "105415.465000", "105417.465000", "105419.465000", "105421.465000", "105423.465000", "105425.465000", "105427.465000", "105429.465000", "105431.465000", "105433.465000", "105435.465000", "105437.465000", "105439.465000", "105441.465000", "105443.465000", "105445.465000", "105447.465000", "105449.465000", "105451.465000", "105453.465000", "105455.465000", "105457.465000", "105459.465000", "105501.465000", "105503.465000", "105505.465000", "105507.465000", "105509.465000", "105511.465000", "105513.465000", "105515.465000", "105517.465000", "105519.465000", "105521.465000", "105523.465000", "105525.465000", "105527.465000", "105529.465000", "105531.465000", "105533.465000", "105535.465000", "105537.465000", "105539.465000", "105541.465000", "105543.465000", "105545.465000", "105547.465000", "105549.465000", "105551.465000", "105553.465000", "105555.465000", "105557.465000", "105559.465000", "105601.465000", "105603.465000", "105605.465000", "105607.465000", "105609.465000", "105611.465000", "105613.465000", "105615.465000", "105617.465000", "105619.465000", "105621.465000", "105623.465000", "105625.465000", "105627.465000", "105629.465000", "105631.465000", "105633.465000", "105635.465000", "105637.465000", "105639.465000", "105641.465000", "105643.465000", "105645.465000", "105647.465000", "105649.465000", "105651.465000", "105653.465000", "105655.465000", "105657.465000", "105659.465000", "105701.465000", "105703.465000", "105705.465000", "105707.465000", "105709.465000", "105711.465000", "105713.465000", "105715.465000", "105717.465000", "105719.465000", "105721.465000", "105723.465000", "105725.465000", "105727.465000", "105729.465000", "105731.465000", "105733.465000", "105735.465000", "105737.465000", "105739.465000", "105741.465000", "105743.465000", "105745.465000", "105747.465000", "105749.465000", "105751.465000", "105753.465000", "105755.465000", "105757.465000", "105759.465000", "105801.465000", "105803.465000", "105805.465000", "105807.465000", "105809.465000", "105811.465000", "105813.465000", "105815.465000", "105817.465000", "105819.465000", "105821.465000", "105823.465000", "105825.465000", "105827.465000", "105829.465000", "105831.465000", "105833.465000", "105835.465000", "105837.465000", "105839.465000", "105841.465000", "105843.465000", "105845.465000", "105847.465000", "105849.465000", "105851.465000", "105853.465000", "105855.465000", "105857.465000", "105859.465000", "105901.465000", "105903.465000", "105905.465000"],
      "ContentTime": ["105321.835000", "105321.838000", "105321.840000", "105321.843000", "105321.845000", "105321.847000", "105321.864000", "105321.866000", "105321.868000", "105321.871000", "105321.873000", "105321.875000", "105321.878000", "105321.880000", "105321.883000", "105321.894000", "105321.897000", "105321.899000", "105321.901000", "105321.904000", "105321.906000", "105321.908000", "105321.910000", "105321.913000", "105321.915000", "105321.917000", "105321.920000", "105401.830000", "105401.833000", "105401.835000", "105401.837000", "105401.840000", "105401.842000", "105401.844000", "105401.846000", "105401.849000", "105401.851000", "105401.853000", "105401.856000", "105401.858000", "105401.860000", "105401.862000", "105401.865000", "105401.867000", "105401.869000", "105401.871000", "105401.874000", "105441.829000", "105441.832000", "105441.834000", "105441.836000", "105441.838000", "105441.841000", "105441.843000", "105441.845000", "105441.848000", "105441.850000", "105441.862000", "105441.864000", "105441.866000", "105441.869000", "105441.871000", "105441.873000", "105441.876000", "105441.878000", "105441.880000", "105441.883000", "105521.830000", "105521.833000", "105521.835000", "105521.837000", "105521.839000", "105521.842000", "105521.844000", "105521.846000", "105521.849000", "105521.851000", "105521.853000", "105521.855000", "105521.858000", "105521.860000", "105521.862000", "105521.864000", "105521.867000", "105521.874000", "105521.877000", "105521.879000", "105601.830000", "105601.833000", "105601.835000", "105601.837000", "105601.840000", "105601.842000", "105601.844000", "105601.846000", "105601.849000", "105601.851000", "105601.853000", "105601.855000", "105601.858000", "105601.860000", "105601.862000", "105601.864000", "105601.867000", "105601.869000", "105601.871000", "105601.873000", "105641.829000", "105641.832000", "105641.834000", "105641.836000", "105641.839000", "105641.841000", "105641.843000", "105641.846000", "105641.848000", "105641.850000", "105641.852000", "105641.855000", "105641.857000", "105641.860000", "105641.862000", "105641.864000", "105641.867000", "105641.869000", "105641.871000", "105641.874000", "105721.830000", "105721.833000", "105721.835000", "105721.837000", "105721.839000", "105721.842000", "105721.844000", "105721.846000", "105721.849000", "105721.851000", "105721.853000", "105721.855000", "105721.858000", "105721.860000", "105721.862000", "105721.865000", "105721.867000", "105721.869000", "105721.871000", "105721.874000", "105801.830000", "105801.833000", "105801.835000", "105801.837000", "105801.840000", "105801.842000", "105801.844000", "105801.846000", "105801.849000", "105801.851000", "105801.853000", "105801.856000", "105801.858000", "105801.860000", "105801.863000", "105801.865000", "105801.867000", "105801.869000", "105801.872000", "105801.874000", "105841.831000", "105841.833000", "105841.835000", "105841.838000", "105841.840000", "105841.842000", "105841.845000", "105841.847000", "105841.849000", "105841.851000", "105841.854000", "105841.856000", "105841.858000", "105841.861000", "105841.863000", "105841.865000", "105841.868000", "105841.870000", "105841.872000", "105841.874000", "105907.301000", "105907.304000", "105907.306000", "105907.309000", "105907.312000", "105907.315000", "105907.317000", "105907.320000", "105907.322000", "105907.324000", "105907.327000", "105907.329000", "105907.332000"],
      "InstanceCreationTime": ["105321.835000", "105321.838000", "105321.840000", "105321.843000", "105321.845000", "105321.847000", "105321.864000", "105321.866000", "105321.868000", "105321.871000", "105321.873000", "105321.875000", "105321.878000", "105321.880000", "105321.883000", "105321.894000", "105321.897000", "105321.899000", "105321.901000", "105321.904000", "105321.906000", "105321.908000", "105321.910000", "105321.913000", "105321.915000", "105321.917000", "105321.920000", "105401.830000", "105401.833000", "105401.835000", "105401.837000", "105401.840000", "105401.842000", "105401.844000", "105401.846000", "105401.849000", "105401.851000", "105401.853000", "105401.856000", "105401.858000", "105401.860000", "105401.862000", "105401.865000", "105401.867000", "105401.869000", "105401.871000", "105401.874000", "105441.829000", "105441.832000", "105441.834000", "105441.836000", "105441.838000", "105441.841000", "105441.843000", "105441.845000", "105441.848000", "105441.850000", "105441.862000", "105441.864000", "105441.866000", "105441.869000", "105441.871000", "105441.873000", "105441.876000", "105441.878000", "105441.880000", "105441.883000", "105521.830000", "105521.833000", "105521.835000", "105521.837000", "105521.839000", "105521.842000", "105521.844000", "105521.846000", "105521.849000", "105521.851000", "105521.853000", "105521.855000", "105521.858000", "105521.860000", "105521.862000", "105521.864000", "105521.867000", "105521.874000", "105521.877000", "105521.879000", "105601.830000", "105601.833000", "105601.835000", "105601.837000", "105601.840000", "105601.842000", "105601.844000", "105601.846000", "105601.849000", "105601.851000", "105601.853000", "105601.855000", "105601.858000", "105601.860000", "105601.862000", "105601.864000", "105601.867000", "105601.869000", "105601.871000", "105601.873000", "105641.829000", "105641.832000", "105641.834000", "105641.836000", "105641.839000", "105641.841000", "105641.843000", "105641.846000", "105641.848000", "105641.850000", "105641.852000", "105641.855000", "105641.857000", "105641.860000", "105641.862000", "105641.864000", "105641.867000", "105641.869000", "105641.871000", "105641.874000", "105721.830000", "105721.833000", "105721.835000", "105721.837000", "105721.839000", "105721.842000", "105721.844000", "105721.846000", "105721.849000", "105721.851000", "105721.853000", "105721.855000", "105721.858000", "105721.860000", "105721.862000", "105721.865000", "105721.867000", "105721.869000", "105721.871000", "105721.874000", "105801.830000", "105801.833000", "105801.835000", "105801.837000", "105801.840000", "105801.842000", "105801.844000", "105801.846000", "105801.849000", "105801.851000", "105801.853000", "105801.856000", "105801.858000", "105801.860000", "105801.863000", "105801.865000", "105801.867000", "105801.869000", "105801.872000", "105801.874000", "105841.831000", "105841.833000", "105841.835000", "105841.838000", "105841.840000", "105841.842000", "105841.845000", "105841.847000", "105841.849000", "105841.851000", "105841.854000", "105841.856000", "105841.858000", "105841.861000", "105841.863000", "105841.865000", "105841.868000", "105841.870000", "105841.872000", "105841.874000", "105907.301000", "105907.304000", "105907.306000", "105907.309000", "105907.312000", "105907.315000", "105907.317000", "105907.320000", "105907.322000", "105907.324000", "105907.327000", "105907.329000", "105907.332000"],
      "InstanceNumber": [1, 2, 3, 4, 5, 6, 7, 8, 9, 10, 11, 12, 13, 14, 15, 16, 17, 18, 19, 20, 21, 22, 23, 24, 25, 26, 27, 28, 29, 30, 31, 32, 33, 34, 35, 36, 37, 38, 39, 40, 41, 42, 43, 44, 45, 46, 47, 48, 49, 50, 51, 52, 53, 54, 55, 56, 57, 58, 59, 60, 61, 62, 63, 64, 65, 66, 67, 68, 69, 70, 71, 72, 73, 74, 75, 76, 77, 78, 79, 80, 81, 82, 83, 84, 85, 86, 87, 88, 89, 90, 91, 92, 93, 94, 95, 96, 97, 98, 99, 100, 101, 102, 103, 104, 105, 106, 107, 108, 109, 110, 111, 112, 113, 114, 115, 116, 117, 118, 119, 120, 121, 122, 123, 124, 125, 126, 127, 128, 129, 130, 131, 132, 133, 134, 135, 136, 137, 138, 139, 140, 141, 142, 143, 144, 145, 146, 147, 148, 149, 150, 151, 152, 153, 154, 155, 156, 157, 158, 159, 160, 161, 162, 163, 164, 165, 166, 167, 168, 169, 170, 171, 172, 173, 174, 175, 176, 177, 178, 179, 180, 181, 182, 183, 184, 185, 186, 187, 188, 189, 190, 191, 192, 193, 194, 195, 196, 197, 198, 199, 200],
      "LargestImagePixelValue": [363, 362, 360, 363, 360, 361, 359, 360, 362, 361, 359, 359, 361, 362, 358, 361, 360, 359, 360, 362, 360, 361, 360, 360, 360, 361, 360, 361, 359, 363, 363, 359, 360, 363, 361, 360, 364, 360, 361, 360, 362, 362, 363, 358, 366, 359, 360, 359, 362, 359, 362, 360, 360, 360, 362, 360, 360, 362, 362, 361, 362, 359, 362, 360, 359, 361, 359, 360, 361, 362, 360, 358, 362, 361, 364, 361, 362, 361, 364, 360, 361, 360, 362, 367, 357, 360, 358, 361, 360, 359, 364, 358, 359, 360, 360, 360, 360, 360, 362, 360, 360, 364, 360, 361, 359, 361, 360, 360, 362, 360, 361, 359, 361, 358, 361, 360, 360, 360, 359, 359, 359, 359, 363, 359, 359, 359, 359, 359, 360, 360, 361, 360, 363, 360, 361, 359, 363, 358, 359, 359, 359, 368, 360, 360, 361, 360, 362, 361, 359, 360, 360, 361, 359, 358, 358, 360, 360, 358, 360, 359, 360, 362, 359, 361, 359, 361, 359, 360, 359, 359, 360, 360, 359, 360, 358, 359, 362, 359, 358, 362, 359, 359, 361, 361, 360, 359, 360, 359, 362, 359, 359, 360, 360, 361, 363, 358, 359, 359, 359, 359],
      "WindowCenter": [295.0, 295.0, 295.0, 295.0, 295.0, 295.0, 295.0, 295.0, 295.0, 295.0, 295.0, 295.0, 295.0, 295.0, 295.0, 295.0, 295.0, 295.0, 295.0, 295.0, 295.0, 295.0, 295.0, 295.0, 295.0, 295.0, 295.0, 295.0, 295.0, 295.0, 295.0, 295.0, 295.0, 295.0, 295.0, 295.0, 295.0, 295.0, 295.0, 295.0, 295.0, 295.0, 295.0, 295.0, 295.0, 295.0, 295.0, 295.0, 295.0, 295.0, 295.0, 295.0, 295.0, 295.0, 295.0, 295.0, 295.0, 295.0, 295.0, 295.0, 295.0, 295.0, 295.0, 295.0, 295.0, 295.0, 295.0, 295.0, 295.0, 295.0, 295.0, 295.0, 295.0, 295.0, 295.0, 295.0, 295.0, 295.0, 295.0, 295.0, 295.0, 295.0, 295.0, 295.0, 295.0, 295.0, 295.0, 295.0, 295.0, 295.0, 295.0, 295.0, 295.0, 295.0, 295.0, 295.0, 295.0, 295.0, 295.0, 295.0, 295.0, 295.0, 295.0, 295.0, 295.0, 295.0, 295.0, 295.0, 295.0, 295.0, 295.0, 295.0, 295.0, 295.0, 295.0, 295.0, 295.0, 295.0, 295.0, 295.0, 295.0, 295.0, 295.0, 295.0, 295.0, 295.0, 295.0, 295.0, 295.0, 294.0, 295.0, 295.0, 295.0, 295.0, 295.0, 295.0, 295.0, 295.0, 295.0, 295.0, 295.0, 295.0, 295.0, 295.0, 295.0, 295.0, 295.0, 295.0, 295.0, 294.0, 295.0, 295.0, 294.0, 295.0, 295.0, 295.0, 295.0, 295.0, 294.0, 295.0, 295.0, 295.0, 295.0, 295.0, 294.0, 295.0, 294.0, 294.0, 294.0, 294.0, 294.0, 295.0, 295.0, 294.0, 295.0, 295.0, 295.0, 295.0, 295.0, 295.0, 295.0, 295.0, 294.0, 294.0, 294.0, 294.0, 294.0, 294.0, 294.0, 294.0, 295.0, 294.0, 294.0, 294.0, 295.0, 295.0, 294.0, 295.0, 294.0, 295.0],
      "WindowWidth": [642.0, 642.0, 642.0, 642.0, 642.0, 642.0, 642.0, 642.0, 642.0, 642.0, 642.0, 642.0, 642.0, 642.0, 642.0, 642.0, 642.0, 642.0, 642.0, 642.0, 642.0, 642.0, 642.0, 641.0, 642.0, 642.0, 642.0, 642.0, 642.0, 642.0, 642.0, 642.0, 642.0, 642.0, 642.0, 642.0, 642.0, 642.0, 642.0, 642.0, 642.0, 642.0, 642.0, 642.0, 642.0, 642.0, 642.0, 642.0, 642.0, 642.0, 642.0, 642.0, 642.0, 642.0, 642.0, 642.0, 642.0, 642.0, 642.0, 642.0, 642.0, 642.0, 642.0, 642.0, 642.0, 642.0, 642.0, 642.0, 642.0, 642.0, 642.0, 642.0, 642.0, 642.0, 642.0, 642.0, 642.0, 641.0, 642.0, 642.0, 642.0, 642.0, 642.0, 641.0, 642.0, 642.0, 642.0, 642.0, 642.0, 642.0, 642.0, 642.0, 642.0, 642.0, 642.0, 642.0, 642.0, 642.0, 642.0, 642.0, 642.0, 642.0, 642.0, 642.0, 642.0, 642.0, 642.0, 642.0, 642.0, 642.0, 642.0, 642.0, 642.0, 642.0, 642.0, 641.0, 642.0, 641.0, 642.0, 642.0, 642.0, 642.0, 642.0, 642.0, 642.0, 642.0, 642.0, 642.0, 642.0, 641.0, 642.0, 642.0, 642.0, 641.0, 641.0, 642.0, 641.0, 641.0, 642.0, 642.0, 641.0, 642.0, 642.0, 642.0, 642.0, 642.0, 642.0, 642.0, 641.0, 641.0, 642.0, 641.0, 640.0, 641.0, 641.0, 641.0, 641.0, 641.0, 641.0, 642.0, 641.0, 642.0, 641.0, 641.0, 641.0, 642.0, 641.0, 641.0, 640.0, 640.0, 640.0, 641.0, 641.0, 641.0, 642.0, 641.0, 641.0, 642.0, 642.0, 642.0, 642.0, 641.0, 640.0, 641.0, 640.0, 641.0, 640.0, 641.0, 641.0, 640.0, 641.0, 641.0, 641.0, 641.0, 641.0, 642.0, 641.0, 642.0, 641.0, 641.0]
    },
    "slices": {}
  }
}