{
  "AcquisitionMatrixPE": 80,
  "AcquisitionNumber": 1,
  "AcquisitionTime": "10:45:41.425000",
  "BandwidthPerPixelPhaseEncode": 25,
  "BaseResolution": 80,
  "BodyPartExamined": "BRAIN",
  "CoilCombinationMethod": "Sum of Squares",
  "ConsistencyInfo": "N4_VE11E_LATEST_20181129",
  "ConversionSoftware": "dcm2niix",
  "ConversionSoftwareVersion": "v1.0.20220720",
  "DerivedVendorReportedEchoSpacing": 0.0005,
  "DeviceSerialNumber": "66112",
  "DwellTime": 2.7e-06,
  "EchoTime": 0.03,
  "EchoTrainLength": 80,
  "EffectiveEchoSpacing": 0.0005,
  "FlipAngle": 77,
  "HeudiconvVersion": "0.13.1",
  "ImageOrientationPatientDICOM": [0.999557, 0.0292632, 0.00535853, -0.0294916, 0.950997, 0.307789],
  "ImageOrientationText": "Tra>Cor(17.9)>Sag(-0.2)",
  "ImageType": [
    "ORIGINAL",
    "PRIMARY",
    "M",
    "ND",
    "NORM",
    "MOSAIC"
],
  "ImagingFrequency": 123.259,
  "InPlanePhaseEncodingDirectionDICOM": "COL",
  "InstitutionAddress": "Maynard 3,Hanover,NH,US,03755",
  "InstitutionName": "Dartmouth College - PBS",
  "InstitutionalDepartmentName": "Department",
  "MRAcquisitionType": "2D",
  "MagneticFieldStrength": 3,
  "Manufacturer": "Siemens",
  "ManufacturersModelName": "Prisma",
  "MatrixCoilMode": "SENSE",
  "Modality": "MR",
  "NonlinearGradientCorrection": false,
  "PartialFourier": 1,
  "PatientPosition": "HFS",
  "PercentPhaseFOV": 100,
  "PercentSampling": 100,
  "PhaseEncodingDirection": "j-",
  "PhaseEncodingSteps": 80,
  "PhaseResolution": 1,
  "PixelBandwidth": 2315,
  "ProcedureStepDescription": "dbic^QA",
  "ProtocolName": "func-bold_fa-77",
  "PulseSequenceDetails": "%SiemensSeq%\\ep2d_bold",
  "ReceiveCoilActiveElements": "HEA;HEP",
  "ReceiveCoilName": "Head_32",
  "ReconMatrixPE": 80,
  "RepetitionTime": 2,
  "SAR": 0.0638926,
  "ScanOptions": "FS",
  "ScanningSequence": "EP",
  "SequenceName": "*epfid2d1_80",
  "SequenceVariant": "SK",
  "SeriesDescription": "func-bold_fa-77",
  "SeriesNumber": 7,
  "ShimSetting": [4220, -7746, -7486, -35, -130, -13, -11, 75],
  "SliceThickness": 3.5,
  "SliceTiming": [0.99, 0, 1.0575, 0.0675, 1.1225, 0.1325, 1.19, 0.2, 1.255, 0.265, 1.32, 0.33, 1.3875, 0.3975, 1.4525, 0.4625, 1.52, 0.53, 1.585, 0.595, 1.65, 0.66, 1.7175, 0.7275, 1.7825, 0.7925, 1.85, 0.86, 1.915, 0.925],
  "SoftwareVersions": "syngo MR E11",
  "SpacingBetweenSlices": 3.99,
  "StationName": "AWP66112",
  "TotalReadoutTime": 0.0395,
  "TxRefAmp": 224.43,
  "dcmmeta_affine": [
    [-2.9986722469329834, -0.08847475796937943, -0.015604719519615173, 124.1865234375],
    [-0.0877896249294281, 2.852992057800293, 1.2281662225723267, -123.7235336303711],
    [0.016075579449534416, -0.9233678579330444, 3.79624342918396, -14.722768783569336],
    [0.0, 0.0, 0.0, 1.0]
],
  "dcmmeta_reorient_transform": [
    [0.0, -1.0, 0.0, 79.0],
    [1.0, 0.0, 0.0, 0.0],
    [0.0, 0.0, 1.0, 0.0],
    [0.0, 0.0, 0.0, 1.0]
],
  "dcmmeta_shape": [80, 80, 30, 200],
  "dcmmeta_slice_dim": 2,
  "dcmmeta_version": 0.6,
  "global": {
    "const": {
      "AccessionNumber": "qa",
      "AcquisitionMatrix": [80, 0, 0, 80],
      "AngioFlag": "N",
      "BitsAllocated": 16,
      "BitsStored": 12,
      "BodyPartExamined": "BRAIN",
      "Columns": 480,
      "EchoNumbers": 1,
      "EchoTime": 30.0,
      "EchoTrainLength": 80,
      "FlipAngle": 77.0,
      "HighBit": 11,
      "ImageOrientationPatient": [0.99955737744879, 0.02926320866785, 0.00535852649142, -0.0294915852468, 0.95099737369025, 0.30778928121994],
      "ImagePositionPatient": [-699.236496424, -689.81919450078, -275.55751270819],
      "ImageType": [
        "ORIGINAL",
        "PRIMARY",
        "M",
        "ND",
        "NORM",
        "MOSAIC"
],
      "ImagedNucleus": "1H",
      "ImagingFrequency": 123.259169,
      "InPlanePhaseEncodingDirection": "COL",
      "MRAcquisitionType": "2D",
      "MagneticFieldStrength": 3.0,
      "Manufacturer": "SIEMENS",
      "ManufacturerModelName": "Prisma",
      "Modality": "MR",
      "NumberOfAverages": 1.0,
      "NumberOfPhaseEncodingSteps": 80,
      "PercentPhaseFieldOfView": 100.0,
      "PercentSampling": 100.0,
      "PerformedProcedureStepStartTime": "102749.691000",
      "PhotometricInterpretation": "MONOCHROME2",
      "PixelBandwidth": 2315.0,
      "PixelRepresentation": 0,
      "PixelSpacing": [3.0, 3.0],
      "ProtocolName": "func-bold_fa-77",
      "RepetitionTime": 2000.0,
      "Rows": 480,
      "SAR": 0.06389264460444,
      "SamplesPerPixel": 1,
      "ScanOptions": "FS",
      "ScanningSequence": "EP",
      "SequenceName": "*epfid2d1_80",
      "SequenceVariant": "SK",
      "SeriesDescription": "func-bold_fa-77",
      "SeriesNumber": 7,
      "SeriesTime": "104622.004000",
      "SliceLocation": -52.576984973141,
      "SliceThickness": 3.5,
      "SmallestImagePixelValue": 0,
      "SoftwareVersions": "syngo MR E11",
      "SpacingBetweenSlices": 3.9900000318074,
      "SpecificCharacterSet": "ISO_IR 100",
      "StudyID": "31",
      "StudyTime": "102749.649000",
      "TransmitCoilName": "Body",
      "VariableFlipAngleFlag": "N",
      "WindowCenterWidthExplanation": "Algo1"
    },
    "slices": {}
  },
  "time": {
    "samples": {
      "AcquisitionNumber": [1, 2, 3, 4, 5, 6, 7, 8, 9, 10, 11, 12, 13, 14, 15, 16, 17, 18, 19, 20, 21, 22, 23, 24, 25, 26, 27, 28, 29, 30, 31, 32, 33, 34, 35, 36, 37, 38, 39, 40, 41, 42, 43, 44, 45, 46, 47, 48, 49, 50, 51, 52, 53, 54, 55, 56, 57, 58, 59, 60, 61, 62, 63, 64, 65, 66, 67, 68, 69, 70, 71, 72, 73, 74, 75, 76, 77, 78, 79, 80, 81, 82, 83, 84, 85, 86, 87, 88, 89, 90, 91, 92, 93, 94, 95, 96, 97, 98, 99, 100, 101, 102, 103, 104, 105, 106, 107, 108, 109, 110, 111, 112, 113, 114, 115, 116, 117, 118, 119, 120, 121, 122, 123, 124, 125, 126, 127, 128, 129, 130, 131, 132, 133, 134, 135, 136, 137, 138, 139, 140, 141, 142, 143, 144, 145, 146, 147, 148, 149, 150, 151, 152, 153, 154, 155, 156, 157, 158, 159, 160, 161, 162, 163, 164, 165, 166, 167, 168, 169, 170, 171, 172, 173, 174, 175, 176, 177, 178, 179, 180, 181, 182, 183, 184, 185, 186, 187, 188, 189, 190, 191, 192, 193, 194, 195, 196, 197, 198, 199, 200],
      "AcquisitionTime": ["104541.425000", "104543.425000", "104545.425000", "104547.425000", "104549.425000", "104551.425000", "104553.425000", "104555.425000", "104557.425000", "104559.425000", "104601.425000", "104603.425000", "104605.425000", "104607.425000", "104609.425000", "104611.425000", "104613.425000", "104615.425000", "104617.425000", "104619.425000", "104621.425000", "104623.425000", "104625.425000", "104627.425000", "104629.425000", "104631.425000", "104633.425000", "104635.425000", "104637.425000", "104639.425000", "104641.425000", "104643.425000", "104645.425000", "104647.425000", "104649.425000", "104651.425000", "104653.425000", "104655.425000", "104657.425000", "104659.425000", "104701.425000", "104703.425000", "104705.425000", "104707.425000", "104709.425000", "104711.425000", "104713.425000", "104715.425000", "104717.425000", "104719.425000", "104721.425000", "104723.425000", "104725.425000", "104727.425000", "104729.425000", "104731.425000", "104733.425000", "104735.425000", "104737.425000", "104739.425000", "104741.425000", "104743.425000", "104745.425000", "104747.425000", "104749.425000", "104751.425000", "104753.425000", "104755.425000", "104757.425000", "104759.425000", "104801.425000", "104803.425000", "104805.425000", "104807.425000", "104809.425000", "104811.425000", "104813.425000", "104815.425000", "104817.425000", "104819.425000", "104821.425000", "104823.425000", "104825.425000", "104827.425000", "104829.425000", "104831.425000", "104833.425000", "104835.425000", "104837.425000", "104839.425000", "104841.425000", "104843.425000", "104845.425000", "104847.425000", "104849.425000", "104851.425000", "104853.425000", "104855.425000", "104857.425000", "104859.425000", "104901.425000", "104903.425000", "104905.425000", "104907.425000", "104909.425000", "104911.425000", "104913.425000", "104915.425000", "104917.425000", "104919.425000", "104921.425000", "104923.425000", "104925.425000", "104927.425000", "104929.425000", "104931.425000", "104933.425000", "104935.425000", "104937.425000", "104939.425000", "104941.425000", "104943.425000", "104945.425000", "104947.425000", "104949.425000", "104951.425000", "104953.425000", "104955.425000", "104957.425000", "104959.425000", "105001.425000", "105003.425000", "105005.425000", "105007.425000", "105009.425000", "105011.425000", "105013.425000", "105015.425000", "105017.425000", "105019.425000", "105021.425000", "105023.425000", "105025.425000", "105027.425000", "105029.425000", "105031.425000", "105033.425000", "105035.425000", "105037.425000", "105039.425000", "105041.425000", "105043.425000", "105045.425000", "105047.425000", "105049.425000", "105051.425000", "105053.425000", "105055.425000", "105057.425000", "105059.425000", "105101.425000", "105103.425000", "105105.425000", "105107.425000", "105109.425000", "105111.425000", "105113.425000", "105115.425000", "105117.425000", "105119.425000", "105121.425000", "105123.425000", "105125.425000", "105127.425000", "105129.425000", "105131.425000", "105133.425000", "105135.425000", "105137.425000", "105139.425000", "105141.425000", "105143.425000", "105145.425000", "105147.425000", "105149.425000", "105151.425000", "105153.425000", "105155.425000", "105157.425000", "105159.425000", "105201.425000", "105203.425000", "105205.425000", "105207.425000", "105209.425000", "105211.425000", "105213.425000", "105215.425000", "105217.425000", "105219.425000"],
      "ContentTime": ["104622.007000", "104622.010000", "104622.012000", "104622.014000", "104622.017000", "104622.019000", "104622.021000", "104622.023000", "104622.026000", "104622.028000", "104622.030000", "104622.038000", "104622.041000", "104622.043000", "104622.045000", "104622.047000", "104622.050000", "104622.052000", "104622.054000", "104622.056000", "104702.002000", "104702.005000", "104702.007000", "104702.009000", "104702.011000", "104702.014000", "104702.016000", "104702.018000", "104702.021000", "104702.023000", "104702.031000", "104702.034000", "104702.036000", "104702.038000", "104702.040000", "104702.043000", "104702.045000", "104702.047000", "104702.049000", "104702.052000", "104742.001000", "104742.004000", "104742.006000", "104742.009000", "104742.011000", "104742.013000", "104742.015000", "104742.018000", "104742.020000", "104742.022000", "104742.025000", "104742.027000", "104742.029000", "104742.032000", "104742.034000", "104742.036000", "104742.038000", "104742.041000", "104742.043000", "104742.045000", "104822.002000", "104822.005000", "104822.007000", "104822.009000", "104822.012000", "104822.014000", "104822.016000", "104822.026000", "104822.028000", "104822.030000", "104822.033000", "104822.035000", "104822.037000", "104822.040000", "104822.042000", "104822.044000", "104822.047000", "104822.049000", "104822.051000", "104822.053000", "104902.002000", "104902.004000", "104902.007000", "104902.009000", "104902.011000", "104902.014000", "104902.016000", "104902.018000", "104902.020000", "104902.023000", "104902.025000", "104902.027000", "104902.029000", "104902.032000", "104902.034000", "104902.036000", "104902.038000", "104902.041000", "104902.043000", "104902.045000", "104942.001000", "104942.003000", "104942.006000", "104942.008000", "104942.010000", "104942.013000", "104942.015000", "104942.017000", "104942.019000", "104942.022000", "104942.024000", "104942.026000", "104942.029000", "104942.031000", "104942.033000", "104942.036000", "104942.038000", "104942.040000", "104942.042000", "104942.045000", "105022.001000", "105022.009000", "105022.011000", "105022.014000", "105022.016000", "105022.019000", "105022.021000", "105022.023000", "105022.026000", "105022.028000", "105022.030000", "105022.033000", "105022.035000", "105022.037000", "105022.040000", "105022.042000", "105022.044000", "105022.046000", "105022.049000", "105022.051000", "105102.002000", "105102.005000", "105102.007000", "105102.010000", "105102.012000", "105102.014000", "105102.016000", "105102.019000", "105102.021000", "105102.023000", "105102.026000", "105102.028000", "105102.030000", "105102.033000", "105102.035000", "105102.037000", "105102.040000", "105102.042000", "105102.044000", "105102.046000", "105142.002000", "105142.005000", "105142.007000", "105142.009000", "105142.012000", "105142.014000", "105142.016000", "105142.018000", "105142.021000", "105142.023000", "105142.025000", "105142.028000", "105142.030000", "105142.032000", "105142.034000", "105142.037000", "105142.039000", "105142.041000", "105142.043000", "105142.046000", "105220.903000", "105220.905000", "105220.908000", "105220.910000", "105220.912000", "105220.915000", "105220.917000", "105220.919000", "105220.922000", "105220.924000", "105220.926000", "105220.929000", "105220.931000", "105220.941000", "105220.945000", "105220.950000", "105220.954000", "105220.958000", "105220.962000", "105220.966000"],
      "InstanceCreationTime": ["104622.007000", "104622.010000", "104622.012000", "104622.014000", "104622.017000", "104622.019000", "104622.021000", "104622.023000", "104622.026000", "104622.028000", "104622.030000", "104622.038000", "104622.041000", "104622.043000", "104622.045000", "104622.047000", "104622.050000", "104622.052000", "104622.054000", "104622.056000", "104702.002000", "104702.005000", "104702.007000", "104702.009000", "104702.011000", "104702.014000", "104702.016000", "104702.018000", "104702.021000", "104702.023000", "104702.031000", "104702.034000", "104702.036000", "104702.038000", "104702.040000", "104702.043000", "104702.045000", "104702.047000", "104702.049000", "104702.052000", "104742.001000", "104742.004000", "104742.006000", "104742.009000", "104742.011000", "104742.013000", "104742.015000", "104742.018000", "104742.020000", "104742.022000", "104742.025000", "104742.027000", "104742.029000", "104742.032000", "104742.034000", "104742.036000", "104742.038000", "104742.041000", "104742.043000", "104742.045000", "104822.002000", "104822.005000", "104822.007000", "104822.009000", "104822.012000", "104822.014000", "104822.016000", "104822.026000", "104822.028000", "104822.030000", "104822.033000", "104822.035000", "104822.037000", "104822.040000", "104822.042000", "104822.044000", "104822.047000", "104822.049000", "104822.051000", "104822.053000", "104902.002000", "104902.004000", "104902.007000", "104902.009000", "104902.011000", "104902.014000", "104902.016000", "104902.018000", "104902.020000", "104902.023000", "104902.025000", "104902.027000", "104902.029000", "104902.032000", "104902.034000", "104902.036000", "104902.038000", "104902.041000", "104902.043000", "104902.045000", "104942.001000", "104942.003000", "104942.006000", "104942.008000", "104942.010000", "104942.013000", "104942.015000", "104942.017000", "104942.019000", "104942.022000", "104942.024000", "104942.026000", "104942.029000", "104942.031000", "104942.033000", "104942.036000", "104942.038000", "104942.040000", "104942.042000", "104942.045000", "105022.001000", "105022.009000", "105022.011000", "105022.014000", "105022.016000", "105022.019000", "105022.021000", "105022.023000", "105022.026000", "105022.028000", "105022.030000", "105022.033000", "105022.035000", "105022.037000", "105022.040000", "105022.042000", "105022.044000", "105022.046000", "105022.049000", "105022.051000", "105102.002000", "105102.005000", "105102.007000", "105102.010000", "105102.012000", "105102.014000", "105102.016000", "105102.019000", "105102.021000", "105102.023000", "105102.026000", "105102.028000", "105102.030000", "105102.033000", "105102.035000", "105102.037000", "105102.040000", "105102.042000", "105102.044000", "105102.046000", "105142.002000", "105142.005000", "105142.007000", "105142.009000", "105142.012000", "105142.014000", "105142.016000", "105142.018000", "105142.021000", "105142.023000", "105142.025000", "105142.028000", "105142.030000", "105142.032000", "105142.034000", "105142.037000", "105142.039000", "105142.041000", "105142.043000", "105142.046000", "105220.903000", "105220.905000", "105220.908000", "105220.910000", "105220.912000", "105220.915000", "105220.917000", "105220.919000", "105220.922000", "105220.924000", "105220.926000", "105220.929000", "105220.931000", "105220.941000", "105220.945000", "105220.950000", "105220.954000", "105220.958000", "105220.962000", "105220.966000"],
      "InstanceNumber": [1, 2, 3, 4, 5, 6, 7, 8, 9, 10, 11, 12, 13, 14, 15, 16, 17, 18, 19, 20, 21, 22, 23, 24, 25, 26, 27, 28, 29, 30, 31, 32, 33, 34, 35, 36, 37, 38, 39, 40, 41, 42, 43, 44, 45, 46, 47, 48, 49, 50, 51, 52, 53, 54, 55, 56, 57, 58, 59, 60, 61, 62, 63, 64, 65, 66, 67, 68, 69, 70, 71, 72, 73, 74, 75, 76, 77, 78, 79, 80, 81, 82, 83, 84, 85, 86, 87, 88, 89, 90, 91, 92, 93, 94, 95, 96, 97, 98, 99, 100, 101, 102, 103, 104, 105, 106, 107, 108, 109, 110, 111, 112, 113, 114, 115, 116, 117, 118, 119, 120, 121, 122, 123, 124, 125, 126, 127, 128, 129, 130, 131, 132, 133, 134, 135, 136, 137, 138, 139, 140, 141, 142, 143, 144, 145, 146, 147, 148, 149, 150, 151, 152, 153, 154, 155, 156, 157, 158, 159, 160, 161, 162, 163, 164, 165, 166, 167, 168, 169, 170, 171, 172, 173, 174, 175, 176, 177, 178, 179, 180, 181, 182, 183, 184, 185, 186, 187, 188, 189, 190, 191, 192, 193, 194, 195, 196, 197, 198, 199, 200],
      "LargestImagePixelValue": [2102, 2105, 2104, 2103, 2104, 2102, 2106, 2103, 2102, 2102, 2102, 2103, 2102, 2102, 2101, 2103, 2103, 2104, 2104, 2106, 2105, 2104, 2106, 2104, 2103, 2102, 2105, 2104, 2104, 2105, 2103, 2103, 2102, 2102, 2105, 2105, 2105, 2104, 2103, 2104, 2104, 2103, 2104, 2103, 2105, 2105, 2102, 2103, 2104, 2104, 2104, 2103, 2102, 2104, 2106, 2105, 2103, 2105, 2103, 2102, 2103, 2103, 2103, 2102, 2102, 2102, 2103, 2105, 2106, 2104, 2105, 2105, 2104, 2103, 2104, 2105, 2103, 2105, 2105, 2104, 2104, 2105, 2103, 2104, 2105, 2103, 2104, 2105, 2105, 2105, 2105, 2102, 2105, 2104, 2103, 2103, 2103, 2102, 2104, 2103, 2104, 2104, 2102, 2103, 2103, 2104, 2104, 2102, 2104, 2103, 2104, 2103, 2102, 2104, 2103, 2104, 2103, 2103, 2101, 2104, 2101, 2104, 2104, 2103, 2103, 2102, 2102, 2106, 2101, 2102, 2102, 2105, 2104, 2105, 2103, 2105, 2103, 2105, 2104, 2104, 2103, 2104, 2100, 2102, 2104, 2102, 2103, 2104, 2104, 2102, 2103, 2102, 2102, 2105, 2102, 2104, 2102, 2104, 2102, 2104, 2104, 2102, 2104, 2102, 2104, 2105, 2102, 2102, 2105, 2105, 2101, 2102, 2103, 2102, 2103, 2102, 2102, 2103, 2101, 2104, 2103, 2106, 2101, 2101, 2103, 2103, 2103, 2102, 2102, 2101, 2104, 2101, 2104, 2103, 2102, 2100, 2105, 2103, 2102, 2101],
      "WindowCenter": [1005.0, 1005.0, 1005.0, 1005.0, 1005.0, 1004.0, 1004.0, 1005.0, 1004.0, 1004.0, 1005.0, 1005.0, 1004.0, 1005.0, 1005.0, 1004.0, 1005.0, 1004.0, 1004.0, 1005.0, 1005.0, 1005.0, 1004.0, 1004.0, 1004.0, 1005.0, 1005.0, 1005.0, 1005.0, 1005.0, 1005.0, 1004.0, 1004.0, 1004.0, 1004.0, 1004.0, 1003.0, 1005.0, 1004.0, 1004.0, 1004.0, 1004.0, 1004.0, 1003.0, 1004.0, 1003.0, 1004.0, 1003.0, 1004.0, 1003.0, 1003.0, 1004.0, 1004.0, 1004.0, 1004.0, 1004.0, 1004.0, 1004.0, 1003.0, 1004.0, 1003.0, 1004.0, 1004.0, 1004.0, 1004.0, 1003.0, 1003.0, 1004.0, 1003.0, 1004.0, 1003.0, 1004.0, 1003.0, 1004.0, 1004.0, 1004.0, 1004.0, 1004.0, 1004.0, 1004.0, 1004.0, 1004.0, 1004.0, 1003.0, 1003.0, 1004.0, 1004.0, 1003.0, 1004.0, 1003.0, 1003.0, 1003.0, 1004.0, 1004.0, 1004.0, 1004.0, 1004.0, 1004.0, 1004.0, 1004.0, 1004.0, 1004.0, 1004.0, 1004.0, 1004.0, 1004.0, 1004.0, 1004.0, 1004.0, 1003.0, 1003.0, 1003.0, 1004.0, 1003.0, 1003.0, 1003.0, 1004.0, 1003.0, 1004.0, 1003.0, 1003.0, 1003.0, 1003.0, 1003.0, 1003.0, 1003.0, 1003.0, 1003.0, 1003.0, 1003.0, 1002.0, 1003.0, 1003.0, 1003.0, 1003.0, 1003.0, 1002.0, 1002.0, 1002.0, 1003.0, 1003.0, 1002.0, 1003.0, 1003.0, 1002.0, 1003.0, 1003.0, 1003.0, 1003.0, 1004.0, 1003.0, 1003.0, 1003.0, 1003.0, 1002.0, 1002.0, 1003.0, 1003.0, 1003.0, 1003.0, 1002.0, 1003.0, 1002.0, 1003.0, 1002.0, 1003.0, 1003.0, 1003.0, 1003.0, 1002.0, 1003.0, 1003.0, 1002.0, 1002.0, 1002.0, 1002.0, 1002.0, 1002.0, 1002.0, 1003.0, 1003.0, 1003.0, 1003.0, 1003.0, 1002.0, 1003.0, 1002.0, 1002.0, 1002.0, 1003.0, 1003.0, 1003.0, 1002.0, 1003.0, 1003.0, 1003.0, 1003.0, 1003.0, 1003.0, 1002.0],
      "WindowWidth": [2238.0, 2238.0, 2238.0, 2238.0, 2238.0, 2237.0, 2237.0, 2238.0, 2237.0, 2237.0, 2238.0, 2238.0, 2237.0, 2238.0, 2238.0, 2237.0, 2238.0, 2237.0, 2237.0, 2238.0, 2238.0, 2238.0, 2237.0, 2237.0, 2236.0, 2237.0, 2238.0, 2237.0, 2237.0, 2237.0, 2237.0, 2237.0, 2237.0, 2237.0, 2237.0, 2237.0, 2237.0, 2237.0, 2236.0, 2237.0, 2237.0, 2237.0, 2237.0, 2236.0, 2237.0, 2236.0, 2237.0, 2236.0, 2237.0, 2236.0, 2236.0, 2237.0, 2237.0, 2237.0, 2237.0, 2236.0, 2237.0, 2236.0, 2236.0, 2236.0, 2236.0, 2236.0, 2236.0, 2236.0, 2236.0, 2236.0, 2236.0, 2236.0, 2236.0, 2236.0, 2236.0, 2236.0, 2235.0, 2236.0, 2236.0, 2236.0, 2236.0, 2236.0, 2236.0, 2236.0, 2236.0, 2236.0, 2236.0, 2235.0, 2235.0, 2236.0, 2236.0, 2235.0, 2236.0, 2235.0, 2235.0, 2235.0, 2235.0, 2235.0, 2235.0, 2236.0, 2235.0, 2235.0, 2235.0, 2235.0, 2236.0, 2235.0, 2235.0, 2235.0, 2235.0, 2235.0, 2235.0, 2235.0, 2236.0, 2235.0, 2235.0, 2234.0, 2235.0, 2234.0, 2234.0, 2234.0, 2235.0, 2234.0, 2235.0, 2234.0, 2235.0, 2235.0, 2235.0, 2235.0, 2234.0, 2235.0, 2235.0, 2235.0, 2235.0, 2235.0, 2234.0, 2235.0, 2235.0, 2235.0, 2235.0, 2234.0, 2234.0, 2234.0, 2234.0, 2235.0, 2235.0, 2234.0, 2234.0, 2235.0, 2234.0, 2235.0, 2235.0, 2235.0, 2235.0, 2235.0, 2235.0, 2235.0, 2235.0, 2235.0, 2234.0, 2234.0, 2235.0, 2235.0, 2235.0, 2235.0, 2234.0, 2235.0, 2234.0, 2235.0, 2234.0, 2235.0, 2235.0, 2234.0, 2234.0, 2233.0, 2234.0, 2234.0, 2233.0, 2233.0, 2234.0, 2233.0, 2234.0, 2233.0, 2233.0, 2234.0, 2234.0, 2234.0, 2234.0, 2234.0, 2233.0, 2234.0, 2233.0, 2233.0, 2233.0, 2234.0, 2234.0, 2234.0, 2233.0, 2234.0, 2234.0, 2234.0, 2234.0, 2234.0, 2234.0, 2233.0]
    },
    "slices": {}
  }
}