{
  "AcquisitionMatrixPE": 122,
  "AcquisitionNumber": 1,
  "AcquisitionTime": "11:06:51.485000",
  "BandwidthPerPixelPhaseEncode": 27.785,
  "BaseResolution": 122,
  "BodyPartExamined": "BRAIN",
  "CoilCombinationMethod": "Adaptive Combine",
  "ConsistencyInfo": "N4_VE11C_LATEST_20160120",
  "ConversionSoftware": "dcm2niix",
  "ConversionSoftwareVersion": "v1.0.20220720",
  "DerivedVendorReportedEchoSpacing": 0.000590011,
  "DeviceSerialNumber": "66112",
  "DiffusionScheme": "Monopolar",
  "DwellTime": 2e-06,
  "EchoTime": 0.068,
  "EchoTrainLength": 61,
  "EffectiveEchoSpacing": 0.000295005,
  "FlipAngle": 90,
  "HeudiconvVersion": "0.13.1",
  "ImageOrientationPatientDICOM": [0.999666, -0.025828, 0, 0.025828, 0.999666, 0],
  "ImageOrientationText": "Tra",
  "ImageType": [
    "ORIGINAL",
    "PRIMARY",
    "DIFFUSION",
    "NONE",
    "ND",
    "NORM"
],
  "ImagingFrequency": 123.252,
  "InPlanePhaseEncodingDirectionDICOM": "COL",
  "InstitutionAddress": "Maynard 3,Hanover,NH,US,03755",
  "InstitutionName": "Dartmouth College - PBS",
  "InstitutionalDepartmentName": "Department",
  "MRAcquisitionType": "2D",
  "MagneticFieldStrength": 3,
  "Manufacturer": "Siemens",
  "ManufacturersModelName": "Prisma",
  "Modality": "MR",
  "MultibandAccelerationFactor": 4,
  "NonlinearGradientCorrection": false,
  "ParallelReductionFactorInPlane": 2,
  "PartialFourier": 1,
  "PatientPosition": "HFS",
  "PercentPhaseFOV": 100,
  "PercentSampling": 100,
  "PhaseEncodingDirection": "j-",
  "PhaseEncodingSteps": 122,
  "PhaseResolution": 1,
  "PixelBandwidth": 2050,
  "ProcedureStepDescription": "dbic^QA",
  "ProtocolName": "dwi_acq-DTI-30-p2-s4-2mm",
  "PulseSequenceDetails": "%SiemensSeq%\\ep2d_diff",
  "ReceiveCoilActiveElements": "HEA;HEP",
  "ReceiveCoilName": "Head_32",
  "ReconMatrixPE": 122,
  "RefLinesPE": 38,
  "RepetitionTime": 3.6,
  "SAR": 0.477727,
  "ScanOptions": "FS",
  "ScanningSequence": "EP",
  "SequenceName": "*ep_b0",
  "SequenceVariant": "SK\\SP",
  "SeriesDescription": "dwi_acq-DTI-30-p2-s4-2mm",
  "SeriesNumber": 13,
  "ShimSetting": [4143, -7700, -7245, -872, -66, -20, -63, 80],
  "SliceThickness": 2,
  "SliceTiming": [2.58594, 0, 1.78906, 0.20312, 1.99219, 0.39844, 2.1875, 0.60156, 2.39062, 1, 2.78906, 1.19531, 2.98438, 1.39062, 3.1875, 1.59375, 3.38281, 0.79688, 2.58594, 0, 1.78906, 0.20312, 1.99219, 0.39844, 2.1875, 0.60156, 2.39062, 1, 2.78906, 1.19531, 2.98438, 1.39062, 3.1875, 1.59375, 3.38281, 0.79688, 2.58594, 0, 1.78906, 0.20312, 1.99219, 0.39844, 2.1875, 0.60156, 2.39062, 1, 2.78906, 1.19531, 2.98438, 1.39062, 3.1875, 1.59375, 3.38281, 0.79688, 2.58594, 0, 1.78906, 0.20312, 1.99219, 0.39844, 2.1875, 0.60156, 2.39062, 1, 2.78906, 1.19531, 2.98438, 1.39062, 3.1875, 1.59375, 3.38281, 0.79688],
  "SoftwareVersions": "syngo MR E11",
  "SpacingBetweenSlices": 2,
  "SpoilingState": true,
  "StationName": "AWP66112",
  "TotalReadoutTime": 0.0356956,
  "TxRefAmp": 186.051,
  "dcmmeta_affine": [
    [-1.9665569067001343, 0.0508091077208519, 0.0, 118.99356079101562],
    [0.0508091077208519, 1.9665569067001343, 0.0, -108.38643646240234],
    [0.0, 0.0, 2.0, -95.99585723876953],
    [0.0, 0.0, 0.0, 1.0]
],
  "dcmmeta_reorient_transform": [
    [0.0, -1.0, 0.0, 121.0],
    [1.0, 0.0, 0.0, 0.0],
    [0.0, 0.0, -1.0, 71.0],
    [0.0, 0.0, 0.0, 1.0]
],
  "dcmmeta_shape": [122, 122, 72, 31],
  "dcmmeta_slice_dim": 2,
  "dcmmeta_version": 0.6,
  "global": {
    "const": {
      "AccessionNumber": "qa-emmet",
      "AcquisitionMatrix": [122, 0, 0, 122],
      "AngioFlag": "N",
      "BitsAllocated": 16,
      "BitsStored": 12,
      "BodyPartExamined": "BRAIN",
      "Columns": 122,
      "EchoNumbers": 1,
      "EchoTime": 68.0,
      "EchoTrainLength": 61,
      "FlipAngle": 90.0,
      "HighBit": 11,
      "ImageOrientationPatient": [0.9996664025258, -0.0258279627754, 0.0, 0.02582796277541, 0.9996664025258, 0.0],
      "ImageType": [
        "ORIGINAL",
        "PRIMARY",
        "DIFFUSION",
        "NONE",
        "ND",
        "NORM"
],
      "ImagedNucleus": "1H",
      "ImagingFrequency": 123.252341,
      "InPlanePhaseEncodingDirection": "COL",
      "MRAcquisitionType": "2D",
      "MagneticFieldStrength": 3.0,
      "Manufacturer": "SIEMENS",
      "ManufacturerModelName": "Prisma",
      "Modality": "MR",
      "NumberOfAverages": 1.0,
      "NumberOfPhaseEncodingSteps": 122,
      "PercentPhaseFieldOfView": 100.0,
      "PercentSampling": 100.0,
      "PerformedProcedureStepStartTime": "103605.312000",
      "PhotometricInterpretation": "MONOCHROME2",
      "PixelBandwidth": 2050.0,
      "PixelRepresentation": 0,
      "PixelSpacing": [1.9672131538391, 1.9672131538391],
      "ProtocolName": "dwi_acq-DTI-30-p2-s4-2mm",
      "RepetitionTime": 3600.0,
      "Rows": 122,
      "SAR": 0.47772731174927,
      "SamplesPerPixel": 1,
      "ScanOptions": "FS",
      "ScanningSequence": "EP",
      "SequenceVariant": [
        "SK",
        "SP"
],
      "SeriesDescription": "dwi_acq-DTI-30-p2-s4-2mm",
      "SeriesNumber": 13,
      "SeriesTime": "110659.852000",
      "SliceThickness": 2.0,
      "SmallestImagePixelValue": 0,
      "SoftwareVersions": "syngo MR E11",
      "SpacingBetweenSlices": 2.0,
      "SpecificCharacterSet": "ISO_IR 100",
      "StudyID": "2",
      "StudyTime": "103605.248000",
      "TransmitCoilName": "Body",
      "VariableFlipAngleFlag": "N",
      "WindowCenterWidthExplanation": "Algo1",
      "dBdt": 0.0},
    "slices": {
      "AcquisitionTime": ["110651.485000", "110648.900000", "110650.690000", "110649.100000", "110650.890000", "110649.297500", "110651.087500", "110649.497500", "110651.287500", "110649.895000", "110651.685000", "110650.092500", "110651.882500", "110650.292500", "110652.082500", "110650.490000", "110652.280000", "110649.695000", "110651.485000", "110648.900000", "110650.690000", "110649.100000", "110650.890000", "110649.297500", "110651.087500", "110649.497500", "110651.287500", "110649.895000", "110651.685000", "110650.092500", "110651.882500", "110650.292500", "110652.082500", "110650.490000", "110652.280000", "110649.695000", "110651.485000", "110648.900000", "110650.690000", "110649.100000", "110650.890000", "110649.297500", "110651.087500", "110649.497500", "110651.287500", "110649.895000", "110651.685000", "110650.092500", "110651.882500", "110650.292500", "110652.082500", "110650.490000", "110652.280000", "110649.695000", "110651.485000", "110648.900000", "110650.690000", "110649.100000", "110650.890000", "110649.297500", "110651.087500", "110649.497500", "110651.287500", "110649.895000", "110651.685000", "110650.092500", "110651.882500", "110650.292500", "110652.082500", "110650.490000", "110652.280000", "110649.695000", "110655.085000", "110652.500000", "110654.290000", "110652.700000", "110654.490000", "110652.897500", "110654.687500", "110653.097500", "110654.887500", "110653.495000", "110655.285000", "110653.692500", "110655.482500", "110653.892500", "110655.682500", "110654.090000", "110655.880000", "110653.295000", "110655.085000", "110652.500000", "110654.290000", "110652.700000", "110654.490000", "110652.897500", "110654.687500", "110653.097500", "110654.887500", "110653.495000", "110655.285000", "110653.692500", "110655.482500", "110653.892500", "110655.682500", "110654.090000", "110655.880000", "110653.295000", "110655.085000", "110652.500000", "110654.290000", "110652.700000", "110654.490000", "110652.897500", "110654.687500", "110653.097500", "110654.887500", "110653.495000", "110655.285000", "110653.692500", "110655.482500", "110653.892500", "110655.682500", "110654.090000", "110655.880000", "110653.295000", "110655.085000", "110652.500000", "110654.290000", "110652.700000", "110654.490000", "110652.897500", "110654.687500", "110653.097500", "110654.887500", "110653.495000", "110655.285000", "110653.692500", "110655.482500", "110653.892500", "110655.682500", "110654.090000", "110655.880000", "110653.295000", "110658.685000", "110656.100000", "110657.890000", "110656.300000", "110658.090000", "110656.497500", "110658.287500", "110656.697500", "110658.487500", "110657.095000", "110658.885000", "110657.292500", "110659.082500", "110657.492500", "110659.282500", "110657.690000", "110659.480000", "110656.895000", "110658.685000", "110656.100000", "110657.890000", "110656.300000", "110658.090000", "110656.497500", "110658.287500", "110656.697500", "110658.487500", "110657.095000", "110658.885000", "110657.292500", "110659.082500", "110657.492500", "110659.282500", "110657.690000", "110659.480000", "110656.895000", "110658.685000", "110656.100000", "110657.890000", "110656.300000", "110658.090000", "110656.497500", "110658.287500", "110656.697500", "110658.487500", "110657.095000", "110658.885000", "110657.292500", "110659.082500", "110657.492500", "110659.282500", "110657.690000", "110659.480000", "110656.895000", "110658.685000", "110656.100000", "110657.890000", "110656.300000", "110658.090000", "110656.497500", "110658.287500", "110656.697500", "110658.487500", "110657.095000", "110658.885000", "110657.292500", "110659.082500", "110657.492500", "110659.282500", "110657.690000", "110659.480000", "110656.895000", "110702.285000", "110659.700000", "110701.490000", "110659.900000", "110701.690000", "110700.097500", "110701.887500", "110700.297500", "110702.087500", "110700.695000", "110702.485000", "110700.892500", "110702.682500", "110701.092500", "110702.882500", "110701.290000", "110703.080000", "110700.495000", "110702.285000", "110659.700000", "110701.490000", "110659.900000", "110701.690000", "110700.097500", "110701.887500", "110700.297500", "110702.087500", "110700.695000", "110702.485000", "110700.892500", "110702.682500", "110701.092500", "110702.882500", "110701.290000", "110703.080000", "110700.495000", "110702.285000", "110659.700000", "110701.490000", "110659.900000", "110701.690000", "110700.097500", "110701.887500", "110700.297500", "110702.087500", "110700.695000", "110702.485000", "110700.892500", "110702.682500", "110701.092500", "110702.882500", "110701.290000", "110703.080000", "110700.495000", "110702.285000", "110659.700000", "110701.490000", "110659.900000", "110701.690000", "110700.097500", "110701.887500", "110700.297500", "110702.087500", "110700.695000", "110702.485000", "110700.892500", "110702.682500", "110701.092500", "110702.882500", "110701.290000", "110703.080000", "110700.495000", "110705.885000", "110703.300000", "110705.090000", "110703.500000", "110705.290000", "110703.697500", "110705.487500", "110703.897500", "110705.687500", "110704.295000", "110706.085000", "110704.492500", "110706.282500", "110704.692500", "110706.482500", "110704.890000", "110706.680000", "110704.095000", "110705.885000", "110703.300000", "110705.090000", "110703.500000", "110705.290000", "110703.697500", "110705.487500", "110703.897500", "110705.687500", "110704.295000", "110706.085000", "110704.492500", "110706.282500", "110704.692500", "110706.482500", "110704.890000", "110706.680000", "110704.095000", "110705.885000", "110703.300000", "110705.090000", "110703.500000", "110705.290000", "110703.697500", "110705.487500", "110703.897500", "110705.687500", "110704.295000", "110706.085000", "110704.492500", "110706.282500", "110704.692500", "110706.482500", "110704.890000", "110706.680000", "110704.095000", "110705.885000", "110703.300000", "110705.090000", "110703.500000", "110705.290000", "110703.697500", "110705.487500", "110703.897500", "110705.687500", "110704.295000", "110706.085000", "110704.492500", "110706.282500", "110704.692500", "110706.482500", "110704.890000", "110706.680000", "110704.095000", "110709.485000", "110706.900000", "110708.690000", "110707.100000", "110708.890000", "110707.297500", "110709.087500", "110707.497500", "110709.287500", "110707.895000", "110709.685000", "110708.092500", "110709.882500", "110708.292500", "110710.082500", "110708.490000", "110710.280000", "110707.695000", "110709.485000", "110706.900000", "110708.690000", "110707.100000", "110708.890000", "110707.297500", "110709.087500", "110707.497500", "110709.287500", "110707.895000", "110709.685000", "110708.092500", "110709.882500", "110708.292500", "110710.082500", "110708.490000", "110710.280000", "110707.695000", "110709.485000", "110706.900000", "110708.690000", "110707.100000", "110708.890000", "110707.297500", "110709.087500", "110707.497500", "110709.287500", "110707.895000", "110709.685000", "110708.092500", "110709.882500", "110708.292500", "110710.082500", "110708.490000", "110710.280000", "110707.695000", "110709.485000", "110706.900000", "110708.690000", "110707.100000", "110708.890000", "110707.297500", "110709.087500", "110707.497500", "110709.287500", "110707.895000", "110709.685000", "110708.092500", "110709.882500", "110708.292500", "110710.082500", "110708.490000", "110710.280000", "110707.695000", "110713.085000", "110710.500000", "110712.290000", "110710.700000", "110712.490000", "110710.897500", "110712.687500", "110711.097500", "110712.887500", "110711.495000", "110713.285000", "110711.692500", "110713.482500", "110711.892500", "110713.682500", "110712.090000", "110713.880000", "110711.295000", "110713.085000", "110710.500000", "110712.290000", "110710.700000", "110712.490000", "110710.897500", "110712.687500", "110711.097500", "110712.887500", "110711.495000", "110713.285000", "110711.692500", "110713.482500", "110711.892500", "110713.682500", "110712.090000", "110713.880000", "110711.295000", "110713.085000", "110710.500000", "110712.290000", "110710.700000", "110712.490000", "110710.897500", "110712.687500", "110711.097500", "110712.887500", "110711.495000", "110713.285000", "110711.692500", "110713.482500", "110711.892500", "110713.682500", "110712.090000", "110713.880000", "110711.295000", "110713.085000", "110710.500000", "110712.290000", "110710.700000", "110712.490000", "110710.897500", "110712.687500", "110711.097500", "110712.887500", "110711.495000", "110713.285000", "110711.692500", "110713.482500", "110711.892500", "110713.682500", "110712.090000", "110713.880000", "110711.295000", "110716.685000", "110714.100000", "110715.890000", "110714.300000", "110716.090000", "110714.497500", "110716.287500", "110714.697500", "110716.487500", "110715.095000", "110716.885000", "110715.292500", "110717.082500", "110715.492500", "110717.282500", "110715.690000", "110717.480000", "110714.895000", "110716.685000", "110714.100000", "110715.890000", "110714.300000", "110716.090000", "110714.497500", "110716.287500", "110714.697500", "110716.487500", "110715.095000", "110716.885000", "110715.292500", "110717.082500", "110715.492500", "110717.282500", "110715.690000", "110717.480000", "110714.895000", "110716.685000", "110714.100000", "110715.890000", "110714.300000", "110716.090000", "110714.497500", "110716.287500", "110714.697500", "110716.487500", "110715.095000", "110716.885000", "110715.292500", "110717.082500", "110715.492500", "110717.282500", "110715.690000", "110717.480000", "110714.895000", "110716.685000", "110714.100000", "110715.890000", "110714.300000", "110716.090000", "110714.497500", "110716.287500", "110714.697500", "110716.487500", "110715.095000", "110716.885000", "110715.292500", "110717.082500", "110715.492500", "110717.282500", "110715.690000", "110717.480000", "110714.895000", "110720.285000", "110717.700000", "110719.490000", "110717.900000", "110719.690000", "110718.097500", "110719.887500", "110718.297500", "110720.087500", "110718.695000", "110720.485000", "110718.892500", "110720.682500", "110719.092500", "110720.882500", "110719.290000", "110721.080000", "110718.495000", "110720.285000", "110717.700000", "110719.490000", "110717.900000", "110719.690000", "110718.097500", "110719.887500", "110718.297500", "110720.087500", "110718.695000", "110720.485000", "110718.892500", "110720.682500", "110719.092500", "110720.882500", "110719.290000", "110721.080000", "110718.495000", "110720.285000", "110717.700000", "110719.490000", "110717.900000", "110719.690000", "110718.097500", "110719.887500", "110718.297500", "110720.087500", "110718.695000", "110720.485000", "110718.892500", "110720.682500", "110719.092500", "110720.882500", "110719.290000", "110721.080000", "110718.495000", "110720.285000", "110717.700000", "110719.490000", "110717.900000", "110719.690000", "110718.097500", "110719.887500", "110718.297500", "110720.087500", "110718.695000", "110720.485000", "110718.892500", "110720.682500", "110719.092500", "110720.882500", "110719.290000", "110721.080000", "110718.495000", "110723.885000", "110721.300000", "110723.090000", "110721.500000", "110723.290000", "110721.697500", "110723.487500", "110721.897500", "110723.687500", "110722.295000", "110724.085000", "110722.492500", "110724.282500", "110722.692500", "110724.482500", "110722.890000", "110724.680000", "110722.095000", "110723.885000", "110721.300000", "110723.090000", "110721.500000", "110723.290000", "110721.697500", "110723.487500", "110721.897500", "110723.687500", "110722.295000", "110724.085000", "110722.492500", "110724.282500", "110722.692500", "110724.482500", "110722.890000", "110724.680000", "110722.095000", "110723.885000", "110721.300000", "110723.090000", "110721.500000", "110723.290000", "110721.697500", "110723.487500", "110721.897500", "110723.687500", "110722.295000", "110724.085000", "110722.492500", "110724.282500", "110722.692500", "110724.482500", "110722.890000", "110724.680000", "110722.095000", "110723.885000", "110721.300000", "110723.090000", "110721.500000", "110723.290000", "110721.697500", "110723.487500", "110721.897500", "110723.687500", "110722.295000", "110724.085000", "110722.492500", "110724.282500", "110722.692500", "110724.482500", "110722.890000", "110724.680000", "110722.095000", "110727.485000", "110724.900000", "110726.690000", "110725.100000", "110726.890000", "110725.297500", "110727.087500", "110725.497500", "110727.287500", "110725.895000", "110727.685000", "110726.092500", "110727.882500", "110726.292500", "110728.082500", "110726.490000", "110728.280000", "110725.695000", "110727.485000", "110724.900000", "110726.690000", "110725.100000", "110726.890000", "110725.297500", "110727.087500", "110725.497500", "110727.287500", "110725.895000", "110727.685000", "110726.092500", "110727.882500", "110726.292500", "110728.082500", "110726.490000", "110728.280000", "110725.695000", "110727.485000", "110724.900000", "110726.690000", "110725.100000", "110726.890000", "110725.297500", "110727.087500", "110725.497500", "110727.287500", "110725.895000", "110727.685000", "110726.092500", "110727.882500", "110726.292500", "110728.082500", "110726.490000", "110728.280000", "110725.695000", "110727.485000", "110724.900000", "110726.690000", "110725.100000", "110726.890000", "110725.297500", "110727.087500", "110725.497500", "110727.287500", "110725.895000", "110727.685000", "110726.092500", "110727.882500", "110726.292500", "110728.082500", "110726.490000", "110728.280000", "110725.695000", "110731.085000", "110728.500000", "110730.290000", "110728.700000", "110730.490000", "110728.897500", "110730.687500", "110729.097500", "110730.887500", "110729.495000", "110731.285000", "110729.692500", "110731.482500", "110729.892500", "110731.682500", "110730.090000", "110731.880000", "110729.295000", "110731.085000", "110728.500000", "110730.290000", "110728.700000", "110730.490000", "110728.897500", "110730.687500", "110729.097500", "110730.887500", "110729.495000", "110731.285000", "110729.692500", "110731.482500", "110729.892500", "110731.682500", "110730.090000", "110731.880000", "110729.295000", "110731.085000", "110728.500000", "110730.290000", "110728.700000", "110730.490000", "110728.897500", "110730.687500", "110729.097500", "110730.887500", "110729.495000", "110731.285000", "110729.692500", "110731.482500", "110729.892500", "110731.682500", "110730.090000", "110731.880000", "110729.295000", "110731.085000", "110728.500000", "110730.290000", "110728.700000", "110730.490000", "110728.897500", "110730.687500", "110729.097500", "110730.887500", "110729.495000", "110731.285000", "110729.692500", "110731.482500", "110729.892500", "110731.682500", "110730.090000", "110731.880000", "110729.295000", "110734.685000", "110732.100000", "110733.890000", "110732.300000", "110734.090000", "110732.497500", "110734.287500", "110732.697500", "110734.487500", "110733.095000", "110734.885000", "110733.292500", "110735.082500", "110733.492500", "110735.282500", "110733.690000", "110735.480000", "110732.895000", "110734.685000", "110732.100000", "110733.890000", "110732.300000", "110734.090000", "110732.497500", "110734.287500", "110732.697500", "110734.487500", "110733.095000", "110734.885000", "110733.292500", "110735.082500", "110733.492500", "110735.282500", "110733.690000", "110735.480000", "110732.895000", "110734.685000", "110732.100000", "110733.890000", "110732.300000", "110734.090000", "110732.497500", "110734.287500", "110732.697500", "110734.487500", "110733.095000", "110734.885000", "110733.292500", "110735.082500", "110733.492500", "110735.282500", "110733.690000", "110735.480000", "110732.895000", "110734.685000", "110732.100000", "110733.890000", "110732.300000", "110734.090000", "110732.497500", "110734.287500", "110732.697500", "110734.487500", "110733.095000", "110734.885000", "110733.292500", "110735.082500", "110733.492500", "110735.282500", "110733.690000", "110735.480000", "110732.895000", "110738.285000", "110735.700000", "110737.490000", "110735.900000", "110737.690000", "110736.097500", "110737.887500", "110736.297500", "110738.087500", "110736.695000", "110738.485000", "110736.892500", "110738.682500", "110737.092500", "110738.882500", "110737.290000", "110739.080000", "110736.495000", "110738.285000", "110735.700000", "110737.490000", "110735.900000", "110737.690000", "110736.097500", "110737.887500", "110736.297500", "110738.087500", "110736.695000", "110738.485000", "110736.892500", "110738.682500", "110737.092500", "110738.882500", "110737.290000", "110739.080000", "110736.495000", "110738.285000", "110735.700000", "110737.490000", "110735.900000", "110737.690000", "110736.097500", "110737.887500", "110736.297500", "110738.087500", "110736.695000", "110738.485000", "110736.892500", "110738.682500", "110737.092500", "110738.882500", "110737.290000", "110739.080000", "110736.495000", "110738.285000", "110735.700000", "110737.490000", "110735.900000", "110737.690000", "110736.097500", "110737.887500", "110736.297500", "110738.087500", "110736.695000", "110738.485000", "110736.892500", "110738.682500", "110737.092500", "110738.882500", "110737.290000", "110739.080000", "110736.495000", "110741.885000", "110739.300000", "110741.090000", "110739.500000", "110741.290000", "110739.697500", "110741.487500", "110739.897500", "110741.687500", "110740.295000", "110742.085000", "110740.492500", "110742.282500", "110740.692500", "110742.482500", "110740.890000", "110742.680000", "110740.095000", "110741.885000", "110739.300000", "110741.090000", "110739.500000", "110741.290000", "110739.697500", "110741.487500", "110739.897500", "110741.687500", "110740.295000", "110742.085000", "110740.492500", "110742.282500", "110740.692500", "110742.482500", "110740.890000", "110742.680000", "110740.095000", "110741.885000", "110739.300000", "110741.090000", "110739.500000", "110741.290000", "110739.697500", "110741.487500", "110739.897500", "110741.687500", "110740.295000", "110742.085000", "110740.492500", "110742.282500", "110740.692500", "110742.482500", "110740.890000", "110742.680000", "110740.095000", "110741.885000", "110739.300000", "110741.090000", "110739.500000", "110741.290000", "110739.697500", "110741.487500", "110739.897500", "110741.687500", "110740.295000", "110742.085000", "110740.492500", "110742.282500", "110740.692500", "110742.482500", "110740.890000", "110742.680000", "110740.095000", "110745.485000", "110742.900000", "110744.690000", "110743.100000", "110744.890000", "110743.297500", "110745.087500", "110743.497500", "110745.287500", "110743.895000", "110745.685000", "110744.092500", "110745.882500", "110744.292500", "110746.082500", "110744.490000", "110746.280000", "110743.695000", "110745.485000", "110742.900000", "110744.690000", "110743.100000", "110744.890000", "110743.297500", "110745.087500", "110743.497500", "110745.287500", "110743.895000", "110745.685000", "110744.092500", "110745.882500", "110744.292500", "110746.082500", "110744.490000", "110746.280000", "110743.695000", "110745.485000", "110742.900000", "110744.690000", "110743.100000", "110744.890000", "110743.297500", "110745.087500", "110743.497500", "110745.287500", "110743.895000", "110745.685000", "110744.092500", "110745.882500", "110744.292500", "110746.082500", "110744.490000", "110746.280000", "110743.695000", "110745.485000", "110742.900000", "110744.690000", "110743.100000", "110744.890000", "110743.297500", "110745.087500", "110743.497500", "110745.287500", "110743.895000", "110745.685000", "110744.092500", "110745.882500", "110744.292500", "110746.082500", "110744.490000", "110746.280000", "110743.695000", "110749.085000", "110746.500000", "110748.290000", "110746.700000", "110748.490000", "110746.897500", "110748.687500", "110747.097500", "110748.887500", "110747.495000", "110749.285000", "110747.692500", "110749.482500", "110747.892500", "110749.682500", "110748.090000", "110749.880000", "110747.295000", "110749.085000", "110746.500000", "110748.290000", "110746.700000", "110748.490000", "110746.897500", "110748.687500", "110747.097500", "110748.887500", "110747.495000", "110749.285000", "110747.692500", "110749.482500", "110747.892500", "110749.682500", "110748.090000", "110749.880000", "110747.295000", "110749.085000", "110746.500000", "110748.290000", "110746.700000", "110748.490000", "110746.897500", "110748.687500", "110747.097500", "110748.887500", "110747.495000", "110749.285000", "110747.692500", "110749.482500", "110747.892500", "110749.682500", "110748.090000", "110749.880000", "110747.295000", "110749.085000", "110746.500000", "110748.290000", "110746.700000", "110748.490000", "110746.897500", "110748.687500", "110747.097500", "110748.887500", "110747.495000", "110749.285000", "110747.692500", "110749.482500", "110747.892500", "110749.682500", "110748.090000", "110749.880000", "110747.295000", "110752.685000", "110750.100000", "110751.890000", "110750.300000", "110752.090000", "110750.497500", "110752.287500", "110750.697500", "110752.487500", "110751.095000", "110752.885000", "110751.292500", "110753.082500", "110751.492500", "110753.282500", "110751.690000", "110753.480000", "110750.895000", "110752.685000", "110750.100000", "110751.890000", "110750.300000", "110752.090000", "110750.497500", "110752.287500", "110750.697500", "110752.487500", "110751.095000", "110752.885000", "110751.292500", "110753.082500", "110751.492500", "110753.282500", "110751.690000", "110753.480000", "110750.895000", "110752.685000", "110750.100000", "110751.890000", "110750.300000", "110752.090000", "110750.497500", "110752.287500", "110750.697500", "110752.487500", "110751.095000", "110752.885000", "110751.292500", "110753.082500", "110751.492500", "110753.282500", "110751.690000", "110753.480000", "110750.895000", "110752.685000", "110750.100000", "110751.890000", "110750.300000", "110752.090000", "110750.497500", "110752.287500", "110750.697500", "110752.487500", "110751.095000", "110752.885000", "110751.292500", "110753.082500", "110751.492500", "110753.282500", "110751.690000", "110753.480000", "110750.895000", "110756.285000", "110753.700000", "110755.490000", "110753.900000", "110755.690000", "110754.097500", "110755.887500", "110754.297500", "110756.087500", "110754.695000", "110756.485000", "110754.892500", "110756.682500", "110755.092500", "110756.882500", "110755.290000", "110757.080000", "110754.495000", "110756.285000", "110753.700000", "110755.490000", "110753.900000", "110755.690000", "110754.097500", "110755.887500", "110754.297500", "110756.087500", "110754.695000", "110756.485000", "110754.892500", "110756.682500", "110755.092500", "110756.882500", "110755.290000", "110757.080000", "110754.495000", "110756.285000", "110753.700000", "110755.490000", "110753.900000", "110755.690000", "110754.097500", "110755.887500", "110754.297500", "110756.087500", "110754.695000", "110756.485000", "110754.892500", "110756.682500", "110755.092500", "110756.882500", "110755.290000", "110757.080000", "110754.495000", "110756.285000", "110753.700000", "110755.490000", "110753.900000", "110755.690000", "110754.097500", "110755.887500", "110754.297500", "110756.087500", "110754.695000", "110756.485000", "110754.892500", "110756.682500", "110755.092500", "110756.882500", "110755.290000", "110757.080000", "110754.495000", "110759.885000", "110757.300000", "110759.090000", "110757.500000", "110759.290000", "110757.697500", "110759.487500", "110757.897500", "110759.687500", "110758.295000", "110800.085000", "110758.492500", "110800.282500", "110758.692500", "110800.482500", "110758.890000", "110800.680000", "110758.095000", "110759.885000", "110757.300000", "110759.090000", "110757.500000", "110759.290000", "110757.697500", "110759.487500", "110757.897500", "110759.687500", "110758.295000", "110800.085000", "110758.492500", "110800.282500", "110758.692500", "110800.482500", "110758.890000", "110800.680000", "110758.095000", "110759.885000", "110757.300000", "110759.090000", "110757.500000", "110759.290000", "110757.697500", "110759.487500", "110757.897500", "110759.687500", "110758.295000", "110800.085000", "110758.492500", "110800.282500", "110758.692500", "110800.482500", "110758.890000", "110800.680000", "110758.095000", "110759.885000", "110757.300000", "110759.090000", "110757.500000", "110759.290000", "110757.697500", "110759.487500", "110757.897500", "110759.687500", "110758.295000", "110800.085000", "110758.492500", "110800.282500", "110758.692500", "110800.482500", "110758.890000", "110800.680000", "110758.095000", "110803.485000", "110800.900000"