{
  "AcquisitionMatrixPE": 122,
  "AcquisitionNumber": 1,
  "AcquisitionTime": "10:29:44.485000",
  "BandwidthPerPixelPhaseEncode": 27.785,
  "BaseResolution": 122,
  "BodyPartExamined": "BRAIN",
  "CoilCombinationMethod": "Adaptive Combine",
  "ConsistencyInfo": "N4_VE11C_LATEST_20160120",
  "ConversionSoftware": "dcm2niix",
  "ConversionSoftwareVersion": "v1.0.20220720",
  "DerivedVendorReportedEchoSpacing": 0.000590011,
  "DeviceSerialNumber": "66112",
  "DiffusionScheme": "Monopolar",
  "DwellTime": 2e-06,
  "EchoTime": 0.068,
  "EchoTrainLength": 61,
  "EffectiveEchoSpacing": 0.000295005,
  "FlipAngle": 90,
  "HeudiconvVersion": "0.13.1",
  "ImageOrientationPatientDICOM": [0.993299, -0.115395, 0.00644471, 0.107907, 0.945926, 0.30591],
  "ImageOrientationText": "Tra>Cor(17.7)>Sag(2.4)",
  "ImageType": [
    "ORIGINAL",
    "PRIMARY",
    "DIFFUSION",
    "NONE",
    "ND",
    "NORM"
],
  "ImagingFrequency": 123.253,
  "InPlanePhaseEncodingDirectionDICOM": "COL",
  "InstitutionAddress": "Maynard 3,Hanover,NH,US,03755",
  "InstitutionName": "Dartmouth College - PBS",
  "InstitutionalDepartmentName": "Department",
  "MRAcquisitionType": "2D",
  "MagneticFieldStrength": 3,
  "Manufacturer": "Siemens",
  "ManufacturersModelName": "Prisma",
  "Modality": "MR",
  "MultibandAccelerationFactor": 4,
  "NonlinearGradientCorrection": false,
  "ParallelReductionFactorInPlane": 2,
  "PartialFourier": 1,
  "PatientPosition": "HFS",
  "PercentPhaseFOV": 100,
  "PercentSampling": 100,
  "PhaseEncodingDirection": "j-",
  "PhaseEncodingSteps": 122,
  "PhaseResolution": 1,
  "PixelBandwidth": 2050,
  "ProcedureStepDescription": "dbic^QA",
  "ProtocolName": "dwi_acq-DTI-30-p2-s4",
  "PulseSequenceDetails": "%SiemensSeq%\\ep2d_diff",
  "ReceiveCoilActiveElements": "HEA;HEP",
  "ReceiveCoilName": "Head_32",
  "ReconMatrixPE": 122,
  "RefLinesPE": 38,
  "RepetitionTime": 3.6,
  "SAR": 0.1395,
  "ScanOptions": "FS",
  "ScanningSequence": "EP",
  "SequenceName": "*ep_b0",
  "SequenceVariant": "SK\\SP",
  "SeriesDescription": "dwi_acq-DTI-30-p2-s4",
  "SeriesNumber": 13,
  "ShimSetting": [4148, -7687, -7515, 322, -75, -180, -53, 71],
  "SliceThickness": 2,
  "SliceTiming": [2.58594, 0, 1.78906, 0.19531, 1.99219, 0.39844, 2.1875, 0.59375, 2.38281, 1, 2.78906, 1.19531, 2.98438, 1.39062, 3.1875, 1.59375, 3.38281, 0.79688, 2.58594, 0, 1.78906, 0.19531, 1.99219, 0.39844, 2.1875, 0.59375, 2.38281, 1, 2.78906, 1.19531, 2.98438, 1.39062, 3.1875, 1.59375, 3.38281, 0.79688, 2.58594, 0, 1.78906, 0.19531, 1.99219, 0.39844, 2.1875, 0.59375, 2.38281, 1, 2.78906, 1.19531, 2.98438, 1.39062, 3.1875, 1.59375, 3.38281, 0.79688, 2.58594, 0, 1.78906, 0.19531, 1.99219, 0.39844, 2.1875, 0.59375, 2.38281, 1, 2.78906, 1.19531, 2.98438, 1.39062, 3.1875, 1.59375, 3.38281, 0.79688],
  "SoftwareVersions": "syngo MR E11",
  "SpacingBetweenSlices": 2,
  "SpoilingState": true,
  "StationName": "AWP66112",
  "TotalReadoutTime": 0.0356956,
  "TxRefAmp": 233.584,
  "dcmmeta_affine": [
    [-1.9540303945541382, 0.21227554976940155, 0.0827932357788086, 103.45648956298828],
    [0.22700662910938263, 1.860837459564209, 0.6063289642333984, -151.3147430419922],
    [0.012678117491304874, -0.6017894148826599, 1.9040756225585938, -45.72732925415039],
    [0.0, 0.0, 0.0, 1.0]
],
  "dcmmeta_reorient_transform": [
    [0.0, -1.0, 0.0, 121.0],
    [1.0, 0.0, 0.0, 0.0],
    [0.0, 0.0, -1.0, 71.0],
    [0.0, 0.0, 0.0, 1.0]
],
  "dcmmeta_shape": [122, 122, 72, 31],
  "dcmmeta_slice_dim": 2,
  "dcmmeta_version": 0.6,
  "global": {
    "const": {
      "AccessionNumber": "qa",
      "AcquisitionMatrix": [122, 0, 0, 122],
      "AngioFlag": "N",
      "BitsAllocated": 16,
      "BitsStored": 12,
      "BodyPartExamined": "BRAIN",
      "Columns": 122,
      "EchoNumbers": 1,
      "EchoTime": 68.0,
      "EchoTrainLength": 61,
      "FlipAngle": 90.0,
      "HighBit": 11,
      "ImageOrientationPatient": [0.99329877302817, -0.1153950311624, 0.0064447097507, 0.10790673543032, 0.94592570813963, 0.30590961267884],
      "ImageType": [
        "ORIGINAL",
        "PRIMARY",
        "DIFFUSION",
        "NONE",
        "ND",
        "NORM"
],
      "ImagedNucleus": "1H",
      "ImagingFrequency": 123.252515,
      "InPlanePhaseEncodingDirection": "COL",
      "MRAcquisitionType": "2D",
      "MagneticFieldStrength": 3.0,
      "Manufacturer": "SIEMENS",
      "ManufacturerModelName": "Prisma",
      "Modality": "MR",
      "NumberOfAverages": 1.0,
      "NumberOfPhaseEncodingSteps": 122,
      "PercentPhaseFieldOfView": 100.0,
      "PercentSampling": 100.0,
      "PerformedProcedureStepStartTime": "095549.241000",
      "PhotometricInterpretation": "MONOCHROME2",
      "PixelBandwidth": 2050.0,
      "PixelRepresentation": 0,
      "PixelSpacing": [1.9672131538391, 1.9672131538391],
      "ProtocolName": "dwi_acq-DTI-30-p2-s4",
      "RepetitionTime": 3600.0,
      "Rows": 122,
      "SAR": 0.13949973151152,
      "SamplesPerPixel": 1,
      "ScanOptions": "FS",
      "ScanningSequence": "EP",
      "SequenceVariant": [
        "SK",
        "SP"
],
      "SeriesDescription": "dwi_acq-DTI-30-p2-s4",
      "SeriesNumber": 13,
      "SeriesTime": "102953.528000",
      "SliceThickness": 2.0,
      "SmallestImagePixelValue": 0,
      "SoftwareVersions": "syngo MR E11",
      "SpacingBetweenSlices": 2.0,
      "SpecificCharacterSet": "ISO_IR 100",
      "StudyID": "26",
      "StudyTime": "095549.190000",
      "TransmitCoilName": "Body",
      "VariableFlipAngleFlag": "N",
      "WindowCenterWidthExplanation": "Algo1",
      "dBdt": 0.0},
    "slices": {
      "AcquisitionTime": ["102944.485000", "102941.900000", "102943.690000", "102942.097500", "102943.887500", "102942.297500", "102944.087500", "102942.495000", "102944.285000", "102942.895000", "102944.685000", "102943.092500", "102944.882500", "102943.292500", "102945.082500", "102943.490000", "102945.280000", "102942.695000", "102944.485000", "102941.900000", "102943.690000", "102942.097500", "102943.887500", "102942.297500", "102944.087500", "102942.495000", "102944.285000", "102942.895000", "102944.685000", "102943.092500", "102944.882500", "102943.292500", "102945.082500", "102943.490000", "102945.280000", "102942.695000", "102944.485000", "102941.900000", "102943.690000", "102942.097500", "102943.887500", "102942.297500", "102944.087500", "102942.495000", "102944.285000", "102942.895000", "102944.685000", "102943.092500", "102944.882500", "102943.292500", "102945.082500", "102943.490000", "102945.280000", "102942.695000", "102944.485000", "102941.900000", "102943.690000", "102942.097500", "102943.887500", "102942.297500", "102944.087500", "102942.495000", "102944.285000", "102942.895000", "102944.685000", "102943.092500", "102944.882500", "102943.292500", "102945.082500", "102943.490000", "102945.280000", "102942.695000", "102948.085000", "102945.500000", "102947.290000", "102945.697500", "102947.487500", "102945.897500", "102947.687500", "102946.095000", "102947.885000", "102946.495000", "102948.285000", "102946.692500", "102948.482500", "102946.892500", "102948.682500", "102947.090000", "102948.880000", "102946.295000", "102948.085000", "102945.500000", "102947.290000", "102945.697500", "102947.487500", "102945.897500", "102947.687500", "102946.095000", "102947.885000", "102946.495000", "102948.285000", "102946.692500", "102948.482500", "102946.892500", "102948.682500", "102947.090000", "102948.880000", "102946.295000", "102948.085000", "102945.500000", "102947.290000", "102945.697500", "102947.487500", "102945.897500", "102947.687500", "102946.095000", "102947.885000", "102946.495000", "102948.285000", "102946.692500", "102948.482500", "102946.892500", "102948.682500", "102947.090000", "102948.880000", "102946.295000", "102948.085000", "102945.500000", "102947.290000", "102945.697500", "102947.487500", "102945.897500", "102947.687500", "102946.095000", "102947.885000", "102946.495000", "102948.285000", "102946.692500", "102948.482500", "102946.892500", "102948.682500", "102947.090000", "102948.880000", "102946.295000", "102951.685000", "102949.100000", "102950.890000", "102949.297500", "102951.087500", "102949.497500", "102951.287500", "102949.695000", "102951.485000", "102950.095000", "102951.885000", "102950.292500", "102952.082500", "102950.492500", "102952.282500", "102950.690000", "102952.480000", "102949.895000", "102951.685000", "102949.100000", "102950.890000", "102949.297500", "102951.087500", "102949.497500", "102951.287500", "102949.695000", "102951.485000", "102950.095000", "102951.885000", "102950.292500", "102952.082500", "102950.492500", "102952.282500", "102950.690000", "102952.480000", "102949.895000", "102951.685000", "102949.100000", "102950.890000", "102949.297500", "102951.087500", "102949.497500", "102951.287500", "102949.695000", "102951.485000", "102950.095000", "102951.885000", "102950.292500", "102952.082500", "102950.492500", "102952.282500", "102950.690000", "102952.480000", "102949.895000", "102951.685000", "102949.100000", "102950.890000", "102949.297500", "102951.087500", "102949.497500", "102951.287500", "102949.695000", "102951.485000", "102950.095000", "102951.885000", "102950.292500", "102952.082500", "102950.492500", "102952.282500", "102950.690000", "102952.480000", "102949.895000", "102955.285000", "102952.700000", "102954.490000", "102952.897500", "102954.687500", "102953.097500", "102954.887500", "102953.295000", "102955.085000", "102953.695000", "102955.485000", "102953.892500", "102955.682500", "102954.092500", "102955.882500", "102954.290000", "102956.080000", "102953.495000", "102955.285000", "102952.700000", "102954.490000", "102952.897500", "102954.687500", "102953.097500", "102954.887500", "102953.295000", "102955.085000", "102953.695000", "102955.485000", "102953.892500", "102955.682500", "102954.092500", "102955.882500", "102954.290000", "102956.080000", "102953.495000", "102955.285000", "102952.700000", "102954.490000", "102952.897500", "102954.687500", "102953.097500", "102954.887500", "102953.295000", "102955.085000", "102953.695000", "102955.485000", "102953.892500", "102955.682500", "102954.092500", "102955.882500", "102954.290000", "102956.080000", "102953.495000", "102955.285000", "102952.700000", "102954.490000", "102952.897500", "102954.687500", "102953.097500", "102954.887500", "102953.295000", "102955.085000", "102953.695000", "102955.485000", "102953.892500", "102955.682500", "102954.092500", "102955.882500", "102954.290000", "102956.080000", "102953.495000", "102958.885000", "102956.300000", "102958.090000", "102956.497500", "102958.287500", "102956.697500", "102958.487500", "102956.895000", "102958.685000", "102957.295000", "102959.085000", "102957.492500", "102959.282500", "102957.692500", "102959.482500", "102957.890000", "102959.680000", "102957.095000", "102958.885000", "102956.300000", "102958.090000", "102956.497500", "102958.287500", "102956.697500", "102958.487500", "102956.895000", "102958.685000", "102957.295000", "102959.085000", "102957.492500", "102959.282500", "102957.692500", "102959.482500", "102957.890000", "102959.680000", "102957.095000", "102958.885000", "102956.300000", "102958.090000", "102956.497500", "102958.287500", "102956.697500", "102958.487500", "102956.895000", "102958.685000", "102957.295000", "102959.085000", "102957.492500", "102959.282500", "102957.692500", "102959.482500", "102957.890000", "102959.680000", "102957.095000", "102958.885000", "102956.300000", "102958.090000", "102956.497500", "102958.287500", "102956.697500", "102958.487500", "102956.895000", "102958.685000", "102957.295000", "102959.085000", "102957.492500", "102959.282500", "102957.692500", "102959.482500", "102957.890000", "102959.680000", "102957.095000", "103002.485000", "102959.900000", "103001.690000", "103000.097500", "103001.887500", "103000.297500", "103002.087500", "103000.495000", "103002.285000", "103000.895000", "103002.685000", "103001.092500", "103002.882500", "103001.292500", "103003.082500", "103001.490000", "103003.280000", "103000.695000", "103002.485000", "102959.900000", "103001.690000", "103000.097500", "103001.887500", "103000.297500", "103002.087500", "103000.495000", "103002.285000", "103000.895000", "103002.685000", "103001.092500", "103002.882500", "103001.292500", "103003.082500", "103001.490000", "103003.280000", "103000.695000", "103002.485000", "102959.900000", "103001.690000", "103000.097500", "103001.887500", "103000.297500", "103002.087500", "103000.495000", "103002.285000", "103000.895000", "103002.685000", "103001.092500", "103002.882500", "103001.292500", "103003.082500", "103001.490000", "103003.280000", "103000.695000", "103002.485000", "102959.900000", "103001.690000", "103000.097500", "103001.887500", "103000.297500", "103002.087500", "103000.495000", "103002.285000", "103000.895000", "103002.685000", "103001.092500", "103002.882500", "103001.292500", "103003.082500", "103001.490000", "103003.280000", "103000.695000", "103006.085000", "103003.500000", "103005.290000", "103003.697500", "103005.487500", "103003.897500", "103005.687500", "103004.095000", "103005.885000", "103004.495000", "103006.285000", "103004.692500", "103006.482500", "103004.892500", "103006.682500", "103005.090000", "103006.880000", "103004.295000", "103006.085000", "103003.500000", "103005.290000", "103003.697500", "103005.487500", "103003.897500", "103005.687500", "103004.095000", "103005.885000", "103004.495000", "103006.285000", "103004.692500", "103006.482500", "103004.892500", "103006.682500", "103005.090000", "103006.880000", "103004.295000", "103006.085000", "103003.500000", "103005.290000", "103003.697500", "103005.487500", "103003.897500", "103005.687500", "103004.095000", "103005.885000", "103004.495000", "103006.285000", "103004.692500", "103006.482500", "103004.892500", "103006.682500", "103005.090000", "103006.880000", "103004.295000", "103006.085000", "103003.500000", "103005.290000", "103003.697500", "103005.487500", "103003.897500", "103005.687500", "103004.095000", "103005.885000", "103004.495000", "103006.285000", "103004.692500", "103006.482500", "103004.892500", "103006.682500", "103005.090000", "103006.880000", "103004.295000", "103009.685000", "103007.100000", "103008.890000", "103007.297500", "103009.087500", "103007.497500", "103009.287500", "103007.695000", "103009.485000", "103008.095000", "103009.885000", "103008.292500", "103010.082500", "103008.492500", "103010.282500", "103008.690000", "103010.480000", "103007.895000", "103009.685000", "103007.100000", "103008.890000", "103007.297500", "103009.087500", "103007.497500", "103009.287500", "103007.695000", "103009.485000", "103008.095000", "103009.885000", "103008.292500", "103010.082500", "103008.492500", "103010.282500", "103008.690000", "103010.480000", "103007.895000", "103009.685000", "103007.100000", "103008.890000", "103007.297500", "103009.087500", "103007.497500", "103009.287500", "103007.695000", "103009.485000", "103008.095000", "103009.885000", "103008.292500", "103010.082500", "103008.492500", "103010.282500", "103008.690000", "103010.480000", "103007.895000", "103009.685000", "103007.100000", "103008.890000", "103007.297500", "103009.087500", "103007.497500", "103009.287500", "103007.695000", "103009.485000", "103008.095000", "103009.885000", "103008.292500", "103010.082500", "103008.492500", "103010.282500", "103008.690000", "103010.480000", "103007.895000", "103013.285000", "103010.700000", "103012.490000", "103010.897500", "103012.687500", "103011.097500", "103012.887500", "103011.295000", "103013.085000", "103011.695000", "103013.485000", "103011.892500", "103013.682500", "103012.092500", "103013.882500", "103012.290000", "103014.080000", "103011.495000", "103013.285000", "103010.700000", "103012.490000", "103010.897500", "103012.687500", "103011.097500", "103012.887500", "103011.295000", "103013.085000", "103011.695000", "103013.485000", "103011.892500", "103013.682500", "103012.092500", "103013.882500", "103012.290000", "103014.080000", "103011.495000", "103013.285000", "103010.700000", "103012.490000", "103010.897500", "103012.687500", "103011.097500", "103012.887500", "103011.295000", "103013.085000", "103011.695000", "103013.485000", "103011.892500", "103013.682500", "103012.092500", "103013.882500", "103012.290000", "103014.080000", "103011.495000", "103013.285000", "103010.700000", "103012.490000", "103010.897500", "103012.687500", "103011.097500", "103012.887500", "103011.295000", "103013.085000", "103011.695000", "103013.485000", "103011.892500", "103013.682500", "103012.092500", "103013.882500", "103012.290000", "103014.080000", "103011.495000", "103016.885000", "103014.300000", "103016.090000", "103014.497500", "103016.287500", "103014.697500", "103016.487500", "103014.895000", "103016.685000", "103015.295000", "103017.085000", "103015.492500", "103017.282500", "103015.692500", "103017.482500", "103015.890000", "103017.680000", "103015.095000", "103016.885000", "103014.300000", "103016.090000", "103014.497500", "103016.287500", "103014.697500", "103016.487500", "103014.895000", "103016.685000", "103015.295000", "103017.085000", "103015.492500", "103017.282500", "103015.692500", "103017.482500", "103015.890000", "103017.680000", "103015.095000", "103016.885000", "103014.300000", "103016.090000", "103014.497500", "103016.287500", "103014.697500", "103016.487500", "103014.895000", "103016.685000", "103015.295000", "103017.085000", "103015.492500", "103017.282500", "103015.692500", "103017.482500", "103015.890000", "103017.680000", "103015.095000", "103016.885000", "103014.300000", "103016.090000", "103014.497500", "103016.287500", "103014.697500", "103016.487500", "103014.895000", "103016.685000", "103015.295000", "103017.085000", "103015.492500", "103017.282500", "103015.692500", "103017.482500", "103015.890000", "103017.680000", "103015.095000", "103020.485000", "103017.900000", "103019.690000", "103018.097500", "103019.887500", "103018.297500", "103020.087500", "103018.495000", "103020.285000", "103018.895000", "103020.685000", "103019.092500", "103020.882500", "103019.292500", "103021.082500", "103019.490000", "103021.280000", "103018.695000", "103020.485000", "103017.900000", "103019.690000", "103018.097500", "103019.887500", "103018.297500", "103020.087500", "103018.495000", "103020.285000", "103018.895000", "103020.685000", "103019.092500", "103020.882500", "103019.292500", "103021.082500", "103019.490000", "103021.280000", "103018.695000", "103020.485000", "103017.900000", "103019.690000", "103018.097500", "103019.887500", "103018.297500", "103020.087500", "103018.495000", "103020.285000", "103018.895000", "103020.685000", "103019.092500", "103020.882500", "103019.292500", "103021.082500", "103019.490000", "103021.280000", "103018.695000", "103020.485000", "103017.900000", "103019.690000", "103018.097500", "103019.887500", "103018.297500", "103020.087500", "103018.495000", "103020.285000", "103018.895000", "103020.685000", "103019.092500", "103020.882500", "103019.292500", "103021.082500", "103019.490000", "103021.280000", "103018.695000", "103024.085000", "103021.500000", "103023.290000", "103021.697500", "103023.487500", "103021.897500", "103023.687500", "103022.095000", "103023.885000", "103022.495000", "103024.285000", "103022.692500", "103024.482500", "103022.892500", "103024.682500", "103023.090000", "103024.880000", "103022.295000", "103024.085000", "103021.500000", "103023.290000", "103021.697500", "103023.487500", "103021.897500", "103023.687500", "103022.095000", "103023.885000", "103022.495000", "103024.285000", "103022.692500", "103024.482500", "103022.892500", "103024.682500", "103023.090000", "103024.880000", "103022.295000", "103024.085000", "103021.500000", "103023.290000", "103021.697500", "103023.487500", "103021.897500", "103023.687500", "103022.095000", "103023.885000", "103022.495000", "103024.285000", "103022.692500", "103024.482500", "103022.892500", "103024.682500", "103023.090000", "103024.880000", "103022.295000", "103024.085000", "103021.500000", "103023.290000", "103021.697500", "103023.487500", "103021.897500", "103023.687500", "103022.095000", "103023.885000", "103022.495000", "103024.285000", "103022.692500", "103024.482500", "103022.892500", "103024.682500", "103023.090000", "103024.880000", "103022.295000", "103027.685000", "103025.100000", "103026.890000", "103025.297500", "103027.087500", "103025.497500", "103027.287500", "103025.695000", "103027.485000", "103026.095000", "103027.885000", "103026.292500", "103028.082500", "103026.492500", "103028.282500", "103026.690000", "103028.480000", "103025.895000", "103027.685000", "103025.100000", "103026.890000", "103025.297500", "103027.087500", "103025.497500", "103027.287500", "103025.695000", "103027.485000", "103026.095000", "103027.885000", "103026.292500", "103028.082500", "103026.492500", "103028.282500", "103026.690000", "103028.480000", "103025.895000", "103027.685000", "103025.100000", "103026.890000", "103025.297500", "103027.087500", "103025.497500", "103027.287500", "103025.695000", "103027.485000", "103026.095000", "103027.885000", "103026.292500", "103028.082500", "103026.492500", "103028.282500", "103026.690000", "103028.480000", "103025.895000", "103027.685000", "103025.100000", "103026.890000", "103025.297500", "103027.087500", "103025.497500", "103027.287500", "103025.695000", "103027.485000", "103026.095000", "103027.885000", "103026.292500", "103028.082500", "103026.492500", "103028.282500", "103026.690000", "103028.480000", "103025.895000", "103031.285000", "103028.700000", "103030.490000", "103028.897500", "103030.687500", "103029.097500", "103030.887500", "103029.295000", "103031.085000", "103029.695000", "103031.485000", "103029.892500", "103031.682500", "103030.092500", "103031.882500", "103030.290000", "103032.080000", "103029.495000", "103031.285000", "103028.700000", "103030.490000", "103028.897500", "103030.687500", "103029.097500", "103030.887500", "103029.295000", "103031.085000", "103029.695000", "103031.485000", "103029.892500", "103031.682500", "103030.092500", "103031.882500", "103030.290000", "103032.080000", "103029.495000", "103031.285000", "103028.700000", "103030.490000", "103028.897500", "103030.687500", "103029.097500", "103030.887500", "103029.295000", "103031.085000", "103029.695000", "103031.485000", "103029.892500", "103031.682500", "103030.092500", "103031.882500", "103030.290000", "103032.080000", "103029.495000", "103031.285000", "103028.700000", "103030.490000", "103028.897500", "103030.687500", "103029.097500", "103030.887500", "103029.295000", "103031.085000", "103029.695000", "103031.485000", "103029.892500", "103031.682500", "103030.092500", "103031.882500", "103030.290000", "103032.080000", "103029.495000", "103034.885000", "103032.300000", "103034.090000", "103032.497500", "103034.287500", "103032.697500", "103034.487500", "103032.895000", "103034.685000", "103033.295000", "103035.085000", "103033.492500", "103035.282500", "103033.692500", "103035.482500", "103033.890000", "103035.680000", "103033.095000", "103034.885000", "103032.300000", "103034.090000", "103032.497500", "103034.287500", "103032.697500", "103034.487500", "103032.895000", "103034.685000", "103033.295000", "103035.085000", "103033.492500", "103035.282500", "103033.692500", "103035.482500", "103033.890000", "103035.680000", "103033.095000", "103034.885000", "103032.300000", "103034.090000", "103032.497500", "103034.287500", "103032.697500", "103034.487500", "103032.895000", "103034.685000", "103033.295000", "103035.085000", "103033.492500", "103035.282500", "103033.692500", "103035.482500", "103033.890000", "103035.680000", "103033.095000", "103034.885000", "103032.300000", "103034.090000", "103032.497500", "103034.287500", "103032.697500", "103034.487500", "103032.895000", "103034.685000", "103033.295000", "103035.085000", "103033.492500", "103035.282500", "103033.692500", "103035.482500", "103033.890000", "103035.680000", "103033.095000", "103038.485000", "103035.900000", "103037.690000", "103036.097500", "103037.887500", "103036.297500", "103038.087500", "103036.495000", "103038.285000", "103036.895000", "103038.685000", "103037.092500", "103038.882500", "103037.292500", "103039.082500", "103037.490000", "103039.280000", "103036.695000", "103038.485000", "103035.900000", "103037.690000", "103036.097500", "103037.887500", "103036.297500", "103038.087500", "103036.495000", "103038.285000", "103036.895000", "103038.685000", "103037.092500", "103038.882500", "103037.292500", "103039.082500", "103037.490000", "103039.280000", "103036.695000", "103038.485000", "103035.900000", "103037.690000", "103036.097500", "103037.887500", "103036.297500", "103038.087500", "103036.495000", "103038.285000", "103036.895000", "103038.685000", "103037.092500", "103038.882500", "103037.292500", "103039.082500", "103037.490000", "103039.280000", "103036.695000", "103038.485000", "103035.900000", "103037.690000", "103036.097500", "103037.887500", "103036.297500", "103038.087500", "103036.495000", "103038.285000", "103036.895000", "103038.685000", "103037.092500", "103038.882500", "103037.292500", "103039.082500", "103037.490000", "103039.280000", "103036.695000", "103042.085000", "103039.500000", "103041.290000", "103039.697500", "103041.487500", "103039.897500", "103041.687500", "103040.095000", "103041.885000", "103040.495000", "103042.285000", "103040.692500", "103042.482500", "103040.892500", "103042.682500", "103041.090000", "103042.880000", "103040.295000", "103042.085000", "103039.500000", "103041.290000", "103039.697500", "103041.487500", "103039.897500", "103041.687500", "103040.095000", "103041.885000", "103040.495000", "103042.285000", "103040.692500", "103042.482500", "103040.892500", "103042.682500", "103041.090000", "103042.880000", "103040.295000", "103042.085000", "103039.500000", "103041.290000", "103039.697500", "103041.487500", "103039.897500", "103041.687500", "103040.095000", "103041.885000", "103040.495000", "103042.285000", "103040.692500", "103042.482500", "103040.892500", "103042.682500", "103041.090000", "103042.880000", "103040.295000", "103042.085000", "103039.500000", "103041.290000", "103039.697500", "103041.487500", "103039.897500", "103041.687500", "103040.095000", "103041.885000", "103040.495000", "103042.285000", "103040.692500", "103042.482500", "103040.892500", "103042.682500", "103041.090000", "103042.880000", "103040.295000", "103045.685000", "103043.100000", "103044.890000", "103043.297500", "103045.087500", "103043.497500", "103045.287500", "103043.695000", "103045.485000", "103044.095000", "103045.885000", "103044.292500", "103046.082500", "103044.492500", "103046.282500", "103044.690000", "103046.480000", "103043.895000", "103045.685000", "103043.100000", "103044.890000", "103043.297500", "103045.087500", "103043.497500", "103045.287500", "103043.695000", "103045.485000", "103044.095000", "103045.885000", "103044.292500", "103046.082500", "103044.492500", "103046.282500", "103044.690000", "103046.480000", "103043.895000", "103045.685000", "103043.100000", "103044.890000", "103043.297500", "103045.087500", "103043.497500", "103045.287500", "103043.695000", "103045.485000", "103044.095000", "103045.885000", "103044.292500", "103046.082500", "103044.492500", "103046.282500", "103044.690000", "103046.480000", "103043.895000", "103045.685000", "103043.100000", "103044.890000", "103043.297500", "103045.087500", "103043.497500", "103045.287500", "103043.695000", "103045.485000", "103044.095000", "103045.885000", "103044.292500", "103046.082500", "103044.492500", "103046.282500", "103044.690000", "103046.480000", "103043.895000", "103049.285000", "103046.700000", "103048.490000", "103046.897500", "103048.687500", "103047.097500", "103048.887500", "103047.295000", "103049.085000", "103047.695000", "103049.485000", "103047.892500", "103049.682500", "103048.092500", "103049.882500", "103048.290000", "103050.080000", "103047.495000", "103049.285000", "103046.700000", "103048.490000", "103046.897500", "103048.687500", "103047.097500", "103048.887500", "103047.295000", "103049.085000", "103047.695000", "103049.485000", "103047.892500", "103049.682500", "103048.092500", "103049.882500", "103048.290000", "103050.080000", "103047.495000", "103049.285000", "103046.700000", "103048.490000", "103046.897500", "103048.687500", "103047.097500", "103048.887500", "103047.295000", "103049.085000", "103047.695000", "103049.485000", "103047.892500", "103049.682500", "103048.092500", "103049.882500", "103048.290000", "103050.080000", "103047.495000", "103049.285000", "103046.700000", "103048.490000", "103046.897500", "103048.687500", "103047.097500", "103048.887500", "103047.295000", "103049.085000", "103047.695000", "103049.485000", "103047.892500", "103049.682500", "103048.092500", "103049.882500", "103048.290000", "103050.080000", "103047.495000", "103052.885000", "103050.300000", "103052.090000", "103050.497500", "103052.287500", "103050.697500", "103052.487500", "103050.895000", "103052.685000", "103051.295000", "103053.085000", "103051.492500", "103053.282500", "103051.692500", "103053.482500", "103051.890000", "103053.680000", "103051.095000", "103052.885000", "103050.300000", "103052.090000", "103050.497500", "103052.287500", "103050.697500", "103052.487500", "103050.895000", "103052.685000", "103051.295000", "103053.085000", "103051.492500", "103053.282500", "103051.692500", "103053.482500", "103051.890000", "103053.680000", "103051.095000", "103052.885000", "103050.300000", "103052.090000", "103050.497500", "103052.287500", "103050.697500", "103052.487500", "103050.895000", "103052.685000", "103051.295000", "103053.085000", "103051.492500", "103053.282500", "103051.692500", "103053.482500", "103051.890000", "103053.680000", "103051.095000", "103052.885000", "103050.300000", "103052.090000", "103050.497500", "103052.287500", "103050.697500", "103052.487500", "103050.895000", "103052.685000", "103051.295000", "103053.085000", "103051.492500", "103053.282500", "