{
  "AcquisitionMatrixPE": 80,
  "AcquisitionNumber": 1,
  "AcquisitionTime": "08:53:9.145000",
  "BandwidthPerPixelPhaseEncode": 44.643,
  "BaseResolution": 80,
  "BodyPartExamined": "BRAIN",
  "CoilCombinationMethod": "Sum of Squares",
  "ConsistencyInfo": "N4_VE11C_LATEST_20160120",
  "ConversionSoftware": "dcm2niix",
  "ConversionSoftwareVersion": "v1.0.20220720",
  "DerivedVendorReportedEchoSpacing": 0.000559998,
  "DeviceSerialNumber": "66112",
  "DwellTime": 2.7e-06,
  "EchoTime": 0.035,
  "EchoTrainLength": 39,
  "EffectiveEchoSpacing": 0.000279999,
  "FlipAngle": 90,
  "HeudiconvVersion": "0.13.1",
  "ImageOrientationPatientDICOM": [0.995914, 0.0899528, 0.00802388, -0.088007, 0.946741, 0.309735],
  "ImageOrientationText": "Tra>Cor(18.0)>Sag(-1.2)",
  "ImageType": [
    "ORIGINAL",
    "PRIMARY",
    "M",
    "ND",
    "NORM",
    "MOSAIC"
],
  "ImagingFrequency": 123.252,
  "InPlanePhaseEncodingDirectionDICOM": "COL",
  "InstitutionAddress": "Maynard 3,Hanover,NH,US,03755",
  "InstitutionName": "Dartmouth College - PBS",
  "InstitutionalDepartmentName": "Department",
  "MRAcquisitionType": "2D",
  "MagneticFieldStrength": 3,
  "Manufacturer": "Siemens",
  "ManufacturersModelName": "Prisma",
  "Modality": "MR",
  "MultibandAccelerationFactor": 4,
  "NonlinearGradientCorrection": false,
  "ParallelReductionFactorInPlane": 2,
  "PartialFourier": 1,
  "PatientPosition": "HFS",
  "PercentPhaseFOV": 100,
  "PercentSampling": 100,
  "PhaseEncodingDirection": "j-",
  "PhaseEncodingSteps": 79,
  "PhaseResolution": 1,
  "PixelBandwidth": 2315,
  "ProcedureStepDescription": "dbic^QA",
  "ProtocolName": "func-bold_task-rest_acq-p2-s4-3.5mm",
  "PulseSequenceDetails": "%SiemensSeq%\\ep2d_bold",
  "ReceiveCoilActiveElements": "HEA;HEP",
  "ReceiveCoilName": "Head_32",
  "ReconMatrixPE": 80,
  "RefLinesPE": 24,
  "RepetitionTime": 2,
  "SAR": 0.0209499,
  "ScanOptions": "FS",
  "ScanningSequence": "EP",
  "SequenceName": "*epfid2d1_80",
  "SequenceVariant": "SK",
  "SeriesDescription": "func-bold_task-rest_acq-p2-s4-3.5mm",
  "SeriesNumber": 7,
  "ShimSetting": [4149, -7689, -7510, 296, -52, -136, 8, 50],
  "SliceThickness": 3.5,
  "SliceTiming": [1.485, 0, 0.99, 0.2475, 1.2375, 0.7425, 1.7325, 0.495, 1.485, 0, 0.99, 0.2475, 1.2375, 0.7425, 1.7325, 0.495, 1.485, 0, 0.99, 0.2475, 1.2375, 0.7425, 1.7325, 0.495, 1.485, 0, 0.99, 0.2475, 1.2375, 0.7425, 1.7325, 0.495],
  "SoftwareVersions": "syngo MR E11",
  "SpacingBetweenSlices": 3.99,
  "StationName": "AWP66112",
  "TaskName": "rest",
  "TotalReadoutTime": 0.0221199,
  "TxRefAmp": 235.621,
  "dcmmeta_affine": [
    [-2.987740993499756, -0.2640208899974823, -0.08085736632347107, 131.10504150390625],
    [-0.2698585093021393, 2.840223789215088, 1.2336100339889526, -105.8821792602539],
    [0.024071630090475082, -0.9292049407958984, 3.7936482429504395, -13.464221954345703],
    [0.0, 0.0, 0.0, 1.0]
],
  "dcmmeta_reorient_transform": [
    [0.0, -1.0, 0.0, 79.0],
    [1.0, 0.0, 0.0, 0.0],
    [0.0, 0.0, 1.0, 0.0],
    [0.0, 0.0, 0.0, 1.0]
],
  "dcmmeta_shape": [80, 80, 32, 200],
  "dcmmeta_slice_dim": 2,
  "dcmmeta_version": 0.6,
  "global": {
    "const": {
      "AccessionNumber": "qa",
      "AcquisitionMatrix": [80, 0, 0, 80],
      "AngioFlag": "N",
      "BitsAllocated": 16,
      "BitsStored": 12,
      "BodyPartExamined": "BRAIN",
      "Columns": 480,
      "EchoNumbers": 1,
      "EchoTime": 35.0,
      "EchoTrainLength": 39,
      "FlipAngle": 90.0,
      "HighBit": 11,
      "ImageOrientationPatient": [0.99591370325921, 0.08995283801826, 0.00802387643208, -0.0880069613255, 0.94674126471108, 0.30973497130859],
      "ImagePositionPatient": [-654.99144091849, -740.51195996641, -277.5267191892],
      "ImageType": [
        "ORIGINAL",
        "PRIMARY",
        "M",
        "ND",
        "NORM",
        "MOSAIC"
],
      "ImagedNucleus": "1H",
      "ImagingFrequency": 123.252459,
      "InPlanePhaseEncodingDirection": "COL",
      "MRAcquisitionType": "2D",
      "MagneticFieldStrength": 3.0,
      "Manufacturer": "SIEMENS",
      "ManufacturerModelName": "Prisma",
      "Modality": "MR",
      "NumberOfAverages": 1.0,
      "NumberOfPhaseEncodingSteps": 79,
      "PercentPhaseFieldOfView": 100.0,
      "PercentSampling": 100.0,
      "PerformedProcedureStepStartTime": "084146.540000",
      "PhotometricInterpretation": "MONOCHROME2",
      "PixelBandwidth": 2315.0,
      "PixelRepresentation": 0,
      "PixelSpacing": [3.0, 3.0],
      "ProtocolName": "func-bold_task-rest_acq-p2-s4-3.5mm",
      "RepetitionTime": 2000.0,
      "Rows": 480,
      "SAR": 0.0209499492837,
      "SamplesPerPixel": 1,
      "ScanOptions": "FS",
      "ScanningSequence": "EP",
      "SequenceName": "*epfid2d1_80",
      "SequenceVariant": "SK",
      "SeriesDescription": "func-bold_task-rest_acq-p2-s4-3.5mm",
      "SeriesNumber": 7,
      "SeriesTime": "085405.226000",
      "SliceLocation": -48.194651950297,
      "SliceThickness": 3.5,
      "SmallestImagePixelValue": 0,
      "SoftwareVersions": "syngo MR E11",
      "SpacingBetweenSlices": 3.9899998504185,
      "SpecificCharacterSet": "ISO_IR 100",
      "StudyID": "112",
      "StudyTime": "084146.460000",
      "TransmitCoilName": "Body",
      "VariableFlipAngleFlag": "N",
      "WindowCenter": 924.0,
      "WindowCenterWidthExplanation": "Algo1",
      "dBdt": 0.0},
    "slices": {}
  },
  "time": {
    "samples": {
      "AcquisitionNumber": [1, 2, 3, 4, 5, 6, 7, 8, 9, 10, 11, 12, 13, 14, 15, 16, 17, 18, 19, 20, 21, 22, 23, 24, 25, 26, 27, 28, 29, 30, 31, 32, 33, 34, 35, 36, 37, 38, 39, 40, 41, 42, 43, 44, 45, 46, 47, 48, 49, 50, 51, 52, 53, 54, 55, 56, 57, 58, 59, 60, 61, 62, 63, 64, 65, 66, 67, 68, 69, 70, 71, 72, 73, 74, 75, 76, 77, 78, 79, 80, 81, 82, 83, 84, 85, 86, 87, 88, 89, 90, 91, 92, 93, 94, 95, 96, 97, 98, 99, 100, 101, 102, 103, 104, 105, 106, 107, 108, 109, 110, 111, 112, 113, 114, 115, 116, 117, 118, 119, 120, 121, 122, 123, 124, 125, 126, 127, 128, 129, 130, 131, 132, 133, 134, 135, 136, 137, 138, 139, 140, 141, 142, 143, 144, 145, 146, 147, 148, 149, 150, 151, 152, 153, 154, 155, 156, 157, 158, 159, 160, 161, 162, 163, 164, 165, 166, 167, 168, 169, 170, 171, 172, 173, 174, 175, 176, 177, 178, 179, 180, 181, 182, 183, 184, 185, 186, 187, 188, 189, 190, 191, 192, 193, 194, 195, 196, 197, 198, 199, 200],
      "AcquisitionTime": ["085309.145000", "085311.145000", "085313.145000", "085315.145000", "085317.145000", "085319.145000", "085321.145000", "085323.145000", "085325.145000", "085327.145000", "085329.145000", "085331.145000", "085333.145000", "085335.145000", "085337.145000", "085339.145000", "085341.145000", "085343.145000", "085345.145000", "085347.145000", "085349.145000", "085351.145000", "085353.145000", "085355.145000", "085357.145000", "085359.145000", "085401.145000", "085403.145000", "085405.145000", "085407.145000", "085409.145000", "085411.145000", "085413.145000", "085415.145000", "085417.145000", "085419.145000", "085421.145000", "085423.145000", "085425.145000", "085427.145000", "085429.145000", "085431.145000", "085433.145000", "085435.145000", "085437.145000", "085439.145000", "085441.145000", "085443.145000", "085445.145000", "085447.145000", "085449.145000", "085451.145000", "085453.145000", "085455.145000", "085457.145000", "085459.145000", "085501.145000", "085503.145000", "085505.145000", "085507.145000", "085509.145000", "085511.145000", "085513.145000", "085515.145000", "085517.145000", "085519.145000", "085521.145000", "085523.145000", "085525.145000", "085527.145000", "085529.145000", "085531.145000", "085533.145000", "085535.145000", "085537.145000", "085539.145000", "085541.145000", "085543.145000", "085545.145000", "085547.145000", "085549.145000", "085551.145000", "085553.145000", "085555.145000", "085557.145000", "085559.145000", "085601.145000", "085603.145000", "085605.145000", "085607.145000", "085609.145000", "085611.145000", "085613.145000", "085615.145000", "085617.145000", "085619.145000", "085621.145000", "085623.145000", "085625.145000", "085627.145000", "085629.145000", "085631.145000", "085633.145000", "085635.145000", "085637.145000", "085639.145000", "085641.145000", "085643.145000", "085645.145000", "085647.145000", "085649.145000", "085651.145000", "085653.145000", "085655.145000", "085657.145000", "085659.145000", "085701.145000", "085703.145000", "085705.145000", "085707.145000", "085709.145000", "085711.145000", "085713.145000", "085715.145000", "085717.145000", "085719.145000", "085721.145000", "085723.145000", "085725.145000", "085727.145000", "085729.145000", "085731.145000", "085733.145000", "085735.145000", "085737.145000", "085739.145000", "085741.145000", "085743.145000", "085745.145000", "085747.145000", "085749.145000", "085751.145000", "085753.145000", "085755.145000", "085757.145000", "085759.145000", "085801.145000", "085803.145000", "085805.145000", "085807.145000", "085809.145000", "085811.145000", "085813.145000", "085815.145000", "085817.145000", "085819.145000", "085821.145000", "085823.145000", "085825.145000", "085827.145000", "085829.145000", "085831.145000", "085833.145000", "085835.145000", "085837.145000", "085839.145000", "085841.145000", "085843.145000", "085845.145000", "085847.145000", "085849.145000", "085851.145000", "085853.145000", "085855.145000", "085857.145000", "085859.145000", "085901.145000", "085903.145000", "085905.145000", "085907.145000", "085909.145000", "085911.145000", "085913.145000", "085915.145000", "085917.145000", "085919.145000", "085921.145000", "085923.145000", "085925.145000", "085927.145000", "085929.145000", "085931.145000", "085933.145000", "085935.145000", "085937.145000", "085939.145000", "085941.145000", "085943.145000", "085945.145000", "085947.145000"],
      "ContentTime": ["085405.229000", "085405.239000", "085405.241000", "085405.244000", "085405.247000", "085405.250000", "085405.252000", "085405.255000", "085405.257000", "085405.260000", "085405.263000", "085405.266000", "085405.268000", "085405.271000", "085405.279000", "085405.282000", "085405.284000", "085405.287000", "085405.290000", "085405.292000", "085405.295000", "085405.298000", "085405.300000", "085405.307000", "085405.310000", "085405.313000", "085405.316000", "085405.318000", "085445.226000", "085445.229000", "085445.231000", "085445.234000", "085445.247000", "085445.249000", "085445.252000", "085445.254000", "085445.257000", "085445.260000", "085445.263000", "085445.265000", "085445.268000", "085445.271000", "085445.273000", "085445.276000", "085445.279000", "085445.281000", "085445.284000", "085445.286000", "085525.225000", "085525.227000", "085525.230000", "085525.233000", "085525.236000", "085525.238000", "085525.241000", "085525.252000", "085525.255000", "085525.257000", "085525.260000", "085525.263000", "085525.265000", "085525.268000", "085525.271000", "085525.273000", "085525.276000", "085525.279000", "085525.281000", "085525.284000", "085605.225000", "085605.227000", "085605.230000", "085605.233000", "085605.236000", "085605.238000", "085605.241000", "085605.244000", "085605.246000", "085605.249000", "085605.252000", "085605.254000", "085605.257000", "085605.260000", "085605.262000", "085605.265000", "085605.268000", "085605.270000", "085605.273000", "085605.281000", "085645.226000", "085645.229000", "085645.232000", "085645.235000", "085645.238000", "085645.240000", "085645.243000", "085645.246000", "085645.248000", "085645.251000", "085645.254000", "085645.256000", "085645.259000", "085645.262000", "085645.264000", "085645.267000", "085645.270000", "085645.273000", "085645.275000", "085645.278000", "085725.224000", "085725.227000", "085725.230000", "085725.233000", "085725.236000", "085725.238000", "085725.241000", "085725.244000", "085725.246000", "085725.249000", "085725.252000", "085725.254000", "085725.257000", "085725.260000", "085725.262000", "085725.265000", "085725.268000", "085725.270000", "085725.273000", "085725.276000", "085805.225000", "085805.228000", "085805.230000", "085805.233000", "085805.236000", "085805.239000", "085805.241000", "085805.244000", "085805.255000", "085805.258000", "085805.260000", "085805.263000", "085805.266000", "085805.269000", "085805.271000", "085805.274000", "085805.277000", "085805.279000", "085805.282000", "085805.285000", "085845.225000", "085845.228000", "085845.230000", "085845.233000", "085845.236000", "085845.238000", "085845.241000", "085845.243000", "085845.246000", "085845.249000", "085845.252000", "085845.254000", "085845.257000", "085845.260000", "085845.262000", "085845.265000", "085845.268000", "085845.270000", "085845.273000", "085845.276000", "085925.226000", "085925.228000", "085925.231000", "085925.234000", "085925.237000", "085925.239000", "085925.242000", "085925.244000", "085925.247000", "085925.250000", "085925.252000", "085925.255000", "085925.258000", "085925.260000", "085925.263000", "085925.266000", "085925.268000", "085925.271000", "085925.276000", "085925.279000", "085947.885000", "085947.888000", "085947.891000", "085947.894000", "085947.897000", "085947.899000", "085947.902000", "085947.905000", "085947.907000", "085947.910000", "085947.913000", "085947.917000"],
      "InstanceCreationTime": ["085405.229000", "085405.239000", "085405.241000", "085405.244000", "085405.247000", "085405.250000", "085405.252000", "085405.255000", "085405.257000", "085405.260000", "085405.263000", "085405.266000", "085405.268000", "085405.271000", "085405.279000", "085405.282000", "085405.284000", "085405.287000", "085405.290000", "085405.292000", "085405.295000", "085405.298000", "085405.300000", "085405.307000", "085405.310000", "085405.313000", "085405.316000", "085405.318000", "085445.226000", "085445.229000", "085445.231000", "085445.234000", "085445.247000", "085445.249000", "085445.252000", "085445.254000", "085445.257000", "085445.260000", "085445.263000", "085445.265000", "085445.268000", "085445.271000", "085445.273000", "085445.276000", "085445.279000", "085445.281000", "085445.284000", "085445.286000", "085525.225000", "085525.227000", "085525.230000", "085525.233000", "085525.236000", "085525.238000", "085525.241000", "085525.252000", "085525.255000", "085525.257000", "085525.260000", "085525.263000", "085525.265000", "085525.268000", "085525.271000", "085525.273000", "085525.276000", "085525.279000", "085525.281000", "085525.284000", "085605.225000", "085605.227000", "085605.230000", "085605.233000", "085605.236000", "085605.238000", "085605.241000", "085605.244000", "085605.246000", "085605.249000", "085605.252000", "085605.254000", "085605.257000", "085605.260000", "085605.262000", "085605.265000", "085605.268000", "085605.270000", "085605.273000", "085605.281000", "085645.226000", "085645.229000", "085645.232000", "085645.235000", "085645.238000", "085645.240000", "085645.243000", "085645.246000", "085645.248000", "085645.251000", "085645.254000", "085645.256000", "085645.259000", "085645.262000", "085645.264000", "085645.267000", "085645.270000", "085645.273000", "085645.275000", "085645.278000", "085725.224000", "085725.227000", "085725.230000", "085725.233000", "085725.236000", "085725.238000", "085725.241000", "085725.244000", "085725.246000", "085725.249000", "085725.252000", "085725.254000", "085725.257000", "085725.260000", "085725.262000", "085725.265000", "085725.268000", "085725.270000", "085725.273000", "085725.276000", "085805.225000", "085805.228000", "085805.230000", "085805.233000", "085805.236000", "085805.239000", "085805.241000", "085805.244000", "085805.255000", "085805.258000", "085805.260000", "085805.263000", "085805.266000", "085805.269000", "085805.271000", "085805.274000", "085805.277000", "085805.279000", "085805.282000", "085805.285000", "085845.225000", "085845.228000", "085845.230000", "085845.233000", "085845.236000", "085845.238000", "085845.241000", "085845.243000", "085845.246000", "085845.249000", "085845.252000", "085845.254000", "085845.257000", "085845.260000", "085845.262000", "085845.265000", "085845.268000", "085845.270000", "085845.273000", "085845.276000", "085925.226000", "085925.228000", "085925.231000", "085925.234000", "085925.237000", "085925.239000", "085925.242000", "085925.244000", "085925.247000", "085925.250000", "085925.252000", "085925.255000", "085925.258000", "085925.260000", "085925.263000", "085925.266000", "085925.268000", "085925.271000", "085925.276000", "085925.279000", "085947.885000", "085947.888000", "085947.891000", "085947.894000", "085947.897000", "085947.899000", "085947.902000", "085947.905000", "085947.907000", "085947.910000", "085947.913000", "085947.917000"],
      "InstanceNumber": [1, 2, 3, 4, 5, 6, 7, 8, 9, 10, 11, 12, 13, 14, 15, 16, 17, 18, 19, 20, 21, 22, 23, 24, 25, 26, 27, 28, 29, 30, 31, 32, 33, 34, 35, 36, 37, 38, 39, 40, 41, 42, 43, 44, 45, 46, 47, 48, 49, 50, 51, 52, 53, 54, 55, 56, 57, 58, 59, 60, 61, 62, 63, 64, 65, 66, 67, 68, 69, 70, 71, 72, 73, 74, 75, 76, 77, 78, 79, 80, 81, 82, 83, 84, 85, 86, 87, 88, 89, 90, 91, 92, 93, 94, 95, 96, 97, 98, 99, 100, 101, 102, 103, 104, 105, 106, 107, 108, 109, 110, 111, 112, 113, 114, 115, 116, 117, 118, 119, 120, 121, 122, 123, 124, 125, 126, 127, 128, 129, 130, 131, 132, 133, 134, 135, 136, 137, 138, 139, 140, 141, 142, 143, 144, 145, 146, 147, 148, 149, 150, 151, 152, 153, 154, 155, 156, 157, 158, 159, 160, 161, 162, 163, 164, 165, 166, 167, 168, 169, 170, 171, 172, 173, 174, 175, 176, 177, 178, 179, 180, 181, 182, 183, 184, 185, 186, 187, 188, 189, 190, 191, 192, 193, 194, 195, 196, 197, 198, 199, 200],
      "LargestImagePixelValue": [2013, 2008, 2009, 2009, 2009, 2010, 2014, 2007, 2010, 2002, 2003, 2007, 2001, 2007, 2004, 2007, 2009, 2005, 2012, 2012, 2009, 2011, 2008, 2006, 2003, 2002, 2003, 2001, 2006, 2006, 2011, 2009, 2005, 2014, 2009, 2000, 2006, 2008, 2010, 2012, 2004, 2007, 2005, 2008, 2006, 2002, 2003, 2005, 2009, 2010, 2003, 2004, 2010, 2009, 2006, 2009, 2009, 2009, 2001, 2009, 2010, 2011, 2002, 2003, 2005, 2008, 2002, 2004, 2009, 2011, 2007, 2005, 2010, 2010, 2011, 2008, 2012, 2008, 2012, 2010, 2001, 2005, 2006, 2004, 2007, 2006, 2006, 2005, 2007, 2014, 2009, 2004, 2003, 2015, 2008, 2004, 2001, 2005, 2004, 2005, 2001, 2006, 2008, 2012, 2015, 2000, 2009, 2007, 2014, 2003, 2009, 2008, 2004, 2005, 2009, 2004, 2005, 2008, 2011, 2013, 2006, 2009, 2011, 2012, 2009, 2007, 2007, 2010, 2012, 2003, 2002, 2007, 2008, 2007, 2004, 2007, 2006, 2006, 2006, 2008, 2013, 2007, 2008, 2005, 2003, 2004, 2008, 2005, 2010, 2004, 2014, 2004, 2007, 2012, 2010, 2008, 2008, 2004, 2009, 2012, 2007, 2010, 2004, 2003, 2006, 2001, 2004, 2005, 2002, 2000, 2008, 2004, 2006, 2004, 2006, 2007, 2006, 2009, 2010, 2007, 2006, 2002, 2006, 2009, 2004, 2006, 2008, 2013, 2007, 2008, 2012, 2013, 2013, 2009, 2008, 2013, 2006, 2008, 2001, 2014],
      "WindowWidth": [2102.0, 2102.0, 2102.0, 2102.0, 2102.0, 2102.0, 2102.0, 2102.0, 2102.0, 2102.0, 2102.0, 2102.0, 2102.0, 2102.0, 2102.0, 2102.0, 2102.0, 2102.0, 2102.0, 2102.0, 2102.0, 2102.0, 2102.0, 2102.0, 2102.0, 2102.0, 2102.0, 2102.0, 2102.0, 2102.0, 2102.0, 2102.0, 2102.0, 2102.0, 2102.0, 2102.0, 2102.0, 2102.0, 2102.0, 2102.0, 2102.0, 2102.0, 2102.0, 2102.0, 2102.0, 2102.0, 2102.0, 2102.0, 2102.0, 2102.0, 2102.0, 2102.0, 2102.0, 2102.0, 2102.0, 2102.0, 2102.0, 2102.0, 2102.0, 2102.0, 2102.0, 2102.0, 2102.0, 2102.0, 2102.0, 2102.0, 2102.0, 2102.0, 2102.0, 2102.0, 2102.0, 2102.0, 2102.0, 2102.0, 2102.0, 2102.0, 2102.0, 2102.0, 2102.0, 2102.0, 2102.0, 2102.0, 2102.0, 2102.0, 2102.0, 2102.0, 2102.0, 2103.0, 2102.0, 2102.0, 2102.0, 2102.0, 2102.0, 2102.0, 2102.0, 2102.0, 2102.0, 2102.0, 2102.0, 2102.0, 2102.0, 2102.0, 2102.0, 2102.0, 2102.0, 2102.0, 2102.0, 2102.0, 2102.0, 2102.0, 2102.0, 2102.0, 2102.0, 2102.0, 2102.0, 2102.0, 2102.0, 2102.0, 2102.0, 2102.0, 2102.0, 2102.0, 2102.0, 2102.0, 2102.0, 2102.0, 2102.0, 2102.0, 2102.0, 2102.0, 2102.0, 2102.0, 2102.0, 2102.0, 2102.0, 2102.0, 2102.0, 2102.0, 2102.0, 2102.0, 2102.0, 2102.0, 2102.0, 2102.0, 2102.0, 2102.0, 2102.0, 2102.0, 2102.0, 2102.0, 2102.0, 2102.0, 2102.0, 2102.0, 2102.0, 2102.0, 2102.0, 2102.0, 2102.0, 2102.0, 2102.0, 2102.0, 2102.0, 2102.0, 2102.0, 2102.0, 2102.0, 2102.0, 2102.0, 2101.0, 2102.0, 2102.0, 2102.0, 2102.0, 2102.0, 2102.0, 2102.0, 2102.0, 2102.0, 2102.0, 2102.0, 2102.0, 2102.0, 2102.0, 2102.0, 2102.0, 2102.0, 2102.0, 2102.0, 2102.0, 2102.0, 2102.0, 2102.0, 2101.0, 2102.0, 2102.0, 2102.0, 2102.0, 2102.0, 2102.0]
    },
    "slices": {}
  }
}