{
  "AcquisitionMatrixPE": 80,
  "AcquisitionNumber": 1,
  "AcquisitionTime": "08:46:14.805000",
  "BandwidthPerPixelPhaseEncode": 48.077,
  "BaseResolution": 80,
  "BodyPartExamined": "BRAIN",
  "CoilCombinationMethod": "Sum of Squares",
  "ConsistencyInfo": "N4_VE11C_LATEST_20160120",
  "ConversionSoftware": "dcm2niix",
  "ConversionSoftwareVersion": "v1.0.20220720",
  "DerivedVendorReportedEchoSpacing": 0.000519999,
  "DeviceSerialNumber": "66112",
  "DwellTime": 2.7e-06,
  "EchoTime": 0.035,
  "EchoTrainLength": 39,
  "EffectiveEchoSpacing": 0.00026,
  "FlipAngle": 90,
  "HeudiconvVersion": "0.13.1",
  "ImageOrientationPatientDICOM": [0.995914, 0.0899528, 0.00802388, -0.088007, 0.946741, 0.309735],
  "ImageOrientationText": "Tra>Cor(18.0)>Sag(-1.2)",
  "ImageType": [
    "ORIGINAL",
    "PRIMARY",
    "M",
    "ND",
    "NORM",
    "MOSAIC"
],
  "ImagingFrequency": 123.252,
  "InPlanePhaseEncodingDirectionDICOM": "COL",
  "InstitutionAddress": "Maynard 3,Hanover,NH,US,03755",
  "InstitutionName": "Dartmouth College - PBS",
  "InstitutionalDepartmentName": "Department",
  "MRAcquisitionType": "2D",
  "MagneticFieldStrength": 3,
  "Manufacturer": "Siemens",
  "ManufacturersModelName": "Prisma",
  "MatrixCoilMode": "GRAPPA",
  "Modality": "MR",
  "NonlinearGradientCorrection": false,
  "ParallelReductionFactorInPlane": 2,
  "PartialFourier": 1,
  "PatientPosition": "HFS",
  "PercentPhaseFOV": 100,
  "PercentSampling": 100,
  "PhaseEncodingDirection": "j-",
  "PhaseEncodingSteps": 79,
  "PhaseResolution": 1,
  "PixelBandwidth": 2315,
  "ProcedureStepDescription": "dbic^QA",
  "ProtocolName": "func-bold_task-rest_acq-p2",
  "PulseSequenceDetails": "%SiemensSeq%\\ep2d_bold",
  "ReceiveCoilActiveElements": "HEA;HEP",
  "ReceiveCoilName": "Head_32",
  "ReconMatrixPE": 80,
  "RefLinesPE": 24,
  "RepetitionTime": 2,
  "SAR": 0.0557136,
  "ScanOptions": "FS",
  "ScanningSequence": "EP",
  "SequenceName": "*epfid2d1_80",
  "SequenceVariant": "SK",
  "SeriesDescription": "func-bold_task-rest_acq-p2",
  "SeriesNumber": 5,
  "ShimSetting": [4149, -7688, -7510, 301, -51, -135, 7, 51],
  "SliceThickness": 3.5,
  "SliceTiming": [0.99, 0, 1.0575, 0.0675, 1.1225, 0.1325, 1.19, 0.2, 1.255, 0.265, 1.32, 0.33, 1.3875, 0.3975, 1.4525, 0.4625, 1.52, 0.53, 1.585, 0.595, 1.65, 0.66, 1.7175, 0.7275, 1.7825, 0.7925, 1.85, 0.86, 1.915, 0.925],
  "SoftwareVersions": "syngo MR E11",
  "SpacingBetweenSlices": 3.99,
  "StationName": "AWP66112",
  "TaskName": "rest",
  "TotalReadoutTime": 0.02054,
  "TxRefAmp": 235.621,
  "dcmmeta_affine": [
    [-2.987740993499756, -0.2640208899974823, -0.08085736632347107, 131.02418518066406],
    [-0.2698585093021393, 2.840223789215088, 1.2336100339889526, -104.64857482910156],
    [0.024071630090475082, -0.9292049407958984, 3.7936482429504395, -9.670574188232422],
    [0.0, 0.0, 0.0, 1.0]
],
  "dcmmeta_reorient_transform": [
    [0.0, -1.0, 0.0, 79.0],
    [1.0, 0.0, 0.0, 0.0],
    [0.0, 0.0, 1.0, 0.0],
    [0.0, 0.0, 0.0, 1.0]
],
  "dcmmeta_shape": [80, 80, 30, 200],
  "dcmmeta_slice_dim": 2,
  "dcmmeta_version": 0.6,
  "global": {
    "const": {
      "AccessionNumber": "qa",
      "AcquisitionMatrix": [80, 0, 0, 80],
      "AngioFlag": "N",
      "BitsAllocated": 16,
      "BitsStored": 12,
      "BodyPartExamined": "BRAIN",
      "Columns": 480,
      "EchoNumbers": 1,
      "EchoTime": 35.0,
      "EchoTrainLength": 39,
      "FlipAngle": 90.0,
      "HighBit": 11,
      "ImageOrientationPatient": [0.99591370325921, 0.08995283801826, 0.00802387643208, -0.0880069613255, 0.94674126471108, 0.30973497130859],
      "ImagePositionPatient": [-654.91058352236, -741.7455701196, -273.73307142309],
      "ImageType": [
        "ORIGINAL",
        "PRIMARY",
        "M",
        "ND",
        "NORM",
        "MOSAIC"
],
      "ImagedNucleus": "1H",
      "ImagingFrequency": 123.25246,
      "InPlanePhaseEncodingDirection": "COL",
      "MRAcquisitionType": "2D",
      "MagneticFieldStrength": 3.0,
      "Manufacturer": "SIEMENS",
      "ManufacturerModelName": "Prisma",
      "Modality": "MR",
      "NumberOfAverages": 1.0,
      "NumberOfPhaseEncodingSteps": 79,
      "PercentPhaseFieldOfView": 100.0,
      "PercentSampling": 100.0,
      "PerformedProcedureStepStartTime": "084146.540000",
      "PhotometricInterpretation": "MONOCHROME2",
      "PixelBandwidth": 2315.0,
      "PixelRepresentation": 0,
      "PixelSpacing": [3.0, 3.0],
      "ProtocolName": "func-bold_task-rest_acq-p2",
      "RepetitionTime": 2000.0,
      "Rows": 480,
      "SAR": 0.05571363270619,
      "SamplesPerPixel": 1,
      "ScanOptions": "FS",
      "ScanningSequence": "EP",
      "SequenceName": "*epfid2d1_80",
      "SequenceVariant": "SK",
      "SeriesDescription": "func-bold_task-rest_acq-p2",
      "SeriesNumber": 5,
      "SeriesTime": "084705.156000",
      "SliceLocation": -44.204652539029,
      "SliceThickness": 3.5,
      "SmallestImagePixelValue": 0,
      "SoftwareVersions": "syngo MR E11",
      "SpacingBetweenSlices": 3.9899998807881,
      "SpecificCharacterSet": "ISO_IR 100",
      "StudyID": "112",
      "StudyTime": "084146.460000",
      "TransmitCoilName": "Body",
      "VariableFlipAngleFlag": "N",
      "WindowCenterWidthExplanation": "Algo1",
      "dBdt": 0.0},
    "slices": {}
  },
  "time": {
    "samples": {
      "AcquisitionNumber": [1, 2, 3, 4, 5, 6, 7, 8, 9, 10, 11, 12, 13, 14, 15, 16, 17, 18, 19, 20, 21, 22, 23, 24, 25, 26, 27, 28, 29, 30, 31, 32, 33, 34, 35, 36, 37, 38, 39, 40, 41, 42, 43, 44, 45, 46, 47, 48, 49, 50, 51, 52, 53, 54, 55, 56, 57, 58, 59, 60, 61, 62, 63, 64, 65, 66, 67, 68, 69, 70, 71, 72, 73, 74, 75, 76, 77, 78, 79, 80, 81, 82, 83, 84, 85, 86, 87, 88, 89, 90, 91, 92, 93, 94, 95, 96, 97, 98, 99, 100, 101, 102, 103, 104, 105, 106, 107, 108, 109, 110, 111, 112, 113, 114, 115, 116, 117, 118, 119, 120, 121, 122, 123, 124, 125, 126, 127, 128, 129, 130, 131, 132, 133, 134, 135, 136, 137, 138, 139, 140, 141, 142, 143, 144, 145, 146, 147, 148, 149, 150, 151, 152, 153, 154, 155, 156, 157, 158, 159, 160, 161, 162, 163, 164, 165, 166, 167, 168, 169, 170, 171, 172, 173, 174, 175, 176, 177, 178, 179, 180, 181, 182, 183, 184, 185, 186, 187, 188, 189, 190, 191, 192, 193, 194, 195, 196, 197, 198, 199, 200],
      "AcquisitionTime": ["084614.805000", "084616.805000", "084618.805000", "084620.805000", "084622.805000", "084624.805000", "084626.805000", "084628.805000", "084630.805000", "084632.805000", "084634.805000", "084636.805000", "084638.805000", "084640.805000", "084642.805000", "084644.805000", "084646.805000", "084648.805000", "084650.805000", "084652.805000", "084654.805000", "084656.805000", "084658.805000", "084700.805000", "084702.805000", "084704.805000", "084706.805000", "084708.805000", "084710.805000", "084712.805000", "084714.805000", "084716.805000", "084718.805000", "084720.805000", "084722.805000", "084724.805000", "084726.805000", "084728.805000", "084730.805000", "084732.805000", "084734.805000", "084736.805000", "084738.805000", "084740.805000", "084742.805000", "084744.805000", "084746.805000", "084748.805000", "084750.805000", "084752.805000", "084754.805000", "084756.805000", "084758.805000", "084800.805000", "084802.805000", "084804.805000", "084806.805000", "084808.805000", "084810.805000", "084812.805000", "084814.805000", "084816.805000", "084818.805000", "084820.805000", "084822.805000", "084824.805000", "084826.805000", "084828.805000", "084830.805000", "084832.805000", "084834.805000", "084836.805000", "084838.805000", "084840.805000", "084842.805000", "084844.805000", "084846.805000", "084848.805000", "084850.805000", "084852.805000", "084854.805000", "084856.805000", "084858.805000", "084900.805000", "084902.805000", "084904.805000", "084906.805000", "084908.805000", "084910.805000", "084912.805000", "084914.805000", "084916.805000", "084918.805000", "084920.805000", "084922.805000", "084924.805000", "084926.805000", "084928.805000", "084930.805000", "084932.805000", "084934.805000", "084936.805000", "084938.805000", "084940.805000", "084942.805000", "084944.805000", "084946.805000", "084948.805000", "084950.805000", "084952.805000", "084954.805000", "084956.805000", "084958.805000", "085000.805000", "085002.805000", "085004.805000", "085006.805000", "085008.805000", "085010.805000", "085012.805000", "085014.805000", "085016.805000", "085018.805000", "085020.805000", "085022.805000", "085024.805000", "085026.805000", "085028.805000", "085030.805000", "085032.805000", "085034.805000", "085036.805000", "085038.805000", "085040.805000", "085042.805000", "085044.805000", "085046.805000", "085048.805000", "085050.805000", "085052.805000", "085054.805000", "085056.805000", "085058.805000", "085100.805000", "085102.805000", "085104.805000", "085106.805000", "085108.805000", "085110.805000", "085112.805000", "085114.805000", "085116.805000", "085118.805000", "085120.805000", "085122.805000", "085124.805000", "085126.805000", "085128.805000", "085130.805000", "085132.805000", "085134.805000", "085136.805000", "085138.805000", "085140.805000", "085142.805000", "085144.805000", "085146.805000", "085148.805000", "085150.805000", "085152.805000", "085154.805000", "085156.805000", "085158.805000", "085200.805000", "085202.805000", "085204.805000", "085206.805000", "085208.805000", "085210.805000", "085212.805000", "085214.805000", "085216.805000", "085218.805000", "085220.805000", "085222.805000", "085224.805000", "085226.805000", "085228.805000", "085230.805000", "085232.805000", "085234.805000", "085236.805000", "085238.805000", "085240.805000", "085242.805000", "085244.805000", "085246.805000", "085248.805000", "085250.805000", "085252.805000"],
      "ContentTime": ["084705.160000", "084705.163000", "084705.166000", "084705.169000", "084705.178000", "084705.181000", "084705.183000", "084705.186000", "084705.189000", "084705.191000", "084705.194000", "084705.197000", "084705.200000", "084705.202000", "084705.205000", "084705.207000", "084705.210000", "084705.213000", "084705.215000", "084705.218000", "084705.221000", "084705.224000", "084705.226000", "084705.229000", "084705.231000", "084745.156000", "084745.159000", "084745.161000", "084745.164000", "084745.167000", "084745.170000", "084745.172000", "084745.175000", "084745.178000", "084745.181000", "084745.183000", "084745.186000", "084745.188000", "084745.191000", "084745.194000", "084745.196000", "084745.199000", "084745.202000", "084745.204000", "084745.207000", "084825.155000", "084825.158000", "084825.168000", "084825.170000", "084825.173000", "084825.176000", "084825.178000", "084825.181000", "084825.184000", "084825.186000", "084825.189000", "084825.192000", "084825.195000", "084825.197000", "084825.200000", "084825.203000", "084825.205000", "084825.208000", "084825.211000", "084825.214000", "084905.154000", "084905.158000", "084905.160000", "084905.163000", "084905.165000", "084905.168000", "084905.171000", "084905.174000", "084905.176000", "084905.179000", "084905.181000", "084905.184000", "084905.187000", "084905.190000", "084905.192000", "084905.195000", "084905.198000", "084905.201000", "084905.203000", "084905.206000", "084945.156000", "084945.159000", "084945.161000", "084945.164000", "084945.167000", "084945.169000", "084945.172000", "084945.175000", "084945.177000", "084945.180000", "084945.183000", "084945.185000", "084945.188000", "084945.191000", "084945.193000", "084945.196000", "084945.198000", "084945.201000", "084945.204000", "084945.206000", "085025.155000", "085025.158000", "085025.161000", "085025.163000", "085025.166000", "085025.169000", "085025.171000", "085025.174000", "085025.177000", "085025.179000", "085025.182000", "085025.185000", "085025.187000", "085025.190000", "085025.193000", "085025.195000", "085025.204000", "085025.206000", "085025.209000", "085025.212000", "085105.154000", "085105.158000", "085105.160000", "085105.163000", "085105.165000", "085105.168000", "085105.171000", "085105.173000", "085105.176000", "085105.179000", "085105.182000", "085105.184000", "085105.187000", "085105.190000", "085105.193000", "085105.195000", "085105.198000", "085105.201000", "085105.203000", "085105.206000", "085145.155000", "085145.158000", "085145.160000", "085145.163000", "085145.166000", "085145.168000", "085145.171000", "085145.174000", "085145.177000", "085145.179000", "085145.182000", "085145.185000", "085145.187000", "085145.190000", "085145.193000", "085145.195000", "085145.198000", "085145.201000", "085145.203000", "085145.206000", "085225.156000", "085225.159000", "085225.161000", "085225.164000", "085225.166000", "085225.169000", "085225.172000", "085225.175000", "085225.178000", "085225.180000", "085225.187000", "085225.190000", "085225.193000", "085225.195000", "085225.198000", "085225.200000", "085225.203000", "085225.206000", "085225.209000", "085225.211000", "085253.972000", "085253.975000", "085253.977000", "085253.980000", "085253.983000", "085253.986000", "085253.988000", "085253.991000", "085253.994000", "085253.997000", "085254.001000", "085254.007000", "085254.013000", "085254.016000", "085254.020000"],
      "InstanceCreationTime": ["084705.160000", "084705.163000", "084705.166000", "084705.169000", "084705.178000", "084705.181000", "084705.183000", "084705.186000", "084705.189000", "084705.191000", "084705.194000", "084705.197000", "084705.200000", "084705.202000", "084705.205000", "084705.207000", "084705.210000", "084705.213000", "084705.215000", "084705.218000", "084705.221000", "084705.224000", "084705.226000", "084705.229000", "084705.231000", "084745.156000", "084745.159000", "084745.161000", "084745.164000", "084745.167000", "084745.170000", "084745.172000", "084745.175000", "084745.178000", "084745.181000", "084745.183000", "084745.186000", "084745.188000", "084745.191000", "084745.194000", "084745.196000", "084745.199000", "084745.202000", "084745.204000", "084745.207000", "084825.155000", "084825.158000", "084825.168000", "084825.170000", "084825.173000", "084825.176000", "084825.178000", "084825.181000", "084825.184000", "084825.186000", "084825.189000", "084825.192000", "084825.195000", "084825.197000", "084825.200000", "084825.203000", "084825.205000", "084825.208000", "084825.211000", "084825.214000", "084905.154000", "084905.158000", "084905.160000", "084905.163000", "084905.165000", "084905.168000", "084905.171000", "084905.174000", "084905.176000", "084905.179000", "084905.181000", "084905.184000", "084905.187000", "084905.190000", "084905.192000", "084905.195000", "084905.198000", "084905.201000", "084905.203000", "084905.206000", "084945.156000", "084945.159000", "084945.161000", "084945.164000", "084945.167000", "084945.169000", "084945.172000", "084945.175000", "084945.177000", "084945.180000", "084945.183000", "084945.185000", "084945.188000", "084945.191000", "084945.193000", "084945.196000", "084945.198000", "084945.201000", "084945.204000", "084945.206000", "085025.155000", "085025.158000", "085025.161000", "085025.163000", "085025.166000", "085025.169000", "085025.171000", "085025.174000", "085025.177000", "085025.179000", "085025.182000", "085025.185000", "085025.187000", "085025.190000", "085025.193000", "085025.195000", "085025.204000", "085025.206000", "085025.209000", "085025.212000", "085105.154000", "085105.158000", "085105.160000", "085105.163000", "085105.165000", "085105.168000", "085105.171000", "085105.173000", "085105.176000", "085105.179000", "085105.182000", "085105.184000", "085105.187000", "085105.190000", "085105.193000", "085105.195000", "085105.198000", "085105.201000", "085105.203000", "085105.206000", "085145.155000", "085145.158000", "085145.160000", "085145.163000", "085145.166000", "085145.168000", "085145.171000", "085145.174000", "085145.177000", "085145.179000", "085145.182000", "085145.185000", "085145.187000", "085145.190000", "085145.193000", "085145.195000", "085145.198000", "085145.201000", "085145.203000", "085145.206000", "085225.156000", "085225.159000", "085225.161000", "085225.164000", "085225.166000", "085225.169000", "085225.172000", "085225.175000", "085225.178000", "085225.180000", "085225.187000", "085225.190000", "085225.193000", "085225.195000", "085225.198000", "085225.200000", "085225.203000", "085225.206000", "085225.209000", "085225.211000", "085253.972000", "085253.975000", "085253.977000", "085253.980000", "085253.983000", "085253.986000", "085253.988000", "085253.991000", "085253.994000", "085253.997000", "085254.001000", "085254.007000", "085254.013000", "085254.016000", "085254.020000"],
      "InstanceNumber": [1, 2, 3, 4, 5, 6, 7, 8, 9, 10, 11, 12, 13, 14, 15, 16, 17, 18, 19, 20, 21, 22, 23, 24, 25, 26, 27, 28, 29, 30, 31, 32, 33, 34, 35, 36, 37, 38, 39, 40, 41, 42, 43, 44, 45, 46, 47, 48, 49, 50, 51, 52, 53, 54, 55, 56, 57, 58, 59, 60, 61, 62, 63, 64, 65, 66, 67, 68, 69, 70, 71, 72, 73, 74, 75, 76, 77, 78, 79, 80, 81, 82, 83, 84, 85, 86, 87, 88, 89, 90, 91, 92, 93, 94, 95, 96, 97, 98, 99, 100, 101, 102, 103, 104, 105, 106, 107, 108, 109, 110, 111, 112, 113, 114, 115, 116, 117, 118, 119, 120, 121, 122, 123, 124, 125, 126, 127, 128, 129, 130, 131, 132, 133, 134, 135, 136, 137, 138, 139, 140, 141, 142, 143, 144, 145, 146, 147, 148, 149, 150, 151, 152, 153, 154, 155, 156, 157, 158, 159, 160, 161, 162, 163, 164, 165, 166, 167, 168, 169, 170, 171, 172, 173, 174, 175, 176, 177, 178, 179, 180, 181, 182, 183, 184, 185, 186, 187, 188, 189, 190, 191, 192, 193, 194, 195, 196, 197, 198, 199, 200],
      "LargestImagePixelValue": [2016, 2014, 2017, 2012, 2020, 2018, 2017, 2012, 2019, 2025, 2017, 2012, 2020, 2021, 2013, 2013, 2018, 2014, 2017, 2014, 2021, 2016, 2016, 2013, 2013, 2024, 2017, 2016, 2015, 2018, 2012, 2023, 2018, 2015, 2019, 2006, 2017, 2017, 2016, 2012, 2014, 2018, 2016, 2023, 2014, 2014, 2012, 2019, 2015, 2015, 2012, 2016, 2023, 2018, 2016, 2016, 2024, 2022, 2017, 2014, 2021, 2017, 2019, 2014, 2021, 2019, 2016, 2017, 2019, 2019, 2014, 2019, 2015, 2019, 2014, 2013, 2015, 2017, 2013, 2017, 2020, 2019, 2018, 2017, 2018, 2021, 2018, 2014, 2020, 2023, 2014, 2017, 2012, 2016, 2016, 2024, 2013, 2014, 2013, 2020, 2018, 2015, 2014, 2018, 2026, 2014, 2019, 2013, 2022, 2020, 2016, 2027, 2015, 2015, 2014, 2018, 2025, 2011, 2017, 2011, 2016, 2020, 2018, 2013, 2011, 2015, 2013, 2019, 2018, 2021, 2013, 2020, 2015, 2020, 2014, 2021, 2014, 2014, 2015, 2015, 2016, 2018, 2015, 2023, 2021, 2010, 2017, 2011, 2015, 2018, 2016, 2017, 2019, 2017, 2019, 2017, 2017, 2012, 2014, 2017, 2015, 2018, 2013, 2004, 2014, 2019, 2019, 2014, 2019, 2016, 2018, 2014, 2016, 2011, 2018, 2014, 2014, 2015, 2014, 2012, 2016, 2015, 2015, 2015, 2016, 2016, 2013, 2012, 2011, 2013, 2022, 2017, 2015, 2012, 2019, 2014, 2016, 2022, 2016, 2018],
      "WindowCenter": [991.0, 990.0, 991.0, 991.0, 992.0, 991.0, 990.0, 991.0, 990.0, 990.0, 991.0, 991.0, 990.0, 990.0, 991.0, 991.0, 991.0, 991.0, 991.0, 990.0, 990.0, 991.0, 990.0, 991.0, 991.0, 990.0, 991.0, 990.0, 990.0, 991.0, 990.0, 991.0, 991.0, 991.0, 990.0, 991.0, 990.0, 990.0, 990.0, 991.0, 990.0, 990.0, 991.0, 990.0, 991.0, 991.0, 990.0, 991.0, 990.0, 991.0, 990.0, 990.0, 990.0, 991.0, 991.0, 991.0, 991.0, 991.0, 991.0, 990.0, 990.0, 991.0, 990.0, 990.0, 990.0, 990.0, 991.0, 991.0, 991.0, 990.0, 990.0, 990.0, 990.0, 991.0, 990.0, 990.0, 991.0, 991.0, 990.0, 990.0, 991.0, 991.0, 991.0, 990.0, 991.0, 991.0, 990.0, 990.0, 991.0, 991.0, 990.0, 990.0, 991.0, 990.0, 990.0, 991.0, 991.0, 991.0, 990.0, 991.0, 991.0, 990.0, 990.0, 990.0, 991.0, 990.0, 991.0, 990.0, 990.0, 991.0, 990.0, 991.0, 990.0, 990.0, 990.0, 990.0, 991.0, 991.0, 990.0, 990.0, 992.0, 990.0, 990.0, 991.0, 990.0, 991.0, 991.0, 991.0, 991.0, 990.0, 990.0, 990.0, 991.0, 991.0, 991.0, 991.0, 991.0, 991.0, 991.0, 991.0, 990.0, 990.0, 990.0, 991.0, 990.0, 991.0, 990.0, 990.0, 990.0, 990.0, 990.0, 990.0, 991.0, 991.0, 990.0, 990.0, 990.0, 990.0, 990.0, 990.0, 990.0, 990.0, 991.0, 991.0, 990.0, 991.0, 991.0, 990.0, 991.0, 990.0, 990.0, 990.0, 990.0, 990.0, 991.0, 991.0, 991.0, 990.0, 990.0, 990.0, 990.0, 990.0, 990.0, 990.0, 990.0, 990.0, 991.0, 990.0, 990.0, 990.0, 990.0, 990.0, 990.0, 990.0, 990.0, 990.0, 990.0, 990.0, 990.0, 990.0],
      "WindowWidth": [2170.0, 2169.0, 2170.0, 2170.0, 2171.0, 2170.0, 2169.0, 2170.0, 2169.0, 2169.0, 2170.0, 2170.0, 2169.0, 2169.0, 2170.0, 2169.0, 2170.0, 2170.0, 2170.0, 2169.0, 2169.0, 2169.0, 2169.0, 2170.0, 2170.0, 2169.0, 2169.0, 2169.0, 2169.0, 2169.0, 2169.0, 2169.0, 2170.0, 2170.0, 2169.0, 2169.0, 2169.0, 2169.0, 2169.0, 2169.0, 2169.0, 2169.0, 2169.0, 2169.0, 2169.0, 2169.0, 2169.0, 2169.0, 2169.0, 2169.0, 2169.0, 2169.0, 2169.0, 2169.0, 2169.0, 2169.0, 2169.0, 2169.0, 2169.0, 2168.0, 2169.0, 2169.0, 2168.0, 2168.0, 2168.0, 2169.0, 2169.0, 2169.0, 2169.0, 2168.0, 2169.0, 2168.0, 2168.0, 2169.0, 2168.0, 2168.0, 2169.0, 2169.0, 2168.0, 2168.0, 2169.0, 2169.0, 2169.0, 2168.0, 2169.0, 2169.0, 2168.0, 2168.0, 2169.0, 2169.0, 2168.0, 2168.0, 2168.0, 2168.0, 2168.0, 2168.0, 2169.0, 2168.0, 2168.0, 2168.0, 2168.0, 2168.0, 2168.0, 2168.0, 2168.0, 2168.0, 2168.0, 2168.0, 2168.0, 2169.0, 2168.0, 2168.0, 2168.0, 2168.0, 2168.0, 2168.0, 2168.0, 2168.0, 2168.0, 2168.0, 2169.0, 2167.0, 2167.0, 2169.0, 2168.0, 2168.0, 2168.0, 2168.0, 2168.0, 2168.0, 2168.0, 2167.0, 2168.0, 2168.0, 2168.0, 2168.0, 2168.0, 2169.0, 2168.0, 2168.0, 2167.0, 2167.0, 2167.0, 2168.0, 2167.0, 2168.0, 2167.0, 2167.0, 2167.0, 2167.0, 2167.0, 2167.0, 2168.0, 2168.0, 2168.0, 2168.0, 2167.0, 2167.0, 2168.0, 2167.0, 2168.0, 2167.0, 2169.0, 2168.0, 2168.0, 2168.0, 2168.0, 2167.0, 2168.0, 2168.0, 2168.0, 2168.0, 2167.0, 2168.0, 2168.0, 2168.0, 2168.0, 2167.0, 2167.0, 2167.0, 2167.0, 2167.0, 2167.0, 2167.0, 2167.0, 2168.0, 2168.0, 2167.0, 2167.0, 2167.0, 2168.0, 2167.0, 2167.0, 2168.0, 2168.0, 2168.0, 2167.0, 2167.0, 2167.0, 2167.0]
    },
    "slices": {}
  }
}