{
  "AcquisitionMatrixPE": 80,
  "AcquisitionNumber": 1,
  "AcquisitionTime": "09:06:44.515000",
  "BandwidthPerPixelPhaseEncode": 25,
  "BaseResolution": 80,
  "BodyPartExamined": "BRAIN",
  "CoilCombinationMethod": "Sum of Squares",
  "ConsistencyInfo": "N4_VE11C_LATEST_20160120",
  "ConversionSoftware": "dcm2niix",
  "ConversionSoftwareVersion": "v1.0.20220720",
  "DerivedVendorReportedEchoSpacing": 0.0005,
  "DeviceSerialNumber": "66112",
  "DwellTime": 2.7e-06,
  "EchoTime": 0.03,
  "EchoTrainLength": 80,
  "EffectiveEchoSpacing": 0.0005,
  "FlipAngle": 10,
  "HeudiconvVersion": "0.13.1",
  "ImageOrientationPatientDICOM": [0.995914, 0.0899528, 0.00802388, -0.088007, 0.946741, 0.309735],
  "ImageOrientationText": "Tra>Cor(18.0)>Sag(-1.2)",
  "ImageType": [
    "ORIGINAL",
    "PRIMARY",
    "M",
    "ND",
    "NORM",
    "MOSAIC"
],
  "ImagingFrequency": 123.252,
  "InPlanePhaseEncodingDirectionDICOM": "COL",
  "InstitutionAddress": "Maynard 3,Hanover,NH,US,03755",
  "InstitutionName": "Dartmouth College - PBS",
  "InstitutionalDepartmentName": "Department",
  "MRAcquisitionType": "2D",
  "MagneticFieldStrength": 3,
  "Manufacturer": "Siemens",
  "ManufacturersModelName": "Prisma",
  "MatrixCoilMode": "SENSE",
  "Modality": "MR",
  "NonlinearGradientCorrection": false,
  "PartialFourier": 1,
  "PatientPosition": "HFS",
  "PercentPhaseFOV": 100,
  "PercentSampling": 100,
  "PhaseEncodingDirection": "j-",
  "PhaseEncodingSteps": 80,
  "PhaseResolution": 1,
  "PixelBandwidth": 2315,
  "ProcedureStepDescription": "dbic^QA",
  "ProtocolName": "func-bold_acq-32ch-10flip",
  "PulseSequenceDetails": "%SiemensSeq%\\ep2d_bold",
  "ReceiveCoilActiveElements": "HEA;HEP",
  "ReceiveCoilName": "Head_32",
  "ReconMatrixPE": 80,
  "RepetitionTime": 2,
  "SAR": 0.0117446,
  "ScanOptions": "FS",
  "ScanningSequence": "EP",
  "SequenceName": "*epfid2d1_80",
  "SequenceVariant": "SK",
  "SeriesDescription": "func-bold_acq-32ch-10flip",
  "SeriesNumber": 10,
  "ShimSetting": [4149, -7688, -7510, 298, -51, -131, 9, 51],
  "SliceThickness": 3.5,
  "SliceTiming": [0.99, 0, 1.0575, 0.0675, 1.1225, 0.1325, 1.1875, 0.2, 1.255, 0.265, 1.32, 0.33, 1.3875, 0.3975, 1.4525, 0.4625, 1.5175, 0.53, 1.585, 0.595, 1.65, 0.66, 1.7175, 0.7275, 1.7825, 0.7925, 1.8475, 0.8575, 1.915, 0.925],
  "SoftwareVersions": "syngo MR E11",
  "SpacingBetweenSlices": 3.99,
  "StationName": "AWP66112",
  "TotalReadoutTime": 0.0395,
  "TxRefAmp": 235.621,
  "dcmmeta_affine": [
    [-2.987740993499756, -0.2640208899974823, -0.08085737377405167, 131.04164123535156],
    [-0.2698585093021393, 2.840223789215088, 1.2336101531982422, -104.66088104248047],
    [0.024071630090475082, -0.9292049407958984, 3.7936484813690186, -7.646664142608643],
    [0.0, 0.0, 0.0, 1.0]
],
  "dcmmeta_reorient_transform": [
    [0.0, -1.0, 0.0, 79.0],
    [1.0, 0.0, 0.0, 0.0],
    [0.0, 0.0, 1.0, 0.0],
    [0.0, 0.0, 0.0, 1.0]
],
  "dcmmeta_shape": [80, 80, 30, 200],
  "dcmmeta_slice_dim": 2,
  "dcmmeta_version": 0.6,
  "global": {
    "const": {
      "AccessionNumber": "qa",
      "AcquisitionMatrix": [80, 0, 0, 80],
      "AngioFlag": "N",
      "BitsAllocated": 16,
      "BitsStored": 12,
      "BodyPartExamined": "BRAIN",
      "Columns": 480,
      "EchoNumbers": 1,
      "EchoTime": 30.0,
      "EchoTrainLength": 80,
      "FlipAngle": 10.0,
      "HighBit": 11,
      "ImageOrientationPatient": [0.99591370325921, 0.08995283801826, 0.00802387643208, -0.0880069613255, 0.94674126471108, 0.30973497130859],
      "ImagePositionPatient": [-654.9280363584, -741.73325866102, -271.70916090063],
      "ImageType": [
        "ORIGINAL",
        "PRIMARY",
        "M",
        "ND",
        "NORM",
        "MOSAIC"
],
      "ImagedNucleus": "1H",
      "ImagingFrequency": 123.252455,
      "InPlanePhaseEncodingDirection": "COL",
      "MRAcquisitionType": "2D",
      "MagneticFieldStrength": 3.0,
      "Manufacturer": "SIEMENS",
      "ManufacturerModelName": "Prisma",
      "Modality": "MR",
      "NumberOfAverages": 1.0,
      "NumberOfPhaseEncodingSteps": 80,
      "PercentPhaseFieldOfView": 100.0,
      "PercentSampling": 100.0,
      "PerformedProcedureStepStartTime": "084146.540000",
      "PhotometricInterpretation": "MONOCHROME2",
      "PixelBandwidth": 2315.0,
      "PixelRepresentation": 0,
      "PixelSpacing": [3.0, 3.0],
      "ProtocolName": "func-bold_acq-32ch-10flip",
      "RepetitionTime": 2000.0,
      "Rows": 480,
      "SAR": 0.01174463030651,
      "SamplesPerPixel": 1,
      "ScanOptions": "FS",
      "ScanningSequence": "EP",
      "SequenceName": "*epfid2d1_80",
      "SequenceVariant": "SK",
      "SeriesDescription": "func-bold_acq-32ch-10flip",
      "SeriesNumber": 10,
      "SeriesTime": "090725.156000",
      "SliceLocation": -42.28450060836,
      "SliceThickness": 3.5,
      "SmallestImagePixelValue": 0,
      "SoftwareVersions": "syngo MR E11",
      "SpacingBetweenSlices": 3.9900001258404,
      "SpecificCharacterSet": "ISO_IR 100",
      "StudyID": "112",
      "StudyTime": "084146.460000",
      "TransmitCoilName": "Body",
      "VariableFlipAngleFlag": "N",
      "WindowCenterWidthExplanation": "Algo1",
      "dBdt": 0.0},
    "slices": {}
  },
  "time": {
    "samples": {
      "AcquisitionNumber": [1, 2, 3, 4, 5, 6, 7, 8, 9, 10, 11, 12, 13, 14, 15, 16, 17, 18, 19, 20, 21, 22, 23, 24, 25, 26, 27, 28, 29, 30, 31, 32, 33, 34, 35, 36, 37, 38, 39, 40, 41, 42, 43, 44, 45, 46, 47, 48, 49, 50, 51, 52, 53, 54, 55, 56, 57, 58, 59, 60, 61, 62, 63, 64, 65, 66, 67, 68, 69, 70, 71, 72, 73, 74, 75, 76, 77, 78, 79, 80, 81, 82, 83, 84, 85, 86, 87, 88, 89, 90, 91, 92, 93, 94, 95, 96, 97, 98, 99, 100, 101, 102, 103, 104, 105, 106, 107, 108, 109, 110, 111, 112, 113, 114, 115, 116, 117, 118, 119, 120, 121, 122, 123, 124, 125, 126, 127, 128, 129, 130, 131, 132, 133, 134, 135, 136, 137, 138, 139, 140, 141, 142, 143, 144, 145, 146, 147, 148, 149, 150, 151, 152, 153, 154, 155, 156, 157, 158, 159, 160, 161, 162, 163, 164, 165, 166, 167, 168, 169, 170, 171, 172, 173, 174, 175, 176, 177, 178, 179, 180, 181, 182, 183, 184, 185, 186, 187, 188, 189, 190, 191, 192, 193, 194, 195, 196, 197, 198, 199, 200],
      "AcquisitionTime": ["090644.515000", "090646.515000", "090648.515000", "090650.515000", "090652.515000", "090654.515000", "090656.515000", "090658.515000", "090700.515000", "090702.515000", "090704.515000", "090706.515000", "090708.515000", "090710.515000", "090712.515000", "090714.515000", "090716.515000", "090718.515000", "090720.515000", "090722.515000", "090724.515000", "090726.515000", "090728.515000", "090730.515000", "090732.515000", "090734.515000", "090736.515000", "090738.515000", "090740.515000", "090742.515000", "090744.515000", "090746.515000", "090748.515000", "090750.515000", "090752.515000", "090754.515000", "090756.515000", "090758.515000", "090800.515000", "090802.515000", "090804.515000", "090806.515000", "090808.515000", "090810.515000", "090812.515000", "090814.515000", "090816.515000", "090818.515000", "090820.515000", "090822.515000", "090824.515000", "090826.515000", "090828.515000", "090830.515000", "090832.515000", "090834.515000", "090836.515000", "090838.515000", "090840.515000", "090842.515000", "090844.515000", "090846.515000", "090848.515000", "090850.515000", "090852.515000", "090854.515000", "090856.515000", "090858.515000", "090900.515000", "090902.515000", "090904.515000", "090906.515000", "090908.515000", "090910.515000", "090912.515000", "090914.515000", "090916.515000", "090918.515000", "090920.515000", "090922.515000", "090924.515000", "090926.515000", "090928.515000", "090930.515000", "090932.515000", "090934.515000", "090936.515000", "090938.515000", "090940.515000", "090942.515000", "090944.515000", "090946.515000", "090948.515000", "090950.515000", "090952.515000", "090954.515000", "090956.515000", "090958.515000", "091000.515000", "091002.515000", "091004.515000", "091006.515000", "091008.515000", "091010.515000", "091012.515000", "091014.515000", "091016.515000", "091018.515000", "091020.515000", "091022.515000", "091024.515000", "091026.515000", "091028.515000", "091030.515000", "091032.515000", "091034.515000", "091036.515000", "091038.515000", "091040.515000", "091042.515000", "091044.515000", "091046.515000", "091048.515000", "091050.515000", "091052.515000", "091054.515000", "091056.515000", "091058.515000", "091100.515000", "091102.515000", "091104.515000", "091106.515000", "091108.515000", "091110.515000", "091112.515000", "091114.515000", "091116.515000", "091118.515000", "091120.515000", "091122.515000", "091124.515000", "091126.515000", "091128.515000", "091130.515000", "091132.515000", "091134.515000", "091136.515000", "091138.515000", "091140.515000", "091142.515000", "091144.515000", "091146.515000", "091148.515000", "091150.515000", "091152.515000", "091154.515000", "091156.515000", "091158.515000", "091200.515000", "091202.515000", "091204.515000", "091206.515000", "091208.515000", "091210.515000", "091212.515000", "091214.515000", "091216.515000", "091218.515000", "091220.515000", "091222.515000", "091224.515000", "091226.515000", "091228.515000", "091230.515000", "091232.515000", "091234.515000", "091236.515000", "091238.515000", "091240.515000", "091242.515000", "091244.515000", "091246.515000", "091248.515000", "091250.515000", "091252.515000", "091254.515000", "091256.515000", "091258.515000", "091300.515000", "091302.515000", "091304.515000", "091306.515000", "091308.515000", "091310.515000", "091312.515000", "091314.515000", "091316.515000", "091318.515000", "091320.515000", "091322.515000"],
      "ContentTime": ["090725.159000", "090725.163000", "090725.165000", "090725.168000", "090725.170000", "090725.173000", "090725.185000", "090725.188000", "090725.190000", "090725.196000", "090725.198000", "090725.201000", "090725.203000", "090725.206000", "090725.208000", "090725.211000", "090725.214000", "090725.216000", "090725.219000", "090725.221000", "090805.155000", "090805.158000", "090805.160000", "090805.163000", "090805.174000", "090805.177000", "090805.179000", "090805.182000", "090805.185000", "090805.187000", "090805.190000", "090805.192000", "090805.195000", "090805.197000", "090805.200000", "090805.202000", "090805.205000", "090805.208000", "090805.210000", "090805.213000", "090845.154000", "090845.157000", "090845.160000", "090845.163000", "090845.165000", "090845.168000", "090845.170000", "090845.173000", "090845.176000", "090845.178000", "090845.181000", "090845.183000", "090845.186000", "090845.188000", "090845.191000", "090845.193000", "090845.196000", "090845.198000", "090845.201000", "090845.204000", "090925.154000", "090925.157000", "090925.160000", "090925.163000", "090925.165000", "090925.168000", "090925.170000", "090925.173000", "090925.175000", "090925.178000", "090925.180000", "090925.183000", "090925.186000", "090925.188000", "090925.191000", "090925.193000", "090925.196000", "090925.198000", "090925.201000", "090925.204000", "091005.154000", "091005.157000", "091005.160000", "091005.162000", "091005.165000", "091005.168000", "091005.170000", "091005.173000", "091005.175000", "091005.178000", "091005.180000", "091005.183000", "091005.186000", "091005.188000", "091005.191000", "091005.193000", "091005.196000", "091005.198000", "091005.201000", "091005.204000", "091045.155000", "091045.158000", "091045.161000", "091045.163000", "091045.166000", "091045.169000", "091045.171000", "091045.174000", "091045.176000", "091045.179000", "091045.182000", "091045.184000", "091045.187000", "091045.190000", "091045.192000", "091045.195000", "091045.197000", "091045.200000", "091045.202000", "091045.205000", "091125.155000", "091125.163000", "091125.166000", "091125.178000", "091125.181000", "091125.183000", "091125.186000", "091125.188000", "091125.191000", "091125.194000", "091125.196000", "091125.199000", "091125.201000", "091125.204000", "091125.207000", "091125.209000", "091125.212000", "091125.214000", "091125.217000", "091125.219000", "091205.154000", "091205.157000", "091205.160000", "091205.162000", "091205.165000", "091205.168000", "091205.170000", "091205.173000", "091205.176000", "091205.178000", "091205.181000", "091205.183000", "091205.186000", "091205.188000", "091205.191000", "091205.194000", "091205.196000", "091205.199000", "091205.201000", "091205.204000", "091245.154000", "091245.157000", "091245.160000", "091245.162000", "091245.165000", "091245.168000", "091245.170000", "091245.173000", "091245.175000", "091245.178000", "091245.180000", "091245.183000", "091245.186000", "091245.188000", "091245.191000", "091245.193000", "091245.196000", "091245.198000", "091245.201000", "091245.204000", "091324.477000", "091324.480000", "091324.482000", "091324.485000", "091324.487000", "091324.490000", "091324.493000", "091324.495000", "091324.498000", "091324.501000", "091324.503000", "091324.506000", "091324.509000", "091324.518000", "091324.521000", "091324.527000", "091324.530000", "091324.532000", "091324.535000", "091324.539000"],
      "InstanceCreationTime": ["090725.159000", "090725.163000", "090725.165000", "090725.168000", "090725.170000", "090725.173000", "090725.185000", "090725.188000", "090725.190000", "090725.196000", "090725.198000", "090725.201000", "090725.203000", "090725.206000", "090725.208000", "090725.211000", "090725.214000", "090725.216000", "090725.219000", "090725.221000", "090805.155000", "090805.158000", "090805.160000", "090805.163000", "090805.174000", "090805.177000", "090805.179000", "090805.182000", "090805.185000", "090805.187000", "090805.190000", "090805.192000", "090805.195000", "090805.197000", "090805.200000", "090805.202000", "090805.205000", "090805.208000", "090805.210000", "090805.213000", "090845.154000", "090845.157000", "090845.160000", "090845.163000", "090845.165000", "090845.168000", "090845.170000", "090845.173000", "090845.176000", "090845.178000", "090845.181000", "090845.183000", "090845.186000", "090845.188000", "090845.191000", "090845.193000", "090845.196000", "090845.198000", "090845.201000", "090845.204000", "090925.154000", "090925.157000", "090925.160000", "090925.163000", "090925.165000", "090925.168000", "090925.170000", "090925.173000", "090925.175000", "090925.178000", "090925.180000", "090925.183000", "090925.186000", "090925.188000", "090925.191000", "090925.193000", "090925.196000", "090925.198000", "090925.201000", "090925.204000", "091005.154000", "091005.157000", "091005.160000", "091005.162000", "091005.165000", "091005.168000", "091005.170000", "091005.173000", "091005.175000", "091005.178000", "091005.180000", "091005.183000", "091005.186000", "091005.188000", "091005.191000", "091005.193000", "091005.196000", "091005.198000", "091005.201000", "091005.204000", "091045.155000", "091045.158000", "091045.161000", "091045.163000", "091045.166000", "091045.169000", "091045.171000", "091045.174000", "091045.176000", "091045.179000", "091045.182000", "091045.184000", "091045.187000", "091045.190000", "091045.192000", "091045.195000", "091045.197000", "091045.200000", "091045.202000", "091045.205000", "091125.155000", "091125.163000", "091125.166000", "091125.178000", "091125.181000", "091125.183000", "091125.186000", "091125.188000", "091125.191000", "091125.194000", "091125.196000", "091125.199000", "091125.201000", "091125.204000", "091125.207000", "091125.209000", "091125.212000", "091125.214000", "091125.217000", "091125.219000", "091205.154000", "091205.157000", "091205.160000", "091205.162000", "091205.165000", "091205.168000", "091205.170000", "091205.173000", "091205.176000", "091205.178000", "091205.181000", "091205.183000", "091205.186000", "091205.188000", "091205.191000", "091205.194000", "091205.196000", "091205.199000", "091205.201000", "091205.204000", "091245.154000", "091245.157000", "091245.160000", "091245.162000", "091245.165000", "091245.168000", "091245.170000", "091245.173000", "091245.175000", "091245.178000", "091245.180000", "091245.183000", "091245.186000", "091245.188000", "091245.191000", "091245.193000", "091245.196000", "091245.198000", "091245.201000", "091245.204000", "091324.477000", "091324.480000", "091324.482000", "091324.485000", "091324.487000", "091324.490000", "091324.493000", "091324.495000", "091324.498000", "091324.501000", "091324.503000", "091324.506000", "091324.509000", "091324.518000", "091324.521000", "091324.527000", "091324.530000", "091324.532000", "091324.535000", "091324.539000"],
      "InstanceNumber": [1, 2, 3, 4, 5, 6, 7, 8, 9, 10, 11, 12, 13, 14, 15, 16, 17, 18, 19, 20, 21, 22, 23, 24, 25, 26, 27, 28, 29, 30, 31, 32, 33, 34, 35, 36, 37, 38, 39, 40, 41, 42, 43, 44, 45, 46, 47, 48, 49, 50, 51, 52, 53, 54, 55, 56, 57, 58, 59, 60, 61, 62, 63, 64, 65, 66, 67, 68, 69, 70, 71, 72, 73, 74, 75, 76, 77, 78, 79, 80, 81, 82, 83, 84, 85, 86, 87, 88, 89, 90, 91, 92, 93, 94, 95, 96, 97, 98, 99, 100, 101, 102, 103, 104, 105, 106, 107, 108, 109, 110, 111, 112, 113, 114, 115, 116, 117, 118, 119, 120, 121, 122, 123, 124, 125, 126, 127, 128, 129, 130, 131, 132, 133, 134, 135, 136, 137, 138, 139, 140, 141, 142, 143, 144, 145, 146, 147, 148, 149, 150, 151, 152, 153, 154, 155, 156, 157, 158, 159, 160, 161, 162, 163, 164, 165, 166, 167, 168, 169, 170, 171, 172, 173, 174, 175, 176, 177, 178, 179, 180, 181, 182, 183, 184, 185, 186, 187, 188, 189, 190, 191, 192, 193, 194, 195, 196, 197, 198, 199, 200],
      "LargestImagePixelValue": [336, 334, 334, 334, 336, 335, 335, 334, 334, 334, 335, 334, 334, 335, 335, 334, 334, 336, 336, 335, 336, 336, 335, 336, 334, 335, 334, 335, 334, 335, 333, 334, 334, 335, 334, 335, 334, 334, 335, 334, 336, 334, 336, 334, 335, 335, 336, 335, 336, 335, 334, 334, 335, 335, 335, 335, 336, 334, 334, 336, 334, 333, 335, 335, 334, 334, 336, 335, 334, 335, 334, 335, 335, 335, 335, 334, 335, 335, 335, 336, 334, 332, 335, 334, 335, 334, 334, 336, 335, 334, 334, 335, 336, 333, 336, 334, 335, 335, 334, 333, 334, 335, 336, 335, 335, 335, 335, 334, 336, 333, 334, 336, 335, 334, 335, 334, 334, 334, 334, 334, 334, 336, 334, 336, 334, 334, 334, 334, 334, 334, 335, 334, 334, 334, 334, 334, 335, 335, 335, 334, 334, 334, 333, 335, 335, 334, 334, 333, 333, 334, 334, 334, 336, 334, 335, 334, 336, 334, 334, 336, 336, 335, 335, 334, 335, 334, 334, 335, 335, 335, 335, 335, 335, 333, 334, 335, 335, 335, 333, 334, 333, 333, 333, 334, 335, 335, 334, 334, 334, 333, 335, 335, 335, 334, 334, 334, 335, 334, 334, 334],
      "WindowCenter": [283.0, 283.0, 282.0, 283.0, 282.0, 282.0, 283.0, 283.0, 283.0, 283.0, 283.0, 283.0, 283.0, 283.0, 283.0, 282.0, 283.0, 283.0, 282.0, 283.0, 282.0, 283.0, 282.0, 283.0, 283.0, 283.0, 283.0, 282.0, 283.0, 283.0, 282.0, 283.0, 282.0, 283.0, 283.0, 282.0, 283.0, 282.0, 283.0, 283.0, 282.0, 283.0, 283.0, 282.0, 282.0, 283.0, 283.0, 283.0, 283.0, 283.0, 283.0, 283.0, 283.0, 283.0, 283.0, 283.0, 283.0, 282.0, 282.0, 283.0, 282.0, 282.0, 283.0, 283.0, 283.0, 282.0, 282.0, 283.0, 283.0, 282.0, 282.0, 282.0, 282.0, 283.0, 283.0, 283.0, 283.0, 282.0, 283.0, 283.0, 282.0, 283.0, 282.0, 283.0, 283.0, 282.0, 283.0, 282.0, 283.0, 282.0, 283.0, 283.0, 283.0, 283.0, 282.0, 283.0, 283.0, 282.0, 282.0, 283.0, 282.0, 282.0, 282.0, 282.0, 283.0, 283.0, 283.0, 282.0, 283.0, 283.0, 283.0, 283.0, 282.0, 282.0, 283.0, 283.0, 282.0, 282.0, 282.0, 283.0, 282.0, 282.0, 283.0, 283.0, 282.0, 282.0, 283.0, 282.0, 282.0, 283.0, 283.0, 282.0, 283.0, 283.0, 283.0, 282.0, 281.0, 282.0, 283.0, 283.0, 283.0, 283.0, 282.0, 283.0, 282.0, 283.0, 282.0, 282.0, 281.0, 282.0, 282.0, 282.0, 282.0, 282.0, 283.0, 283.0, 282.0, 283.0, 283.0, 282.0, 283.0, 282.0, 283.0, 282.0, 283.0, 283.0, 282.0, 282.0, 281.0, 282.0, 282.0, 282.0, 281.0, 282.0, 282.0, 282.0, 282.0, 282.0, 281.0, 282.0, 282.0, 281.0, 283.0, 282.0, 282.0, 282.0, 282.0, 282.0, 282.0, 282.0, 282.0, 282.0, 282.0, 282.0, 282.0, 282.0, 283.0, 282.0, 282.0, 282.0],
      "WindowWidth": [617.0, 617.0, 616.0, 617.0, 616.0, 616.0, 617.0, 617.0, 617.0, 617.0, 617.0, 617.0, 617.0, 617.0, 616.0, 616.0, 617.0, 617.0, 616.0, 617.0, 616.0, 617.0, 616.0, 617.0, 617.0, 617.0, 617.0, 616.0, 616.0, 616.0, 616.0, 617.0, 616.0, 617.0, 617.0, 616.0, 616.0, 616.0, 617.0, 617.0, 616.0, 617.0, 617.0, 616.0, 616.0, 617.0, 617.0, 616.0, 616.0, 617.0, 617.0, 617.0, 617.0, 617.0, 616.0, 616.0, 617.0, 616.0, 616.0, 616.0, 616.0, 616.0, 617.0, 616.0, 617.0, 616.0, 616.0, 617.0, 617.0, 616.0, 616.0, 616.0, 616.0, 617.0, 617.0, 617.0, 617.0, 616.0, 616.0, 617.0, 616.0, 616.0, 616.0, 616.0, 616.0, 616.0, 616.0, 616.0, 617.0, 616.0, 617.0, 616.0, 617.0, 616.0, 616.0, 617.0, 616.0, 616.0, 615.0, 616.0, 616.0, 616.0, 616.0, 615.0, 616.0, 616.0, 616.0, 616.0, 616.0, 616.0, 616.0, 616.0, 616.0, 616.0, 616.0, 616.0, 616.0, 616.0, 616.0, 616.0, 616.0, 616.0, 616.0, 616.0, 616.0, 616.0, 616.0, 616.0, 616.0, 616.0, 616.0, 615.0, 616.0, 616.0, 616.0, 616.0, 615.0, 616.0, 616.0, 616.0, 616.0, 616.0, 616.0, 616.0, 616.0, 616.0, 615.0, 616.0, 615.0, 616.0, 616.0, 616.0, 615.0, 615.0, 616.0, 616.0, 616.0, 616.0, 616.0, 615.0, 616.0, 616.0, 616.0, 616.0, 616.0, 616.0, 615.0, 615.0, 614.0, 615.0, 615.0, 615.0, 614.0, 616.0, 615.0, 615.0, 615.0, 615.0, 614.0, 615.0, 615.0, 615.0, 616.0, 616.0, 615.0, 615.0, 615.0, 616.0, 615.0, 615.0, 616.0, 616.0, 615.0, 615.0, 615.0, 615.0, 616.0, 615.0, 615.0, 615.0]
    },
    "slices": {}
  }
}