{
  "AcquisitionMatrixPE": 80,
  "AcquisitionNumber": 1,
  "AcquisitionTime": "08:59:58.490000",
  "BandwidthPerPixelPhaseEncode": 25,
  "BaseResolution": 80,
  "BodyPartExamined": "BRAIN",
  "CoilCombinationMethod": "Sum of Squares",
  "ConsistencyInfo": "N4_VE11C_LATEST_20160120",
  "ConversionSoftware": "dcm2niix",
  "ConversionSoftwareVersion": "v1.0.20220720",
  "DerivedVendorReportedEchoSpacing": 0.0005,
  "DeviceSerialNumber": "66112",
  "DwellTime": 2.7e-06,
  "EchoTime": 0.03,
  "EchoTrainLength": 80,
  "EffectiveEchoSpacing": 0.0005,
  "FlipAngle": 77,
  "HeudiconvVersion": "0.13.1",
  "ImageOrientationPatientDICOM": [0.995914, 0.0899528, 0.00802388, -0.088007, 0.946741, 0.309735],
  "ImageOrientationText": "Tra>Cor(18.0)>Sag(-1.2)",
  "ImageType": [
    "ORIGINAL",
    "PRIMARY",
    "M",
    "ND",
    "NORM",
    "MOSAIC"
],
  "ImagingFrequency": 123.252,
  "InPlanePhaseEncodingDirectionDICOM": "COL",
  "InstitutionAddress": "Maynard 3,Hanover,NH,US,03755",
  "InstitutionName": "Dartmouth College - PBS",
  "InstitutionalDepartmentName": "Department",
  "MRAcquisitionType": "2D",
  "MagneticFieldStrength": 3,
  "Manufacturer": "Siemens",
  "ManufacturersModelName": "Prisma",
  "MatrixCoilMode": "SENSE",
  "Modality": "MR",
  "NonlinearGradientCorrection": false,
  "PartialFourier": 1,
  "PatientPosition": "HFS",
  "PercentPhaseFOV": 100,
  "PercentSampling": 100,
  "PhaseEncodingDirection": "j-",
  "PhaseEncodingSteps": 80,
  "PhaseResolution": 1,
  "PixelBandwidth": 2315,
  "ProcedureStepDescription": "dbic^QA",
  "ProtocolName": "func-bold_acq-32ch-77flip",
  "PulseSequenceDetails": "%SiemensSeq%\\ep2d_bold",
  "ReceiveCoilActiveElements": "HEA;HEP",
  "ReceiveCoilName": "Head_32",
  "ReconMatrixPE": 80,
  "RepetitionTime": 2,
  "SAR": 0.0437826,
  "ScanOptions": "FS",
  "ScanningSequence": "EP",
  "SequenceName": "*epfid2d1_80",
  "SequenceVariant": "SK",
  "SeriesDescription": "func-bold_acq-32ch-77flip",
  "SeriesNumber": 8,
  "ShimSetting": [4149, -7688, -7510, 298, -51, -131, 9, 51],
  "SliceThickness": 3.5,
  "SliceTiming": [0.99, 0, 1.055, 0.065, 1.12, 0.13, 1.1875, 0.1975, 1.2525, 0.2625, 1.32, 0.33, 1.385, 0.395, 1.45, 0.46, 1.5175, 0.5275, 1.5825, 0.5925, 1.6475, 0.66, 1.715, 0.725, 1.78, 0.79, 1.8475, 0.8575, 1.9125, 0.9225],
  "SoftwareVersions": "syngo MR E11",
  "SpacingBetweenSlices": 3.99,
  "StationName": "AWP66112",
  "TotalReadoutTime": 0.0395,
  "TxRefAmp": 235.621,
  "dcmmeta_affine": [
    [-2.987740993499756, -0.2640208899974823, -0.08085737377405167, 131.04164123535156],
    [-0.2698585093021393, 2.840223789215088, 1.2336101531982422, -104.66088104248047],
    [0.024071630090475082, -0.9292049407958984, 3.7936484813690186, -7.646664142608643],
    [0.0, 0.0, 0.0, 1.0]
],
  "dcmmeta_reorient_transform": [
    [0.0, -1.0, 0.0, 79.0],
    [1.0, 0.0, 0.0, 0.0],
    [0.0, 0.0, 1.0, 0.0],
    [0.0, 0.0, 0.0, 1.0]
],
  "dcmmeta_shape": [80, 80, 30, 200],
  "dcmmeta_slice_dim": 2,
  "dcmmeta_version": 0.6,
  "global": {
    "const": {
      "AccessionNumber": "qa",
      "AcquisitionMatrix": [80, 0, 0, 80],
      "AngioFlag": "N",
      "BitsAllocated": 16,
      "BitsStored": 12,
      "BodyPartExamined": "BRAIN",
      "Columns": 480,
      "EchoNumbers": 1,
      "EchoTime": 30.0,
      "EchoTrainLength": 80,
      "FlipAngle": 77.0,
      "HighBit": 11,
      "ImageOrientationPatient": [0.99591370325921, 0.08995283801826, 0.00802387643208, -0.0880069613255, 0.94674126471108, 0.30973497130859],
      "ImagePositionPatient": [-654.9280363584, -741.73325866102, -271.70916090063],
      "ImageType": [
        "ORIGINAL",
        "PRIMARY",
        "M",
        "ND",
        "NORM",
        "MOSAIC"
],
      "ImagedNucleus": "1H",
      "ImagingFrequency": 123.252455,
      "InPlanePhaseEncodingDirection": "COL",
      "MRAcquisitionType": "2D",
      "MagneticFieldStrength": 3.0,
      "Manufacturer": "SIEMENS",
      "ManufacturerModelName": "Prisma",
      "Modality": "MR",
      "NumberOfAverages": 1.0,
      "NumberOfPhaseEncodingSteps": 80,
      "PercentPhaseFieldOfView": 100.0,
      "PercentSampling": 100.0,
      "PerformedProcedureStepStartTime": "084146.540000",
      "PhotometricInterpretation": "MONOCHROME2",
      "PixelBandwidth": 2315.0,
      "PixelRepresentation": 0,
      "PixelSpacing": [3.0, 3.0],
      "ProtocolName": "func-bold_acq-32ch-77flip",
      "RepetitionTime": 2000.0,
      "Rows": 480,
      "SAR": 0.04378255051853,
      "SamplesPerPixel": 1,
      "ScanOptions": "FS",
      "ScanningSequence": "EP",
      "SequenceName": "*epfid2d1_80",
      "SequenceVariant": "SK",
      "SeriesDescription": "func-bold_acq-32ch-77flip",
      "SeriesNumber": 8,
      "SeriesTime": "090045.084000",
      "SliceLocation": -42.28450060836,
      "SliceThickness": 3.5,
      "SmallestImagePixelValue": 0,
      "SoftwareVersions": "syngo MR E11",
      "SpacingBetweenSlices": 3.9900001258404,
      "SpecificCharacterSet": "ISO_IR 100",
      "StudyID": "112",
      "StudyTime": "084146.460000",
      "TransmitCoilName": "Body",
      "VariableFlipAngleFlag": "N",
      "WindowCenterWidthExplanation": "Algo1",
      "dBdt": 0.0},
    "slices": {}
  },
  "time": {
    "samples": {
      "AcquisitionNumber": [1, 2, 3, 4, 5, 6, 7, 8, 9, 10, 11, 12, 13, 14, 15, 16, 17, 18, 19, 20, 21, 22, 23, 24, 25, 26, 27, 28, 29, 30, 31, 32, 33, 34, 35, 36, 37, 38, 39, 40, 41, 42, 43, 44, 45, 46, 47, 48, 49, 50, 51, 52, 53, 54, 55, 56, 57, 58, 59, 60, 61, 62, 63, 64, 65, 66, 67, 68, 69, 70, 71, 72, 73, 74, 75, 76, 77, 78, 79, 80, 81, 82, 83, 84, 85, 86, 87, 88, 89, 90, 91, 92, 93, 94, 95, 96, 97, 98, 99, 100, 101, 102, 103, 104, 105, 106, 107, 108, 109, 110, 111, 112, 113, 114, 115, 116, 117, 118, 119, 120, 121, 122, 123, 124, 125, 126, 127, 128, 129, 130, 131, 132, 133, 134, 135, 136, 137, 138, 139, 140, 141, 142, 143, 144, 145, 146, 147, 148, 149, 150, 151, 152, 153, 154, 155, 156, 157, 158, 159, 160, 161, 162, 163, 164, 165, 166, 167, 168, 169, 170, 171, 172, 173, 174, 175, 176, 177, 178, 179, 180, 181, 182, 183, 184, 185, 186, 187, 188, 189, 190, 191, 192, 193, 194, 195, 196, 197, 198, 199, 200],
      "AcquisitionTime": ["085958.490000", "090000.490000", "090002.490000", "090004.490000", "090006.490000", "090008.490000", "090010.490000", "090012.490000", "090014.490000", "090016.490000", "090018.490000", "090020.490000", "090022.490000", "090024.490000", "090026.490000", "090028.490000", "090030.490000", "090032.490000", "090034.490000", "090036.490000", "090038.490000", "090040.490000", "090042.490000", "090044.490000", "090046.490000", "090048.490000", "090050.490000", "090052.490000", "090054.490000", "090056.490000", "090058.490000", "090100.490000", "090102.490000", "090104.490000", "090106.490000", "090108.490000", "090110.490000", "090112.490000", "090114.490000", "090116.490000", "090118.490000", "090120.490000", "090122.490000", "090124.490000", "090126.490000", "090128.490000", "090130.490000", "090132.490000", "090134.490000", "090136.490000", "090138.490000", "090140.490000", "090142.490000", "090144.490000", "090146.490000", "090148.490000", "090150.490000", "090152.490000", "090154.490000", "090156.490000", "090158.490000", "090200.490000", "090202.490000", "090204.490000", "090206.490000", "090208.490000", "090210.490000", "090212.490000", "090214.490000", "090216.490000", "090218.490000", "090220.490000", "090222.490000", "090224.490000", "090226.490000", "090228.490000", "090230.490000", "090232.490000", "090234.490000", "090236.490000", "090238.490000", "090240.490000", "090242.490000", "090244.490000", "090246.490000", "090248.490000", "090250.490000", "090252.490000", "090254.490000", "090256.490000", "090258.490000", "090300.490000", "090302.490000", "090304.490000", "090306.490000", "090308.490000", "090310.490000", "090312.490000", "090314.490000", "090316.490000", "090318.490000", "090320.490000", "090322.490000", "090324.490000", "090326.490000", "090328.490000", "090330.490000", "090332.490000", "090334.490000", "090336.490000", "090338.490000", "090340.490000", "090342.490000", "090344.490000", "090346.490000", "090348.490000", "090350.490000", "090352.490000", "090354.490000", "090356.490000", "090358.490000", "090400.490000", "090402.490000", "090404.490000", "090406.490000", "090408.490000", "090410.490000", "090412.490000", "090414.490000", "090416.490000", "090418.490000", "090420.490000", "090422.490000", "090424.490000", "090426.490000", "090428.490000", "090430.490000", "090432.490000", "090434.490000", "090436.490000", "090438.490000", "090440.490000", "090442.490000", "090444.490000", "090446.490000", "090448.490000", "090450.490000", "090452.490000", "090454.490000", "090456.490000", "090458.490000", "090500.490000", "090502.490000", "090504.490000", "090506.490000", "090508.490000", "090510.490000", "090512.490000", "090514.490000", "090516.490000", "090518.490000", "090520.490000", "090522.490000", "090524.490000", "090526.490000", "090528.490000", "090530.490000", "090532.490000", "090534.490000", "090536.490000", "090538.490000", "090540.490000", "090542.490000", "090544.490000", "090546.490000", "090548.490000", "090550.490000", "090552.490000", "090554.490000", "090556.490000", "090558.490000", "090600.490000", "090602.490000", "090604.490000", "090606.490000", "090608.490000", "090610.490000", "090612.490000", "090614.490000", "090616.490000", "090618.490000", "090620.490000", "090622.490000", "090624.490000", "090626.490000", "090628.490000", "090630.490000", "090632.490000", "090634.490000", "090636.490000"],
      "ContentTime": ["090045.088000", "090045.091000", "090045.094000", "090045.097000", "090045.099000", "090045.102000", "090045.104000", "090045.107000", "090045.110000", "090045.112000", "090045.115000", "090045.120000", "090045.123000", "090045.125000", "090045.128000", "090045.131000", "090045.133000", "090045.136000", "090045.139000", "090045.141000", "090045.144000", "090045.147000", "090045.149000", "090125.083000", "090125.087000", "090125.089000", "090125.092000", "090125.095000", "090125.097000", "090125.100000", "090125.103000", "090125.105000", "090125.108000", "090125.110000", "090125.113000", "090125.116000", "090125.118000", "090125.121000", "090125.124000", "090125.126000", "090125.129000", "090125.132000", "090125.134000", "090205.082000", "090205.086000", "090205.088000", "090205.091000", "090205.094000", "090205.096000", "090205.099000", "090205.102000", "090205.104000", "090205.107000", "090205.110000", "090205.112000", "090205.115000", "090205.117000", "090205.120000", "090205.123000", "090205.125000", "090205.128000", "090205.131000", "090205.133000", "090245.083000", "090245.086000", "090245.088000", "090245.091000", "090245.094000", "090245.096000", "090245.099000", "090245.102000", "090245.104000", "090245.107000", "090245.109000", "090245.119000", "090245.122000", "090245.125000", "090245.127000", "090245.130000", "090245.132000", "090245.135000", "090245.138000", "090245.140000", "090325.083000", "090325.085000", "090325.088000", "090325.091000", "090325.093000", "090325.096000", "090325.099000", "090325.101000", "090325.104000", "090325.106000", "090325.109000", "090325.112000", "090325.114000", "090325.117000", "090325.119000", "090325.122000", "090325.125000", "090325.127000", "090325.130000", "090325.132000", "090405.082000", "090405.085000", "090405.088000", "090405.091000", "090405.093000", "090405.096000", "090405.099000", "090405.101000", "090405.104000", "090405.106000", "090405.109000", "090405.116000", "090405.119000", "090405.121000", "090405.124000", "090405.127000", "090405.129000", "090405.132000", "090405.134000", "090405.137000", "090445.083000", "090445.085000", "090445.088000", "090445.091000", "090445.093000", "090445.096000", "090445.098000", "090445.101000", "090445.104000", "090445.106000", "090445.109000", "090445.111000", "090445.114000", "090445.117000", "090445.119000", "090445.122000", "090445.124000", "090445.137000", "090445.139000", "090445.142000", "090525.083000", "090525.086000", "090525.088000", "090525.091000", "090525.093000", "090525.096000", "090525.099000", "090525.101000", "090525.104000", "090525.106000", "090525.109000", "090525.112000", "090525.114000", "090525.117000", "090525.120000", "090525.122000", "090525.125000", "090525.127000", "090525.130000", "090525.133000", "090605.084000", "090605.086000", "090605.089000", "090605.092000", "090605.094000", "090605.097000", "090605.099000", "090605.102000", "090605.105000", "090605.107000", "090605.110000", "090605.112000", "090605.115000", "090605.118000", "090605.128000", "090605.131000", "090605.133000", "090605.136000", "090605.138000", "090605.141000", "090638.160000", "090638.163000", "090638.166000", "090638.168000", "090638.171000", "090638.174000", "090638.176000", "090638.179000", "090638.181000", "090638.184000", "090638.187000", "090638.189000", "090638.199000", "090638.206000", "090638.211000", "090638.215000", "090638.219000"],
      "InstanceCreationTime": ["090045.088000", "090045.091000", "090045.094000", "090045.097000", "090045.099000", "090045.102000", "090045.104000", "090045.107000", "090045.110000", "090045.112000", "090045.115000", "090045.120000", "090045.123000", "090045.125000", "090045.128000", "090045.131000", "090045.133000", "090045.136000", "090045.139000", "090045.141000", "090045.144000", "090045.147000", "090045.149000", "090125.083000", "090125.087000", "090125.089000", "090125.092000", "090125.095000", "090125.097000", "090125.100000", "090125.103000", "090125.105000", "090125.108000", "090125.110000", "090125.113000", "090125.116000", "090125.118000", "090125.121000", "090125.124000", "090125.126000", "090125.129000", "090125.132000", "090125.134000", "090205.082000", "090205.086000", "090205.088000", "090205.091000", "090205.094000", "090205.096000", "090205.099000", "090205.102000", "090205.104000", "090205.107000", "090205.110000", "090205.112000", "090205.115000", "090205.117000", "090205.120000", "090205.123000", "090205.125000", "090205.128000", "090205.131000", "090205.133000", "090245.083000", "090245.086000", "090245.088000", "090245.091000", "090245.094000", "090245.096000", "090245.099000", "090245.102000", "090245.104000", "090245.107000", "090245.109000", "090245.119000", "090245.122000", "090245.125000", "090245.127000", "090245.130000", "090245.132000", "090245.135000", "090245.138000", "090245.140000", "090325.083000", "090325.085000", "090325.088000", "090325.091000", "090325.093000", "090325.096000", "090325.099000", "090325.101000", "090325.104000", "090325.106000", "090325.109000", "090325.112000", "090325.114000", "090325.117000", "090325.119000", "090325.122000", "090325.125000", "090325.127000", "090325.130000", "090325.132000", "090405.082000", "090405.085000", "090405.088000", "090405.091000", "090405.093000", "090405.096000", "090405.099000", "090405.101000", "090405.104000", "090405.106000", "090405.109000", "090405.116000", "090405.119000", "090405.121000", "090405.124000", "090405.127000", "090405.129000", "090405.132000", "090405.134000", "090405.137000", "090445.083000", "090445.085000", "090445.088000", "090445.091000", "090445.093000", "090445.096000", "090445.098000", "090445.101000", "090445.104000", "090445.106000", "090445.109000", "090445.111000", "090445.114000", "090445.117000", "090445.119000", "090445.122000", "090445.124000", "090445.137000", "090445.139000", "090445.142000", "090525.083000", "090525.086000", "090525.088000", "090525.091000", "090525.093000", "090525.096000", "090525.099000", "090525.101000", "090525.104000", "090525.106000", "090525.109000", "090525.112000", "090525.114000", "090525.117000", "090525.120000", "090525.122000", "090525.125000", "090525.127000", "090525.130000", "090525.133000", "090605.084000", "090605.086000", "090605.089000", "090605.092000", "090605.094000", "090605.097000", "090605.099000", "090605.102000", "090605.105000", "090605.107000", "090605.110000", "090605.112000", "090605.115000", "090605.118000", "090605.128000", "090605.131000", "090605.133000", "090605.136000", "090605.138000", "090605.141000", "090638.160000", "090638.163000", "090638.166000", "090638.168000", "090638.171000", "090638.174000", "090638.176000", "090638.179000", "090638.181000", "090638.184000", "090638.187000", "090638.189000", "090638.199000", "090638.206000", "090638.211000", "090638.215000", "090638.219000"],
      "InstanceNumber": [1, 2, 3, 4, 5, 6, 7, 8, 9, 10, 11, 12, 13, 14, 15, 16, 17, 18, 19, 20, 21, 22, 23, 24, 25, 26, 27, 28, 29, 30, 31, 32, 33, 34, 35, 36, 37, 38, 39, 40, 41, 42, 43, 44, 45, 46, 47, 48, 49, 50, 51, 52, 53, 54, 55, 56, 57, 58, 59, 60, 61, 62, 63, 64, 65, 66, 67, 68, 69, 70, 71, 72, 73, 74, 75, 76, 77, 78, 79, 80, 81, 82, 83, 84, 85, 86, 87, 88, 89, 90, 91, 92, 93, 94, 95, 96, 97, 98, 99, 100, 101, 102, 103, 104, 105, 106, 107, 108, 109, 110, 111, 112, 113, 114, 115, 116, 117, 118, 119, 120, 121, 122, 123, 124, 125, 126, 127, 128, 129, 130, 131, 132, 133, 134, 135, 136, 137, 138, 139, 140, 141, 142, 143, 144, 145, 146, 147, 148, 149, 150, 151, 152, 153, 154, 155, 156, 157, 158, 159, 160, 161, 162, 163, 164, 165, 166, 167, 168, 169, 170, 171, 172, 173, 174, 175, 176, 177, 178, 179, 180, 181, 182, 183, 184, 185, 186, 187, 188, 189, 190, 191, 192, 193, 194, 195, 196, 197, 198, 199, 200],
      "LargestImagePixelValue": [1942, 1944, 1942, 1945, 1944, 1948, 1944, 1945, 1944, 1941, 1944, 1944, 1943, 1945, 1942, 1940, 1942, 1945, 1945, 1946, 1944, 1943, 1942, 1946, 1945, 1942, 1943, 1943, 1942, 1944, 1944, 1944, 1944, 1944, 1943, 1943, 1944, 1944, 1945, 1944, 1943, 1941, 1943, 1943, 1945, 1943, 1943, 1944, 1944, 1944, 1943, 1943, 1943, 1945, 1943, 1944, 1944, 1945, 1944, 1946, 1946, 1943, 1944, 1946, 1943, 1942, 1944, 1943, 1945, 1946, 1947, 1945, 1945, 1943, 1944, 1945, 1944, 1944, 1944, 1945, 1944, 1944, 1942, 1944, 1944, 1945, 1947, 1946, 1943, 1944, 1944, 1944, 1945, 1943, 1945, 1944, 1943, 1943, 1946, 1945, 1944, 1945, 1944, 1944, 1945, 1942, 1945, 1944, 1944, 1943, 1945, 1945, 1946, 1945, 1943, 1944, 1942, 1944, 1943, 1942, 1943, 1944, 1945, 1943, 1944, 1943, 1948, 1947, 1945, 1944, 1946, 1946, 1945, 1945, 1943, 1945, 1945, 1943, 1944, 1947, 1943, 1944, 1946, 1943, 1947, 1946, 1946, 1944, 1943, 1944, 1944, 1944, 1946, 1945, 1946, 1944, 1944, 1941, 1941, 1945, 1946, 1947, 1946, 1942, 1942, 1939, 1941, 1949, 1945, 1943, 1945, 1946, 1946, 1942, 1946, 1947, 1946, 1946, 1946, 1945, 1943, 1946, 1946, 1944, 1946, 1947, 1944, 1945, 1950, 1945, 1944, 1944, 1944, 1945, 1944, 1944, 1945, 1943, 1944, 1945],
      "WindowCenter": [980.0, 980.0, 980.0, 980.0, 980.0, 980.0, 980.0, 980.0, 980.0, 980.0, 980.0, 980.0, 980.0, 980.0, 980.0, 980.0, 980.0, 980.0, 980.0, 980.0, 980.0, 980.0, 980.0, 980.0, 979.0, 980.0, 980.0, 979.0, 980.0, 979.0, 979.0, 979.0, 980.0, 980.0, 980.0, 979.0, 980.0, 981.0, 980.0, 979.0, 980.0, 980.0, 980.0, 979.0, 980.0, 980.0, 979.0, 980.0, 978.0, 980.0, 980.0, 979.0, 980.0, 980.0, 980.0, 980.0, 978.0, 980.0, 980.0, 980.0, 980.0, 979.0, 980.0, 979.0, 980.0, 980.0, 980.0, 980.0, 980.0, 979.0, 980.0, 979.0, 979.0, 979.0, 979.0, 979.0, 979.0, 979.0, 979.0, 979.0, 979.0, 979.0, 979.0, 979.0, 979.0, 979.0, 979.0, 979.0, 979.0, 979.0, 979.0, 979.0, 979.0, 978.0, 978.0, 979.0, 979.0, 979.0, 979.0, 979.0, 978.0, 979.0, 979.0, 979.0, 979.0, 978.0, 979.0, 979.0, 979.0, 979.0, 979.0, 979.0, 978.0, 979.0, 979.0, 980.0, 980.0, 979.0, 979.0, 979.0, 979.0, 979.0, 979.0, 978.0, 979.0, 979.0, 979.0, 979.0, 979.0, 979.0, 979.0, 979.0, 979.0, 979.0, 979.0, 979.0, 979.0, 979.0, 979.0, 979.0, 979.0, 979.0, 978.0, 979.0, 979.0, 979.0, 978.0, 979.0, 980.0, 979.0, 979.0, 979.0, 979.0, 979.0, 979.0, 979.0, 978.0, 979.0, 979.0, 978.0, 979.0, 980.0, 979.0, 979.0, 979.0, 979.0, 978.0, 979.0, 979.0, 979.0, 978.0, 978.0, 979.0, 979.0, 979.0, 979.0, 979.0, 979.0, 979.0, 977.0, 979.0, 979.0, 979.0, 979.0, 978.0, 978.0, 979.0, 979.0, 979.0, 979.0, 979.0, 979.0, 979.0, 979.0, 979.0, 979.0, 978.0, 978.0, 979.0, 979.0],
      "WindowWidth": [2148.0, 2148.0, 2148.0, 2148.0, 2148.0, 2148.0, 2148.0, 2148.0, 2148.0, 2148.0, 2148.0, 2148.0, 2148.0, 2148.0, 2148.0, 2148.0, 2148.0, 2148.0, 2148.0, 2148.0, 2148.0, 2148.0, 2148.0, 2147.0, 2147.0, 2148.0, 2148.0, 2147.0, 2147.0, 2146.0, 2146.0, 2146.0, 2147.0, 2147.0, 2146.0, 2146.0, 2147.0, 2148.0, 2147.0, 2146.0, 2147.0, 2147.0, 2147.0, 2146.0, 2147.0, 2147.0, 2146.0, 2147.0, 2145.0, 2147.0, 2147.0, 2146.0, 2147.0, 2147.0, 2147.0, 2147.0, 2145.0, 2147.0, 2147.0, 2146.0, 2147.0, 2146.0, 2146.0, 2147.0, 2146.0, 2146.0, 2147.0, 2147.0, 2146.0, 2146.0, 2146.0, 2145.0, 2146.0, 2146.0, 2145.0, 2145.0, 2145.0, 2146.0, 2146.0, 2147.0, 2146.0, 2145.0, 2146.0, 2146.0, 2146.0, 2146.0, 2145.0, 2145.0, 2146.0, 2146.0, 2146.0, 2145.0, 2145.0, 2145.0, 2145.0, 2146.0, 2146.0, 2146.0, 2146.0, 2146.0, 2145.0, 2146.0, 2146.0, 2146.0, 2146.0, 2145.0, 2146.0, 2146.0, 2146.0, 2146.0, 2146.0, 2146.0, 2145.0, 2146.0, 2146.0, 2146.0, 2146.0, 2146.0, 2146.0, 2146.0, 2146.0, 2146.0, 2146.0, 2145.0, 2146.0, 2146.0, 2146.0, 2145.0, 2145.0, 2145.0, 2146.0, 2145.0, 2145.0, 2145.0, 2145.0, 2145.0, 2145.0, 2145.0, 2145.0, 2145.0, 2145.0, 2145.0, 2145.0, 2145.0, 2145.0, 2145.0, 2145.0, 2145.0, 2146.0, 2145.0, 2145.0, 2145.0, 2145.0, 2145.0, 2145.0, 2145.0, 2144.0, 2145.0, 2145.0, 2145.0, 2145.0, 2146.0, 2145.0, 2145.0, 2145.0, 2145.0, 2145.0, 2145.0, 2145.0, 2145.0, 2145.0, 2145.0, 2145.0, 2145.0, 2145.0, 2145.0, 2145.0, 2145.0, 2145.0, 2144.0, 2145.0, 2145.0, 2145.0, 2145.0, 2144.0, 2144.0, 2145.0, 2145.0, 2145.0, 2145.0, 2145.0, 2145.0, 2145.0, 2145.0, 2145.0, 2145.0, 2144.0, 2144.0, 2145.0, 2145.0]
    },
    "slices": {}
  }
}