{
  "AcquisitionMatrixPE": 80,
  "AcquisitionNumber": 1,
  "AcquisitionTime": "10:25:35.145000",
  "BandwidthPerPixelPhaseEncode": 44.643,
  "BaseResolution": 80,
  "BodyPartExamined": "BRAIN",
  "CoilCombinationMethod": "Sum of Squares",
  "ConsistencyInfo": "N4_VE11C_LATEST_20160120",
  "ConversionSoftware": "dcm2niix",
  "ConversionSoftwareVersion": "v1.0.20220720",
  "DerivedVendorReportedEchoSpacing": 0.000559998,
  "DeviceSerialNumber": "66112",
  "DwellTime": 2.7e-06,
  "EchoTime": 0.035,
  "EchoTrainLength": 39,
  "EffectiveEchoSpacing": 0.000279999,
  "FlipAngle": 90,
  "HeudiconvVersion": "0.13.1",
  "ImageOrientationPatientDICOM": [0.993324, -0.115282, 0.00420938, 0.108787, 0.948246, 0.29832],
  "ImageOrientationText": "Tra>Cor(17.2)>Sag(2.2)",
  "ImageType": [
    "ORIGINAL",
    "PRIMARY",
    "M",
    "ND",
    "NORM",
    "MOSAIC"
],
  "ImagingFrequency": 123.252,
  "InPlanePhaseEncodingDirectionDICOM": "COL",
  "InstitutionAddress": "Maynard 3,Hanover,NH,US,03755",
  "InstitutionName": "Dartmouth College - PBS",
  "InstitutionalDepartmentName": "Department",
  "MRAcquisitionType": "2D",
  "MagneticFieldStrength": 3,
  "Manufacturer": "Siemens",
  "ManufacturersModelName": "Prisma",
  "Modality": "MR",
  "MultibandAccelerationFactor": 4,
  "NonlinearGradientCorrection": false,
  "ParallelReductionFactorInPlane": 2,
  "PartialFourier": 1,
  "PatientPosition": "HFS",
  "PercentPhaseFOV": 100,
  "PercentSampling": 100,
  "PhaseEncodingDirection": "j-",
  "PhaseEncodingSteps": 79,
  "PhaseResolution": 1,
  "PixelBandwidth": 2315,
  "ProcedureStepDescription": "dbic^QA",
  "ProtocolName": "func-bold_task-rest_acq-p2-s4-3.5mm",
  "PulseSequenceDetails": "%SiemensSeq%\\ep2d_bold",
  "ReceiveCoilActiveElements": "HEA;HEP",
  "ReceiveCoilName": "Head_32",
  "ReconMatrixPE": 80,
  "RefLinesPE": 24,
  "RepetitionTime": 2,
  "SAR": 0.0207732,
  "ScanOptions": "FS",
  "ScanningSequence": "EP",
  "SequenceName": "*epfid2d1_80",
  "SequenceVariant": "SK",
  "SeriesDescription": "func-bold_task-rest_acq-p2-s4-3.5mm",
  "SeriesNumber": 7,
  "ShimSetting": [4137, -7694, -7519, 332, -75, -233, -65, 32],
  "SliceThickness": 3.5,
  "SliceTiming": [1.485, 0, 0.99, 0.2475, 1.2375, 0.7425, 1.7325, 0.495, 1.485, 0, 0.99, 0.2475, 1.2375, 0.7425, 1.7325, 0.495, 1.485, 0, 0.99, 0.2475, 1.2375, 0.7425, 1.7325, 0.495, 1.485, 0, 0.99, 0.2475, 1.2375, 0.7425, 1.7325, 0.495],
  "SoftwareVersions": "syngo MR E11",
  "SpacingBetweenSlices": 3.99,
  "StationName": "AWP66112",
  "TaskName": "rest",
  "TotalReadoutTime": 0.0221199,
  "TxRefAmp": 221.913,
  "dcmmeta_affine": [
    [-2.979971408843994, 0.3263597786426544, 0.1531466245651245, 106.04190826416016],
    [0.34584715962409973, 2.844738006591797, 1.180524468421936, -147.46884155273438],
    [0.01262814924120903, -0.8949609994888306, 3.808281660079956, -23.413440704345703],
    [0.0, 0.0, 0.0, 1.0]
],
  "dcmmeta_reorient_transform": [
    [0.0, -1.0, 0.0, 79.0],
    [1.0, 0.0, 0.0, 0.0],
    [0.0, 0.0, 1.0, 0.0],
    [0.0, 0.0, 0.0, 1.0]
],
  "dcmmeta_shape": [80, 80, 32, 200],
  "dcmmeta_slice_dim": 2,
  "dcmmeta_version": 0.6,
  "global": {
    "const": {
      "AccessionNumber": "qa",
      "AcquisitionMatrix": [80, 0, 0, 80],
      "AngioFlag": "N",
      "BitsAllocated": 16,
      "BitsStored": 12,
      "BodyPartExamined": "BRAIN",
      "Columns": 480,
      "EchoNumbers": 1,
      "EchoTime": 35.0,
      "EchoTrainLength": 39,
      "FlipAngle": 90.0,
      "HighBit": 11,
      "ImageOrientationPatient": [0.99332384054899, -0.1152823875991, 0.00420938314436, 0.10878659343768, 0.94824598693587, 0.29832034015173],
      "ImagePositionPatient": [-793.09059011523, -577.043613605, -275.63319505419],
      "ImageType": [
        "ORIGINAL",
        "PRIMARY",
        "M",
        "ND",
        "NORM",
        "MOSAIC"
],
      "ImagedNucleus": "1H",
      "ImagingFrequency": 123.252463,
      "InPlanePhaseEncodingDirection": "COL",
      "MRAcquisitionType": "2D",
      "MagneticFieldStrength": 3.0,
      "Manufacturer": "SIEMENS",
      "ManufacturerModelName": "Prisma",
      "Modality": "MR",
      "NumberOfAverages": 1.0,
      "NumberOfPhaseEncodingSteps": 79,
      "PercentPhaseFieldOfView": 100.0,
      "PercentSampling": 100.0,
      "PerformedProcedureStepStartTime": "101510.171000",
      "PhotometricInterpretation": "MONOCHROME2",
      "PixelBandwidth": 2315.0,
      "PixelRepresentation": 0,
      "PixelSpacing": [3.0, 3.0],
      "ProtocolName": "func-bold_task-rest_acq-p2-s4-3.5mm",
      "RepetitionTime": 2000.0,
      "Rows": 480,
      "SAR": 0.02077322527474,
      "SamplesPerPixel": 1,
      "ScanOptions": "FS",
      "ScanningSequence": "EP",
      "SequenceName": "*epfid2d1_80",
      "SequenceVariant": "SK",
      "SeriesDescription": "func-bold_task-rest_acq-p2-s4-3.5mm",
      "SeriesNumber": 7,
      "SeriesTime": "102629.072000",
      "SliceLocation": -61.908668035668,
      "SliceThickness": 3.5,
      "SmallestImagePixelValue": 0,
      "SoftwareVersions": "syngo MR E11",
      "SpacingBetweenSlices": 3.9900000332069,
      "SpecificCharacterSet": "ISO_IR 100",
      "StudyID": "89",
      "StudyTime": "101510.039000",
      "TransmitCoilName": "Body",
      "VariableFlipAngleFlag": "N",
      "WindowCenterWidthExplanation": "Algo1",
      "dBdt": 0.0},
    "slices": {}
  },
  "time": {
    "samples": {
      "AcquisitionNumber": [1, 2, 3, 4, 5, 6, 7, 8, 9, 10, 11, 12, 13, 14, 15, 16, 17, 18, 19, 20, 21, 22, 23, 24, 25, 26, 27, 28, 29, 30, 31, 32, 33, 34, 35, 36, 37, 38, 39, 40, 41, 42, 43, 44, 45, 46, 47, 48, 49, 50, 51, 52, 53, 54, 55, 56, 57, 58, 59, 60, 61, 62, 63, 64, 65, 66, 67, 68, 69, 70, 71, 72, 73, 74, 75, 76, 77, 78, 79, 80, 81, 82, 83, 84, 85, 86, 87, 88, 89, 90, 91, 92, 93, 94, 95, 96, 97, 98, 99, 100, 101, 102, 103, 104, 105, 106, 107, 108, 109, 110, 111, 112, 113, 114, 115, 116, 117, 118, 119, 120, 121, 122, 123, 124, 125, 126, 127, 128, 129, 130, 131, 132, 133, 134, 135, 136, 137, 138, 139, 140, 141, 142, 143, 144, 145, 146, 147, 148, 149, 150, 151, 152, 153, 154, 155, 156, 157, 158, 159, 160, 161, 162, 163, 164, 165, 166, 167, 168, 169, 170, 171, 172, 173, 174, 175, 176, 177, 178, 179, 180, 181, 182, 183, 184, 185, 186, 187, 188, 189, 190, 191, 192, 193, 194, 195, 196, 197, 198, 199, 200],
      "AcquisitionTime": ["102535.145000", "102537.145000", "102539.145000", "102541.145000", "102543.145000", "102545.145000", "102547.145000", "102549.145000", "102551.145000", "102553.145000", "102555.145000", "102557.145000", "102559.145000", "102601.145000", "102603.145000", "102605.145000", "102607.145000", "102609.145000", "102611.145000", "102613.145000", "102615.145000", "102617.145000", "102619.145000", "102621.145000", "102623.145000", "102625.145000", "102627.145000", "102629.145000", "102631.145000", "102633.145000", "102635.145000", "102637.145000", "102639.145000", "102641.145000", "102643.145000", "102645.145000", "102647.145000", "102649.145000", "102651.145000", "102653.145000", "102655.145000", "102657.145000", "102659.145000", "102701.145000", "102703.145000", "102705.145000", "102707.145000", "102709.145000", "102711.145000", "102713.145000", "102715.145000", "102717.145000", "102719.145000", "102721.145000", "102723.145000", "102725.145000", "102727.145000", "102729.145000", "102731.145000", "102733.145000", "102735.145000", "102737.145000", "102739.145000", "102741.145000", "102743.145000", "102745.145000", "102747.145000", "102749.145000", "102751.145000", "102753.145000", "102755.145000", "102757.145000", "102759.145000", "102801.145000", "102803.145000", "102805.145000", "102807.145000", "102809.145000", "102811.145000", "102813.145000", "102815.145000", "102817.145000", "102819.145000", "102821.145000", "102823.145000", "102825.145000", "102827.145000", "102829.145000", "102831.145000", "102833.145000", "102835.145000", "102837.145000", "102839.145000", "102841.145000", "102843.145000", "102845.145000", "102847.145000", "102849.145000", "102851.145000", "102853.145000", "102855.145000", "102857.145000", "102859.145000", "102901.145000", "102903.145000", "102905.145000", "102907.145000", "102909.145000", "102911.145000", "102913.145000", "102915.145000", "102917.145000", "102919.145000", "102921.145000", "102923.145000", "102925.145000", "102927.145000", "102929.145000", "102931.145000", "102933.145000", "102935.145000", "102937.145000", "102939.145000", "102941.145000", "102943.145000", "102945.145000", "102947.145000", "102949.145000", "102951.145000", "102953.145000", "102955.145000", "102957.145000", "102959.145000", "103001.145000", "103003.145000", "103005.145000", "103007.145000", "103009.145000", "103011.145000", "103013.145000", "103015.145000", "103017.145000", "103019.145000", "103021.145000", "103023.145000", "103025.145000", "103027.145000", "103029.145000", "103031.145000", "103033.145000", "103035.145000", "103037.145000", "103039.145000", "103041.145000", "103043.145000", "103045.145000", "103047.145000", "103049.145000", "103051.145000", "103053.145000", "103055.145000", "103057.145000", "103059.145000", "103101.145000", "103103.145000", "103105.145000", "103107.145000", "103109.145000", "103111.145000", "103113.145000", "103115.145000", "103117.145000", "103119.145000", "103121.145000", "103123.145000", "103125.145000", "103127.145000", "103129.145000", "103131.145000", "103133.145000", "103135.145000", "103137.145000", "103139.145000", "103141.145000", "103143.145000", "103145.145000", "103147.145000", "103149.145000", "103151.145000", "103153.145000", "103155.145000", "103157.145000", "103159.145000", "103201.145000", "103203.145000", "103205.145000", "103207.145000", "103209.145000", "103211.145000", "103213.145000"],
      "ContentTime": ["102629.075000", "102629.079000", "102629.081000", "102629.084000", "102629.086000", "102629.098000", "102629.109000", "102629.111000", "102629.114000", "102629.117000", "102629.119000", "102629.122000", "102629.124000", "102629.127000", "102629.129000", "102629.132000", "102629.135000", "102629.137000", "102629.140000", "102629.142000", "102629.145000", "102629.147000", "102629.150000", "102629.153000", "102629.155000", "102629.158000", "102629.160000", "102709.070000", "102709.073000", "102709.076000", "102709.078000", "102709.081000", "102709.083000", "102709.086000", "102709.088000", "102709.091000", "102709.094000", "102709.096000", "102709.109000", "102709.112000", "102709.115000", "102709.117000", "102709.120000", "102709.122000", "102709.125000", "102709.127000", "102709.130000", "102749.071000", "102749.074000", "102749.077000", "102749.079000", "102749.082000", "102749.085000", "102749.087000", "102749.090000", "102749.092000", "102749.095000", "102749.097000", "102749.100000", "102749.102000", "102749.105000", "102749.108000", "102749.110000", "102749.113000", "102749.115000", "102749.118000", "102749.120000", "102829.070000", "102829.073000", "102829.076000", "102829.078000", "102829.081000", "102829.083000", "102829.086000", "102829.089000", "102829.091000", "102829.094000", "102829.096000", "102829.099000", "102829.101000", "102829.104000", "102829.107000", "102829.109000", "102829.112000", "102829.114000", "102829.117000", "102829.119000", "102909.070000", "102909.073000", "102909.076000", "102909.079000", "102909.081000", "102909.084000", "102909.086000", "102909.089000", "102909.091000", "102909.094000", "102909.096000", "102909.099000", "102909.101000", "102909.104000", "102909.107000", "102909.109000", "102909.112000", "102909.114000", "102909.117000", "102909.119000", "102949.071000", "102949.074000", "102949.077000", "102949.080000", "102949.082000", "102949.085000", "102949.087000", "102949.090000", "102949.092000", "102949.095000", "102949.097000", "102949.100000", "102949.103000", "102949.105000", "102949.108000", "102949.110000", "102949.113000", "102949.115000", "102949.118000", "102949.121000", "103029.087000", "103029.089000", "103029.092000", "103029.094000", "103029.097000", "103029.099000", "103029.102000", "103029.105000", "103029.107000", "103029.110000", "103029.120000", "103029.123000", "103029.125000", "103029.127000", "103029.130000", "103029.133000", "103029.135000", "103029.138000", "103029.140000", "103029.143000", "103109.070000", "103109.073000", "103109.076000", "103109.078000", "103109.081000", "103109.083000", "103109.086000", "103109.088000", "103109.091000", "103109.093000", "103109.096000", "103109.098000", "103109.101000", "103109.103000", "103109.106000", "103109.109000", "103109.111000", "103109.114000", "103109.116000", "103109.119000", "103149.070000", "103149.073000", "103149.076000", "103149.078000", "103149.081000", "103149.083000", "103149.086000", "103149.088000", "103149.091000", "103149.093000", "103149.096000", "103149.098000", "103149.101000", "103149.103000", "103149.106000", "103149.108000", "103149.111000", "103149.113000", "103149.116000", "103149.119000", "103214.650000", "103214.652000", "103214.655000", "103214.658000", "103214.660000", "103214.663000", "103214.666000", "103214.668000", "103214.671000", "103214.673000", "103214.676000", "103214.678000", "103214.682000"],
      "InstanceCreationTime": ["102629.075000", "102629.079000", "102629.081000", "102629.084000", "102629.086000", "102629.098000", "102629.109000", "102629.111000", "102629.114000", "102629.117000", "102629.119000", "102629.122000", "102629.124000", "102629.127000", "102629.129000", "102629.132000", "102629.135000", "102629.137000", "102629.140000", "102629.142000", "102629.145000", "102629.147000", "102629.150000", "102629.153000", "102629.155000", "102629.158000", "102629.160000", "102709.070000", "102709.073000", "102709.076000", "102709.078000", "102709.081000", "102709.083000", "102709.086000", "102709.088000", "102709.091000", "102709.094000", "102709.096000", "102709.109000", "102709.112000", "102709.115000", "102709.117000", "102709.120000", "102709.122000", "102709.125000", "102709.127000", "102709.130000", "102749.071000", "102749.074000", "102749.077000", "102749.079000", "102749.082000", "102749.085000", "102749.087000", "102749.090000", "102749.092000", "102749.095000", "102749.097000", "102749.100000", "102749.102000", "102749.105000", "102749.108000", "102749.110000", "102749.113000", "102749.115000", "102749.118000", "102749.120000", "102829.070000", "102829.073000", "102829.076000", "102829.078000", "102829.081000", "102829.083000", "102829.086000", "102829.089000", "102829.091000", "102829.094000", "102829.096000", "102829.099000", "102829.101000", "102829.104000", "102829.107000", "102829.109000", "102829.112000", "102829.114000", "102829.117000", "102829.119000", "102909.070000", "102909.073000", "102909.076000", "102909.079000", "102909.081000", "102909.084000", "102909.086000", "102909.089000", "102909.091000", "102909.094000", "102909.096000", "102909.099000", "102909.101000", "102909.104000", "102909.107000", "102909.109000", "102909.112000", "102909.114000", "102909.117000", "102909.119000", "102949.071000", "102949.074000", "102949.077000", "102949.080000", "102949.082000", "102949.085000", "102949.087000", "102949.090000", "102949.092000", "102949.095000", "102949.097000", "102949.100000", "102949.103000", "102949.105000", "102949.108000", "102949.110000", "102949.113000", "102949.115000", "102949.118000", "102949.121000", "103029.087000", "103029.089000", "103029.092000", "103029.094000", "103029.097000", "103029.099000", "103029.102000", "103029.105000", "103029.107000", "103029.110000", "103029.120000", "103029.123000", "103029.125000", "103029.127000", "103029.130000", "103029.133000", "103029.135000", "103029.138000", "103029.140000", "103029.143000", "103109.070000", "103109.073000", "103109.076000", "103109.078000", "103109.081000", "103109.083000", "103109.086000", "103109.088000", "103109.091000", "103109.093000", "103109.096000", "103109.098000", "103109.101000", "103109.103000", "103109.106000", "103109.109000", "103109.111000", "103109.114000", "103109.116000", "103109.119000", "103149.070000", "103149.073000", "103149.076000", "103149.078000", "103149.081000", "103149.083000", "103149.086000", "103149.088000", "103149.091000", "103149.093000", "103149.096000", "103149.098000", "103149.101000", "103149.103000", "103149.106000", "103149.108000", "103149.111000", "103149.113000", "103149.116000", "103149.119000", "103214.650000", "103214.652000", "103214.655000", "103214.658000", "103214.660000", "103214.663000", "103214.666000", "103214.668000", "103214.671000", "103214.673000", "103214.676000", "103214.678000", "103214.682000"],
      "InstanceNumber": [1, 2, 3, 4, 5, 6, 7, 8, 9, 10, 11, 12, 13, 14, 15, 16, 17, 18, 19, 20, 21, 22, 23, 24, 25, 26, 27, 28, 29, 30, 31, 32, 33, 34, 35, 36, 37, 38, 39, 40, 41, 42, 43, 44, 45, 46, 47, 48, 49, 50, 51, 52, 53, 54, 55, 56, 57, 58, 59, 60, 61, 62, 63, 64, 65, 66, 67, 68, 69, 70, 71, 72, 73, 74, 75, 76, 77, 78, 79, 80, 81, 82, 83, 84, 85, 86, 87, 88, 89, 90, 91, 92, 93, 94, 95, 96, 97, 98, 99, 100, 101, 102, 103, 104, 105, 106, 107, 108, 109, 110, 111, 112, 113, 114, 115, 116, 117, 118, 119, 120, 121, 122, 123, 124, 125, 126, 127, 128, 129, 130, 131, 132, 133, 134, 135, 136, 137, 138, 139, 140, 141, 142, 143, 144, 145, 146, 147, 148, 149, 150, 151, 152, 153, 154, 155, 156, 157, 158, 159, 160, 161, 162, 163, 164, 165, 166, 167, 168, 169, 170, 171, 172, 173, 174, 175, 176, 177, 178, 179, 180, 181, 182, 183, 184, 185, 186, 187, 188, 189, 190, 191, 192, 193, 194, 195, 196, 197, 198, 199, 200],
      "LargestImagePixelValue": [2043, 2036, 2039, 2032, 2036, 2036, 2037, 2035, 2034, 2032, 2033, 2037, 2038, 2039, 2036, 2033, 2042, 2037, 2036, 2036, 2035, 2034, 2039, 2037, 2040, 2039, 2035, 2036, 2042, 2039, 2032, 2035, 2036, 2033, 2039, 2037, 2038, 2030, 2033, 2035, 2038, 2035, 2031, 2035, 2035, 2034, 2032, 2037, 2036, 2038, 2041, 2032, 2036, 2035, 2038, 2032, 2039, 2040, 2030, 2031, 2037, 2032, 2034, 2032, 2034, 2033, 2036, 2038, 2036, 2035, 2036, 2039, 2039, 2033, 2035, 2038, 2035, 2036, 2034, 2035, 2040, 2034, 2029, 2034, 2032, 2034, 2039, 2034, 2036, 2038, 2032, 2038, 2039, 2037, 2034, 2036, 2037, 2038, 2036, 2034, 2036, 2037, 2035, 2038, 2035, 2034, 2037, 2041, 2037, 2037, 2031, 2039, 2036, 2036, 2034, 2037, 2040, 2038, 2037, 2034, 2032, 2034, 2037, 2037, 2039, 2033, 2035, 2035, 2035, 2036, 2035, 2032, 2035, 2034, 2034, 2039, 2036, 2041, 2034, 2040, 2034, 2036, 2037, 2034, 2038, 2034, 2039, 2040, 2035, 2038, 2034, 2041, 2035, 2037, 2040, 2034, 2036, 2034, 2036, 2032, 2035, 2034, 2034, 2033, 2037, 2037, 2034, 2035, 2037, 2035, 2037, 2037, 2036, 2041, 2037, 2035, 2036, 2039, 2029, 2037, 2039, 2038, 2034, 2035, 2042, 2032, 2033, 2033, 2036, 2037, 2035, 2037, 2033, 2042, 2043, 2040, 2034, 2035, 2038, 2032],
      "WindowCenter": [921.0, 921.0, 921.0, 921.0, 922.0, 922.0, 922.0, 922.0, 922.0, 922.0, 922.0, 922.0, 921.0, 922.0, 922.0, 922.0, 922.0, 922.0, 922.0, 922.0, 922.0, 922.0, 922.0, 922.0, 922.0, 922.0, 922.0, 922.0, 922.0, 922.0, 922.0, 922.0, 922.0, 922.0, 922.0, 922.0, 922.0, 922.0, 922.0, 922.0, 922.0, 922.0, 922.0, 922.0, 922.0, 922.0, 922.0, 922.0, 922.0, 922.0, 922.0, 922.0, 922.0, 922.0, 922.0, 922.0, 922.0, 922.0, 922.0, 922.0, 922.0, 922.0, 922.0, 922.0, 922.0, 922.0, 922.0, 922.0, 922.0, 922.0, 922.0, 922.0, 922.0, 922.0, 922.0, 922.0, 922.0, 922.0, 922.0, 922.0, 922.0, 922.0, 922.0, 922.0, 922.0, 922.0, 922.0, 922.0, 922.0, 922.0, 922.0, 922.0, 922.0, 922.0, 922.0, 922.0, 922.0, 922.0, 922.0, 922.0, 922.0, 922.0, 922.0, 922.0, 922.0, 922.0, 922.0, 922.0, 922.0, 922.0, 922.0, 922.0, 922.0, 922.0, 922.0, 922.0, 922.0, 922.0, 922.0, 922.0, 922.0, 922.0, 922.0, 922.0, 922.0, 922.0, 922.0, 922.0, 922.0, 922.0, 922.0, 922.0, 922.0, 922.0, 922.0, 922.0, 922.0, 922.0, 922.0, 922.0, 922.0, 922.0, 922.0, 922.0, 922.0, 922.0, 922.0, 922.0, 922.0, 922.0, 922.0, 922.0, 922.0, 922.0, 922.0, 922.0, 922.0, 922.0, 922.0, 922.0, 922.0, 922.0, 922.0, 922.0, 922.0, 922.0, 922.0, 922.0, 922.0, 922.0, 922.0, 922.0, 922.0, 922.0, 922.0, 922.0, 922.0, 922.0, 922.0, 922.0, 922.0, 922.0, 922.0, 922.0, 922.0, 922.0, 922.0, 922.0, 922.0, 922.0, 922.0, 922.0, 922.0, 922.0, 922.0, 922.0, 922.0, 922.0, 922.0, 922.0],
      "WindowWidth": [2105.0, 2104.0, 2105.0, 2105.0, 2105.0, 2104.0, 2105.0, 2105.0, 2105.0, 2105.0, 2105.0, 2105.0, 2105.0, 2105.0, 2105.0, 2105.0, 2105.0, 2105.0, 2105.0, 2105.0, 2105.0, 2105.0, 2105.0, 2105.0, 2105.0, 2105.0, 2105.0, 2105.0, 2105.0, 2104.0, 2104.0, 2105.0, 2105.0, 2105.0, 2105.0, 2105.0, 2105.0, 2105.0, 2105.0, 2105.0, 2105.0, 2105.0, 2105.0, 2105.0, 2105.0, 2105.0, 2105.0, 2105.0, 2105.0, 2104.0, 2105.0, 2105.0, 2105.0, 2105.0, 2105.0, 2105.0, 2105.0, 2105.0, 2105.0, 2105.0, 2105.0, 2105.0, 2105.0, 2105.0, 2105.0, 2105.0, 2105.0, 2105.0, 2105.0, 2105.0, 2105.0, 2105.0, 2105.0, 2105.0, 2105.0, 2105.0, 2105.0, 2105.0, 2105.0, 2105.0, 2105.0, 2105.0, 2105.0, 2105.0, 2105.0, 2105.0, 2105.0, 2105.0, 2105.0, 2105.0, 2105.0, 2105.0, 2105.0, 2105.0, 2105.0, 2105.0, 2105.0, 2105.0, 2105.0, 2105.0, 2105.0, 2105.0, 2105.0, 2105.0, 2105.0, 2105.0, 2105.0, 2105.0, 2105.0, 2105.0, 2105.0, 2105.0, 2105.0, 2105.0, 2105.0, 2105.0, 2105.0, 2105.0, 2105.0, 2105.0, 2105.0, 2105.0, 2105.0, 2105.0, 2105.0, 2105.0, 2105.0, 2105.0, 2105.0, 2105.0, 2105.0, 2105.0, 2105.0, 2105.0, 2105.0, 2105.0, 2105.0, 2105.0, 2105.0, 2105.0, 2105.0, 2105.0, 2105.0, 2105.0, 2105.0, 2105.0, 2105.0, 2105.0, 2104.0, 2105.0, 2105.0, 2105.0, 2105.0, 2105.0, 2105.0, 2105.0, 2105.0, 2105.0, 2105.0, 2105.0, 2105.0, 2104.0, 2105.0, 2105.0, 2105.0, 2105.0, 2104.0, 2105.0, 2105.0, 2105.0, 2105.0, 2104.0, 2104.0, 2105.0, 2105.0, 2104.0, 2105.0, 2105.0, 2104.0, 2105.0, 2105.0, 2104.0, 2105.0, 2105.0, 2105.0, 2105.0, 2105.0, 2104.0, 2105.0, 2105.0, 2104.0, 2104.0, 2104.0, 2104.0, 2104.0, 2105.0, 2104.0, 2104.0, 2105.0, 2105.0]
    },
    "slices": {}
  }
}