{
  "AcquisitionMatrixPE": 122,
  "AcquisitionNumber": 1,
  "AcquisitionTime": "10:48:17.455000",
  "BandwidthPerPixelPhaseEncode": 27.785,
  "BaseResolution": 122,
  "BodyPartExamined": "BRAIN",
  "CoilCombinationMethod": "Adaptive Combine",
  "ConsistencyInfo": "N4_VE11C_LATEST_20160120",
  "ConversionSoftware": "dcm2niix",
  "ConversionSoftwareVersion": "v1.0.20220720",
  "DerivedVendorReportedEchoSpacing": 0.000590011,
  "DeviceSerialNumber": "66112",
  "DiffusionScheme": "Monopolar",
  "DwellTime": 2e-06,
  "EchoTime": 0.068,
  "EchoTrainLength": 61,
  "EffectiveEchoSpacing": 0.000295005,
  "FlipAngle": 90,
  "HeudiconvVersion": "0.13.1",
  "ImageOrientationPatientDICOM": [0.976441, 0.215112, 0.0170376, -0.210044, 0.929399, 0.303477],
  "ImageOrientationText": "Tra>Cor(17.5)>Sag(-2.8)",
  "ImageType": [
    "ORIGINAL",
    "PRIMARY",
    "DIFFUSION",
    "NONE",
    "ND",
    "NORM"
],
  "ImagingFrequency": 123.252,
  "InPlanePhaseEncodingDirectionDICOM": "COL",
  "InstitutionAddress": "Maynard 3,Hanover,NH,US,03755",
  "InstitutionName": "Dartmouth College - PBS",
  "InstitutionalDepartmentName": "Department",
  "MRAcquisitionType": "2D",
  "MagneticFieldStrength": 3,
  "Manufacturer": "Siemens",
  "ManufacturersModelName": "Prisma",
  "Modality": "MR",
  "MultibandAccelerationFactor": 4,
  "NonlinearGradientCorrection": false,
  "ParallelReductionFactorInPlane": 2,
  "PartialFourier": 1,
  "PatientPosition": "HFS",
  "PercentPhaseFOV": 100,
  "PercentSampling": 100,
  "PhaseEncodingDirection": "j-",
  "PhaseEncodingSteps": 122,
  "PhaseResolution": 1,
  "PixelBandwidth": 2050,
  "ProcedureStepDescription": "dbic^QA",
  "ProtocolName": "dwi_acq-DTI-30-p2-s4",
  "PulseSequenceDetails": "%SiemensSeq%\\ep2d_diff",
  "ReceiveCoilActiveElements": "HEA;HEP",
  "ReceiveCoilName": "Head_32",
  "ReconMatrixPE": 122,
  "RefLinesPE": 38,
  "RepetitionTime": 3.6,
  "SAR": 0.161365,
  "ScanOptions": "FS",
  "ScanningSequence": "EP",
  "SequenceName": "*ep_b0",
  "SequenceVariant": "SK\\SP",
  "SeriesDescription": "dwi_acq-DTI-30-p2-s4",
  "SeriesNumber": 9,
  "ShimSetting": [4152, -7696, -7519, 240, -6, -50, -3, 39],
  "SliceThickness": 2,
  "SliceTiming": [2.58594, 0, 1.78906, 0.20312, 1.99219, 0.39844, 2.1875, 0.60156, 2.39062, 1, 2.78906, 1.19531, 2.98438, 1.39844, 3.1875, 1.59375, 3.38281, 0.79688, 2.58594, 0, 1.78906, 0.20312, 1.99219, 0.39844, 2.1875, 0.60156, 2.39062, 1, 2.78906, 1.19531, 2.98438, 1.39844, 3.1875, 1.59375, 3.38281, 0.79688, 2.58594, 0, 1.78906, 0.20312, 1.99219, 0.39844, 2.1875, 0.60156, 2.39062, 1, 2.78906, 1.19531, 2.98438, 1.39844, 3.1875, 1.59375, 3.38281, 0.79688, 2.58594, 0, 1.78906, 0.20312, 1.99219, 0.39844, 2.1875, 0.60156, 2.39062, 1, 2.78906, 1.19531, 2.98438, 1.39844, 3.1875, 1.59375, 3.38281, 0.79688],
  "SoftwareVersions": "syngo MR E11",
  "SpacingBetweenSlices": 2,
  "SpoilingState": true,
  "StationName": "AWP66112",
  "TotalReadoutTime": 0.0356956,
  "TxRefAmp": 230.573,
  "dcmmeta_affine": [
    [-1.9208670854568481, -0.4132010340690613, -0.09889411926269531, 155.83352661132812],
    [-0.4231710135936737, 1.8283265829086304, 0.5998115539550781, -100.54798126220703],
    [0.03351655602455139, -0.5970046520233154, 1.9053726196289062, -33.20944595336914],
    [0.0, 0.0, 0.0, 1.0]
],
  "dcmmeta_reorient_transform": [
    [0.0, -1.0, 0.0, 121.0],
    [1.0, 0.0, 0.0, 0.0],
    [0.0, 0.0, -1.0, 71.0],
    [0.0, 0.0, 0.0, 1.0]
],
  "dcmmeta_shape": [122, 122, 72, 31],
  "dcmmeta_slice_dim": 2,
  "dcmmeta_version": 0.6,
  "global": {
    "const": {
      "AccessionNumber": "qa",
      "AcquisitionMatrix": [122, 0, 0, 122],
      "AngioFlag": "N",
      "BitsAllocated": 16,
      "BitsStored": 12,
      "BodyPartExamined": "BRAIN",
      "Columns": 122,
      "EchoNumbers": 1,
      "EchoTime": 68.0,
      "EchoTrainLength": 61,
      "FlipAngle": 90.0,
      "HighBit": 11,
      "ImageOrientationPatient": [0.97644077260329, 0.21511192058225, 0.01703758261352, -0.210043861311, 0.92939930583463, 0.30347735770508],
      "ImageType": [
        "ORIGINAL",
        "PRIMARY",
        "DIFFUSION",
        "NONE",
        "ND",
        "NORM"
],
      "ImagedNucleus": "1H",
      "ImagingFrequency": 123.252481,
      "InPlanePhaseEncodingDirection": "COL",
      "MRAcquisitionType": "2D",
      "MagneticFieldStrength": 3.0,
      "Manufacturer": "SIEMENS",
      "ManufacturerModelName": "Prisma",
      "Modality": "MR",
      "NumberOfAverages": 1.0,
      "NumberOfPhaseEncodingSteps": 122,
      "PercentPhaseFieldOfView": 100.0,
      "PercentSampling": 100.0,
      "PerformedProcedureStepStartTime": "102522.669000",
      "PhotometricInterpretation": "MONOCHROME2",
      "PixelBandwidth": 2050.0,
      "PixelRepresentation": 0,
      "PixelSpacing": [1.9672131538391, 1.9672131538391],
      "ProtocolName": "dwi_acq-DTI-30-p2-s4",
      "RepetitionTime": 3600.0,
      "Rows": 122,
      "SAR": 0.16136494229032,
      "SamplesPerPixel": 1,
      "ScanOptions": "FS",
      "ScanningSequence": "EP",
      "SequenceVariant": [
        "SK",
        "SP"
],
      "SeriesDescription": "dwi_acq-DTI-30-p2-s4",
      "SeriesNumber": 9,
      "SeriesTime": "104826.254000",
      "SliceThickness": 2.0,
      "SmallestImagePixelValue": 0,
      "SoftwareVersions": "syngo MR E11",
      "SpacingBetweenSlices": 2.0,
      "SpecificCharacterSet": "ISO_IR 100",
      "StudyID": "9",
      "StudyTime": "102522.555000",
      "TransmitCoilName": "Body",
      "VariableFlipAngleFlag": "N",
      "WindowCenterWidthExplanation": "Algo1",
      "dBdt": 0.0},
    "slices": {
      "AcquisitionTime": ["104817.455000", "104814.870000", "104816.660000", "104815.070000", "104816.860000", "104815.267500", "104817.057500", "104815.467500", "104817.257500", "104815.865000", "104817.655000", "104816.062500", "104817.852500", "104816.262500", "104818.052500", "104816.460000", "104818.250000", "104815.665000", "104817.455000", "104814.870000", "104816.660000", "104815.070000", "104816.860000", "104815.267500", "104817.057500", "104815.467500", "104817.257500", "104815.865000", "104817.655000", "104816.062500", "104817.852500", "104816.262500", "104818.052500", "104816.460000", "104818.250000", "104815.665000", "104817.455000", "104814.870000", "104816.660000", "104815.070000", "104816.860000", "104815.267500", "104817.057500", "104815.467500", "104817.257500", "104815.865000", "104817.655000", "104816.062500", "104817.852500", "104816.262500", "104818.052500", "104816.460000", "104818.250000", "104815.665000", "104817.455000", "104814.870000", "104816.660000", "104815.070000", "104816.860000", "104815.267500", "104817.057500", "104815.467500", "104817.257500", "104815.865000", "104817.655000", "104816.062500", "104817.852500", "104816.262500", "104818.052500", "104816.460000", "104818.250000", "104815.665000", "104821.055000", "104818.470000", "104820.260000", "104818.670000", "104820.460000", "104818.867500", "104820.657500", "104819.067500", "104820.857500", "104819.465000", "104821.255000", "104819.662500", "104821.452500", "104819.862500", "104821.652500", "104820.060000", "104821.850000", "104819.265000", "104821.055000", "104818.470000", "104820.260000", "104818.670000", "104820.460000", "104818.867500", "104820.657500", "104819.067500", "104820.857500", "104819.465000", "104821.255000", "104819.662500", "104821.452500", "104819.862500", "104821.652500", "104820.060000", "104821.850000", "104819.265000", "104821.055000", "104818.470000", "104820.260000", "104818.670000", "104820.460000", "104818.867500", "104820.657500", "104819.067500", "104820.857500", "104819.465000", "104821.255000", "104819.662500", "104821.452500", "104819.862500", "104821.652500", "104820.060000", "104821.850000", "104819.265000", "104821.055000", "104818.470000", "104820.260000", "104818.670000", "104820.460000", "104818.867500", "104820.657500", "104819.067500", "104820.857500", "104819.465000", "104821.255000", "104819.662500", "104821.452500", "104819.862500", "104821.652500", "104820.060000", "104821.850000", "104819.265000", "104824.655000", "104822.070000", "104823.860000", "104822.270000", "104824.060000", "104822.467500", "104824.257500", "104822.667500", "104824.457500", "104823.065000", "104824.855000", "104823.262500", "104825.052500", "104823.462500", "104825.252500", "104823.660000", "104825.450000", "104822.865000", "104824.655000", "104822.070000", "104823.860000", "104822.270000", "104824.060000", "104822.467500", "104824.257500", "104822.667500", "104824.457500", "104823.065000", "104824.855000", "104823.262500", "104825.052500", "104823.462500", "104825.252500", "104823.660000", "104825.450000", "104822.865000", "104824.655000", "104822.070000", "104823.860000", "104822.270000", "104824.060000", "104822.467500", "104824.257500", "104822.667500", "104824.457500", "104823.065000", "104824.855000", "104823.262500", "104825.052500", "104823.462500", "104825.252500", "104823.660000", "104825.450000", "104822.865000", "104824.655000", "104822.070000", "104823.860000", "104822.270000", "104824.060000", "104822.467500", "104824.257500", "104822.667500", "104824.457500", "104823.065000", "104824.855000", "104823.262500", "104825.052500", "104823.462500", "104825.252500", "104823.660000", "104825.450000", "104822.865000", "104828.255000", "104825.670000", "104827.460000", "104825.870000", "104827.660000", "104826.067500", "104827.857500", "104826.267500", "104828.057500", "104826.665000", "104828.455000", "104826.862500", "104828.652500", "104827.062500", "104828.852500", "104827.260000", "104829.050000", "104826.465000", "104828.255000", "104825.670000", "104827.460000", "104825.870000", "104827.660000", "104826.067500", "104827.857500", "104826.267500", "104828.057500", "104826.665000", "104828.455000", "104826.862500", "104828.652500", "104827.062500", "104828.852500", "104827.260000", "104829.050000", "104826.465000", "104828.255000", "104825.670000", "104827.460000", "104825.870000", "104827.660000", "104826.067500", "104827.857500", "104826.267500", "104828.057500", "104826.665000", "104828.455000", "104826.862500", "104828.652500", "104827.062500", "104828.852500", "104827.260000", "104829.050000", "104826.465000", "104828.255000", "104825.670000", "104827.460000", "104825.870000", "104827.660000", "104826.067500", "104827.857500", "104826.267500", "104828.057500", "104826.665000", "104828.455000", "104826.862500", "104828.652500", "104827.062500", "104828.852500", "104827.260000", "104829.050000", "104826.465000", "104831.855000", "104829.270000", "104831.060000", "104829.470000", "104831.260000", "104829.667500", "104831.457500", "104829.867500", "104831.657500", "104830.265000", "104832.055000", "104830.462500", "104832.252500", "104830.662500", "104832.452500", "104830.860000", "104832.650000", "104830.065000", "104831.855000", "104829.270000", "104831.060000", "104829.470000", "104831.260000", "104829.667500", "104831.457500", "104829.867500", "104831.657500", "104830.265000", "104832.055000", "104830.462500", "104832.252500", "104830.662500", "104832.452500", "104830.860000", "104832.650000", "104830.065000", "104831.855000", "104829.270000", "104831.060000", "104829.470000", "104831.260000", "104829.667500", "104831.457500", "104829.867500", "104831.657500", "104830.265000", "104832.055000", "104830.462500", "104832.252500", "104830.662500", "104832.452500", "104830.860000", "104832.650000", "104830.065000", "104831.855000", "104829.270000", "104831.060000", "104829.470000", "104831.260000", "104829.667500", "104831.457500", "104829.867500", "104831.657500", "104830.265000", "104832.055000", "104830.462500", "104832.252500", "104830.662500", "104832.452500", "104830.860000", "104832.650000", "104830.065000", "104835.455000", "104832.870000", "104834.660000", "104833.070000", "104834.860000", "104833.267500", "104835.057500", "104833.467500", "104835.257500", "104833.865000", "104835.655000", "104834.062500", "104835.852500", "104834.262500", "104836.052500", "104834.460000", "104836.250000", "104833.665000", "104835.455000", "104832.870000", "104834.660000", "104833.070000", "104834.860000", "104833.267500", "104835.057500", "104833.467500", "104835.257500", "104833.865000", "104835.655000", "104834.062500", "104835.852500", "104834.262500", "104836.052500", "104834.460000", "104836.250000", "104833.665000", "104835.455000", "104832.870000", "104834.660000", "104833.070000", "104834.860000", "104833.267500", "104835.057500", "104833.467500", "104835.257500", "104833.865000", "104835.655000", "104834.062500", "104835.852500", "104834.262500", "104836.052500", "104834.460000", "104836.250000", "104833.665000", "104835.455000", "104832.870000", "104834.660000", "104833.070000", "104834.860000", "104833.267500", "104835.057500", "104833.467500", "104835.257500", "104833.865000", "104835.655000", "104834.062500", "104835.852500", "104834.262500", "104836.052500", "104834.460000", "104836.250000", "104833.665000", "104839.055000", "104836.470000", "104838.260000", "104836.670000", "104838.460000", "104836.867500", "104838.657500", "104837.067500", "104838.857500", "104837.465000", "104839.255000", "104837.662500", "104839.452500", "104837.862500", "104839.652500", "104838.060000", "104839.850000", "104837.265000", "104839.055000", "104836.470000", "104838.260000", "104836.670000", "104838.460000", "104836.867500", "104838.657500", "104837.067500", "104838.857500", "104837.465000", "104839.255000", "104837.662500", "104839.452500", "104837.862500", "104839.652500", "104838.060000", "104839.850000", "104837.265000", "104839.055000", "104836.470000", "104838.260000", "104836.670000", "104838.460000", "104836.867500", "104838.657500", "104837.067500", "104838.857500", "104837.465000", "104839.255000", "104837.662500", "104839.452500", "104837.862500", "104839.652500", "104838.060000", "104839.850000", "104837.265000", "104839.055000", "104836.470000", "104838.260000", "104836.670000", "104838.460000", "104836.867500", "104838.657500", "104837.067500", "104838.857500", "104837.465000", "104839.255000", "104837.662500", "104839.452500", "104837.862500", "104839.652500", "104838.060000", "104839.850000", "104837.265000", "104842.655000", "104840.070000", "104841.860000", "104840.270000", "104842.060000", "104840.467500", "104842.257500", "104840.667500", "104842.457500", "104841.065000", "104842.855000", "104841.262500", "104843.052500", "104841.462500", "104843.252500", "104841.660000", "104843.450000", "104840.865000", "104842.655000", "104840.070000", "104841.860000", "104840.270000", "104842.060000", "104840.467500", "104842.257500", "104840.667500", "104842.457500", "104841.065000", "104842.855000", "104841.262500", "104843.052500", "104841.462500", "104843.252500", "104841.660000", "104843.450000", "104840.865000", "104842.655000", "104840.070000", "104841.860000", "104840.270000", "104842.060000", "104840.467500", "104842.257500", "104840.667500", "104842.457500", "104841.065000", "104842.855000", "104841.262500", "104843.052500", "104841.462500", "104843.252500", "104841.660000", "104843.450000", "104840.865000", "104842.655000", "104840.070000", "104841.860000", "104840.270000", "104842.060000", "104840.467500", "104842.257500", "104840.667500", "104842.457500", "104841.065000", "104842.855000", "104841.262500", "104843.052500", "104841.462500", "104843.252500", "104841.660000", "104843.450000", "104840.865000", "104846.255000", "104843.670000", "104845.460000", "104843.870000", "104845.660000", "104844.067500", "104845.857500", "104844.267500", "104846.057500", "104844.665000", "104846.455000", "104844.862500", "104846.652500", "104845.062500", "104846.852500", "104845.260000", "104847.050000", "104844.465000", "104846.255000", "104843.670000", "104845.460000", "104843.870000", "104845.660000", "104844.067500", "104845.857500", "104844.267500", "104846.057500", "104844.665000", "104846.455000", "104844.862500", "104846.652500", "104845.062500", "104846.852500", "104845.260000", "104847.050000", "104844.465000", "104846.255000", "104843.670000", "104845.460000", "104843.870000", "104845.660000", "104844.067500", "104845.857500", "104844.267500", "104846.057500", "104844.665000", "104846.455000", "104844.862500", "104846.652500", "104845.062500", "104846.852500", "104845.260000", "104847.050000", "104844.465000", "104846.255000", "104843.670000", "104845.460000", "104843.870000", "104845.660000", "104844.067500", "104845.857500", "104844.267500", "104846.057500", "104844.665000", "104846.455000", "104844.862500", "104846.652500", "104845.062500", "104846.852500", "104845.260000", "104847.050000", "104844.465000", "104849.855000", "104847.270000", "104849.060000", "104847.470000", "104849.260000", "104847.667500", "104849.457500", "104847.867500", "104849.657500", "104848.265000", "104850.055000", "104848.462500", "104850.252500", "104848.662500", "104850.452500", "104848.860000", "104850.650000", "104848.065000", "104849.855000", "104847.270000", "104849.060000", "104847.470000", "104849.260000", "104847.667500", "104849.457500", "104847.867500", "104849.657500", "104848.265000", "104850.055000", "104848.462500", "104850.252500", "104848.662500", "104850.452500", "104848.860000", "104850.650000", "104848.065000", "104849.855000", "104847.270000", "104849.060000", "104847.470000", "104849.260000", "104847.667500", "104849.457500", "104847.867500", "104849.657500", "104848.265000", "104850.055000", "104848.462500", "104850.252500", "104848.662500", "104850.452500", "104848.860000", "104850.650000", "104848.065000", "104849.855000", "104847.270000", "104849.060000", "104847.470000", "104849.260000", "104847.667500", "104849.457500", "104847.867500", "104849.657500", "104848.265000", "104850.055000", "104848.462500", "104850.252500", "104848.662500", "104850.452500", "104848.860000", "104850.650000", "104848.065000", "104853.455000", "104850.870000", "104852.660000", "104851.070000", "104852.860000", "104851.267500", "104853.057500", "104851.467500", "104853.257500", "104851.865000", "104853.655000", "104852.062500", "104853.852500", "104852.262500", "104854.052500", "104852.460000", "104854.250000", "104851.665000", "104853.455000", "104850.870000", "104852.660000", "104851.070000", "104852.860000", "104851.267500", "104853.057500", "104851.467500", "104853.257500", "104851.865000", "104853.655000", "104852.062500", "104853.852500", "104852.262500", "104854.052500", "104852.460000", "104854.250000", "104851.665000", "104853.455000", "104850.870000", "104852.660000", "104851.070000", "104852.860000", "104851.267500", "104853.057500", "104851.467500", "104853.257500", "104851.865000", "104853.655000", "104852.062500", "104853.852500", "104852.262500", "104854.052500", "104852.460000", "104854.250000", "104851.665000", "104853.455000", "104850.870000", "104852.660000", "104851.070000", "104852.860000", "104851.267500", "104853.057500", "104851.467500", "104853.257500", "104851.865000", "104853.655000", "104852.062500", "104853.852500", "104852.262500", "104854.052500", "104852.460000", "104854.250000", "104851.665000", "104857.055000", "104854.470000", "104856.260000", "104854.670000", "104856.460000", "104854.867500", "104856.657500", "104855.067500", "104856.857500", "104855.465000", "104857.255000", "104855.662500", "104857.452500", "104855.862500", "104857.652500", "104856.060000", "104857.850000", "104855.265000", "104857.055000", "104854.470000", "104856.260000", "104854.670000", "104856.460000", "104854.867500", "104856.657500", "104855.067500", "104856.857500", "104855.465000", "104857.255000", "104855.662500", "104857.452500", "104855.862500", "104857.652500", "104856.060000", "104857.850000", "104855.265000", "104857.055000", "104854.470000", "104856.260000", "104854.670000", "104856.460000", "104854.867500", "104856.657500", "104855.067500", "104856.857500", "104855.465000", "104857.255000", "104855.662500", "104857.452500", "104855.862500", "104857.652500", "104856.060000", "104857.850000", "104855.265000", "104857.055000", "104854.470000", "104856.260000", "104854.670000", "104856.460000", "104854.867500", "104856.657500", "104855.067500", "104856.857500", "104855.465000", "104857.255000", "104855.662500", "104857.452500", "104855.862500", "104857.652500", "104856.060000", "104857.850000", "104855.265000", "104900.655000", "104858.070000", "104859.860000", "104858.270000", "104900.060000", "104858.467500", "104900.257500", "104858.667500", "104900.457500", "104859.065000", "104900.855000", "104859.262500", "104901.052500", "104859.462500", "104901.252500", "104859.660000", "104901.450000", "104858.865000", "104900.655000", "104858.070000", "104859.860000", "104858.270000", "104900.060000", "104858.467500", "104900.257500", "104858.667500", "104900.457500", "104859.065000", "104900.855000", "104859.262500", "104901.052500", "104859.462500", "104901.252500", "104859.660000", "104901.450000", "104858.865000", "104900.655000", "104858.070000", "104859.860000", "104858.270000", "104900.060000", "104858.467500", "104900.257500", "104858.667500", "104900.457500", "104859.065000", "104900.855000", "104859.262500", "104901.052500", "104859.462500", "104901.252500", "104859.660000", "104901.450000", "104858.865000", "104900.655000", "104858.070000", "104859.860000", "104858.270000", "104900.060000", "104858.467500", "104900.257500", "104858.667500", "104900.457500", "104859.065000", "104900.855000", "104859.262500", "104901.052500", "104859.462500", "104901.252500", "104859.660000", "104901.450000", "104858.865000", "104904.255000", "104901.670000", "104903.460000", "104901.870000", "104903.660000", "104902.067500", "104903.857500", "104902.267500", "104904.057500", "104902.665000", "104904.455000", "104902.862500", "104904.652500", "104903.062500", "104904.852500", "104903.260000", "104905.050000", "104902.465000", "104904.255000", "104901.670000", "104903.460000", "104901.870000", "104903.660000", "104902.067500", "104903.857500", "104902.267500", "104904.057500", "104902.665000", "104904.455000", "104902.862500", "104904.652500", "104903.062500", "104904.852500", "104903.260000", "104905.050000", "104902.465000", "104904.255000", "104901.670000", "104903.460000", "104901.870000", "104903.660000", "104902.067500", "104903.857500", "104902.267500", "104904.057500", "104902.665000", "104904.455000", "104902.862500", "104904.652500", "104903.062500", "104904.852500", "104903.260000", "104905.050000", "104902.465000", "104904.255000", "104901.670000", "104903.460000", "104901.870000", "104903.660000", "104902.067500", "104903.857500", "104902.267500", "104904.057500", "104902.665000", "104904.455000", "104902.862500", "104904.652500", "104903.062500", "104904.852500", "104903.260000", "104905.050000", "104902.465000", "104907.855000", "104905.270000", "104907.060000", "104905.470000", "104907.260000", "104905.667500", "104907.457500", "104905.867500", "104907.657500", "104906.265000", "104908.055000", "104906.462500", "104908.252500", "104906.662500", "104908.452500", "104906.860000", "104908.650000", "104906.065000", "104907.855000", "104905.270000", "104907.060000", "104905.470000", "104907.260000", "104905.667500", "104907.457500", "104905.867500", "104907.657500", "104906.265000", "104908.055000", "104906.462500", "104908.252500", "104906.662500", "104908.452500", "104906.860000", "104908.650000", "104906.065000", "104907.855000", "104905.270000", "104907.060000", "104905.470000", "104907.260000", "104905.667500", "104907.457500", "104905.867500", "104907.657500", "104906.265000", "104908.055000", "104906.462500", "104908.252500", "104906.662500", "104908.452500", "104906.860000", "104908.650000", "104906.065000", "104907.855000", "104905.270000", "104907.060000", "104905.470000", "104907.260000", "104905.667500", "104907.457500", "104905.867500", "104907.657500", "104906.265000", "104908.055000", "104906.462500", "104908.252500", "104906.662500", "104908.452500", "104906.860000", "104908.650000", "104906.065000", "104911.455000", "104908.870000", "104910.660000", "104909.070000", "104910.860000", "104909.267500", "104911.057500", "104909.467500", "104911.257500", "104909.865000", "104911.655000", "104910.062500", "104911.852500", "104910.262500", "104912.052500", "104910.460000", "104912.250000", "104909.665000", "104911.455000", "104908.870000", "104910.660000", "104909.070000", "104910.860000", "104909.267500", "104911.057500", "104909.467500", "104911.257500", "104909.865000", "104911.655000", "104910.062500", "104911.852500", "104910.262500", "104912.052500", "104910.460000", "104912.250000", "104909.665000", "104911.455000", "104908.870000", "104910.660000", "104909.070000", "104910.860000", "104909.267500", "104911.057500", "104909.467500", "104911.257500", "104909.865000", "104911.655000", "104910.062500", "104911.852500", "104910.262500", "104912.052500", "104910.460000", "104912.250000", "104909.665000", "104911.455000", "104908.870000", "104910.660000", "104909.070000", "104910.860000", "104909.267500", "104911.057500", "104909.467500", "104911.257500", "104909.865000", "104911.655000", "104910.062500", "104911.852500", "104910.262500", "104912.052500", "104910.460000", "104912.250000", "104909.665000", "104915.055000", "104912.470000", "104914.260000", "104912.670000", "104914.460000", "104912.867500", "104914.657500", "104913.067500", "104914.857500", "104913.465000", "104915.255000", "104913.662500", "104915.452500", "104913.862500", "104915.652500", "104914.060000", "104915.850000", "104913.265000", "104915.055000", "104912.470000", "104914.260000", "104912.670000", "104914.460000", "104912.867500", "104914.657500", "104913.067500", "104914.857500", "104913.465000", "104915.255000", "104913.662500", "104915.452500", "104913.862500", "104915.652500", "104914.060000", "104915.850000", "104913.265000", "104915.055000", "104912.470000", "104914.260000", "104912.670000", "104914.460000", "104912.867500", "104914.657500", "104913.067500", "104914.857500", "104913.465000", "104915.255000", "104913.662500", "104915.452500", "104913.862500", "104915.652500", "104914.060000", "104915.850000", "104913.265000", "104915.055000", "104912.470000", "104914.260000", "104912.670000", "104914.460000", "104912.867500", "104914.657500", "104913.067500", "104914.857500", "104913.465000", "104915.255000", "104913.662500", "104915.452500", "104913.862500", "104915.652500", "104914.060000", "104915.850000", "104913.265000", "104918.655000", "104916.070000", "104917.860000", "104916.270000", "104918.060000", "104916.467500", "104918.257500", "104916.667500", "104918.457500", "104917.065000", "104918.855000", "104917.262500", "104919.052500", "104917.462500", "104919.252500", "104917.660000", "104919.450000", "104916.865000", "104918.655000", "104916.070000", "104917.860000", "104916.270000", "104918.060000", "104916.467500", "104918.257500", "104916.667500", "104918.457500", "104917.065000", "104918.855000", "104917.262500", "104919.052500", "104917.462500", "104919.252500", "104917.660000", "104919.450000", "104916.865000", "104918.655000", "104916.070000", "104917.860000", "104916.270000", "104918.060000", "104916.467500", "104918.257500", "104916.667500", "104918.457500", "104917.065000", "104918.855000", "104917.262500", "104919.052500", "104917.462500", "104919.252500", "104917.660000", "104919.450000", "104916.865000", "104918.655000", "104916.070000", "104917.860000", "104916.270000", "104918.060000", "104916.467500", "104918.257500", "104916.667500", "104918.457500", "104917.065000", "104918.855000", "104917.262500", "104919.052500", "104917.462500", "104919.252500", "104917.660000", "104919.450000", "104916.865000", "104922.255000", "104919.670000", "104921.460000", "104919.870000", "104921.660000", "104920.067500", "104921.857500", "104920.267500", "104922.057500", "104920.665000", "104922.455000", "104920.862500", "104922.652500", "104921.062500", "104922.852500", "104921.260000", "104923.050000", "104920.465000", "104922.255000", "104919.670000", "104921.460000", "104919.870000", "104921.660000", "104920.067500", "104921.857500", "104920.267500", "104922.057500", "104920.665000", "104922.455000", "104920.862500", "104922.652500", "104921.062500", "104922.852500", "104921.260000", "104923.050000", "104920.465000", "104922.255000", "104919.670000", "104921.460000", "104919.870000", "104921.660000", "104920.067500", "104921.857500", "104920.267500", "104922.057500", "104920.665000", "104922.455000", "104920.862500", "104922.652500", "104921.062500", "104922.852500", "104921.260000", "104923.050000", "104920.465000", "104922.255000", "104919.670000", "104921.460000", "104919.870000", "104921.660000", "104920.067500", "104921.857500", "104920.267500", "104922.057500", "104920.665000", "104922.455000", "104920.862500", "104922.652500", "104921.062500", "104922.852500", "104921.260000", "104923.050000", "104920.465000", "104925.855000", "104923.270000", "104925.060000", "104923.470000", "104925.260000", "104923.667500", "104925.457500", "104923.867500", "104925.657500", "104924.265000", "104926.055000", "104924.462500", "104926.252500", "104924.662500", "104926.452500", "104924.860000", "104926.650000", "104924.065000", "104925.855000", "104923.270000", "104925.060000", "104923.470000", "104925.260000", "104923.667500", "104925.457500", "104923.867500", "104925.657500", "104924.265000", "104926.055000", "104924.462500", "104926.252500", "104924.662500", "104926.452500", "104924.860000", "104926.650000", "104924.065000", "104925.855000", "104923.270000", "104925.060000", "104923.470000", "104925.260000", "104923.667500", "104925.457500", "104923.867500", "104925.657500", "104924.265000", "104926.055000", "104924.462500", "104926.252500", "104924.662500", "104926.452500", "104924.860000", "104926.650000", "104924.065000", "104925.855000", "104923.270000", "104925.060000", "104923.470000", "104925.260000", "104923.667500", "104925.457500", "104923.867500", "104925.657500", "104924.265000", "104926.055000", "104924.462500", "104926.252500", "