{
  "AcquisitionMatrixPE": 122,
  "AcquisitionNumber": 1,
  "AcquisitionTime": "10:43:58.042500",
  "BandwidthPerPixelPhaseEncode": 28.76,
  "BaseResolution": 122,
  "BodyPartExamined": "BRAIN",
  "CoilCombinationMethod": "Adaptive Combine",
  "ConsistencyInfo": "N4_VE11C_LATEST_20160120",
  "ConversionSoftware": "dcm2niix",
  "ConversionSoftwareVersion": "v1.0.20220720",
  "DerivedVendorReportedEchoSpacing": 0.000570008,
  "DeviceSerialNumber": "66112",
  "DiffusionScheme": "Monopolar",
  "DwellTime": 2e-06,
  "EchoTime": 0.075,
  "EchoTrainLength": 61,
  "EffectiveEchoSpacing": 0.000285004,
  "FlipAngle": 90,
  "HeudiconvVersion": "0.13.1",
  "ImageOrientationPatientDICOM": [0.976441, 0.215112, 0.0170376, -0.210044, 0.929399, 0.303477],
  "ImageOrientationText": "Tra>Cor(17.5)>Sag(-2.8)",
  "ImageType": [
    "ORIGINAL",
    "PRIMARY",
    "DIFFUSION",
    "NONE",
    "ND",
    "NORM"
],
  "ImagingFrequency": 123.252,
  "InPlanePhaseEncodingDirectionDICOM": "COL",
  "InstitutionAddress": "Maynard 3,Hanover,NH,US,03755",
  "InstitutionName": "Dartmouth College - PBS",
  "InstitutionalDepartmentName": "Department",
  "MRAcquisitionType": "2D",
  "MagneticFieldStrength": 3,
  "Manufacturer": "Siemens",
  "ManufacturersModelName": "Prisma",
  "MatrixCoilMode": "GRAPPA",
  "Modality": "MR",
  "NonlinearGradientCorrection": false,
  "ParallelReductionFactorInPlane": 2,
  "PartialFourier": 1,
  "PatientPosition": "HFS",
  "PercentPhaseFOV": 100,
  "PercentSampling": 100,
  "PhaseEncodingDirection": "j-",
  "PhaseEncodingSteps": 122,
  "PhaseResolution": 1,
  "PixelBandwidth": 2050,
  "ProcedureStepDescription": "dbic^QA",
  "ProtocolName": "dwi_acq-DTI-30-p2",
  "PulseSequenceDetails": "%SiemensSeq%\\ep2d_diff",
  "ReceiveCoilActiveElements": "HEA;HEP",
  "ReceiveCoilName": "Head_32",
  "ReconMatrixPE": 122,
  "RefLinesPE": 38,
  "RepetitionTime": 7.7,
  "SAR": 0.101664,
  "ScanOptions": "FS",
  "ScanningSequence": "EP",
  "SequenceName": "*ep_b0",
  "SequenceVariant": "SK\\SP",
  "SeriesDescription": "dwi_acq-DTI-30-p2",
  "SeriesNumber": 8,
  "ShimSetting": [4152, -7696, -7519, 240, -6, -49, -3, 39],
  "SliceThickness": 2,
  "SliceTiming": [3.83594, 0, 3.95312, 0.10938, 4.0625, 0.21875, 4.17188, 0.32812, 4.28125, 0.4375, 4.39062, 0.54688, 4.5, 0.65625, 4.60938, 0.76562, 4.71875, 0.875, 4.82812, 0.98438, 4.9375, 1.09375, 5.04688, 1.20312, 5.15625, 1.32031, 5.26562, 1.42969, 5.375, 1.53906, 5.48438, 1.64844, 5.59375, 1.75781, 5.70312, 1.86719, 5.8125, 1.97656, 5.92188, 2.08594, 6.03125, 2.19531, 6.14062, 2.30469, 6.25781, 2.41406, 6.36719, 2.52344, 6.46875, 2.63281, 6.57812, 2.74219, 6.69531, 2.85156, 6.80469, 2.96094, 6.91406, 3.07031, 7.02344, 3.17969, 7.13281, 3.28906, 7.24219, 3.39844, 7.35156, 3.51562, 7.46094, 3.61719, 7.57031, 3.72656],
  "SoftwareVersions": "syngo MR E11",
  "SpacingBetweenSlices": 2,
  "SpoilingState": true,
  "StationName": "AWP66112",
  "TotalReadoutTime": 0.0344855,
  "TxRefAmp": 230.573,
  "dcmmeta_affine": [
    [-1.9208670854568481, -0.4132010340690613, -0.09889364242553711, 155.73460388183594],
    [-0.4231710135936737, 1.8283265829086304, 0.5998134613037109, -99.94830322265625],
    [0.03351655602455139, -0.5970046520233154, 1.9053726196289062, -31.304073333740234],
    [0.0, 0.0, 0.0, 1.0]
],
  "dcmmeta_reorient_transform": [
    [0.0, -1.0, 0.0, 121.0],
    [1.0, 0.0, 0.0, 0.0],
    [0.0, 0.0, -1.0, 69.0],
    [0.0, 0.0, 0.0, 1.0]
],
  "dcmmeta_shape": [122, 122, 70, 31],
  "dcmmeta_slice_dim": 2,
  "dcmmeta_version": 0.6,
  "global": {
    "const": {
      "AccessionNumber": "qa",
      "AcquisitionMatrix": [122, 0, 0, 122],
      "AngioFlag": "N",
      "BitsAllocated": 16,
      "BitsStored": 12,
      "BodyPartExamined": "BRAIN",
      "Columns": 122,
      "EchoNumbers": 1,
      "EchoTime": 75.0,
      "EchoTrainLength": 61,
      "FlipAngle": 90.0,
      "HighBit": 11,
      "ImageOrientationPatient": [0.97644077260329, 0.21511192058225, 0.01703758261352, -0.210043861311, 0.92939930583463, 0.30347735770508],
      "ImageType": [
        "ORIGINAL",
        "PRIMARY",
        "DIFFUSION",
        "NONE",
        "ND",
        "NORM"
],
      "ImagedNucleus": "1H",
      "ImagingFrequency": 123.252481,
      "InPlanePhaseEncodingDirection": "COL",
      "MRAcquisitionType": "2D",
      "MagneticFieldStrength": 3.0,
      "Manufacturer": "SIEMENS",
      "ManufacturerModelName": "Prisma",
      "Modality": "MR",
      "NumberOfAverages": 1.0,
      "NumberOfPhaseEncodingSteps": 122,
      "PercentPhaseFieldOfView": 100.0,
      "PercentSampling": 100.0,
      "PerformedProcedureStepStartTime": "102522.669000",
      "PhotometricInterpretation": "MONOCHROME2",
      "PixelBandwidth": 2050.0,
      "PixelRepresentation": 0,
      "PixelSpacing": [1.9672131538391, 1.9672131538391],
      "ProtocolName": "dwi_acq-DTI-30-p2",
      "RepetitionTime": 7700.0,
      "Rows": 122,
      "SAR": 0.10166394198868,
      "SamplesPerPixel": 1,
      "ScanOptions": "FS",
      "ScanningSequence": "EP",
      "SequenceVariant": [
        "SK",
        "SP"
],
      "SeriesDescription": "dwi_acq-DTI-30-p2",
      "SeriesNumber": 8,
      "SeriesTime": "104409.856000",
      "SliceThickness": 2.0,
      "SmallestImagePixelValue": 0,
      "SoftwareVersions": "syngo MR E11",
      "SpacingBetweenSlices": 2.0,
      "SpecificCharacterSet": "ISO_IR 100",
      "StudyID": "9",
      "StudyTime": "102522.555000",
      "TransmitCoilName": "Body",
      "VariableFlipAngleFlag": "N",
      "WindowCenterWidthExplanation": "Algo1",
      "dBdt": 0.0},
    "slices": {
      "AcquisitionTime": ["104358.042500", "104354.202500", "104358.152500", "104354.312500", "104358.262500", "104354.422500", "104358.372500", "104354.532500", "104358.482500", "104354.642500", "104358.592500", "104354.752500", "104358.702500", "104354.862500", "104358.810000", "104354.970000", "104358.920000", "104355.080000", "104359.030000", "104355.190000", "104359.140000", "104355.300000", "104359.250000", "104355.410000", "104359.360000", "104355.520000", "104359.470000", "104355.630000", "104359.580000", "104355.740000", "104359.687500", "104355.850000", "104359.797500", "104355.957500", "104359.907500", "104356.067500", "104400.017500", "104356.177500", "104400.127500", "104356.287500", "104400.237500", "104356.397500", "104400.347500", "104356.507500", "104400.457500", "104356.617500", "104400.567500", "104356.727500", "104400.675000", "104356.835000", "104400.785000", "104356.945000", "104400.895000", "104357.055000", "104401.005000", "104357.165000", "104401.115000", "104357.275000", "104401.225000", "104357.385000", "104401.335000", "104357.495000", "104401.445000", "104357.605000", "104401.555000", "104357.715000", "104401.662500", "104357.822500", "104401.772500", "104357.932500", "104405.742500", "104401.902500", "104405.852500", "104402.012500", "104405.962500", "104402.122500", "104406.072500", "104402.232500", "104406.182500", "104402.342500", "104406.292500", "104402.452500", "104406.402500", "104402.562500", "104406.510000", "104402.670000", "104406.620000", "104402.780000", "104406.730000", "104402.890000", "104406.840000", "104403.000000", "104406.950000", "104403.110000", "104407.060000", "104403.220000", "104407.170000", "104403.330000", "104407.280000", "104403.440000", "104407.387500", "104403.550000", "104407.497500", "104403.657500", "104407.607500", "104403.767500", "104407.717500", "104403.877500", "104407.827500", "104403.987500", "104407.937500", "104404.097500", "104408.047500", "104404.207500", "104408.157500", "104404.317500", "104408.267500", "104404.427500", "104408.375000", "104404.535000", "104408.485000", "104404.645000", "104408.595000", "104404.755000", "104408.705000", "104404.865000", "104408.815000", "104404.975000", "104408.925000", "104405.085000", "104409.035000", "104405.195000", "104409.145000", "104405.305000", "104409.255000", "104405.415000", "104409.362500", "104405.522500", "104409.472500", "104405.632500", "104413.442500", "104409.602500", "104413.552500", "104409.712500", "104413.662500", "104409.822500", "104413.772500", "104409.932500", "104413.882500", "104410.042500", "104413.992500", "104410.152500", "104414.102500", "104410.262500", "104414.210000", "104410.370000", "104414.320000", "104410.480000", "104414.430000", "104410.590000", "104414.540000", "104410.700000", "104414.650000", "104410.810000", "104414.760000", "104410.920000", "104414.870000", "104411.030000", "104414.980000", "104411.140000", "104415.087500", "104411.250000", "104415.197500", "104411.357500", "104415.307500", "104411.467500", "104415.417500", "104411.577500", "104415.527500", "104411.687500", "104415.637500", "104411.797500", "104415.747500", "104411.907500", "104415.857500", "104412.017500", "104415.967500", "104412.127500", "104416.075000", "104412.235000", "104416.185000", "104412.345000", "104416.295000", "104412.455000", "104416.405000", "104412.565000", "104416.515000", "104412.675000", "104416.625000", "104412.785000", "104416.735000", "104412.895000", "104416.845000", "104413.005000", "104416.955000", "104413.115000", "104417.062500", "104413.222500", "104417.172500", "104413.332500", "104421.142500", "104417.302500", "104421.252500", "104417.412500", "104421.362500", "104417.522500", "104421.472500", "104417.632500", "104421.582500", "104417.742500", "104421.692500", "104417.852500", "104421.802500", "104417.962500", "104421.910000", "104418.070000", "104422.020000", "104418.180000", "104422.130000", "104418.290000", "104422.240000", "104418.400000", "104422.350000", "104418.510000", "104422.460000", "104418.620000", "104422.570000", "104418.730000", "104422.680000", "104418.840000", "104422.787500", "104418.950000", "104422.897500", "104419.057500", "104423.007500", "104419.167500", "104423.117500", "104419.277500", "104423.227500", "104419.387500", "104423.337500", "104419.497500", "104423.447500", "104419.607500", "104423.557500", "104419.717500", "104423.667500", "104419.827500", "104423.775000", "104419.935000", "104423.885000", "104420.045000", "104423.995000", "104420.155000", "104424.105000", "104420.265000", "104424.215000", "104420.375000", "104424.325000", "104420.485000", "104424.435000", "104420.595000", "104424.545000", "104420.705000", "104424.655000", "104420.815000", "104424.762500", "104420.922500", "104424.872500", "104421.032500", "104428.842500", "104425.002500", "104428.952500", "104425.112500", "104429.062500", "104425.222500", "104429.172500", "104425.332500", "104429.282500", "104425.442500", "104429.392500", "104425.552500", "104429.502500", "104425.662500", "104429.610000", "104425.770000", "104429.720000", "104425.880000", "104429.830000", "104425.990000", "104429.940000", "104426.100000", "104430.050000", "104426.210000", "104430.160000", "104426.320000", "104430.270000", "104426.430000", "104430.380000", "104426.540000", "104430.487500", "104426.650000", "104430.597500", "104426.757500", "104430.707500", "104426.867500", "104430.817500", "104426.977500", "104430.927500", "104427.087500", "104431.037500", "104427.197500", "104431.147500", "104427.307500", "104431.257500", "104427.417500", "104431.367500", "104427.527500", "104431.475000", "104427.635000", "104431.585000", "104427.745000", "104431.695000", "104427.855000", "104431.805000", "104427.965000", "104431.915000", "104428.075000", "104432.025000", "104428.185000", "104432.135000", "104428.295000", "104432.245000", "104428.405000", "104432.355000", "104428.515000", "104432.462500", "104428.622500", "104432.572500", "104428.732500", "104436.542500", "104432.702500", "104436.652500", "104432.812500", "104436.762500", "104432.922500", "104436.872500", "104433.032500", "104436.982500", "104433.142500", "104437.092500", "104433.252500", "104437.202500", "104433.362500", "104437.310000", "104433.470000", "104437.420000", "104433.580000", "104437.530000", "104433.690000", "104437.640000", "104433.800000", "104437.750000", "104433.910000", "104437.860000", "104434.020000", "104437.970000", "104434.130000", "104438.080000", "104434.240000", "104438.187500", "104434.350000", "104438.297500", "104434.457500", "104438.407500", "104434.567500", "104438.517500", "104434.677500", "104438.627500", "104434.787500", "104438.737500", "104434.897500", "104438.847500", "104435.007500", "104438.957500", "104435.117500", "104439.067500", "104435.227500", "104439.175000", "104435.335000", "104439.285000", "104435.445000", "104439.395000", "104435.555000", "104439.505000", "104435.665000", "104439.615000", "104435.775000", "104439.725000", "104435.885000", "104439.835000", "104435.995000", "104439.945000", "104436.105000", "104440.055000", "104436.215000", "104440.162500", "104436.322500", "104440.272500", "104436.432500", "104444.242500", "104440.402500", "104444.352500", "104440.512500", "104444.462500", "104440.622500", "104444.572500", "104440.732500", "104444.682500", "104440.842500", "104444.792500", "104440.952500", "104444.902500", "104441.062500", "104445.010000", "104441.170000", "104445.120000", "104441.280000", "104445.230000", "104441.390000", "104445.340000", "104441.500000", "104445.450000", "104441.610000", "104445.560000", "104441.720000", "104445.670000", "104441.830000", "104445.780000", "104441.940000", "104445.887500", "104442.050000", "104445.997500", "104442.157500", "104446.107500", "104442.267500", "104446.217500", "104442.377500", "104446.327500", "104442.487500", "104446.437500", "104442.597500", "104446.547500", "104442.707500", "104446.657500", "104442.817500", "104446.767500", "104442.927500", "104446.875000", "104443.035000", "104446.985000", "104443.145000", "104447.095000", "104443.255000", "104447.205000", "104443.365000", "104447.315000", "104443.475000", "104447.425000", "104443.585000", "104447.535000", "104443.695000", "104447.645000", "104443.805000", "104447.755000", "104443.915000", "104447.862500", "104444.022500", "104447.972500", "104444.132500", "104451.942500", "104448.102500", "104452.052500", "104448.212500", "104452.162500", "104448.322500", "104452.272500", "104448.432500", "104452.382500", "104448.542500", "104452.492500", "104448.652500", "104452.602500", "104448.762500", "104452.710000", "104448.870000", "104452.820000", "104448.980000", "104452.930000", "104449.090000", "104453.040000", "104449.200000", "104453.150000", "104449.310000", "104453.260000", "104449.420000", "104453.370000", "104449.530000", "104453.480000", "104449.640000", "104453.587500", "104449.750000", "104453.697500", "104449.857500", "104453.807500", "104449.967500", "104453.917500", "104450.077500", "104454.027500", "104450.187500", "104454.137500", "104450.297500", "104454.247500", "104450.407500", "104454.357500", "104450.517500", "104454.467500", "104450.627500", "104454.575000", "104450.735000", "104454.685000", "104450.845000", "104454.795000", "104450.955000", "104454.905000", "104451.065000", "104455.015000", "104451.175000", "104455.125000", "104451.285000", "104455.235000", "104451.395000", "104455.345000", "104451.505000", "104455.455000", "104451.615000", "104455.562500", "104451.722500", "104455.672500", "104451.832500", "104459.642500", "104455.802500", "104459.752500", "104455.912500", "104459.862500", "104456.022500", "104459.972500", "104456.132500", "104500.082500", "104456.242500", "104500.192500", "104456.352500", "104500.302500", "104456.462500", "104500.410000", "104456.570000", "104500.520000", "104456.680000", "104500.630000", "104456.790000", "104500.740000", "104456.900000", "104500.850000", "104457.010000", "104500.960000", "104457.120000", "104501.070000", "104457.230000", "104501.180000", "104457.340000", "104501.287500", "104457.450000", "104501.397500", "104457.557500", "104501.507500", "104457.667500", "104501.617500", "104457.777500", "104501.727500", "104457.887500", "104501.837500", "104457.997500", "104501.947500", "104458.107500", "104502.057500", "104458.217500", "104502.167500", "104458.327500", "104502.275000", "104458.435000", "104502.385000", "104458.545000", "104502.495000", "104458.655000", "104502.605000", "104458.765000", "104502.715000", "104458.875000", "104502.825000", "104458.985000", "104502.935000", "104459.095000", "104503.045000", "104459.205000", "104503.155000", "104459.315000", "104503.262500", "104459.422500", "104503.372500", "104459.532500", "104507.342500", "104503.502500", "104507.452500", "104503.612500", "104507.562500", "104503.722500", "104507.672500", "104503.832500", "104507.782500", "104503.942500", "104507.892500", "104504.052500", "104508.002500", "104504.162500", "104508.110000", "104504.270000", "104508.220000", "104504.380000", "104508.330000", "104504.490000", "104508.440000", "104504.600000", "104508.550000", "104504.710000", "104508.660000", "104504.820000", "104508.770000", "104504.930000", "104508.880000", "104505.040000", "104508.987500", "104505.150000", "104509.097500", "104505.257500", "104509.207500", "104505.367500", "104509.317500", "104505.477500", "104509.427500", "104505.587500", "104509.537500", "104505.697500", "104509.647500", "104505.807500", "104509.757500", "104505.917500", "104509.867500", "104506.027500", "104509.975000", "104506.135000", "104510.085000", "104506.245000", "104510.195000", "104506.355000", "104510.305000", "104506.465000", "104510.415000", "104506.575000", "104510.525000", "104506.685000", "104510.635000", "104506.795000", "104510.745000", "104506.905000", "104510.855000", "104507.015000", "104510.962500", "104507.122500", "104511.072500", "104507.232500", "104515.042500", "104511.202500", "104515.152500", "104511.312500", "104515.262500", "104511.422500", "104515.372500", "104511.532500", "104515.482500", "104511.642500", "104515.592500", "104511.752500", "104515.702500", "104511.862500", "104515.810000", "104511.970000", "104515.920000", "104512.080000", "104516.030000", "104512.190000", "104516.140000", "104512.300000", "104516.250000", "104512.410000", "104516.360000", "104512.520000", "104516.470000", "104512.630000", "104516.580000", "104512.740000", "104516.687500", "104512.850000", "104516.797500", "104512.957500", "104516.907500", "104513.067500", "104517.017500", "104513.177500", "104517.127500", "104513.287500", "104517.237500", "104513.397500", "104517.347500", "104513.507500", "104517.457500", "104513.617500", "104517.567500", "104513.727500", "104517.675000", "104513.835000", "104517.785000", "104513.945000", "104517.895000", "104514.055000", "104518.005000", "104514.165000", "104518.115000", "104514.275000", "104518.225000", "104514.385000", "104518.335000", "104514.495000", "104518.445000", "104514.605000", "104518.555000", "104514.715000", "104518.662500", "104514.822500", "104518.772500", "104514.932500", "104522.742500", "104518.902500", "104522.852500", "104519.012500", "104522.962500", "104519.122500", "104523.072500", "104519.232500", "104523.182500", "104519.342500", "104523.292500", "104519.452500", "104523.402500", "104519.562500", "104523.510000", "104519.670000", "104523.620000", "104519.780000", "104523.730000", "104519.890000", "104523.840000", "104520.000000", "104523.950000", "104520.110000", "104524.060000", "104520.220000", "104524.170000", "104520.330000", "104524.280000", "104520.440000", "104524.387500", "104520.550000", "104524.497500", "104520.657500", "104524.607500", "104520.767500", "104524.717500", "104520.877500", "104524.827500", "104520.987500", "104524.937500", "104521.097500", "104525.047500", "104521.207500", "104525.157500", "104521.317500", "104525.267500", "104521.427500", "104525.375000", "104521.535000", "104525.485000", "104521.645000", "104525.595000", "104521.755000", "104525.705000", "104521.865000", "104525.815000", "104521.975000", "104525.925000", "104522.085000", "104526.035000", "104522.195000", "104526.145000", "104522.305000", "104526.255000", "104522.415000", "104526.362500", "104522.522500", "104526.472500", "104522.632500", "104530.442500", "104526.602500", "104530.552500", "104526.712500", "104530.662500", "104526.822500", "104530.772500", "104526.932500", "104530.882500", "104527.042500", "104530.992500", "104527.152500", "104531.102500", "104527.262500", "104531.210000", "104527.370000", "104531.320000", "104527.480000", "104531.430000", "104527.590000", "104531.540000", "104527.700000", "104531.650000", "104527.810000", "104531.760000", "104527.920000", "104531.870000", "104528.030000", "104531.980000", "104528.140000", "104532.087500", "104528.250000", "104532.197500", "104528.357500", "104532.307500", "104528.467500", "104532.417500", "104528.577500", "104532.527500", "104528.687500", "104532.637500", "104528.797500", "104532.747500", "104528.907500", "104532.857500", "104529.017500", "104532.967500", "104529.127500", "104533.075000", "104529.235000", "104533.185000", "104529.345000", "104533.295000", "104529.455000", "104533.405000", "104529.565000", "104533.515000", "104529.675000", "104533.625000", "104529.785000", "104533.735000", "104529.895000", "104533.845000", "104530.005000", "104533.955000", "104530.115000", "104534.062500", "104530.222500", "104534.172500", "104530.332500", "104538.142500", "104534.302500", "104538.252500", "104534.412500", "104538.362500", "104534.522500", "104538.472500", "104534.632500", "104538.582500", "104534.742500", "104538.692500", "104534.852500", "104538.802500", "104534.962500", "104538.910000", "104535.070000", "104539.020000", "104535.180000", "104539.130000", "104535.290000", "104539.240000", "104535.400000", "104539.350000", "104535.510000", "104539.460000", "104535.620000", "104539.570000", "104535.730000", "104539.680000", "104535.840000", "104539.787500", "104535.950000", "104539.897500", "104536.057500", "104540.007500", "104536.167500", "104540.117500", "104536.277500", "104540.227500", "104536.387500", "104540.337500", "104536.497500", "104540.447500", "104536.607500", "104540.557500", "104536.717500", "104540.667500", "104536.827500", "104540.775000", "104536.935000", "104540.885000", "104537.045000", "104540.995000", "104537.155000", "104541.105000", "104537.265000", "104541.215000", "104537.375000", "104541.325000", "104537.485000", "104541.435000", "104537.595000", "104541.545000", "104537.705000", "104541.655000", "104537.815000", "104541.762500", "104537.922500", "104541.872500", "104538.032500", "104545.842500", "104542.002500", "104545.952500", "104542.112500", "104546.062500", "104542.222500", "104546.172500", "104542.332500", "104546.282500", "104542.442500", "104546.392500", "104542.552500", "104546.502500", "104542.662500", "104546.610000", "104542.770000", "104546.720000", "104542.880000", "104546.830000", "104542.990000", "104546.940000", "104543.100000", "104547.050000", "104543.210000", "104547.160000", "104543.320000", "104547.270000", "104543.430000", "104547.380000", "104543.540000", "104547.487500", "104543.650000", "104547.597500", "104543.757500", "104547.707500", "104543.867500", "104547.817500", "104543.977500", "104547.927500", "104544.087500", "104548.037500", "104544.197500", "104548.147500", "104544.307500", "104548.257500", "104544.417500", "104548.367500", "104544.527500", "104548.475000", "104544.635000", "104548.585000", "104544.745000", "104548.695000", "104544.855000", "104548.805000", "104544.965000", "104548.915000", "104545.075000", "104549.025000", "104545.185000", "104549.135000", "104545.295000", "104549.245000", "104545.405000", "104549.355000", "104545.515000", "104549.462500", "104545.622500", "104549.572500", "104545.732500", "104553.542500", "104549.702500", "104553.652500", "104549.812500", "104553.762500", "104549.922500", "104553.872500", "104550.032500", "104553.982500", "104550.142500", "104554.092500", "104550.252500", "104554.202500", "104550.362500", "104554.310000", "104550.470000", "104554.420000", "104550.580000", "104554.530000", "104550.690000", "104554.640000", "104550.800000", "104554.750000", "104550.910000", "104554.860000", "104551.020000", "104554.970000", "104551.130000", "104555.080000", "104551.240000", "104555.187500", "104551.350000", "104555.297500", "104551.457500", "104555.407500", "104551.567500", "104555.517500", "104551.677500", "104555.627500", "104551.787500", "104555.737500", "104551.897500", "104555.847500", "104552.007500", "104555.957500", "104552.117500", "104556.067500", "104552.227500", "104556.175000", "104552.335000", "104556.285000", "104552.445000", "104556.395000", "104552.555000", "104556.505000", "104552.665000", "104556.615000", "104552.775000", "104556.725000", "104552.885000", "104556.835000", "104552.995000", "104556.945000", "104553.105000", "104557.055000", "104553.215000", "104557.162500", "104553.322500", "104557.272500", "104553.432500", "104601.242500", "104557.402500", "104601.352500", "104557.512500", "104601.462500", "104557.622500", "104601.572500", "104557.732500", "104601.682500", "104557.842500", "104601.792500", "104557.952500", "104601.902500", "104558.062500", "104602.010000", "104558.170000", "104602.120000", "104558.280000", "104602.230000", "104558.390000", "104602.340000", "104558.500000", "104602.450000", "104558.610000", "104602.560000", "104558.720000", "104602.670000", "104558.830000", "104602.780000", "104558.940000", "104602.887500", "104559.050000", "104602.997500", "104559.157500", "104603.107500", "104559.267500", "104603.217500", "104559.377500", "104603.327500", "104559.487500", "104603.437500", "104559.597500", "104603.547500", "104559.707500", "104603.657500", "104559.817500", "104603.767500", "104559.927500", "104603.875000", "104600.035000", "104603.985000", "104600.145000", "104604.095000", "104600.255000", "104604.205000", "104600.365000", "104604.315000", "104600.475000", "104604.425000", "104600.585000", "104604.535000", "104600.695000", "104604.645000", "104600.805000", "104604.755000", "104600.915000", "104604.862500", "104601.022500", "104604.972500", "104601.132500", "104608.942500", "104605.102500", "104609.052500", "104605.212500", "104609.162500", "104605.322500", "104609.272500", "104605.432500", "104609.382500", "104605.542500", "104609.492500", "104605.652500", "104609.602500", "104605.762500", "104609.710000", "104605.870000", "104609.820000", "104605.980000", "104609.930000", "104606.090000", "104610.040000", "104606.200000", "104610.150000", "104606.310000", "104610.260000", "104606.420000", "104610.370000", "104606.530000", "104610.480000", "104606.640000", "104610.587500", "104606.750000", "104610.697500", "104606.857500", "104610.807500", "104606.967500", "104610.917500", "104607.077500", "104611.027500", "104607.187500", "104611.137500", "104607.297500", "104611.247500", "104607.407500", "104611.357500", "104607.517500", "104611.467500", "104607.627500", "104611.575000", "104607.735000", "104611.685000", "104607.845000", "104611.795000", "104607.955000", "104611.905000", "104608.065000", "104612.015000", "104608.175000", "104612.125000", "104608.285000", "104612.235000", "104608.395000", "104612.345000", "104608.505000", "104612.455000", "104608.615000", "104612.562500", "104608.722500", "104612.672500", "104608.832500", "104616.642500", "104612.802500", "104616.752500", "104612.912500", "104616.862500", "104613.022500", "104616.972500", "104613.132500", "104617.082500", "104613.242500", "104617.192500", "104613.352500", "104617.302500", "104613.462500", "104617.410000", "104613.570000", "104617.520000", "104613.680000", "104617.630000", "104613.790000", "104617.740000", "104613.900000", "104617.850000", "104614.010000", "104617.960000", "104614.120000", "104618.070000", "104614.230000", "104618.180000", "104614.340000", "104618.287500", "104614.450000", "104618.397500", "104614.557500", "104618.507500", "104614.667500", "104618.617500", "104614.777500", "104618.727500", "104614.887500", "104618.837500", "104614.997500", "104618.947500", "104615.107500", "104619.057500", "104615.217500", "104619.167500", "104615.327500", "104619.275000", "104615.435000", "104619.385000", "104615.545000", "104619.495000", "104615.655000", "104619.605000", "104615.765000", "104619.715000", "104615.875000", "104619.825000", "104615.985000", "104619.935000", "104616.095000", "104620.045000", "104616.205000", "104620.155000", "104616.315000", "104620.262500", "104616.422500", "104620.372500", "104616.532500", "104624.342500", "104620.502500", "104624.452500", "104620.612500", "104624.562500", "104620.722500", "104624.672500", "104620.832500", "104624.782500", "104620.942500", "104624.892500", "104621.052500", "104625.002500", "104621.162500", "104625.110000", "104621.270000", "104625.220000", "104621.380000", "104625.330000", "104621.490000", "104625.440000", "104621.600000", "104625.550000", "104621.710000", "104625.660000", "104621.820000", "104625.770000", "104621.930000", "104625.880000", "104622.040000", "104625.987500", "104622.150000", "104626.097500", "104622.257500", "104626.207500", "104622.367500", "104626.317500", "104622.477500", "104626.427500", "104622.587500", "104626.537500", "104622.697500", "104626.647500", "104622.807500", "104626.757500", "104622.917500", "104626.867500", "104623.027500", "104626.975000", "104623.135000", "104627.085000", "104623.245000", "104627.195000", "104623.355000", "104627.305000", "104623.465000", "104627.415000", "104623.575000", "104627.525000", "104623.685000", "104627.635000", "104623.795000", "104627.745000", "104623.905000", "104627.855000", "104624.015000", "104627.962500", "104624.122500", "104628.072500", "104624.232500", "104632.042500", "104628.202500", "104632.152500", "104628.312500", "104632.262500", "104628.422500", "104632.372500", "104628.532500", "104632.482500", "104628.642500", "104632.592500", "104628.752500", "104632.702500", "104628.862500", "104632.810000", "104628.970000", "104632.920000", "104629.080000", "104633.030000", "104629.190000", "104633.140000", "104629.300000", "104633.250000", "104629.410000", "104633.360000", "104629.520000", "104633.470000", "104629.630000", "104633.580000", "104629.740000", "104633.687500", "104629.850000", "104633.797500", "104629.957500", "104633.907500", 