{
  "AcquisitionMatrixPE": 80,
  "AcquisitionNumber": 1,
  "AcquisitionTime": "10:14:22.115000",
  "BandwidthPerPixelPhaseEncode": 44.643,
  "BaseResolution": 80,
  "BodyPartExamined": "BRAIN",
  "CoilCombinationMethod": "Sum of Squares",
  "ConsistencyInfo": "N4_VE11C_LATEST_20160120",
  "ConversionSoftware": "dcm2niix",
  "ConversionSoftwareVersion": "v1.0.20220720",
  "DerivedVendorReportedEchoSpacing": 0.000559998,
  "DeviceSerialNumber": "66112",
  "DwellTime": 2.7e-06,
  "EchoTime": 0.035,
  "EchoTrainLength": 39,
  "EffectiveEchoSpacing": 0.000279999,
  "FlipAngle": 90,
  "HeudiconvVersion": "0.13.1",
  "ImageOrientationPatientDICOM": [0.99994, 0.00870903, 0.00660416, -0.0102972, 0.953236, 0.302052],
  "ImageOrientationText": "Tra>Cor(17.6)>Sag(0.2)",
  "ImageType": [
    "ORIGINAL",
    "PRIMARY",
    "M",
    "ND",
    "NORM",
    "MOSAIC"
],
  "ImagingFrequency": 123.252,
  "InPlanePhaseEncodingDirectionDICOM": "COL",
  "InstitutionAddress": "Maynard 3,Hanover,NH,US,03755",
  "InstitutionName": "Dartmouth College - PBS",
  "InstitutionalDepartmentName": "Department",
  "MRAcquisitionType": "2D",
  "MagneticFieldStrength": 3,
  "Manufacturer": "Siemens",
  "ManufacturersModelName": "Prisma",
  "Modality": "MR",
  "MultibandAccelerationFactor": 4,
  "NonlinearGradientCorrection": false,
  "ParallelReductionFactorInPlane": 2,
  "PartialFourier": 1,
  "PatientPosition": "HFS",
  "PercentPhaseFOV": 100,
  "PercentSampling": 100,
  "PhaseEncodingDirection": "j-",
  "PhaseEncodingSteps": 79,
  "PhaseResolution": 1,
  "PixelBandwidth": 2315,
  "ProcedureStepDescription": "dbic^QA",
  "ProtocolName": "func-bold_task-rest_acq-p2-s4-3.5mm",
  "PulseSequenceDetails": "%SiemensSeq%\\ep2d_bold",
  "ReceiveCoilActiveElements": "HEA;HEP",
  "ReceiveCoilName": "Head_32",
  "ReconMatrixPE": 80,
  "RefLinesPE": 24,
  "RepetitionTime": 2,
  "SAR": 0.0209391,
  "ScanOptions": "FS",
  "ScanningSequence": "EP",
  "SequenceName": "*epfid2d1_80",
  "SequenceVariant": "SK",
  "SeriesDescription": "func-bold_task-rest_acq-p2-s4-3.5mm",
  "SeriesNumber": 7,
  "ShimSetting": [4148, -7684, -7513, 271, -34, -249, -60, 87],
  "SliceThickness": 3.5,
  "SliceTiming": [1.485, 0, 0.99, 0.2475, 1.2375, 0.7425, 1.7325, 0.495, 1.485, 0, 0.99, 0.2475, 1.2375, 0.7425, 1.7325, 0.495, 1.485, 0, 0.99, 0.2475, 1.2375, 0.7425, 1.7325, 0.495, 1.485, 0, 0.99, 0.2475, 1.2375, 0.7425, 1.7325, 0.495],
  "SoftwareVersions": "syngo MR E11",
  "SpacingBetweenSlices": 3.99,
  "StationName": "AWP66112",
  "TaskName": "rest",
  "TotalReadoutTime": 0.0221199,
  "TxRefAmp": 231.664,
  "dcmmeta_affine": [
    [-2.9998207092285156, -0.030891528353095055, 0.014622306451201439, 121.75588989257812],
    [-0.02612709067761898, 2.8597071170806885, 1.2053885459899902, -119.61034393310547],
    [0.019812481477856636, -0.9061571955680847, 3.8035411834716797, -37.86503982543945],
    [0.0, 0.0, 0.0, 1.0]
],
  "dcmmeta_reorient_transform": [
    [0.0, -1.0, 0.0, 79.0],
    [1.0, 0.0, 0.0, 0.0],
    [0.0, 0.0, 1.0, 0.0],
    [0.0, 0.0, 0.0, 1.0]
],
  "dcmmeta_shape": [80, 80, 32, 200],
  "dcmmeta_slice_dim": 2,
  "dcmmeta_version": 0.6,
  "global": {
    "const": {
      "AccessionNumber": "qa",
      "AcquisitionMatrix": [80, 0, 0, 80],
      "AngioFlag": "N",
      "BitsAllocated": 16,
      "BitsStored": 12,
      "BodyPartExamined": "BRAIN",
      "Columns": 480,
      "EchoNumbers": 1,
      "EchoTime": 35.0,
      "EchoTrainLength": 39,
      "FlipAngle": 90.0,
      "HighBit": 11,
      "ImageOrientationPatient": [0.99994026714485, 0.00870902995707, 0.00660416077125, -0.0102971760581, 0.95323570623581, 0.30205240691367],
      "ImagePositionPatient": [-713.1013117129, -683.4733599307, -294.64540268334],
      "ImageType": [
        "ORIGINAL",
        "PRIMARY",
        "M",
        "ND",
        "NORM",
        "MOSAIC"
],
      "ImagedNucleus": "1H",
      "ImagingFrequency": 123.252469,
      "InPlanePhaseEncodingDirection": "COL",
      "MRAcquisitionType": "2D",
      "MagneticFieldStrength": 3.0,
      "Manufacturer": "SIEMENS",
      "ManufacturerModelName": "Prisma",
      "Modality": "MR",
      "NumberOfAverages": 1.0,
      "NumberOfPhaseEncodingSteps": 79,
      "PercentPhaseFieldOfView": 100.0,
      "PercentSampling": 100.0,
      "PerformedProcedureStepStartTime": "100204.326000",
      "PhotometricInterpretation": "MONOCHROME2",
      "PixelBandwidth": 2315.0,
      "PixelRepresentation": 0,
      "PixelSpacing": [3.0, 3.0],
      "ProtocolName": "func-bold_task-rest_acq-p2-s4-3.5mm",
      "RepetitionTime": 2000.0,
      "Rows": 480,
      "SAR": 0.02093914402018,
      "SamplesPerPixel": 1,
      "ScanOptions": "FS",
      "ScanningSequence": "EP",
      "SequenceName": "*epfid2d1_80",
      "SequenceVariant": "SK",
      "SeriesDescription": "func-bold_task-rest_acq-p2-s4-3.5mm",
      "SeriesNumber": 7,
      "SeriesTime": "101455.434000",
      "SliceLocation": -71.783914175969,
      "SliceThickness": 3.5,
      "SmallestImagePixelValue": 0,
      "SoftwareVersions": "syngo MR E11",
      "SpacingBetweenSlices": 3.9900001473496,
      "SpecificCharacterSet": "ISO_IR 100",
      "StudyID": "38",
      "StudyTime": "100204.238000",
      "TransmitCoilName": "Body",
      "VariableFlipAngleFlag": "N",
      "WindowCenter": 897.0,
      "WindowCenterWidthExplanation": "Algo1",
      "dBdt": 0.0},
    "slices": {}
  },
  "time": {
    "samples": {
      "AcquisitionNumber": [1, 2, 3, 4, 5, 6, 7, 8, 9, 10, 11, 12, 13, 14, 15, 16, 17, 18, 19, 20, 21, 22, 23, 24, 25, 26, 27, 28, 29, 30, 31, 32, 33, 34, 35, 36, 37, 38, 39, 40, 41, 42, 43, 44, 45, 46, 47, 48, 49, 50, 51, 52, 53, 54, 55, 56, 57, 58, 59, 60, 61, 62, 63, 64, 65, 66, 67, 68, 69, 70, 71, 72, 73, 74, 75, 76, 77, 78, 79, 80, 81, 82, 83, 84, 85, 86, 87, 88, 89, 90, 91, 92, 93, 94, 95, 96, 97, 98, 99, 100, 101, 102, 103, 104, 105, 106, 107, 108, 109, 110, 111, 112, 113, 114, 115, 116, 117, 118, 119, 120, 121, 122, 123, 124, 125, 126, 127, 128, 129, 130, 131, 132, 133, 134, 135, 136, 137, 138, 139, 140, 141, 142, 143, 144, 145, 146, 147, 148, 149, 150, 151, 152, 153, 154, 155, 156, 157, 158, 159, 160, 161, 162, 163, 164, 165, 166, 167, 168, 169, 170, 171, 172, 173, 174, 175, 176, 177, 178, 179, 180, 181, 182, 183, 184, 185, 186, 187, 188, 189, 190, 191, 192, 193, 194, 195, 196, 197, 198, 199, 200],
      "AcquisitionTime": ["101422.115000", "101424.115000", "101426.115000", "101428.115000", "101430.115000", "101432.115000", "101434.115000", "101436.115000", "101438.115000", "101440.115000", "101442.115000", "101444.115000", "101446.115000", "101448.115000", "101450.115000", "101452.115000", "101454.115000", "101456.115000", "101458.115000", "101500.115000", "101502.115000", "101504.115000", "101506.115000", "101508.115000", "101510.115000", "101512.115000", "101514.115000", "101516.115000", "101518.115000", "101520.115000", "101522.115000", "101524.115000", "101526.115000", "101528.115000", "101530.115000", "101532.115000", "101534.115000", "101536.115000", "101538.115000", "101540.115000", "101542.115000", "101544.115000", "101546.115000", "101548.115000", "101550.115000", "101552.115000", "101554.115000", "101556.115000", "101558.115000", "101600.115000", "101602.115000", "101604.115000", "101606.115000", "101608.115000", "101610.115000", "101612.115000", "101614.115000", "101616.115000", "101618.115000", "101620.115000", "101622.115000", "101624.115000", "101626.115000", "101628.115000", "101630.115000", "101632.115000", "101634.115000", "101636.115000", "101638.115000", "101640.115000", "101642.115000", "101644.115000", "101646.115000", "101648.115000", "101650.115000", "101652.115000", "101654.115000", "101656.115000", "101658.115000", "101700.115000", "101702.115000", "101704.115000", "101706.115000", "101708.115000", "101710.115000", "101712.115000", "101714.115000", "101716.115000", "101718.115000", "101720.115000", "101722.115000", "101724.115000", "101726.115000", "101728.115000", "101730.115000", "101732.115000", "101734.115000", "101736.115000", "101738.115000", "101740.115000", "101742.115000", "101744.115000", "101746.115000", "101748.115000", "101750.115000", "101752.115000", "101754.115000", "101756.115000", "101758.115000", "101800.115000", "101802.115000", "101804.115000", "101806.115000", "101808.115000", "101810.115000", "101812.115000", "101814.115000", "101816.115000", "101818.115000", "101820.115000", "101822.115000", "101824.115000", "101826.115000", "101828.115000", "101830.115000", "101832.115000", "101834.115000", "101836.115000", "101838.115000", "101840.115000", "101842.115000", "101844.115000", "101846.115000", "101848.115000", "101850.115000", "101852.115000", "101854.115000", "101856.115000", "101858.115000", "101900.115000", "101902.115000", "101904.115000", "101906.115000", "101908.115000", "101910.115000", "101912.115000", "101914.115000", "101916.115000", "101918.115000", "101920.115000", "101922.115000", "101924.115000", "101926.115000", "101928.115000", "101930.115000", "101932.115000", "101934.115000", "101936.115000", "101938.115000", "101940.115000", "101942.115000", "101944.115000", "101946.115000", "101948.115000", "101950.115000", "101952.115000", "101954.115000", "101956.115000", "101958.115000", "102000.115000", "102002.115000", "102004.115000", "102006.115000", "102008.115000", "102010.115000", "102012.115000", "102014.115000", "102016.115000", "102018.115000", "102020.115000", "102022.115000", "102024.115000", "102026.115000", "102028.115000", "102030.115000", "102032.115000", "102034.115000", "102036.115000", "102038.115000", "102040.115000", "102042.115000", "102044.115000", "102046.115000", "102048.115000", "102050.115000", "102052.115000", "102054.115000", "102056.115000", "102058.115000", "102100.115000"],
      "ContentTime": ["101455.437000", "101455.440000", "101455.443000", "101455.465000", "101455.468000", "101455.470000", "101455.473000", "101455.475000", "101455.478000", "101455.481000", "101455.483000", "101455.486000", "101455.488000", "101455.491000", "101455.493000", "101455.496000", "101455.498000", "101535.432000", "101535.435000", "101535.438000", "101535.441000", "101535.443000", "101535.446000", "101535.448000", "101535.461000", "101535.463000", "101535.466000", "101535.469000", "101535.471000", "101535.474000", "101535.476000", "101535.479000", "101535.481000", "101535.484000", "101535.486000", "101535.489000", "101535.491000", "101615.432000", "101615.435000", "101615.438000", "101615.440000", "101615.455000", "101615.458000", "101615.461000", "101615.463000", "101615.466000", "101615.468000", "101615.471000", "101615.473000", "101615.476000", "101615.478000", "101615.481000", "101615.484000", "101615.486000", "101615.489000", "101615.491000", "101615.494000", "101655.432000", "101655.435000", "101655.438000", "101655.440000", "101655.443000", "101655.445000", "101655.448000", "101655.451000", "101655.453000", "101655.456000", "101655.458000", "101655.461000", "101655.463000", "101655.466000", "101655.476000", "101655.479000", "101655.481000", "101655.484000", "101655.486000", "101655.489000", "101735.433000", "101735.436000", "101735.439000", "101735.441000", "101735.444000", "101735.446000", "101735.449000", "101735.452000", "101735.454000", "101735.457000", "101735.459000", "101735.462000", "101735.464000", "101735.467000", "101735.475000", "101735.477000", "101735.480000", "101735.482000", "101735.485000", "101735.488000", "101815.432000", "101815.435000", "101815.438000", "101815.440000", "101815.443000", "101815.445000", "101815.448000", "101815.451000", "101815.453000", "101815.456000", "101815.459000", "101815.461000", "101815.464000", "101815.466000", "101815.469000", "101815.471000", "101815.474000", "101815.476000", "101815.479000", "101815.481000", "101855.432000", "101855.435000", "101855.438000", "101855.440000", "101855.443000", "101855.445000", "101855.448000", "101855.451000", "101855.453000", "101855.456000", "101855.458000", "101855.461000", "101855.463000", "101855.466000", "101855.468000", "101855.471000", "101855.473000", "101855.476000", "101855.479000", "101855.481000", "101935.432000", "101935.435000", "101935.438000", "101935.441000", "101935.443000", "101935.446000", "101935.448000", "101935.451000", "101935.453000", "101935.456000", "101935.458000", "101935.461000", "101935.464000", "101935.466000", "101935.469000", "101935.471000", "101935.474000", "101935.476000", "101935.479000", "101935.481000", "102015.433000", "102015.435000", "102015.438000", "102015.441000", "102015.443000", "102015.446000", "102015.448000", "102015.451000", "102015.453000", "102015.456000", "102015.458000", "102015.461000", "102015.463000", "102015.466000", "102015.469000", "102015.471000", "102015.474000", "102015.476000", "102015.479000", "102015.481000", "102055.432000", "102055.435000", "102055.438000", "102055.441000", "102055.443000", "102055.446000", "102055.448000", "102055.451000", "102055.453000", "102055.456000", "102055.458000", "102055.461000", "102055.463000", "102055.466000", "102055.469000", "102055.471000", "102055.474000", "102055.476000", "102055.479000", "102055.481000", "102100.921000", "102100.924000", "102100.926000"],
      "InstanceCreationTime": ["101455.437000", "101455.440000", "101455.443000", "101455.465000", "101455.468000", "101455.470000", "101455.473000", "101455.475000", "101455.478000", "101455.481000", "101455.483000", "101455.486000", "101455.488000", "101455.491000", "101455.493000", "101455.496000", "101455.498000", "101535.432000", "101535.435000", "101535.438000", "101535.441000", "101535.443000", "101535.446000", "101535.448000", "101535.461000", "101535.463000", "101535.466000", "101535.469000", "101535.471000", "101535.474000", "101535.476000", "101535.479000", "101535.481000", "101535.484000", "101535.486000", "101535.489000", "101535.491000", "101615.432000", "101615.435000", "101615.438000", "101615.440000", "101615.455000", "101615.458000", "101615.461000", "101615.463000", "101615.466000", "101615.468000", "101615.471000", "101615.473000", "101615.476000", "101615.478000", "101615.481000", "101615.484000", "101615.486000", "101615.489000", "101615.491000", "101615.494000", "101655.432000", "101655.435000", "101655.438000", "101655.440000", "101655.443000", "101655.445000", "101655.448000", "101655.451000", "101655.453000", "101655.456000", "101655.458000", "101655.461000", "101655.463000", "101655.466000", "101655.476000", "101655.479000", "101655.481000", "101655.484000", "101655.486000", "101655.489000", "101735.433000", "101735.436000", "101735.439000", "101735.441000", "101735.444000", "101735.446000", "101735.449000", "101735.452000", "101735.454000", "101735.457000", "101735.459000", "101735.462000", "101735.464000", "101735.467000", "101735.475000", "101735.477000", "101735.480000", "101735.482000", "101735.485000", "101735.488000", "101815.432000", "101815.435000", "101815.438000", "101815.440000", "101815.443000", "101815.445000", "101815.448000", "101815.451000", "101815.453000", "101815.456000", "101815.459000", "101815.461000", "101815.464000", "101815.466000", "101815.469000", "101815.471000", "101815.474000", "101815.476000", "101815.479000", "101815.481000", "101855.432000", "101855.435000", "101855.438000", "101855.440000", "101855.443000", "101855.445000", "101855.448000", "101855.451000", "101855.453000", "101855.456000", "101855.458000", "101855.461000", "101855.463000", "101855.466000", "101855.468000", "101855.471000", "101855.473000", "101855.476000", "101855.479000", "101855.481000", "101935.432000", "101935.435000", "101935.438000", "101935.441000", "101935.443000", "101935.446000", "101935.448000", "101935.451000", "101935.453000", "101935.456000", "101935.458000", "101935.461000", "101935.464000", "101935.466000", "101935.469000", "101935.471000", "101935.474000", "101935.476000", "101935.479000", "101935.481000", "102015.433000", "102015.435000", "102015.438000", "102015.441000", "102015.443000", "102015.446000", "102015.448000", "102015.451000", "102015.453000", "102015.456000", "102015.458000", "102015.461000", "102015.463000", "102015.466000", "102015.469000", "102015.471000", "102015.474000", "102015.476000", "102015.479000", "102015.481000", "102055.432000", "102055.435000", "102055.438000", "102055.441000", "102055.443000", "102055.446000", "102055.448000", "102055.451000", "102055.453000", "102055.456000", "102055.458000", "102055.461000", "102055.463000", "102055.466000", "102055.469000", "102055.471000", "102055.474000", "102055.476000", "102055.479000", "102055.481000", "102100.921000", "102100.924000", "102100.926000"],
      "InstanceNumber": [1, 2, 3, 4, 5, 6, 7, 8, 9, 10, 11, 12, 13, 14, 15, 16, 17, 18, 19, 20, 21, 22, 23, 24, 25, 26, 27, 28, 29, 30, 31, 32, 33, 34, 35, 36, 37, 38, 39, 40, 41, 42, 43, 44, 45, 46, 47, 48, 49, 50, 51, 52, 53, 54, 55, 56, 57, 58, 59, 60, 61, 62, 63, 64, 65, 66, 67, 68, 69, 70, 71, 72, 73, 74, 75, 76, 77, 78, 79, 80, 81, 82, 83, 84, 85, 86, 87, 88, 89, 90, 91, 92, 93, 94, 95, 96, 97, 98, 99, 100, 101, 102, 103, 104, 105, 106, 107, 108, 109, 110, 111, 112, 113, 114, 115, 116, 117, 118, 119, 120, 121, 122, 123, 124, 125, 126, 127, 128, 129, 130, 131, 132, 133, 134, 135, 136, 137, 138, 139, 140, 141, 142, 143, 144, 145, 146, 147, 148, 149, 150, 151, 152, 153, 154, 155, 156, 157, 158, 159, 160, 161, 162, 163, 164, 165, 166, 167, 168, 169, 170, 171, 172, 173, 174, 175, 176, 177, 178, 179, 180, 181, 182, 183, 184, 185, 186, 187, 188, 189, 190, 191, 192, 193, 194, 195, 196, 197, 198, 199, 200],
      "LargestImagePixelValue": [1972, 1977, 1975, 1980, 1972, 1972, 1975, 1968, 1965, 1970, 1975, 1981, 1980, 1975, 1971, 1977, 1970, 1974, 1973, 1971, 1978, 1981, 1978, 1973, 1978, 1980, 1980, 1982, 1980, 1978, 1977, 1983, 1979, 1975, 1970, 1973, 1982, 1978, 1970, 1972, 1970, 1978, 1979, 1977, 1975, 1973, 1973, 1976, 1978, 1978, 1979, 1974, 1975, 1980, 1982, 1980, 1982, 1979, 1979, 1979, 1979, 1977, 1979, 1982, 1981, 1982, 1984, 1982, 1980, 1979, 1978, 1980, 1978, 1986, 1974, 1978, 1979, 1980, 1979, 1977, 1974, 1980, 1978, 1980, 1978, 1976, 1979, 1985, 1982, 1979, 1976, 1975, 1981, 1983, 1978, 1982, 1988, 1979, 1981, 1977, 1974, 1979, 1986, 1984, 1978, 1978, 1981, 1980, 1983, 1989, 1978, 1984, 1983, 1984, 1983, 1986, 1980, 1980, 1980, 1984, 1977, 1987, 1981, 1981, 1983, 1984, 1984, 1977, 1983, 1982, 1985, 1979, 1978, 1983, 1986, 1985, 1986, 1983, 1985, 1983, 1977, 1982, 1981, 1984, 1979, 1981, 1985, 1986, 1981, 1985, 1980, 1982, 1989, 1984, 1972, 1986, 1982, 1984, 1984, 1990, 1981, 1983, 1981, 1986, 1985, 1984, 1983, 1982, 1983, 1985, 1983, 1984, 1985, 1988, 1984, 1985, 1985, 1987, 1983, 1983, 1987, 1988, 1986, 1979, 1985, 1982, 1985, 1985, 1983, 1981, 1984, 1984, 1986, 1983, 1988, 1985, 1987, 1988, 1983, 1984],
      "WindowWidth": [2014.0, 2014.0, 2014.0, 2015.0, 2015.0, 2014.0, 2014.0, 2015.0, 2014.0, 2014.0, 2015.0, 2014.0, 2014.0, 2014.0, 2014.0, 2015.0, 2015.0, 2015.0, 2015.0, 2015.0, 2015.0, 2015.0, 2015.0, 2015.0, 2015.0, 2015.0, 2015.0, 2015.0, 2015.0, 2015.0, 2015.0, 2015.0, 2015.0, 2014.0, 2015.0, 2015.0, 2015.0, 2015.0, 2015.0, 2015.0, 2015.0, 2015.0, 2015.0, 2015.0, 2015.0, 2015.0, 2015.0, 2015.0, 2015.0, 2015.0, 2015.0, 2015.0, 2015.0, 2015.0, 2015.0, 2015.0, 2015.0, 2015.0, 2015.0, 2015.0, 2015.0, 2015.0, 2015.0, 2015.0, 2015.0, 2015.0, 2015.0, 2015.0, 2015.0, 2015.0, 2015.0, 2015.0, 2015.0, 2015.0, 2015.0, 2015.0, 2015.0, 2015.0, 2015.0, 2015.0, 2015.0, 2015.0, 2015.0, 2015.0, 2015.0, 2015.0, 2015.0, 2015.0, 2015.0, 2016.0, 2015.0, 2015.0, 2016.0, 2016.0, 2015.0, 2015.0, 2015.0, 2015.0, 2015.0, 2015.0, 2015.0, 2016.0, 2015.0, 2015.0, 2016.0, 2015.0, 2015.0, 2015.0, 2016.0, 2015.0, 2015.0, 2015.0, 2015.0, 2016.0, 2015.0, 2015.0, 2016.0, 2015.0, 2015.0, 2016.0, 2015.0, 2015.0, 2015.0, 2016.0, 2015.0, 2015.0, 2016.0, 2015.0, 2016.0, 2016.0, 2016.0, 2016.0, 2015.0, 2015.0, 2016.0, 2016.0, 2016.0, 2015.0, 2016.0, 2016.0, 2015.0, 2015.0, 2015.0, 2016.0, 2015.0, 2015.0, 2016.0, 2016.0, 2016.0, 2016.0, 2016.0, 2016.0, 2015.0, 2015.0, 2016.0, 2015.0, 2015.0, 2016.0, 2015.0, 2016.0, 2015.0, 2016.0, 2016.0, 2016.0, 2016.0, 2015.0, 2015.0, 2016.0, 2016.0, 2016.0, 2015.0, 2016.0, 2016.0, 2016.0, 2015.0, 2016.0, 2015.0, 2015.0, 2015.0, 2016.0, 2016.0, 2015.0, 2016.0, 2016.0, 2015.0, 2015.0, 2015.0, 2015.0, 2015.0, 2015.0, 2016.0, 2015.0, 2015.0, 2016.0, 2015.0, 2015.0, 2015.0, 2016.0, 2015.0, 2015.0]
    },
    "slices": {}
  }
}