{
  "AcquisitionMatrixPE": 80,
  "AcquisitionNumber": 1,
  "AcquisitionTime": "10:07:27.760000",
  "BandwidthPerPixelPhaseEncode": 48.077,
  "BaseResolution": 80,
  "BodyPartExamined": "BRAIN",
  "CoilCombinationMethod": "Sum of Squares",
  "ConsistencyInfo": "N4_VE11C_LATEST_20160120",
  "ConversionSoftware": "dcm2niix",
  "ConversionSoftwareVersion": "v1.0.20220720",
  "DerivedVendorReportedEchoSpacing": 0.000519999,
  "DeviceSerialNumber": "66112",
  "DwellTime": 2.7e-06,
  "EchoTime": 0.035,
  "EchoTrainLength": 39,
  "EffectiveEchoSpacing": 0.00026,
  "FlipAngle": 90,
  "HeudiconvVersion": "0.13.1",
  "ImageOrientationPatientDICOM": [0.99994, 0.00870903, 0.00660416, -0.0102972, 0.953236, 0.302052],
  "ImageOrientationText": "Tra>Cor(17.6)>Sag(0.2)",
  "ImageType": [
    "ORIGINAL",
    "PRIMARY",
    "M",
    "ND",
    "NORM",
    "MOSAIC"
],
  "ImagingFrequency": 123.252,
  "InPlanePhaseEncodingDirectionDICOM": "COL",
  "InstitutionAddress": "Maynard 3,Hanover,NH,US,03755",
  "InstitutionName": "Dartmouth College - PBS",
  "InstitutionalDepartmentName": "Department",
  "MRAcquisitionType": "2D",
  "MagneticFieldStrength": 3,
  "Manufacturer": "Siemens",
  "ManufacturersModelName": "Prisma",
  "MatrixCoilMode": "GRAPPA",
  "Modality": "MR",
  "NonlinearGradientCorrection": false,
  "ParallelReductionFactorInPlane": 2,
  "PartialFourier": 1,
  "PatientPosition": "HFS",
  "PercentPhaseFOV": 100,
  "PercentSampling": 100,
  "PhaseEncodingDirection": "j-",
  "PhaseEncodingSteps": 79,
  "PhaseResolution": 1,
  "PixelBandwidth": 2315,
  "ProcedureStepDescription": "dbic^QA",
  "ProtocolName": "func-bold_task-rest_acq-p2",
  "PulseSequenceDetails": "%SiemensSeq%\\ep2d_bold",
  "ReceiveCoilActiveElements": "HEA;HEP",
  "ReceiveCoilName": "Head_32",
  "ReconMatrixPE": 80,
  "RefLinesPE": 24,
  "RepetitionTime": 2,
  "SAR": 0.0556849,
  "ScanOptions": "FS",
  "ScanningSequence": "EP",
  "SequenceName": "*epfid2d1_80",
  "SequenceVariant": "SK",
  "SeriesDescription": "func-bold_task-rest_acq-p2",
  "SeriesNumber": 5,
  "ShimSetting": [4148, -7684, -7513, 270, -36, -244, -64, 88],
  "SliceThickness": 3.5,
  "SliceTiming": [0.99, 0, 1.055, 0.065, 1.12, 0.1325, 1.1875, 0.1975, 1.2525, 0.2625, 1.32, 0.33, 1.385, 0.395, 1.45, 0.46, 1.5175, 0.5275, 1.5825, 0.5925, 1.65, 0.66, 1.715, 0.725, 1.78, 0.79, 1.8475, 0.8575, 1.9125, 0.9225],
  "SoftwareVersions": "syngo MR E11",
  "SpacingBetweenSlices": 3.99,
  "StationName": "AWP66112",
  "TaskName": "rest",
  "TotalReadoutTime": 0.02054,
  "TxRefAmp": 231.664,
  "dcmmeta_affine": [
    [-2.9998207092285156, -0.030891528353095055, 0.014622306451201439, 121.7705078125],
    [-0.02612709067761898, 2.8597071170806885, 1.2053884267807007, -118.40495300292969],
    [0.019812481477856636, -0.9061571955680847, 3.8035411834716797, -34.06149673461914],
    [0.0, 0.0, 0.0, 1.0]
],
  "dcmmeta_reorient_transform": [
    [0.0, -1.0, 0.0, 79.0],
    [1.0, 0.0, 0.0, 0.0],
    [0.0, 0.0, 1.0, 0.0],
    [0.0, 0.0, 0.0, 1.0]
],
  "dcmmeta_shape": [80, 80, 30, 200],
  "dcmmeta_slice_dim": 2,
  "dcmmeta_version": 0.6,
  "global": {
    "const": {
      "AccessionNumber": "qa",
      "AcquisitionMatrix": [80, 0, 0, 80],
      "AngioFlag": "N",
      "BitsAllocated": 16,
      "BitsStored": 12,
      "BodyPartExamined": "BRAIN",
      "Columns": 480,
      "EchoNumbers": 1,
      "EchoTime": 35.0,
      "EchoTrainLength": 39,
      "FlipAngle": 90.0,
      "HighBit": 11,
      "ImageOrientationPatient": [0.99994026714485, 0.00870902995707, 0.00660416077125, -0.0102971760581, 0.95323570623581, 0.30205240691367],
      "ImagePositionPatient": [-713.11593404357, -684.67874895353, -290.84185959252],
      "ImageType": [
        "ORIGINAL",
        "PRIMARY",
        "M",
        "ND",
        "NORM",
        "MOSAIC"
],
      "ImagedNucleus": "1H",
      "ImagingFrequency": 123.25247,
      "InPlanePhaseEncodingDirection": "COL",
      "MRAcquisitionType": "2D",
      "MagneticFieldStrength": 3.0,
      "Manufacturer": "SIEMENS",
      "ManufacturerModelName": "Prisma",
      "Modality": "MR",
      "NumberOfAverages": 1.0,
      "NumberOfPhaseEncodingSteps": 79,
      "PercentPhaseFieldOfView": 100.0,
      "PercentSampling": 100.0,
      "PerformedProcedureStepStartTime": "100204.326000",
      "PhotometricInterpretation": "MONOCHROME2",
      "PixelBandwidth": 2315.0,
      "PixelRepresentation": 0,
      "PixelSpacing": [3.0, 3.0],
      "ProtocolName": "func-bold_task-rest_acq-p2",
      "RepetitionTime": 2000.0,
      "Rows": 480,
      "SAR": 0.05568489861555,
      "SamplesPerPixel": 1,
      "ScanOptions": "FS",
      "ScanningSequence": "EP",
      "SequenceName": "*epfid2d1_80",
      "SequenceVariant": "SK",
      "SeriesDescription": "func-bold_task-rest_acq-p2",
      "SeriesNumber": 5,
      "SeriesTime": "100815.365000",
      "SliceLocation": -67.793912101705,
      "SliceThickness": 3.5,
      "SmallestImagePixelValue": 0,
      "SoftwareVersions": "syngo MR E11",
      "SpacingBetweenSlices": 3.9900000343284,
      "SpecificCharacterSet": "ISO_IR 100",
      "StudyID": "38",
      "StudyTime": "100204.238000",
      "TransmitCoilName": "Body",
      "VariableFlipAngleFlag": "N",
      "WindowCenterWidthExplanation": "Algo1",
      "dBdt": 0.0},
    "slices": {}
  },
  "time": {
    "samples": {
      "AcquisitionNumber": [1, 2, 3, 4, 5, 6, 7, 8, 9, 10, 11, 12, 13, 14, 15, 16, 17, 18, 19, 20, 21, 22, 23, 24, 25, 26, 27, 28, 29, 30, 31, 32, 33, 34, 35, 36, 37, 38, 39, 40, 41, 42, 43, 44, 45, 46, 47, 48, 49, 50, 51, 52, 53, 54, 55, 56, 57, 58, 59, 60, 61, 62, 63, 64, 65, 66, 67, 68, 69, 70, 71, 72, 73, 74, 75, 76, 77, 78, 79, 80, 81, 82, 83, 84, 85, 86, 87, 88, 89, 90, 91, 92, 93, 94, 95, 96, 97, 98, 99, 100, 101, 102, 103, 104, 105, 106, 107, 108, 109, 110, 111, 112, 113, 114, 115, 116, 117, 118, 119, 120, 121, 122, 123, 124, 125, 126, 127, 128, 129, 130, 131, 132, 133, 134, 135, 136, 137, 138, 139, 140, 141, 142, 143, 144, 145, 146, 147, 148, 149, 150, 151, 152, 153, 154, 155, 156, 157, 158, 159, 160, 161, 162, 163, 164, 165, 166, 167, 168, 169, 170, 171, 172, 173, 174, 175, 176, 177, 178, 179, 180, 181, 182, 183, 184, 185, 186, 187, 188, 189, 190, 191, 192, 193, 194, 195, 196, 197, 198, 199, 200],
      "AcquisitionTime": ["100727.760000", "100729.760000", "100731.760000", "100733.760000", "100735.760000", "100737.760000", "100739.760000", "100741.760000", "100743.760000", "100745.760000", "100747.760000", "100749.760000", "100751.760000", "100753.760000", "100755.760000", "100757.760000", "100759.760000", "100801.760000", "100803.760000", "100805.760000", "100807.760000", "100809.760000", "100811.760000", "100813.760000", "100815.760000", "100817.760000", "100819.760000", "100821.760000", "100823.760000", "100825.760000", "100827.760000", "100829.760000", "100831.760000", "100833.760000", "100835.760000", "100837.760000", "100839.760000", "100841.760000", "100843.760000", "100845.760000", "100847.760000", "100849.760000", "100851.760000", "100853.760000", "100855.760000", "100857.760000", "100859.760000", "100901.760000", "100903.760000", "100905.760000", "100907.760000", "100909.760000", "100911.760000", "100913.760000", "100915.760000", "100917.760000", "100919.760000", "100921.760000", "100923.760000", "100925.760000", "100927.760000", "100929.760000", "100931.760000", "100933.760000", "100935.760000", "100937.760000", "100939.760000", "100941.760000", "100943.760000", "100945.760000", "100947.760000", "100949.760000", "100951.760000", "100953.760000", "100955.760000", "100957.760000", "100959.760000", "101001.760000", "101003.760000", "101005.760000", "101007.760000", "101009.760000", "101011.760000", "101013.760000", "101015.760000", "101017.760000", "101019.760000", "101021.760000", "101023.760000", "101025.760000", "101027.760000", "101029.760000", "101031.760000", "101033.760000", "101035.760000", "101037.760000", "101039.760000", "101041.760000", "101043.760000", "101045.760000", "101047.760000", "101049.760000", "101051.760000", "101053.760000", "101055.760000", "101057.760000", "101059.760000", "101101.760000", "101103.760000", "101105.760000", "101107.760000", "101109.760000", "101111.760000", "101113.760000", "101115.760000", "101117.760000", "101119.760000", "101121.760000", "101123.760000", "101125.760000", "101127.760000", "101129.760000", "101131.760000", "101133.760000", "101135.760000", "101137.760000", "101139.760000", "101141.760000", "101143.760000", "101145.760000", "101147.760000", "101149.760000", "101151.760000", "101153.760000", "101155.760000", "101157.760000", "101159.760000", "101201.760000", "101203.760000", "101205.760000", "101207.760000", "101209.760000", "101211.760000", "101213.760000", "101215.760000", "101217.760000", "101219.760000", "101221.760000", "101223.760000", "101225.760000", "101227.760000", "101229.760000", "101231.760000", "101233.760000", "101235.760000", "101237.760000", "101239.760000", "101241.760000", "101243.760000", "101245.760000", "101247.760000", "101249.760000", "101251.760000", "101253.760000", "101255.760000", "101257.760000", "101259.760000", "101301.760000", "101303.760000", "101305.760000", "101307.760000", "101309.760000", "101311.760000", "101313.760000", "101315.760000", "101317.760000", "101319.760000", "101321.760000", "101323.760000", "101325.760000", "101327.760000", "101329.760000", "101331.760000", "101333.760000", "101335.760000", "101337.760000", "101339.760000", "101341.760000", "101343.760000", "101345.760000", "101347.760000", "101349.760000", "101351.760000", "101353.760000", "101355.760000", "101357.760000", "101359.760000", "101401.760000", "101403.760000", "101405.760000"],
      "ContentTime": ["100815.368000", "100815.372000", "100815.374000", "100815.377000", "100815.380000", "100815.382000", "100815.385000", "100815.392000", "100815.394000", "100815.397000", "100815.399000", "100815.402000", "100815.405000", "100815.407000", "100815.410000", "100815.413000", "100815.415000", "100815.418000", "100815.421000", "100815.423000", "100815.426000", "100815.428000", "100815.431000", "100815.433000", "100855.362000", "100855.365000", "100855.368000", "100855.370000", "100855.373000", "100855.376000", "100855.378000", "100855.381000", "100855.383000", "100855.386000", "100855.388000", "100855.391000", "100855.393000", "100855.396000", "100855.398000", "100855.401000", "100855.404000", "100855.406000", "100855.413000", "100855.416000", "100935.362000", "100935.365000", "100935.368000", "100935.370000", "100935.373000", "100935.376000", "100935.378000", "100935.381000", "100935.383000", "100935.386000", "100935.388000", "100935.391000", "100935.394000", "100935.396000", "100935.399000", "100935.401000", "100935.404000", "100935.406000", "100935.420000", "100935.423000", "101015.363000", "101015.365000", "101015.368000", "101015.371000", "101015.373000", "101015.376000", "101015.378000", "101015.381000", "101015.383000", "101015.386000", "101015.388000", "101015.391000", "101015.393000", "101015.396000", "101015.398000", "101015.401000", "101015.404000", "101015.406000", "101015.409000", "101015.411000", "101055.362000", "101055.365000", "101055.368000", "101055.370000", "101055.373000", "101055.375000", "101055.378000", "101055.381000", "101055.383000", "101055.385000", "101055.395000", "101055.397000", "101055.400000", "101055.402000", "101055.405000", "101055.407000", "101055.410000", "101055.412000", "101055.415000", "101055.418000", "101135.362000", "101135.365000", "101135.368000", "101135.370000", "101135.373000", "101135.376000", "101135.378000", "101135.381000", "101135.383000", "101135.386000", "101135.388000", "101135.391000", "101135.394000", "101135.396000", "101135.398000", "101135.401000", "101135.404000", "101135.406000", "101135.409000", "101135.411000", "101215.362000", "101215.365000", "101215.368000", "101215.370000", "101215.373000", "101215.375000", "101215.378000", "101215.381000", "101215.383000", "101215.386000", "101215.388000", "101215.391000", "101215.393000", "101215.396000", "101215.398000", "101215.401000", "101215.404000", "101215.406000", "101215.408000", "101215.411000", "101255.363000", "101255.366000", "101255.369000", "101255.371000", "101255.374000", "101255.376000", "101255.379000", "101255.382000", "101255.384000", "101255.387000", "101255.389000", "101255.392000", "101255.394000", "101255.397000", "101255.399000", "101255.402000", "101255.405000", "101255.407000", "101255.410000", "101255.412000", "101335.362000", "101335.365000", "101335.368000", "101335.371000", "101335.373000", "101335.376000", "101335.378000", "101335.381000", "101335.383000", "101335.386000", "101335.388000", "101335.391000", "101335.394000", "101335.396000", "101335.399000", "101335.401000", "101335.404000", "101335.406000", "101335.409000", "101335.412000", "101407.048000", "101407.050000", "101407.053000", "101407.056000", "101407.058000", "101407.061000", "101407.063000", "101407.066000", "101407.068000", "101407.071000", "101407.074000", "101407.077000", "101407.083000", "101407.088000", "101407.094000", "101407.098000"],
      "InstanceCreationTime": ["100815.368000", "100815.372000", "100815.374000", "100815.377000", "100815.380000", "100815.382000", "100815.385000", "100815.392000", "100815.394000", "100815.397000", "100815.399000", "100815.402000", "100815.405000", "100815.407000", "100815.410000", "100815.413000", "100815.415000", "100815.418000", "100815.421000", "100815.423000", "100815.426000", "100815.428000", "100815.431000", "100815.433000", "100855.362000", "100855.365000", "100855.368000", "100855.370000", "100855.373000", "100855.376000", "100855.378000", "100855.381000", "100855.383000", "100855.386000", "100855.388000", "100855.391000", "100855.393000", "100855.396000", "100855.398000", "100855.401000", "100855.404000", "100855.406000", "100855.413000", "100855.416000", "100935.362000", "100935.365000", "100935.368000", "100935.370000", "100935.373000", "100935.376000", "100935.378000", "100935.381000", "100935.383000", "100935.386000", "100935.388000", "100935.391000", "100935.394000", "100935.396000", "100935.399000", "100935.401000", "100935.404000", "100935.406000", "100935.420000", "100935.423000", "101015.363000", "101015.365000", "101015.368000", "101015.371000", "101015.373000", "101015.376000", "101015.378000", "101015.381000", "101015.383000", "101015.386000", "101015.388000", "101015.391000", "101015.393000", "101015.396000", "101015.398000", "101015.401000", "101015.404000", "101015.406000", "101015.409000", "101015.411000", "101055.362000", "101055.365000", "101055.368000", "101055.370000", "101055.373000", "101055.375000", "101055.378000", "101055.381000", "101055.383000", "101055.385000", "101055.395000", "101055.397000", "101055.400000", "101055.402000", "101055.405000", "101055.407000", "101055.410000", "101055.412000", "101055.415000", "101055.418000", "101135.362000", "101135.365000", "101135.368000", "101135.370000", "101135.373000", "101135.376000", "101135.378000", "101135.381000", "101135.383000", "101135.386000", "101135.388000", "101135.391000", "101135.394000", "101135.396000", "101135.398000", "101135.401000", "101135.404000", "101135.406000", "101135.409000", "101135.411000", "101215.362000", "101215.365000", "101215.368000", "101215.370000", "101215.373000", "101215.375000", "101215.378000", "101215.381000", "101215.383000", "101215.386000", "101215.388000", "101215.391000", "101215.393000", "101215.396000", "101215.398000", "101215.401000", "101215.404000", "101215.406000", "101215.408000", "101215.411000", "101255.363000", "101255.366000", "101255.369000", "101255.371000", "101255.374000", "101255.376000", "101255.379000", "101255.382000", "101255.384000", "101255.387000", "101255.389000", "101255.392000", "101255.394000", "101255.397000", "101255.399000", "101255.402000", "101255.405000", "101255.407000", "101255.410000", "101255.412000", "101335.362000", "101335.365000", "101335.368000", "101335.371000", "101335.373000", "101335.376000", "101335.378000", "101335.381000", "101335.383000", "101335.386000", "101335.388000", "101335.391000", "101335.394000", "101335.396000", "101335.399000", "101335.401000", "101335.404000", "101335.406000", "101335.409000", "101335.412000", "101407.048000", "101407.050000", "101407.053000", "101407.056000", "101407.058000", "101407.061000", "101407.063000", "101407.066000", "101407.068000", "101407.071000", "101407.074000", "101407.077000", "101407.083000", "101407.088000", "101407.094000", "101407.098000"],
      "InstanceNumber": [1, 2, 3, 4, 5, 6, 7, 8, 9, 10, 11, 12, 13, 14, 15, 16, 17, 18, 19, 20, 21, 22, 23, 24, 25, 26, 27, 28, 29, 30, 31, 32, 33, 34, 35, 36, 37, 38, 39, 40, 41, 42, 43, 44, 45, 46, 47, 48, 49, 50, 51, 52, 53, 54, 55, 56, 57, 58, 59, 60, 61, 62, 63, 64, 65, 66, 67, 68, 69, 70, 71, 72, 73, 74, 75, 76, 77, 78, 79, 80, 81, 82, 83, 84, 85, 86, 87, 88, 89, 90, 91, 92, 93, 94, 95, 96, 97, 98, 99, 100, 101, 102, 103, 104, 105, 106, 107, 108, 109, 110, 111, 112, 113, 114, 115, 116, 117, 118, 119, 120, 121, 122, 123, 124, 125, 126, 127, 128, 129, 130, 131, 132, 133, 134, 135, 136, 137, 138, 139, 140, 141, 142, 143, 144, 145, 146, 147, 148, 149, 150, 151, 152, 153, 154, 155, 156, 157, 158, 159, 160, 161, 162, 163, 164, 165, 166, 167, 168, 169, 170, 171, 172, 173, 174, 175, 176, 177, 178, 179, 180, 181, 182, 183, 184, 185, 186, 187, 188, 189, 190, 191, 192, 193, 194, 195, 196, 197, 198, 199, 200],
      "LargestImagePixelValue": [1937, 1938, 1940, 1943, 1944, 1944, 1944, 1940, 1946, 1941, 1943, 1943, 1945, 1942, 1945, 1939, 1943, 1936, 1941, 1945, 1942, 1946, 1946, 1943, 1940, 1945, 1949, 1945, 1943, 1941, 1938, 1940, 1946, 1945, 1942, 1945, 1942, 1946, 1944, 1944, 1940, 1943, 1940, 1936, 1936, 1943, 1947, 1943, 1943, 1940, 1942, 1946, 1939, 1943, 1937, 1936, 1934, 1937, 1941, 1941, 1940, 1941, 1940, 1951, 1944, 1943, 1942, 1945, 1947, 1938, 1948, 1944, 1941, 1939, 1943, 1943, 1943, 1940, 1943, 1942, 1945, 1947, 1945, 1948, 1942, 1939, 1943, 1941, 1944, 1944, 1943, 1942, 1939, 1943, 1944, 1943, 1943, 1946, 1950, 1945, 1944, 1940, 1947, 1944, 1945, 1943, 1942, 1941, 1944, 1949, 1938, 1938, 1947, 1944, 1944, 1943, 1941, 1945, 1938, 1944, 1945, 1944, 1945, 1944, 1945, 1945, 1940, 1950, 1944, 1946, 1943, 1944, 1946, 1944, 1944, 1944, 1949, 1945, 1940, 1940, 1942, 1940, 1942, 1942, 1940, 1938, 1937, 1938, 1939, 1949, 1939, 1938, 1944, 1944, 1942, 1943, 1943, 1944, 1941, 1939, 1943, 1941, 1938, 1941, 1936, 1940, 1939, 1932, 1937, 1934, 1930, 1931, 1935, 1938, 1941, 1937, 1941, 1943, 1943, 1945, 1940, 1932, 1934, 1932, 1934, 1930, 1930, 1931, 1929, 1923, 1931, 1927, 1921, 1926, 1931, 1926, 1936, 1945, 1943, 1940],
      "WindowCenter": [958.0, 957.0, 958.0, 957.0, 958.0, 957.0, 959.0, 958.0, 958.0, 959.0, 959.0, 958.0, 958.0, 958.0, 958.0, 957.0, 957.0, 958.0, 958.0, 958.0, 958.0, 959.0, 958.0, 958.0, 958.0, 958.0, 958.0, 957.0, 958.0, 959.0, 959.0, 958.0, 957.0, 958.0, 957.0, 958.0, 957.0, 958.0, 958.0, 957.0, 959.0, 958.0, 957.0, 958.0, 957.0, 958.0, 958.0, 958.0, 958.0, 957.0, 958.0, 958.0, 957.0, 958.0, 957.0, 958.0, 958.0, 958.0, 957.0, 959.0, 959.0, 958.0, 958.0, 958.0, 958.0, 958.0, 957.0, 958.0, 958.0, 958.0, 958.0, 958.0, 958.0, 958.0, 957.0, 957.0, 957.0, 958.0, 958.0, 958.0, 958.0, 957.0, 957.0, 958.0, 957.0, 957.0, 957.0, 957.0, 957.0, 958.0, 957.0, 957.0, 957.0, 958.0, 957.0, 958.0, 957.0, 957.0, 957.0, 957.0, 957.0, 957.0, 957.0, 957.0, 957.0, 957.0, 957.0, 958.0, 957.0, 957.0, 957.0, 958.0, 957.0, 957.0, 957.0, 957.0, 957.0, 957.0, 957.0, 957.0, 957.0, 957.0, 957.0, 957.0, 957.0, 957.0, 957.0, 957.0, 957.0, 957.0, 957.0, 958.0, 957.0, 958.0, 957.0, 957.0, 957.0, 957.0, 957.0, 957.0, 957.0, 957.0, 957.0, 958.0, 958.0, 957.0, 957.0, 957.0, 957.0, 957.0, 958.0, 957.0, 957.0, 957.0, 957.0, 957.0, 958.0, 956.0, 957.0, 957.0, 958.0, 957.0, 957.0, 958.0, 957.0, 956.0, 956.0, 956.0, 957.0, 956.0, 957.0, 957.0, 958.0, 956.0, 957.0, 957.0, 957.0, 958.0, 957.0, 956.0, 958.0, 956.0, 956.0, 957.0, 957.0, 956.0, 958.0, 958.0, 957.0, 956.0, 957.0, 956.0, 957.0, 958.0, 958.0, 957.0, 957.0, 957.0, 957.0, 957.0],
      "WindowWidth": [2078.0, 2078.0, 2078.0, 2078.0, 2078.0, 2078.0, 2078.0, 2078.0, 2078.0, 2078.0, 2078.0, 2078.0, 2078.0, 2077.0, 2078.0, 2077.0, 2077.0, 2078.0, 2078.0, 2078.0, 2078.0, 2078.0, 2078.0, 2077.0, 2077.0, 2077.0, 2077.0, 2077.0, 2077.0, 2078.0, 2078.0, 2077.0, 2076.0, 2077.0, 2076.0, 2077.0, 2076.0, 2077.0, 2077.0, 2076.0, 2077.0, 2077.0, 2076.0, 2077.0, 2076.0, 2077.0, 2077.0, 2077.0, 2077.0, 2076.0, 2077.0, 2077.0, 2076.0, 2077.0, 2076.0, 2077.0, 2077.0, 2077.0, 2076.0, 2078.0, 2077.0, 2077.0, 2077.0, 2077.0, 2077.0, 2077.0, 2076.0, 2077.0, 2076.0, 2076.0, 2077.0, 2077.0, 2076.0, 2076.0, 2075.0, 2075.0, 2075.0, 2076.0, 2076.0, 2076.0, 2076.0, 2075.0, 2075.0, 2076.0, 2075.0, 2076.0, 2076.0, 2076.0, 2075.0, 2076.0, 2075.0, 2076.0, 2076.0, 2076.0, 2076.0, 2076.0, 2076.0, 2076.0, 2076.0, 2076.0, 2076.0, 2075.0, 2076.0, 2076.0, 2075.0, 2076.0, 2075.0, 2076.0, 2075.0, 2075.0, 2074.0, 2076.0, 2076.0, 2075.0, 2076.0, 2076.0, 2076.0, 2076.0, 2076.0, 2075.0, 2076.0, 2076.0, 2076.0, 2075.0, 2076.0, 2075.0, 2075.0, 2075.0, 2075.0, 2075.0, 2075.0, 2076.0, 2075.0, 2076.0, 2075.0, 2075.0, 2075.0, 2076.0, 2075.0, 2075.0, 2075.0, 2075.0, 2075.0, 2076.0, 2075.0, 2075.0, 2075.0, 2075.0, 2075.0, 2075.0, 2076.0, 2076.0, 2075.0, 2075.0, 2075.0, 2075.0, 2076.0, 2074.0, 2075.0, 2075.0, 2075.0, 2075.0, 2075.0, 2076.0, 2075.0, 2074.0, 2074.0, 2075.0, 2075.0, 2075.0, 2075.0, 2075.0, 2075.0, 2074.0, 2075.0, 2075.0, 2075.0, 2075.0, 2075.0, 2075.0, 2075.0, 2074.0, 2074.0, 2075.0, 2075.0, 2075.0, 2076.0, 2075.0, 2075.0, 2074.0, 2075.0, 2074.0, 2075.0, 2075.0, 2075.0, 2075.0, 2075.0, 2075.0, 2075.0, 2075.0]
    },
    "slices": {}
  }
}