{
  "AcquisitionMatrixPE": 80,
  "AcquisitionNumber": 1,
  "AcquisitionTime": "09:52:45.450000",
  "BandwidthPerPixelPhaseEncode": 25,
  "BaseResolution": 80,
  "BodyPartExamined": "BRAIN",
  "CoilCombinationMethod": "Sum of Squares",
  "ConsistencyInfo": "N4_VE11E_LATEST_20181129",
  "ConversionSoftware": "dcm2niix",
  "ConversionSoftwareVersion": "v1.0.20220720",
  "DerivedVendorReportedEchoSpacing": 0.0005,
  "DeviceSerialNumber": "66112",
  "DwellTime": 2.7e-06,
  "EchoTime": 0.03,
  "EchoTrainLength": 80,
  "EffectiveEchoSpacing": 0.0005,
  "FlipAngle": 10,
  "HeudiconvVersion": "0.13.1",
  "ImageOrientationPatientDICOM": [0.999985, -0.00349282, 0.00428962, 0.0020943, 0.956772, 0.290832],
  "ImageOrientationText": "Tra>Cor(16.9)>Sag(0.3)",
  "ImageType": [
    "ORIGINAL",
    "PRIMARY",
    "M",
    "ND",
    "NORM",
    "MOSAIC"
],
  "ImagingFrequency": 123.259,
  "InPlanePhaseEncodingDirectionDICOM": "COL",
  "InstitutionAddress": "Maynard 3,Hanover,NH,US,03755",
  "InstitutionName": "Dartmouth College - PBS",
  "InstitutionalDepartmentName": "Department",
  "MRAcquisitionType": "2D",
  "MagneticFieldStrength": 3,
  "Manufacturer": "Siemens",
  "ManufacturersModelName": "Prisma",
  "MatrixCoilMode": "SENSE",
  "Modality": "MR",
  "NonlinearGradientCorrection": false,
  "PartialFourier": 1,
  "PatientPosition": "HFS",
  "PercentPhaseFOV": 100,
  "PercentSampling": 100,
  "PhaseEncodingDirection": "j-",
  "PhaseEncodingSteps": 80,
  "PhaseResolution": 1,
  "PixelBandwidth": 2315,
  "ProcedureStepDescription": "dbic^QA",
  "ProtocolName": "func-bold_fa-10",
  "PulseSequenceDetails": "%SiemensSeq%\\ep2d_bold",
  "ReceiveCoilActiveElements": "HEA;HEP",
  "ReceiveCoilName": "Head_32",
  "ReconMatrixPE": 80,
  "RepetitionTime": 2,
  "SAR": 0.00993492,
  "ScanOptions": "FS",
  "ScanningSequence": "EP",
  "SequenceName": "*epfid2d1_80",
  "SequenceVariant": "SK",
  "SeriesDescription": "func-bold_fa-10",
  "SeriesNumber": 8,
  "ShimSetting": [4220, -7742, -7501, -22, -146, -109, -2, 60],
  "SliceThickness": 3.5,
  "SliceTiming": [0.9875, 0, 1.055, 0.065, 1.12, 0.13, 1.1875, 0.1975, 1.2525, 0.2625, 1.3175, 0.33, 1.385, 0.395, 1.45, 0.46, 1.5175, 0.5275, 1.5825, 0.5925, 1.6475, 0.6575, 1.715, 0.725, 1.78, 0.79, 1.8475, 0.8575, 1.9125, 0.9225],
  "SoftwareVersions": "syngo MR E11",
  "SpacingBetweenSlices": 3.99,
  "StationName": "AWP66112",
  "TotalReadoutTime": 0.0395,
  "TxRefAmp": 221.279,
  "dcmmeta_affine": [
    [-2.9999539852142334, 0.00628291442990303, 0.020428849384188652, 119.46942138671875],
    [0.010478466749191284, 2.8703150749206543, 1.1603679656982422, -126.39813232421875],
    [0.012868857942521572, -0.8724974393844604, 3.8174898624420166, -25.836965560913086],
    [0.0, 0.0, 0.0, 1.0]
],
  "dcmmeta_reorient_transform": [
    [0.0, -1.0, 0.0, 79.0],
    [1.0, 0.0, 0.0, 0.0],
    [0.0, 0.0, 1.0, 0.0],
    [0.0, 0.0, 0.0, 1.0]
],
  "dcmmeta_shape": [80, 80, 30, 200],
  "dcmmeta_slice_dim": 2,
  "dcmmeta_version": 0.6,
  "global": {
    "const": {
      "AccessionNumber": "qa",
      "AcquisitionMatrix": [80, 0, 0, 80],
      "AngioFlag": "N",
      "BitsAllocated": 16,
      "BitsStored": 12,
      "BodyPartExamined": "BRAIN",
      "Columns": 480,
      "EchoNumbers": 1,
      "EchoTime": 30.0,
      "EchoTrainLength": 80,
      "FlipAngle": 10.0,
      "HighBit": 11,
      "ImageOrientationPatient": [0.99998469956312, -0.0034928221998, 0.00428961918273, 0.00209430483552, 0.95677169531678, 0.29083248946413],
      "ImagePositionPatient": [-721.2131715548, -672.32408362716, -271.83753141544],
      "ImageType": [
        "ORIGINAL",
        "PRIMARY",
        "M",
        "ND",
        "NORM",
        "MOSAIC"
],
      "ImagedNucleus": "1H",
      "ImagingFrequency": 123.259136,
      "InPlanePhaseEncodingDirection": "COL",
      "MRAcquisitionType": "2D",
      "MagneticFieldStrength": 3.0,
      "Manufacturer": "SIEMENS",
      "ManufacturerModelName": "Prisma",
      "Modality": "MR",
      "NumberOfAverages": 1.0,
      "NumberOfPhaseEncodingSteps": 80,
      "PercentPhaseFieldOfView": 100.0,
      "PercentSampling": 100.0,
      "PerformedProcedureStepStartTime": "092355.683000",
      "PhotometricInterpretation": "MONOCHROME2",
      "PixelBandwidth": 2315.0,
      "PixelRepresentation": 0,
      "PixelSpacing": [3.0, 3.0],
      "ProtocolName": "func-bold_fa-10",
      "RepetitionTime": 2000.0,
      "Rows": 480,
      "SAR": 0.00993492066968,
      "SamplesPerPixel": 1,
      "ScanOptions": "FS",
      "ScanningSequence": "EP",
      "SequenceName": "*epfid2d1_80",
      "SequenceVariant": "SK",
      "SeriesDescription": "func-bold_fa-10",
      "SeriesNumber": 8,
      "SeriesTime": "095331.482000",
      "SliceLocation": -60.8671892589,
      "SliceThickness": 3.5,
      "SmallestImagePixelValue": 0,
      "SoftwareVersions": "syngo MR E11",
      "SpacingBetweenSlices": 3.9899999174494,
      "SpecificCharacterSet": "ISO_IR 100",
      "StudyID": "6",
      "StudyTime": "092355.576000",
      "TransmitCoilName": "Body",
      "VariableFlipAngleFlag": "N",
      "WindowCenterWidthExplanation": "Algo1"
    },
    "slices": {}
  },
  "time": {
    "samples": {
      "AcquisitionNumber": [1, 2, 3, 4, 5, 6, 7, 8, 9, 10, 11, 12, 13, 14, 15, 16, 17, 18, 19, 20, 21, 22, 23, 24, 25, 26, 27, 28, 29, 30, 31, 32, 33, 34, 35, 36, 37, 38, 39, 40, 41, 42, 43, 44, 45, 46, 47, 48, 49, 50, 51, 52, 53, 54, 55, 56, 57, 58, 59, 60, 61, 62, 63, 64, 65, 66, 67, 68, 69, 70, 71, 72, 73, 74, 75, 76, 77, 78, 79, 80, 81, 82, 83, 84, 85, 86, 87, 88, 89, 90, 91, 92, 93, 94, 95, 96, 97, 98, 99, 100, 101, 102, 103, 104, 105, 106, 107, 108, 109, 110, 111, 112, 113, 114, 115, 116, 117, 118, 119, 120, 121, 122, 123, 124, 125, 126, 127, 128, 129, 130, 131, 132, 133, 134, 135, 136, 137, 138, 139, 140, 141, 142, 143, 144, 145, 146, 147, 148, 149, 150, 151, 152, 153, 154, 155, 156, 157, 158, 159, 160, 161, 162, 163, 164, 165, 166, 167, 168, 169, 170, 171, 172, 173, 174, 175, 176, 177, 178, 179, 180, 181, 182, 183, 184, 185, 186, 187, 188, 189, 190, 191, 192, 193, 194, 195, 196, 197, 198, 199, 200],
      "AcquisitionTime": ["095245.450000", "095247.450000", "095249.450000", "095251.450000", "095253.450000", "095255.450000", "095257.450000", "095259.450000", "095301.450000", "095303.450000", "095305.450000", "095307.450000", "095309.450000", "095311.450000", "095313.450000", "095315.450000", "095317.450000", "095319.450000", "095321.450000", "095323.450000", "095325.450000", "095327.450000", "095329.450000", "095331.450000", "095333.450000", "095335.450000", "095337.450000", "095339.450000", "095341.450000", "095343.450000", "095345.450000", "095347.450000", "095349.450000", "095351.450000", "095353.450000", "095355.450000", "095357.450000", "095359.450000", "095401.450000", "095403.450000", "095405.450000", "095407.450000", "095409.450000", "095411.450000", "095413.450000", "095415.450000", "095417.450000", "095419.450000", "095421.450000", "095423.450000", "095425.450000", "095427.450000", "095429.450000", "095431.450000", "095433.450000", "095435.450000", "095437.450000", "095439.450000", "095441.450000", "095443.450000", "095445.450000", "095447.450000", "095449.450000", "095451.450000", "095453.450000", "095455.450000", "095457.450000", "095459.450000", "095501.450000", "095503.450000", "095505.450000", "095507.450000", "095509.450000", "095511.450000", "095513.450000", "095515.450000", "095517.450000", "095519.450000", "095521.450000", "095523.450000", "095525.450000", "095527.450000", "095529.450000", "095531.450000", "095533.450000", "095535.450000", "095537.450000", "095539.450000", "095541.450000", "095543.450000", "095545.450000", "095547.450000", "095549.450000", "095551.450000", "095553.450000", "095555.450000", "095557.450000", "095559.450000", "095601.450000", "095603.450000", "095605.450000", "095607.450000", "095609.450000", "095611.450000", "095613.450000", "095615.450000", "095617.450000", "095619.450000", "095621.450000", "095623.450000", "095625.450000", "095627.450000", "095629.450000", "095631.450000", "095633.450000", "095635.450000", "095637.450000", "095639.450000", "095641.450000", "095643.450000", "095645.450000", "095647.450000", "095649.450000", "095651.450000", "095653.450000", "095655.450000", "095657.450000", "095659.450000", "095701.450000", "095703.450000", "095705.450000", "095707.450000", "095709.450000", "095711.450000", "095713.450000", "095715.450000", "095717.450000", "095719.450000", "095721.450000", "095723.450000", "095725.450000", "095727.450000", "095729.450000", "095731.450000", "095733.450000", "095735.450000", "095737.450000", "095739.450000", "095741.450000", "095743.450000", "095745.450000", "095747.450000", "095749.450000", "095751.450000", "095753.450000", "095755.450000", "095757.450000", "095759.450000", "095801.450000", "095803.450000", "095805.450000", "095807.450000", "095809.450000", "095811.450000", "095813.450000", "095815.450000", "095817.450000", "095819.450000", "095821.450000", "095823.450000", "095825.450000", "095827.450000", "095829.450000", "095831.450000", "095833.450000", "095835.450000", "095837.450000", "095839.450000", "095841.450000", "095843.450000", "095845.450000", "095847.450000", "095849.450000", "095851.450000", "095853.450000", "095855.450000", "095857.450000", "095859.450000", "095901.450000", "095903.450000", "095905.450000", "095907.450000", "095909.450000", "095911.450000", "095913.450000", "095915.450000", "095917.450000", "095919.450000", "095921.450000", "095923.450000"],
      "ContentTime": ["095331.485000", "095331.488000", "095331.490000", "095331.493000", "095331.495000", "095331.505000", "095331.507000", "095331.510000", "095331.512000", "095331.515000", "095331.517000", "095331.519000", "095331.522000", "095331.524000", "095331.526000", "095331.534000", "095331.536000", "095331.538000", "095331.540000", "095331.543000", "095331.545000", "095331.547000", "095331.550000", "095411.480000", "095411.483000", "095411.485000", "095411.488000", "095411.490000", "095411.492000", "095411.494000", "095411.497000", "095411.499000", "095411.501000", "095411.504000", "095411.506000", "095411.508000", "095411.510000", "095411.513000", "095411.515000", "095411.518000", "095411.520000", "095411.522000", "095411.525000", "095451.480000", "095451.483000", "095451.485000", "095451.487000", "095451.490000", "095451.492000", "095451.494000", "095451.496000", "095451.499000", "095451.501000", "095451.503000", "095451.506000", "095451.508000", "095451.516000", "095451.518000", "095451.520000", "095451.522000", "095451.525000", "095451.527000", "095451.529000", "095531.480000", "095531.483000", "095531.485000", "095531.487000", "095531.490000", "095531.492000", "095531.494000", "095531.497000", "095531.499000", "095531.501000", "095531.503000", "095531.513000", "095531.516000", "095531.518000", "095531.520000", "095531.523000", "095531.525000", "095531.527000", "095531.529000", "095531.532000", "095611.480000", "095611.483000", "095611.485000", "095611.487000", "095611.489000", "095611.492000", "095611.494000", "095611.496000", "095611.499000", "095611.501000", "095611.503000", "095611.506000", "095611.508000", "095611.511000", "095611.513000", "095611.516000", "095611.518000", "095611.520000", "095611.523000", "095611.525000", "095651.480000", "095651.483000", "095651.485000", "095651.487000", "095651.490000", "095651.492000", "095651.494000", "095651.500000", "095651.502000", "095651.504000", "095651.507000", "095651.509000", "095651.512000", "095651.515000", "095651.517000", "095651.519000", "095651.522000", "095651.524000", "095651.526000", "095651.528000", "095731.480000", "095731.483000", "095731.485000", "095731.487000", "095731.489000", "095731.497000", "095731.500000", "095731.502000", "095731.504000", "095731.506000", "095731.509000", "095731.511000", "095731.514000", "095731.516000", "095731.518000", "095731.520000", "095731.523000", "095731.525000", "095731.527000", "095731.530000", "095811.480000", "095811.483000", "095811.485000", "095811.487000", "095811.490000", "095811.492000", "095811.494000", "095811.496000", "095811.499000", "095811.501000", "095811.503000", "095811.506000", "095811.508000", "095811.511000", "095811.513000", "095811.515000", "095811.518000", "095811.520000", "095811.522000", "095811.525000", "095851.480000", "095851.483000", "095851.485000", "095851.487000", "095851.495000", "095851.498000", "095851.500000", "095851.502000", "095851.505000", "095851.507000", "095851.509000", "095851.511000", "095851.514000", "095851.516000", "095851.519000", "095851.521000", "095851.523000", "095851.526000", "095851.528000", "095851.530000", "095924.659000", "095924.662000", "095924.665000", "095924.667000", "095924.670000", "095924.672000", "095924.674000", "095924.676000", "095924.679000", "095924.681000", "095924.683000", "095924.686000", "095924.688000", "095924.690000", "095924.693000", "095924.695000", "095924.697000"],
      "InstanceCreationTime": ["095331.485000", "095331.488000", "095331.490000", "095331.493000", "095331.495000", "095331.505000", "095331.507000", "095331.510000", "095331.512000", "095331.515000", "095331.517000", "095331.519000", "095331.522000", "095331.524000", "095331.526000", "095331.534000", "095331.536000", "095331.538000", "095331.540000", "095331.543000", "095331.545000", "095331.547000", "095331.550000", "095411.480000", "095411.483000", "095411.485000", "095411.488000", "095411.490000", "095411.492000", "095411.494000", "095411.497000", "095411.499000", "095411.501000", "095411.504000", "095411.506000", "095411.508000", "095411.510000", "095411.513000", "095411.515000", "095411.518000", "095411.520000", "095411.522000", "095411.525000", "095451.480000", "095451.483000", "095451.485000", "095451.487000", "095451.490000", "095451.492000", "095451.494000", "095451.496000", "095451.499000", "095451.501000", "095451.503000", "095451.506000", "095451.508000", "095451.516000", "095451.518000", "095451.520000", "095451.522000", "095451.525000", "095451.527000", "095451.529000", "095531.480000", "095531.483000", "095531.485000", "095531.487000", "095531.490000", "095531.492000", "095531.494000", "095531.497000", "095531.499000", "095531.501000", "095531.503000", "095531.513000", "095531.516000", "095531.518000", "095531.520000", "095531.523000", "095531.525000", "095531.527000", "095531.529000", "095531.532000", "095611.480000", "095611.483000", "095611.485000", "095611.487000", "095611.489000", "095611.492000", "095611.494000", "095611.496000", "095611.499000", "095611.501000", "095611.503000", "095611.506000", "095611.508000", "095611.511000", "095611.513000", "095611.516000", "095611.518000", "095611.520000", "095611.523000", "095611.525000", "095651.480000", "095651.483000", "095651.485000", "095651.487000", "095651.490000", "095651.492000", "095651.494000", "095651.500000", "095651.502000", "095651.504000", "095651.507000", "095651.509000", "095651.512000", "095651.515000", "095651.517000", "095651.519000", "095651.522000", "095651.524000", "095651.526000", "095651.528000", "095731.480000", "095731.483000", "095731.485000", "095731.487000", "095731.489000", "095731.497000", "095731.500000", "095731.502000", "095731.504000", "095731.506000", "095731.509000", "095731.511000", "095731.514000", "095731.516000", "095731.518000", "095731.520000", "095731.523000", "095731.525000", "095731.527000", "095731.530000", "095811.480000", "095811.483000", "095811.485000", "095811.487000", "095811.490000", "095811.492000", "095811.494000", "095811.496000", "095811.499000", "095811.501000", "095811.503000", "095811.506000", "095811.508000", "095811.511000", "095811.513000", "095811.515000", "095811.518000", "095811.520000", "095811.522000", "095811.525000", "095851.480000", "095851.483000", "095851.485000", "095851.487000", "095851.495000", "095851.498000", "095851.500000", "095851.502000", "095851.505000", "095851.507000", "095851.509000", "095851.511000", "095851.514000", "095851.516000", "095851.519000", "095851.521000", "095851.523000", "095851.526000", "095851.528000", "095851.530000", "095924.659000", "095924.662000", "095924.665000", "095924.667000", "095924.670000", "095924.672000", "095924.674000", "095924.676000", "095924.679000", "095924.681000", "095924.683000", "095924.686000", "095924.688000", "095924.690000", "095924.693000", "095924.695000", "095924.697000"],
      "InstanceNumber": [1, 2, 3, 4, 5, 6, 7, 8, 9, 10, 11, 12, 13, 14, 15, 16, 17, 18, 19, 20, 21, 22, 23, 24, 25, 26, 27, 28, 29, 30, 31, 32, 33, 34, 35, 36, 37, 38, 39, 40, 41, 42, 43, 44, 45, 46, 47, 48, 49, 50, 51, 52, 53, 54, 55, 56, 57, 58, 59, 60, 61, 62, 63, 64, 65, 66, 67, 68, 69, 70, 71, 72, 73, 74, 75, 76, 77, 78, 79, 80, 81, 82, 83, 84, 85, 86, 87, 88, 89, 90, 91, 92, 93, 94, 95, 96, 97, 98, 99, 100, 101, 102, 103, 104, 105, 106, 107, 108, 109, 110, 111, 112, 113, 114, 115, 116, 117, 118, 119, 120, 121, 122, 123, 124, 125, 126, 127, 128, 129, 130, 131, 132, 133, 134, 135, 136, 137, 138, 139, 140, 141, 142, 143, 144, 145, 146, 147, 148, 149, 150, 151, 152, 153, 154, 155, 156, 157, 158, 159, 160, 161, 162, 163, 164, 165, 166, 167, 168, 169, 170, 171, 172, 173, 174, 175, 176, 177, 178, 179, 180, 181, 182, 183, 184, 185, 186, 187, 188, 189, 190, 191, 192, 193, 194, 195, 196, 197, 198, 199, 200],
      "LargestImagePixelValue": [385, 383, 385, 386, 384, 386, 385, 386, 385, 384, 385, 386, 385, 385, 385, 383, 385, 384, 385, 384, 382, 385, 382, 383, 383, 386, 385, 384, 384, 384, 383, 384, 385, 384, 385, 386, 385, 383, 385, 383, 383, 385, 385, 383, 384, 383, 384, 384, 386, 385, 382, 385, 384, 384, 384, 384, 385, 384, 384, 385, 385, 385, 385, 385, 384, 385, 384, 383, 384, 384, 383, 383, 385, 383, 381, 383, 383, 385, 383, 384, 384, 384, 386, 383, 385, 386, 386, 383, 386, 382, 384, 384, 383, 384, 384, 383, 383, 383, 383, 384, 383, 385, 384, 384, 384, 383, 384, 383, 383, 385, 385, 385, 384, 384, 384, 385, 383, 383, 383, 384, 384, 385, 383, 382, 384, 383, 382, 382, 383, 383, 383, 384, 383, 385, 384, 384, 384, 384, 384, 383, 383, 384, 386, 381, 384, 382, 382, 382, 383, 382, 384, 383, 385, 384, 383, 384, 384, 384, 382, 383, 384, 384, 384, 384, 384, 385, 384, 384, 384, 383, 383, 384, 384, 385, 383, 383, 383, 384, 382, 381, 382, 384, 382, 385, 383, 382, 383, 382, 385, 385, 384, 385, 385, 383, 385, 383, 383, 382, 384, 384],
      "WindowCenter": [303.0, 303.0, 303.0, 303.0, 303.0, 303.0, 303.0, 303.0, 303.0, 303.0, 303.0, 303.0, 303.0, 303.0, 303.0, 303.0, 303.0, 302.0, 303.0, 303.0, 303.0, 302.0, 302.0, 302.0, 303.0, 303.0, 303.0, 303.0, 303.0, 303.0, 303.0, 303.0, 303.0, 303.0, 303.0, 303.0, 303.0, 303.0, 303.0, 303.0, 303.0, 303.0, 303.0, 303.0, 302.0, 302.0, 302.0, 303.0, 302.0, 302.0, 302.0, 302.0, 302.0, 302.0, 302.0, 303.0, 303.0, 303.0, 303.0, 302.0, 303.0, 303.0, 303.0, 303.0, 302.0, 303.0, 303.0, 302.0, 302.0, 302.0, 302.0, 302.0, 302.0, 302.0, 302.0, 302.0, 302.0, 302.0, 303.0, 302.0, 302.0, 302.0, 302.0, 302.0, 302.0, 303.0, 302.0, 302.0, 303.0, 302.0, 303.0, 302.0, 302.0, 302.0, 302.0, 302.0, 302.0, 302.0, 302.0, 302.0, 302.0, 302.0, 302.0, 302.0, 302.0, 302.0, 302.0, 302.0, 302.0, 302.0, 302.0, 302.0, 302.0, 302.0, 302.0, 302.0, 302.0, 302.0, 302.0, 302.0, 302.0, 302.0, 302.0, 302.0, 302.0, 302.0, 302.0, 302.0, 302.0, 302.0, 302.0, 302.0, 302.0, 302.0, 302.0, 302.0, 302.0, 302.0, 302.0, 302.0, 302.0, 302.0, 302.0, 302.0, 302.0, 302.0, 302.0, 302.0, 302.0, 302.0, 302.0, 302.0, 302.0, 302.0, 302.0, 302.0, 302.0, 302.0, 302.0, 302.0, 302.0, 302.0, 302.0, 302.0, 302.0, 302.0, 302.0, 302.0, 302.0, 302.0, 302.0, 302.0, 302.0, 302.0, 302.0, 302.0, 302.0, 302.0, 302.0, 302.0, 302.0, 302.0, 302.0, 302.0, 302.0, 302.0, 302.0, 302.0, 302.0, 302.0, 302.0, 302.0, 302.0, 302.0, 302.0, 302.0, 302.0, 302.0, 302.0, 302.0],
      "WindowWidth": [656.0, 655.0, 656.0, 656.0, 656.0, 656.0, 656.0, 656.0, 656.0, 656.0, 656.0, 656.0, 656.0, 656.0, 655.0, 655.0, 656.0, 654.0, 655.0, 656.0, 655.0, 655.0, 655.0, 655.0, 656.0, 655.0, 656.0, 656.0, 656.0, 656.0, 656.0, 656.0, 656.0, 656.0, 656.0, 656.0, 655.0, 656.0, 656.0, 656.0, 655.0, 655.0, 655.0, 656.0, 655.0, 655.0, 655.0, 655.0, 654.0, 655.0, 655.0, 654.0, 655.0, 655.0, 655.0, 655.0, 656.0, 655.0, 655.0, 655.0, 656.0, 656.0, 656.0, 655.0, 655.0, 656.0, 655.0, 655.0, 654.0, 654.0, 654.0, 654.0, 654.0, 654.0, 654.0, 655.0, 654.0, 655.0, 655.0, 654.0, 654.0, 654.0, 655.0, 655.0, 654.0, 655.0, 654.0, 654.0, 655.0, 655.0, 656.0, 655.0, 654.0, 654.0, 654.0, 654.0, 654.0, 654.0, 654.0, 654.0, 654.0, 654.0, 654.0, 654.0, 654.0, 654.0, 654.0, 654.0, 655.0, 654.0, 655.0, 655.0, 655.0, 654.0, 654.0, 654.0, 655.0, 654.0, 655.0, 654.0, 654.0, 654.0, 654.0, 654.0, 654.0, 654.0, 654.0, 654.0, 654.0, 654.0, 654.0, 654.0, 654.0, 654.0, 654.0, 655.0, 654.0, 654.0, 654.0, 654.0, 654.0, 654.0, 654.0, 654.0, 654.0, 654.0, 654.0, 654.0, 654.0, 654.0, 654.0, 654.0, 654.0, 654.0, 654.0, 654.0, 654.0, 654.0, 654.0, 654.0, 654.0, 654.0, 654.0, 654.0, 654.0, 654.0, 654.0, 654.0, 654.0, 654.0, 654.0, 654.0, 654.0, 654.0, 654.0, 654.0, 654.0, 654.0, 654.0, 654.0, 654.0, 654.0, 654.0, 654.0, 654.0, 654.0, 654.0, 654.0, 654.0, 654.0, 654.0, 654.0, 654.0, 654.0, 654.0, 654.0, 654.0, 654.0, 654.0, 654.0]
    },
    "slices": {}
  }
}