{
  "AcquisitionMatrixPE": 80,
  "AcquisitionNumber": 1,
  "AcquisitionTime": "09:39:9.077500",
  "BandwidthPerPixelPhaseEncode": 46.296,
  "BaseResolution": 80,
  "BodyPartExamined": "BRAIN",
  "CoilCombinationMethod": "Sum of Squares",
  "ConsistencyInfo": "N4_VE11E_LATEST_20181129",
  "ConversionSoftware": "dcm2niix",
  "ConversionSoftwareVersion": "v1.0.20220720",
  "DerivedVendorReportedEchoSpacing": 0.000540003,
  "DeviceSerialNumber": "66112",
  "DwellTime": 2.7e-06,
  "EchoTime": 0.035,
  "EchoTrainLength": 39,
  "EffectiveEchoSpacing": 0.000270002,
  "FlipAngle": 90,
  "HeudiconvVersion": "0.13.1",
  "ImageOrientationPatientDICOM": [0.999985, -0.00349282, 0.00428962, 0.0020943, 0.956772, 0.290832],
  "ImageOrientationText": "Tra>Cor(16.9)>Sag(0.3)",
  "ImageType": [
    "ORIGINAL",
    "PRIMARY",
    "M",
    "ND",
    "NORM",
    "MOSAIC"
],
  "ImagingFrequency": 123.259,
  "InPlanePhaseEncodingDirectionDICOM": "COL",
  "InstitutionAddress": "Maynard 3,Hanover,NH,US,03755",
  "InstitutionName": "Dartmouth College - PBS",
  "InstitutionalDepartmentName": "Department",
  "MRAcquisitionType": "2D",
  "MagneticFieldStrength": 3,
  "Manufacturer": "Siemens",
  "ManufacturersModelName": "Prisma",
  "Modality": "MR",
  "MultibandAccelerationFactor": 4,
  "NonlinearGradientCorrection": false,
  "ParallelReductionFactorInPlane": 2,
  "PartialFourier": 1,
  "PatientPosition": "HFS",
  "PercentPhaseFOV": 100,
  "PercentSampling": 100,
  "PhaseEncodingDirection": "j-",
  "PhaseEncodingSteps": 79,
  "PhaseResolution": 1,
  "PixelBandwidth": 2315,
  "ProcedureStepDescription": "dbic^QA",
  "ProtocolName": "func-bold_task-rest_acq-p2-s4-3.5mm",
  "PulseSequenceDetails": "%SiemensSeq%\\ep2d_bold",
  "ReceiveCoilActiveElements": "HEA;HEP",
  "ReceiveCoilName": "Head_32",
  "ReconMatrixPE": 80,
  "RefLinesPE": 24,
  "RepetitionTime": 2,
  "SAR": 0.0177229,
  "ScanOptions": "FS",
  "ScanningSequence": "EP",
  "SequenceName": "*epfid2d1_80",
  "SequenceVariant": "SK",
  "SeriesDescription": "func-bold_task-rest_acq-p2-s4-3.5mm",
  "SeriesNumber": 6,
  "ShimSetting": [4220, -7743, -7501, -22, -145, -112, 0, 59],
  "SliceThickness": 3.5,
  "SliceTiming": [1.485, 0, 0.99, 0.2475, 1.2375, 0.7425, 1.7325, 0.495, 1.485, 0, 0.99, 0.2475, 1.2375, 0.7425, 1.7325, 0.495, 1.485, 0, 0.99, 0.2475, 1.2375, 0.7425, 1.7325, 0.495, 1.485, 0, 0.99, 0.2475, 1.2375, 0.7425, 1.7325, 0.495],
  "SoftwareVersions": "syngo MR E11",
  "SpacingBetweenSlices": 3.99,
  "StationName": "AWP66112",
  "TaskName": "rest",
  "TotalReadoutTime": 0.0213301,
  "TxRefAmp": 221.279,
  "dcmmeta_affine": [
    [-2.9999539852142334, 0.00628291442990303, 0.020428849384188652, 119.4330062866211],
    [0.010478466749191284, 2.8703150749206543, 1.1603680849075317, -132.21630859375],
    [0.012868857942521572, -0.8724974393844604, 3.8174898624420166, -29.582517623901367],
    [0.0, 0.0, 0.0, 1.0]
],
  "dcmmeta_reorient_transform": [
    [0.0, -1.0, 0.0, 79.0],
    [1.0, 0.0, 0.0, 0.0],
    [0.0, 0.0, 1.0, 0.0],
    [0.0, 0.0, 0.0, 1.0]
],
  "dcmmeta_shape": [80, 80, 32, 200],
  "dcmmeta_slice_dim": 2,
  "dcmmeta_version": 0.6,
  "global": {
    "const": {
      "AccessionNumber": "qa",
      "AcquisitionMatrix": [80, 0, 0, 80],
      "AngioFlag": "N",
      "BitsAllocated": 16,
      "BitsStored": 12,
      "BodyPartExamined": "BRAIN",
      "Columns": 480,
      "EchoNumbers": 1,
      "EchoTime": 35.0,
      "EchoTrainLength": 39,
      "FlipAngle": 90.0,
      "HighBit": 11,
      "ImageOrientationPatient": [0.99998469956312, -0.0034928221998, 0.00428961918273, 0.00209430483552, 0.95677169531678, 0.29083248946413],
      "ImagePositionPatient": [-721.17675827264, -666.50591307968, -275.58308347842],
      "ImageType": [
        "ORIGINAL",
        "PRIMARY",
        "M",
        "ND",
        "NORM",
        "MOSAIC"
],
      "ImagedNucleus": "1H",
      "ImagingFrequency": 123.259137,
      "InPlanePhaseEncodingDirection": "COL",
      "MRAcquisitionType": "2D",
      "MagneticFieldStrength": 3.0,
      "Manufacturer": "SIEMENS",
      "ManufacturerModelName": "Prisma",
      "Modality": "MR",
      "NumberOfAverages": 1.0,
      "NumberOfPhaseEncodingSteps": 79,
      "PercentPhaseFieldOfView": 100.0,
      "PercentSampling": 100.0,
      "PerformedProcedureStepStartTime": "092355.683000",
      "PhotometricInterpretation": "MONOCHROME2",
      "PixelBandwidth": 2315.0,
      "PixelRepresentation": 0,
      "PixelSpacing": [3.0, 3.0],
      "ProtocolName": "func-bold_task-rest_acq-p2-s4-3.5mm",
      "RepetitionTime": 2000.0,
      "Rows": 480,
      "SAR": 0.01772294862793,
      "SamplesPerPixel": 1,
      "ScanOptions": "FS",
      "ScanningSequence": "EP",
      "SequenceName": "*epfid2d1_80",
      "SequenceVariant": "SK",
      "SeriesDescription": "func-bold_task-rest_acq-p2-s4-3.5mm",
      "SeriesNumber": 6,
      "SeriesTime": "093951.569000",
      "SliceLocation": -66.143021325447,
      "SliceThickness": 3.5,
      "SmallestImagePixelValue": 0,
      "SoftwareVersions": "syngo MR E11",
      "SpacingBetweenSlices": 3.9900000437254,
      "SpecificCharacterSet": "ISO_IR 100",
      "StudyID": "6",
      "StudyTime": "092355.576000",
      "TransmitCoilName": "Body",
      "VariableFlipAngleFlag": "N",
      "WindowCenterWidthExplanation": "Algo1"
    },
    "slices": {}
  },
  "time": {
    "samples": {
      "AcquisitionNumber": [1, 2, 3, 4, 5, 6, 7, 8, 9, 10, 11, 12, 13, 14, 15, 16, 17, 18, 19, 20, 21, 22, 23, 24, 25, 26, 27, 28, 29, 30, 31, 32, 33, 34, 35, 36, 37, 38, 39, 40, 41, 42, 43, 44, 45, 46, 47, 48, 49, 50, 51, 52, 53, 54, 55, 56, 57, 58, 59, 60, 61, 62, 63, 64, 65, 66, 67, 68, 69, 70, 71, 72, 73, 74, 75, 76, 77, 78, 79, 80, 81, 82, 83, 84, 85, 86, 87, 88, 89, 90, 91, 92, 93, 94, 95, 96, 97, 98, 99, 100, 101, 102, 103, 104, 105, 106, 107, 108, 109, 110, 111, 112, 113, 114, 115, 116, 117, 118, 119, 120, 121, 122, 123, 124, 125, 126, 127, 128, 129, 130, 131, 132, 133, 134, 135, 136, 137, 138, 139, 140, 141, 142, 143, 144, 145, 146, 147, 148, 149, 150, 151, 152, 153, 154, 155, 156, 157, 158, 159, 160, 161, 162, 163, 164, 165, 166, 167, 168, 169, 170, 171, 172, 173, 174, 175, 176, 177, 178, 179, 180, 181, 182, 183, 184, 185, 186, 187, 188, 189, 190, 191, 192, 193, 194, 195, 196, 197, 198, 199, 200],
      "AcquisitionTime": ["093909.077500", "093911.077500", "093913.077500", "093915.077500", "093917.077500", "093919.077500", "093921.077500", "093923.077500", "093925.077500", "093927.077500", "093929.077500", "093931.077500", "093933.077500", "093935.077500", "093937.077500", "093939.077500", "093941.077500", "093943.077500", "093945.077500", "093947.077500", "093949.077500", "093951.077500", "093953.077500", "093955.077500", "093957.077500", "093959.077500", "094001.077500", "094003.077500", "094005.077500", "094007.077500", "094009.077500", "094011.077500", "094013.077500", "094015.077500", "094017.077500", "094019.077500", "094021.077500", "094023.077500", "094025.077500", "094027.077500", "094029.077500", "094031.077500", "094033.077500", "094035.077500", "094037.077500", "094039.077500", "094041.077500", "094043.077500", "094045.077500", "094047.077500", "094049.077500", "094051.077500", "094053.077500", "094055.077500", "094057.077500", "094059.077500", "094101.077500", "094103.077500", "094105.077500", "094107.077500", "094109.077500", "094111.077500", "094113.077500", "094115.077500", "094117.077500", "094119.077500", "094121.077500", "094123.077500", "094125.077500", "094127.077500", "094129.077500", "094131.077500", "094133.077500", "094135.077500", "094137.077500", "094139.077500", "094141.077500", "094143.077500", "094145.077500", "094147.077500", "094149.077500", "094151.077500", "094153.077500", "094155.077500", "094157.077500", "094159.077500", "094201.077500", "094203.077500", "094205.077500", "094207.077500", "094209.077500", "094211.077500", "094213.077500", "094215.077500", "094217.077500", "094219.077500", "094221.077500", "094223.077500", "094225.077500", "094227.077500", "094229.077500", "094231.077500", "094233.077500", "094235.077500", "094237.077500", "094239.077500", "094241.077500", "094243.077500", "094245.077500", "094247.077500", "094249.077500", "094251.077500", "094253.077500", "094255.077500", "094257.077500", "094259.077500", "094301.077500", "094303.077500", "094305.077500", "094307.077500", "094309.077500", "094311.077500", "094313.077500", "094315.077500", "094317.077500", "094319.077500", "094321.077500", "094323.077500", "094325.077500", "094327.077500", "094329.077500", "094331.077500", "094333.077500", "094335.077500", "094337.077500", "094339.077500", "094341.077500", "094343.077500", "094345.077500", "094347.077500", "094349.077500", "094351.077500", "094353.077500", "094355.077500", "094357.077500", "094359.077500", "094401.077500", "094403.077500", "094405.077500", "094407.077500", "094409.077500", "094411.077500", "094413.077500", "094415.077500", "094417.077500", "094419.077500", "094421.077500", "094423.077500", "094425.077500", "094427.077500", "094429.077500", "094431.077500", "094433.077500", "094435.077500", "094437.077500", "094439.077500", "094441.077500", "094443.077500", "094445.077500", "094447.077500", "094449.077500", "094451.077500", "094453.077500", "094455.077500", "094457.077500", "094459.077500", "094501.077500", "094503.077500", "094505.077500", "094507.077500", "094509.077500", "094511.077500", "094513.077500", "094515.077500", "094517.077500", "094519.077500", "094521.077500", "094523.077500", "094525.077500", "094527.077500", "094529.077500", "094531.077500", "094533.077500", "094535.077500", "094537.077500", "094539.077500", "094541.077500", "094543.077500", "094545.077500", "094547.077500"],
      "ContentTime": ["093951.572000", "093951.575000", "093951.578000", "093951.580000", "093951.582000", "093951.585000", "093951.587000", "093951.593000", "093951.595000", "093951.598000", "093951.600000", "093951.606000", "093951.608000", "093951.610000", "093951.613000", "093951.618000", "093951.620000", "093951.622000", "093951.625000", "093951.627000", "093951.629000", "094031.567000", "094031.570000", "094031.572000", "094031.574000", "094031.577000", "094031.579000", "094031.581000", "094031.584000", "094031.586000", "094031.588000", "094031.591000", "094031.593000", "094031.595000", "094031.598000", "094031.600000", "094031.602000", "094031.605000", "094031.624000", "094031.626000", "094031.628000", "094111.567000", "094111.570000", "094111.572000", "094111.574000", "094111.577000", "094111.579000", "094111.581000", "094111.584000", "094111.586000", "094111.588000", "094111.591000", "094111.593000", "094111.596000", "094111.598000", "094111.600000", "094111.603000", "094111.605000", "094111.607000", "094111.610000", "094111.612000", "094151.567000", "094151.570000", "094151.572000", "094151.575000", "094151.577000", "094151.579000", "094151.582000", "094151.584000", "094151.587000", "094151.589000", "094151.591000", "094151.594000", "094151.596000", "094151.598000", "094151.601000", "094151.603000", "094151.605000", "094151.607000", "094151.610000", "094151.612000", "094231.567000", "094231.570000", "094231.572000", "094231.574000", "094231.577000", "094231.579000", "094231.581000", "094231.584000", "094231.586000", "094231.589000", "094231.591000", "094231.593000", "094231.595000", "094231.598000", "094231.600000", "094231.602000", "094231.605000", "094231.607000", "094231.609000", "094231.612000", "094311.567000", "094311.570000", "094311.572000", "094311.581000", "094311.583000", "094311.586000", "094311.588000", "094311.590000", "094311.593000", "094311.595000", "094311.597000", "094311.600000", "094311.602000", "094311.604000", "094311.607000", "094311.609000", "094311.611000", "094311.614000", "094311.616000", "094311.618000", "094351.567000", "094351.570000", "094351.572000", "094351.575000", "094351.577000", "094351.580000", "094351.582000", "094351.584000", "094351.587000", "094351.589000", "094351.592000", "094351.594000", "094351.596000", "094351.599000", "094351.601000", "094351.603000", "094351.606000", "094351.608000", "094351.610000", "094351.613000", "094431.567000", "094431.570000", "094431.572000", "094431.574000", "094431.577000", "094431.579000", "094431.581000", "094431.584000", "094431.586000", "094431.588000", "094431.591000", "094431.593000", "094431.595000", "094431.598000", "094431.600000", "094431.602000", "094431.605000", "094431.607000", "094431.609000", "094431.611000", "094511.567000", "094511.570000", "094511.572000", "094511.575000", "094511.577000", "094511.580000", "094511.582000", "094511.584000", "094511.594000", "094511.596000", "094511.598000", "094511.601000", "094511.603000", "094511.605000", "094511.608000", "094511.610000", "094511.612000", "094511.615000", "094511.617000", "094511.619000", "094548.258000", "094548.261000", "094548.263000", "094548.266000", "094548.268000", "094548.271000", "094548.273000", "094548.275000", "094548.278000", "094548.280000", "094548.283000", "094548.285000", "094548.287000", "094548.290000", "094548.292000", "094548.294000", "094548.297000", "094548.299000", "094548.302000"],
      "InstanceCreationTime": ["093951.572000", "093951.575000", "093951.578000", "093951.580000", "093951.582000", "093951.585000", "093951.587000", "093951.593000", "093951.595000", "093951.598000", "093951.600000", "093951.606000", "093951.608000", "093951.610000", "093951.613000", "093951.618000", "093951.620000", "093951.622000", "093951.625000", "093951.627000", "093951.629000", "094031.567000", "094031.570000", "094031.572000", "094031.574000", "094031.577000", "094031.579000", "094031.581000", "094031.584000", "094031.586000", "094031.588000", "094031.591000", "094031.593000", "094031.595000", "094031.598000", "094031.600000", "094031.602000", "094031.605000", "094031.624000", "094031.626000", "094031.628000", "094111.567000", "094111.570000", "094111.572000", "094111.574000", "094111.577000", "094111.579000", "094111.581000", "094111.584000", "094111.586000", "094111.588000", "094111.591000", "094111.593000", "094111.596000", "094111.598000", "094111.600000", "094111.603000", "094111.605000", "094111.607000", "094111.610000", "094111.612000", "094151.567000", "094151.570000", "094151.572000", "094151.575000", "094151.577000", "094151.579000", "094151.582000", "094151.584000", "094151.587000", "094151.589000", "094151.591000", "094151.594000", "094151.596000", "094151.598000", "094151.601000", "094151.603000", "094151.605000", "094151.607000", "094151.610000", "094151.612000", "094231.567000", "094231.570000", "094231.572000", "094231.574000", "094231.577000", "094231.579000", "094231.581000", "094231.584000", "094231.586000", "094231.589000", "094231.591000", "094231.593000", "094231.595000", "094231.598000", "094231.600000", "094231.602000", "094231.605000", "094231.607000", "094231.609000", "094231.612000", "094311.567000", "094311.570000", "094311.572000", "094311.581000", "094311.583000", "094311.586000", "094311.588000", "094311.590000", "094311.593000", "094311.595000", "094311.597000", "094311.600000", "094311.602000", "094311.604000", "094311.607000", "094311.609000", "094311.611000", "094311.614000", "094311.616000", "094311.618000", "094351.567000", "094351.570000", "094351.572000", "094351.575000", "094351.577000", "094351.580000", "094351.582000", "094351.584000", "094351.587000", "094351.589000", "094351.592000", "094351.594000", "094351.596000", "094351.599000", "094351.601000", "094351.603000", "094351.606000", "094351.608000", "094351.610000", "094351.613000", "094431.567000", "094431.570000", "094431.572000", "094431.574000", "094431.577000", "094431.579000", "094431.581000", "094431.584000", "094431.586000", "094431.588000", "094431.591000", "094431.593000", "094431.595000", "094431.598000", "094431.600000", "094431.602000", "094431.605000", "094431.607000", "094431.609000", "094431.611000", "094511.567000", "094511.570000", "094511.572000", "094511.575000", "094511.577000", "094511.580000", "094511.582000", "094511.584000", "094511.594000", "094511.596000", "094511.598000", "094511.601000", "094511.603000", "094511.605000", "094511.608000", "094511.610000", "094511.612000", "094511.615000", "094511.617000", "094511.619000", "094548.258000", "094548.261000", "094548.263000", "094548.266000", "094548.268000", "094548.271000", "094548.273000", "094548.275000", "094548.278000", "094548.280000", "094548.283000", "094548.285000", "094548.287000", "094548.290000", "094548.292000", "094548.294000", "094548.297000", "094548.299000", "094548.302000"],
      "InstanceNumber": [1, 2, 3, 4, 5, 6, 7, 8, 9, 10, 11, 12, 13, 14, 15, 16, 17, 18, 19, 20, 21, 22, 23, 24, 25, 26, 27, 28, 29, 30, 31, 32, 33, 34, 35, 36, 37, 38, 39, 40, 41, 42, 43, 44, 45, 46, 47, 48, 49, 50, 51, 52, 53, 54, 55, 56, 57, 58, 59, 60, 61, 62, 63, 64, 65, 66, 67, 68, 69, 70, 71, 72, 73, 74, 75, 76, 77, 78, 79, 80, 81, 82, 83, 84, 85, 86, 87, 88, 89, 90, 91, 92, 93, 94, 95, 96, 97, 98, 99, 100, 101, 102, 103, 104, 105, 106, 107, 108, 109, 110, 111, 112, 113, 114, 115, 116, 117, 118, 119, 120, 121, 122, 123, 124, 125, 126, 127, 128, 129, 130, 131, 132, 133, 134, 135, 136, 137, 138, 139, 140, 141, 142, 143, 144, 145, 146, 147, 148, 149, 150, 151, 152, 153, 154, 155, 156, 157, 158, 159, 160, 161, 162, 163, 164, 165, 166, 167, 168, 169, 170, 171, 172, 173, 174, 175, 176, 177, 178, 179, 180, 181, 182, 183, 184, 185, 186, 187, 188, 189, 190, 191, 192, 193, 194, 195, 196, 197, 198, 199, 200],
      "LargestImagePixelValue": [2305, 2309, 2306, 2309, 2307, 2310, 2311, 2314, 2305, 2304, 2306, 2308, 2307, 2307, 2307, 2306, 2306, 2306, 2305, 2309, 2304, 2309, 2307, 2304, 2306, 2305, 2307, 2309, 2304, 2306, 2305, 2308, 2303, 2307, 2305, 2307, 2304, 2307, 2310, 2304, 2303, 2303, 2306, 2303, 2303, 2310, 2305, 2304, 2300, 2308, 2307, 2305, 2302, 2309, 2305, 2306, 2304, 2305, 2307, 2304, 2303, 2306, 2305, 2302, 2303, 2304, 2301, 2302, 2303, 2306, 2309, 2301, 2303, 2308, 2300, 2302, 2306, 2306, 2306, 2305, 2301, 2307, 2302, 2302, 2306, 2306, 2302, 2305, 2301, 2306, 2304, 2302, 2303, 2305, 2306, 2297, 2304, 2307, 2304, 2301, 2302, 2306, 2304, 2304, 2303, 2309, 2303, 2300, 2302, 2305, 2307, 2299, 2303, 2305, 2302, 2301, 2305, 2304, 2300, 2302, 2306, 2302, 2305, 2300, 2303, 2305, 2298, 2304, 2304, 2304, 2299, 2301, 2299, 2308, 2303, 2304, 2305, 2309, 2300, 2301, 2302, 2302, 2299, 2305, 2305, 2306, 2300, 2304, 2304, 2301, 2302, 2303, 2303, 2300, 2303, 2303, 2305, 2303, 2300, 2302, 2305, 2299, 2305, 2300, 2305, 2299, 2302, 2304, 2303, 2303, 2300, 2301, 2304, 2299, 2305, 2304, 2304, 2301, 2300, 2300, 2303, 2301, 2301, 2301, 2304, 2302, 2297, 2307, 2306, 2298, 2301, 2304, 2302, 2302, 2304, 2300, 2301, 2301, 2302, 2301],
      "WindowCenter": [970.0, 968.0, 968.0, 970.0, 971.0, 968.0, 968.0, 969.0, 970.0, 969.0, 969.0, 967.0, 969.0, 969.0, 970.0, 969.0, 968.0, 969.0, 968.0, 968.0, 968.0, 969.0, 968.0, 968.0, 968.0, 969.0, 969.0, 968.0, 968.0, 968.0, 968.0, 968.0, 968.0, 969.0, 969.0, 970.0, 968.0, 969.0, 969.0, 969.0, 968.0, 969.0, 969.0, 968.0, 968.0, 969.0, 968.0, 969.0, 969.0, 969.0, 969.0, 969.0, 968.0, 967.0, 968.0, 968.0, 968.0, 970.0, 970.0, 968.0, 968.0, 969.0, 970.0, 970.0, 970.0, 968.0, 970.0, 969.0, 970.0, 968.0, 968.0, 969.0, 968.0, 969.0, 969.0, 968.0, 970.0, 970.0, 968.0, 968.0, 968.0, 969.0, 969.0, 968.0, 969.0, 969.0, 971.0, 970.0, 968.0, 969.0, 970.0, 967.0, 969.0, 968.0, 968.0, 968.0, 969.0, 968.0, 968.0, 969.0, 968.0, 971.0, 969.0, 970.0, 968.0, 969.0, 969.0, 968.0, 968.0, 969.0, 969.0, 968.0, 968.0, 969.0, 970.0, 971.0, 969.0, 970.0, 968.0, 969.0, 968.0, 969.0, 968.0, 969.0, 968.0, 969.0, 969.0, 969.0, 968.0, 969.0, 970.0, 968.0, 969.0, 967.0, 968.0, 970.0, 968.0, 970.0, 969.0, 968.0, 969.0, 969.0, 967.0, 970.0, 968.0, 968.0, 968.0, 968.0, 968.0, 969.0, 970.0, 970.0, 968.0, 969.0, 968.0, 969.0, 968.0, 969.0, 968.0, 968.0, 969.0, 968.0, 968.0, 969.0, 967.0, 967.0, 967.0, 969.0, 969.0, 968.0, 968.0, 967.0, 968.0, 968.0, 968.0, 970.0, 969.0, 969.0, 970.0, 969.0, 968.0, 969.0, 969.0, 968.0, 968.0, 969.0, 968.0, 968.0, 970.0, 969.0, 969.0, 968.0, 968.0, 968.0, 968.0, 968.0, 968.0, 967.0, 968.0, 968.0],
      "WindowWidth": [2298.0, 2295.0, 2296.0, 2298.0, 2299.0, 2295.0, 2295.0, 2298.0, 2298.0, 2297.0, 2296.0, 2295.0, 2297.0, 2297.0, 2298.0, 2296.0, 2296.0, 2297.0, 2297.0, 2295.0, 2297.0, 2296.0, 2297.0, 2296.0, 2297.0, 2296.0, 2298.0, 2296.0, 2297.0, 2296.0, 2297.0, 2296.0, 2297.0, 2297.0, 2296.0, 2299.0, 2296.0, 2298.0, 2297.0, 2298.0, 2297.0, 2298.0, 2296.0, 2296.0, 2296.0, 2298.0, 2297.0, 2297.0, 2296.0, 2297.0, 2298.0, 2298.0, 2297.0, 2295.0, 2296.0, 2296.0, 2297.0, 2299.0, 2299.0, 2296.0, 2297.0, 2297.0, 2299.0, 2298.0, 2299.0, 2297.0, 2298.0, 2298.0, 2298.0, 2296.0, 2296.0, 2298.0, 2296.0, 2297.0, 2298.0, 2296.0, 2297.0, 2299.0, 2296.0, 2297.0, 2296.0, 2297.0, 2298.0, 2296.0, 2298.0, 2298.0, 2299.0, 2298.0, 2296.0, 2297.0, 2297.0, 2295.0, 2297.0, 2296.0, 2296.0, 2296.0, 2296.0, 2296.0, 2296.0, 2297.0, 2296.0, 2299.0, 2298.0, 2298.0, 2296.0, 2297.0, 2297.0, 2296.0, 2296.0, 2297.0, 2298.0, 2296.0, 2296.0, 2298.0, 2299.0, 2300.0, 2298.0, 2298.0, 2296.0, 2298.0, 2296.0, 2297.0, 2296.0, 2298.0, 2296.0, 2298.0, 2297.0, 2298.0, 2296.0, 2298.0, 2297.0, 2296.0, 2298.0, 2295.0, 2296.0, 2299.0, 2296.0, 2298.0, 2297.0, 2296.0, 2298.0, 2298.0, 2295.0, 2299.0, 2296.0, 2296.0, 2296.0, 2296.0, 2296.0, 2297.0, 2298.0, 2297.0, 2296.0, 2298.0, 2296.0, 2296.0, 2296.0, 2297.0, 2296.0, 2297.0, 2298.0, 2296.0, 2296.0, 2298.0, 2295.0, 2295.0, 2295.0, 2298.0, 2297.0, 2296.0, 2296.0, 2295.0, 2296.0, 2296.0, 2296.0, 2297.0, 2298.0, 2297.0, 2298.0, 2296.0, 2296.0, 2297.0, 2298.0, 2296.0, 2296.0, 2298.0, 2296.0, 2296.0, 2297.0, 2298.0, 2297.0, 2295.0, 2296.0, 2296.0, 2296.0, 2296.0, 2297.0, 2295.0, 2297.0, 2296.0]
    },
    "slices": {}
  }
}