{
  "AcquisitionMatrixPE": 80,
  "AcquisitionNumber": 1,
  "AcquisitionTime": "09:45:58.405000",
  "BandwidthPerPixelPhaseEncode": 25,
  "BaseResolution": 80,
  "BodyPartExamined": "BRAIN",
  "CoilCombinationMethod": "Sum of Squares",
  "ConsistencyInfo": "N4_VE11E_LATEST_20181129",
  "ConversionSoftware": "dcm2niix",
  "ConversionSoftwareVersion": "v1.0.20220720",
  "DerivedVendorReportedEchoSpacing": 0.0005,
  "DeviceSerialNumber": "66112",
  "DwellTime": 2.7e-06,
  "EchoTime": 0.03,
  "EchoTrainLength": 80,
  "EffectiveEchoSpacing": 0.0005,
  "FlipAngle": 77,
  "HeudiconvVersion": "0.13.1",
  "ImageOrientationPatientDICOM": [0.999985, -0.00349282, 0.00428962, 0.0020943, 0.956772, 0.290832],
  "ImageOrientationText": "Tra>Cor(16.9)>Sag(0.3)",
  "ImageType": [
    "ORIGINAL",
    "PRIMARY",
    "M",
    "ND",
    "NORM",
    "MOSAIC"
],
  "ImagingFrequency": 123.259,
  "InPlanePhaseEncodingDirectionDICOM": "COL",
  "InstitutionAddress": "Maynard 3,Hanover,NH,US,03755",
  "InstitutionName": "Dartmouth College - PBS",
  "InstitutionalDepartmentName": "Department",
  "MRAcquisitionType": "2D",
  "MagneticFieldStrength": 3,
  "Manufacturer": "Siemens",
  "ManufacturersModelName": "Prisma",
  "MatrixCoilMode": "SENSE",
  "Modality": "MR",
  "NonlinearGradientCorrection": false,
  "PartialFourier": 1,
  "PatientPosition": "HFS",
  "PercentPhaseFOV": 100,
  "PercentSampling": 100,
  "PhaseEncodingDirection": "j-",
  "PhaseEncodingSteps": 80,
  "PhaseResolution": 1,
  "PixelBandwidth": 2315,
  "ProcedureStepDescription": "dbic^QA",
  "ProtocolName": "func-bold_fa-77",
  "PulseSequenceDetails": "%SiemensSeq%\\ep2d_bold",
  "ReceiveCoilActiveElements": "HEA;HEP",
  "ReceiveCoilName": "Head_32",
  "ReconMatrixPE": 80,
  "RepetitionTime": 2,
  "SAR": 0.0370362,
  "ScanOptions": "FS",
  "ScanningSequence": "EP",
  "SequenceName": "*epfid2d1_80",
  "SequenceVariant": "SK",
  "SeriesDescription": "func-bold_fa-77",
  "SeriesNumber": 7,
  "ShimSetting": [4220, -7742, -7501, -22, -146, -109, -2, 60],
  "SliceThickness": 3.5,
  "SliceTiming": [0.99, 0, 1.055, 0.065, 1.12, 0.13, 1.1875, 0.1975, 1.2525, 0.2625, 1.3175, 0.33, 1.385, 0.395, 1.45, 0.46, 1.5175, 0.5275, 1.5825, 0.5925, 1.6475, 0.66, 1.715, 0.725, 1.78, 0.79, 1.8475, 0.8575, 1.9125, 0.9225],
  "SoftwareVersions": "syngo MR E11",
  "SpacingBetweenSlices": 3.99,
  "StationName": "AWP66112",
  "TotalReadoutTime": 0.0395,
  "TxRefAmp": 221.279,
  "dcmmeta_affine": [
    [-2.9999539852142334, 0.00628291442990303, 0.020428849384188652, 119.46942138671875],
    [0.010478466749191284, 2.8703150749206543, 1.1603679656982422, -126.39813232421875],
    [0.012868857942521572, -0.8724974393844604, 3.8174898624420166, -25.836965560913086],
    [0.0, 0.0, 0.0, 1.0]
],
  "dcmmeta_reorient_transform": [
    [0.0, -1.0, 0.0, 79.0],
    [1.0, 0.0, 0.0, 0.0],
    [0.0, 0.0, 1.0, 0.0],
    [0.0, 0.0, 0.0, 1.0]
],
  "dcmmeta_shape": [80, 80, 30, 200],
  "dcmmeta_slice_dim": 2,
  "dcmmeta_version": 0.6,
  "global": {
    "const": {
      "AccessionNumber": "qa",
      "AcquisitionMatrix": [80, 0, 0, 80],
      "AngioFlag": "N",
      "BitsAllocated": 16,
      "BitsStored": 12,
      "BodyPartExamined": "BRAIN",
      "Columns": 480,
      "EchoNumbers": 1,
      "EchoTime": 30.0,
      "EchoTrainLength": 80,
      "FlipAngle": 77.0,
      "HighBit": 11,
      "ImageOrientationPatient": [0.99998469956312, -0.0034928221998, 0.00428961918273, 0.00209430483552, 0.95677169531678, 0.29083248946413],
      "ImagePositionPatient": [-721.2131715548, -672.32408362716, -271.83753141544],
      "ImageType": [
        "ORIGINAL",
        "PRIMARY",
        "M",
        "ND",
        "NORM",
        "MOSAIC"
],
      "ImagedNucleus": "1H",
      "ImagingFrequency": 123.259134,
      "InPlanePhaseEncodingDirection": "COL",
      "MRAcquisitionType": "2D",
      "MagneticFieldStrength": 3.0,
      "Manufacturer": "SIEMENS",
      "ManufacturerModelName": "Prisma",
      "Modality": "MR",
      "NumberOfAverages": 1.0,
      "NumberOfPhaseEncodingSteps": 80,
      "PercentPhaseFieldOfView": 100.0,
      "PercentSampling": 100.0,
      "PerformedProcedureStepStartTime": "092355.683000",
      "PhotometricInterpretation": "MONOCHROME2",
      "PixelBandwidth": 2315.0,
      "PixelRepresentation": 0,
      "PixelSpacing": [3.0, 3.0],
      "ProtocolName": "func-bold_fa-77",
      "RepetitionTime": 2000.0,
      "Rows": 480,
      "SAR": 0.03703617345693,
      "SamplesPerPixel": 1,
      "ScanOptions": "FS",
      "ScanningSequence": "EP",
      "SequenceName": "*epfid2d1_80",
      "SequenceVariant": "SK",
      "SeriesDescription": "func-bold_fa-77",
      "SeriesNumber": 7,
      "SeriesTime": "094651.395000",
      "SliceLocation": -60.8671892589,
      "SliceThickness": 3.5,
      "SmallestImagePixelValue": 0,
      "SoftwareVersions": "syngo MR E11",
      "SpacingBetweenSlices": 3.9899999174494,
      "SpecificCharacterSet": "ISO_IR 100",
      "StudyID": "6",
      "StudyTime": "092355.576000",
      "TransmitCoilName": "Body",
      "VariableFlipAngleFlag": "N",
      "WindowCenterWidthExplanation": "Algo1"
    },
    "slices": {}
  },
  "time": {
    "samples": {
      "AcquisitionNumber": [1, 2, 3, 4, 5, 6, 7, 8, 9, 10, 11, 12, 13, 14, 15, 16, 17, 18, 19, 20, 21, 22, 23, 24, 25, 26, 27, 28, 29, 30, 31, 32, 33, 34, 35, 36, 37, 38, 39, 40, 41, 42, 43, 44, 45, 46, 47, 48, 49, 50, 51, 52, 53, 54, 55, 56, 57, 58, 59, 60, 61, 62, 63, 64, 65, 66, 67, 68, 69, 70, 71, 72, 73, 74, 75, 76, 77, 78, 79, 80, 81, 82, 83, 84, 85, 86, 87, 88, 89, 90, 91, 92, 93, 94, 95, 96, 97, 98, 99, 100, 101, 102, 103, 104, 105, 106, 107, 108, 109, 110, 111, 112, 113, 114, 115, 116, 117, 118, 119, 120, 121, 122, 123, 124, 125, 126, 127, 128, 129, 130, 131, 132, 133, 134, 135, 136, 137, 138, 139, 140, 141, 142, 143, 144, 145, 146, 147, 148, 149, 150, 151, 152, 153, 154, 155, 156, 157, 158, 159, 160, 161, 162, 163, 164, 165, 166, 167, 168, 169, 170, 171, 172, 173, 174, 175, 176, 177, 178, 179, 180, 181, 182, 183, 184, 185, 186, 187, 188, 189, 190, 191, 192, 193, 194, 195, 196, 197, 198, 199, 200],
      "AcquisitionTime": ["094558.405000", "094600.405000", "094602.405000", "094604.405000", "094606.405000", "094608.405000", "094610.405000", "094612.405000", "094614.405000", "094616.405000", "094618.405000", "094620.405000", "094622.405000", "094624.405000", "094626.405000", "094628.405000", "094630.405000", "094632.405000", "094634.405000", "094636.405000", "094638.405000", "094640.405000", "094642.405000", "094644.405000", "094646.405000", "094648.405000", "094650.405000", "094652.405000", "094654.405000", "094656.405000", "094658.405000", "094700.405000", "094702.405000", "094704.405000", "094706.405000", "094708.405000", "094710.405000", "094712.405000", "094714.405000", "094716.405000", "094718.405000", "094720.405000", "094722.405000", "094724.405000", "094726.405000", "094728.405000", "094730.405000", "094732.405000", "094734.405000", "094736.405000", "094738.405000", "094740.405000", "094742.405000", "094744.405000", "094746.405000", "094748.405000", "094750.405000", "094752.405000", "094754.405000", "094756.405000", "094758.405000", "094800.405000", "094802.405000", "094804.405000", "094806.405000", "094808.405000", "094810.405000", "094812.405000", "094814.405000", "094816.405000", "094818.405000", "094820.405000", "094822.405000", "094824.405000", "094826.405000", "094828.405000", "094830.405000", "094832.405000", "094834.405000", "094836.405000", "094838.405000", "094840.405000", "094842.405000", "094844.405000", "094846.405000", "094848.405000", "094850.405000", "094852.405000", "094854.405000", "094856.405000", "094858.405000", "094900.405000", "094902.405000", "094904.405000", "094906.405000", "094908.405000", "094910.405000", "094912.405000", "094914.405000", "094916.405000", "094918.405000", "094920.405000", "094922.405000", "094924.405000", "094926.405000", "094928.405000", "094930.405000", "094932.405000", "094934.405000", "094936.405000", "094938.405000", "094940.405000", "094942.405000", "094944.405000", "094946.405000", "094948.405000", "094950.405000", "094952.405000", "094954.405000", "094956.405000", "094958.405000", "095000.405000", "095002.405000", "095004.405000", "095006.405000", "095008.405000", "095010.405000", "095012.405000", "095014.405000", "095016.405000", "095018.405000", "095020.405000", "095022.405000", "095024.405000", "095026.405000", "095028.405000", "095030.405000", "095032.405000", "095034.405000", "095036.405000", "095038.405000", "095040.405000", "095042.405000", "095044.405000", "095046.405000", "095048.405000", "095050.405000", "095052.405000", "095054.405000", "095056.405000", "095058.405000", "095100.405000", "095102.405000", "095104.405000", "095106.405000", "095108.405000", "095110.405000", "095112.405000", "095114.405000", "095116.405000", "095118.405000", "095120.405000", "095122.405000", "095124.405000", "095126.405000", "095128.405000", "095130.405000", "095132.405000", "095134.405000", "095136.405000", "095138.405000", "095140.405000", "095142.405000", "095144.405000", "095146.405000", "095148.405000", "095150.405000", "095152.405000", "095154.405000", "095156.405000", "095158.405000", "095200.405000", "095202.405000", "095204.405000", "095206.405000", "095208.405000", "095210.405000", "095212.405000", "095214.405000", "095216.405000", "095218.405000", "095220.405000", "095222.405000", "095224.405000", "095226.405000", "095228.405000", "095230.405000", "095232.405000", "095234.405000", "095236.405000"],
      "ContentTime": ["094651.403000", "094651.406000", "094651.408000", "094651.418000", "094651.420000", "094651.428000", "094651.430000", "094651.433000", "094651.435000", "094651.437000", "094651.439000", "094651.442000", "094651.444000", "094651.447000", "094651.449000", "094651.451000", "094651.454000", "094651.456000", "094651.458000", "094651.467000", "094651.469000", "094651.472000", "094651.474000", "094651.476000", "094651.479000", "094651.481000", "094731.393000", "094731.402000", "094731.405000", "094731.407000", "094731.409000", "094731.412000", "094731.414000", "094731.416000", "094731.419000", "094731.421000", "094731.423000", "094731.426000", "094731.428000", "094731.430000", "094731.433000", "094731.435000", "094731.438000", "094731.440000", "094731.442000", "094731.445000", "094811.393000", "094811.396000", "094811.398000", "094811.400000", "094811.403000", "094811.405000", "094811.414000", "094811.417000", "094811.419000", "094811.421000", "094811.424000", "094811.426000", "094811.429000", "094811.437000", "094811.439000", "094811.442000", "094811.444000", "094811.446000", "094811.449000", "094811.451000", "094851.393000", "094851.396000", "094851.398000", "094851.400000", "094851.403000", "094851.405000", "094851.407000", "094851.410000", "094851.412000", "094851.414000", "094851.417000", "094851.419000", "094851.421000", "094851.424000", "094851.426000", "094851.428000", "094851.431000", "094851.433000", "094851.435000", "094851.437000", "094931.393000", "094931.396000", "094931.398000", "094931.401000", "094931.403000", "094931.405000", "094931.408000", "094931.410000", "094931.412000", "094931.415000", "094931.417000", "094931.419000", "094931.422000", "094931.424000", "094931.426000", "094931.429000", "094931.431000", "094931.434000", "094931.436000", "094931.438000", "095011.393000", "095011.396000", "095011.398000", "095011.400000", "095011.403000", "095011.405000", "095011.407000", "095011.410000", "095011.412000", "095011.414000", "095011.417000", "095011.419000", "095011.421000", "095011.424000", "095011.426000", "095011.428000", "095011.431000", "095011.433000", "095011.435000", "095011.438000", "095051.393000", "095051.396000", "095051.398000", "095051.400000", "095051.403000", "095051.405000", "095051.407000", "095051.410000", "095051.412000", "095051.415000", "095051.417000", "095051.419000", "095051.422000", "095051.424000", "095051.426000", "095051.429000", "095051.431000", "095051.433000", "095051.436000", "095051.438000", "095131.393000", "095131.396000", "095131.398000", "095131.401000", "095131.403000", "095131.405000", "095131.408000", "095131.410000", "095131.412000", "095131.415000", "095131.417000", "095131.419000", "095131.422000", "095131.424000", "095131.426000", "095131.429000", "095131.431000", "095131.433000", "095131.436000", "095131.438000", "095211.393000", "095211.396000", "095211.398000", "095211.400000", "095211.403000", "095211.405000", "095211.408000", "095211.410000", "095211.412000", "095211.415000", "095211.417000", "095211.419000", "095211.422000", "095211.424000", "095211.426000", "095211.429000", "095211.431000", "095211.434000", "095211.436000", "095211.438000", "095238.135000", "095238.138000", "095238.140000", "095238.143000", "095238.145000", "095238.148000", "095238.150000", "095238.152000", "095238.155000", "095238.157000", "095238.159000", "095238.162000", "095238.164000", "095238.168000"],
      "InstanceCreationTime": ["094651.403000", "094651.406000", "094651.408000", "094651.418000", "094651.420000", "094651.428000", "094651.430000", "094651.433000", "094651.435000", "094651.437000", "094651.439000", "094651.442000", "094651.444000", "094651.447000", "094651.449000", "094651.451000", "094651.454000", "094651.456000", "094651.458000", "094651.467000", "094651.469000", "094651.472000", "094651.474000", "094651.476000", "094651.479000", "094651.481000", "094731.393000", "094731.402000", "094731.405000", "094731.407000", "094731.409000", "094731.412000", "094731.414000", "094731.416000", "094731.419000", "094731.421000", "094731.423000", "094731.426000", "094731.428000", "094731.430000", "094731.433000", "094731.435000", "094731.438000", "094731.440000", "094731.442000", "094731.445000", "094811.393000", "094811.396000", "094811.398000", "094811.400000", "094811.403000", "094811.405000", "094811.414000", "094811.417000", "094811.419000", "094811.421000", "094811.424000", "094811.426000", "094811.429000", "094811.437000", "094811.439000", "094811.442000", "094811.444000", "094811.446000", "094811.449000", "094811.451000", "094851.393000", "094851.396000", "094851.398000", "094851.400000", "094851.403000", "094851.405000", "094851.407000", "094851.410000", "094851.412000", "094851.414000", "094851.417000", "094851.419000", "094851.421000", "094851.424000", "094851.426000", "094851.428000", "094851.431000", "094851.433000", "094851.435000", "094851.437000", "094931.393000", "094931.396000", "094931.398000", "094931.401000", "094931.403000", "094931.405000", "094931.408000", "094931.410000", "094931.412000", "094931.415000", "094931.417000", "094931.419000", "094931.422000", "094931.424000", "094931.426000", "094931.429000", "094931.431000", "094931.434000", "094931.436000", "094931.438000", "095011.393000", "095011.396000", "095011.398000", "095011.400000", "095011.403000", "095011.405000", "095011.407000", "095011.410000", "095011.412000", "095011.414000", "095011.417000", "095011.419000", "095011.421000", "095011.424000", "095011.426000", "095011.428000", "095011.431000", "095011.433000", "095011.435000", "095011.438000", "095051.393000", "095051.396000", "095051.398000", "095051.400000", "095051.403000", "095051.405000", "095051.407000", "095051.410000", "095051.412000", "095051.415000", "095051.417000", "095051.419000", "095051.422000", "095051.424000", "095051.426000", "095051.429000", "095051.431000", "095051.433000", "095051.436000", "095051.438000", "095131.393000", "095131.396000", "095131.398000", "095131.401000", "095131.403000", "095131.405000", "095131.408000", "095131.410000", "095131.412000", "095131.415000", "095131.417000", "095131.419000", "095131.422000", "095131.424000", "095131.426000", "095131.429000", "095131.431000", "095131.433000", "095131.436000", "095131.438000", "095211.393000", "095211.396000", "095211.398000", "095211.400000", "095211.403000", "095211.405000", "095211.408000", "095211.410000", "095211.412000", "095211.415000", "095211.417000", "095211.419000", "095211.422000", "095211.424000", "095211.426000", "095211.429000", "095211.431000", "095211.434000", "095211.436000", "095211.438000", "095238.135000", "095238.138000", "095238.140000", "095238.143000", "095238.145000", "095238.148000", "095238.150000", "095238.152000", "095238.155000", "095238.157000", "095238.159000", "095238.162000", "095238.164000", "095238.168000"],
      "InstanceNumber": [1, 2, 3, 4, 5, 6, 7, 8, 9, 10, 11, 12, 13, 14, 15, 16, 17, 18, 19, 20, 21, 22, 23, 24, 25, 26, 27, 28, 29, 30, 31, 32, 33, 34, 35, 36, 37, 38, 39, 40, 41, 42, 43, 44, 45, 46, 47, 48, 49, 50, 51, 52, 53, 54, 55, 56, 57, 58, 59, 60, 61, 62, 63, 64, 65, 66, 67, 68, 69, 70, 71, 72, 73, 74, 75, 76, 77, 78, 79, 80, 81, 82, 83, 84, 85, 86, 87, 88, 89, 90, 91, 92, 93, 94, 95, 96, 97, 98, 99, 100, 101, 102, 103, 104, 105, 106, 107, 108, 109, 110, 111, 112, 113, 114, 115, 116, 117, 118, 119, 120, 121, 122, 123, 124, 125, 126, 127, 128, 129, 130, 131, 132, 133, 134, 135, 136, 137, 138, 139, 140, 141, 142, 143, 144, 145, 146, 147, 148, 149, 150, 151, 152, 153, 154, 155, 156, 157, 158, 159, 160, 161, 162, 163, 164, 165, 166, 167, 168, 169, 170, 171, 172, 173, 174, 175, 176, 177, 178, 179, 180, 181, 182, 183, 184, 185, 186, 187, 188, 189, 190, 191, 192, 193, 194, 195, 196, 197, 198, 199, 200],
      "LargestImagePixelValue": [2259, 2261, 2261, 2261, 2260, 2261, 2262, 2261, 2262, 2261, 2261, 2260, 2260, 2261, 2260, 2260, 2259, 2260, 2262, 2261, 2261, 2261, 2259, 2261, 2261, 2261, 2261, 2259, 2259, 2259, 2259, 2260, 2260, 2259, 2260, 2261, 2260, 2259, 2261, 2261, 2259, 2261, 2260, 2263, 2259, 2260, 2260, 2260, 2260, 2260, 2258, 2262, 2262, 2259, 2261, 2262, 2260, 2260, 2259, 2259, 2259, 2257, 2257, 2258, 2258, 2260, 2259, 2259, 2260, 2259, 2260, 2261, 2260, 2261, 2260, 2258, 2258, 2257, 2261, 2258, 2261, 2257, 2258, 2258, 2259, 2259, 2260, 2257, 2260, 2257, 2259, 2259, 2259, 2260, 2258, 2258, 2258, 2258, 2261, 2262, 2261, 2260, 2258, 2258, 2260, 2257, 2259, 2256, 2260, 2259, 2256, 2261, 2259, 2259, 2258, 2256, 2256, 2258, 2260, 2257, 2258, 2257, 2256, 2259, 2258, 2258, 2259, 2259, 2258, 2258, 2259, 2260, 2259, 2258, 2257, 2258, 2259, 2255, 2256, 2257, 2256, 2258, 2257, 2257, 2258, 2254, 2254, 2257, 2259, 2257, 2259, 2257, 2258, 2258, 2257, 2258, 2257, 2259, 2258, 2259, 2258, 2259, 2258, 2258, 2260, 2259, 2259, 2259, 2257, 2257, 2257, 2260, 2257, 2261, 2257, 2260, 2260, 2257, 2256, 2257, 2257, 2255, 2256, 2255, 2254, 2257, 2256, 2256, 2258, 2257, 2258, 2259, 2257, 2258, 2258, 2258, 2257, 2257, 2260, 2258],
      "WindowCenter": [1021.0, 1021.0, 1021.0, 1020.0, 1021.0, 1020.0, 1021.0, 1021.0, 1022.0, 1021.0, 1021.0, 1022.0, 1020.0, 1022.0, 1021.0, 1021.0, 1021.0, 1021.0, 1020.0, 1021.0, 1021.0, 1022.0, 1021.0, 1022.0, 1021.0, 1021.0, 1021.0, 1020.0, 1022.0, 1022.0, 1021.0, 1021.0, 1021.0, 1022.0, 1020.0, 1021.0, 1022.0, 1022.0, 1022.0, 1022.0, 1023.0, 1020.0, 1021.0, 1021.0, 1020.0, 1020.0, 1020.0, 1021.0, 1021.0, 1020.0, 1021.0, 1021.0, 1021.0, 1021.0, 1021.0, 1020.0, 1021.0, 1022.0, 1021.0, 1021.0, 1021.0, 1021.0, 1021.0, 1021.0, 1020.0, 1021.0, 1020.0, 1021.0, 1020.0, 1021.0, 1021.0, 1020.0, 1020.0, 1020.0, 1020.0, 1020.0, 1021.0, 1020.0, 1021.0, 1019.0, 1021.0, 1020.0, 1020.0, 1019.0, 1020.0, 1020.0, 1021.0, 1020.0, 1020.0, 1020.0, 1021.0, 1020.0, 1020.0, 1020.0, 1020.0, 1021.0, 1019.0, 1019.0, 1019.0, 1019.0, 1020.0, 1022.0, 1020.0, 1020.0, 1018.0, 1021.0, 1019.0, 1019.0, 1021.0, 1020.0, 1019.0, 1020.0, 1020.0, 1019.0, 1021.0, 1020.0, 1021.0, 1020.0, 1020.0, 1019.0, 1020.0, 1019.0, 1020.0, 1021.0, 1020.0, 1018.0, 1021.0, 1020.0, 1019.0, 1020.0, 1019.0, 1020.0, 1020.0, 1020.0, 1020.0, 1020.0, 1020.0, 1022.0, 1021.0, 1020.0, 1019.0, 1020.0, 1021.0, 1020.0, 1020.0, 1020.0, 1020.0, 1020.0, 1022.0, 1019.0, 1020.0, 1020.0, 1020.0, 1019.0, 1020.0, 1020.0, 1020.0, 1020.0, 1019.0, 1019.0, 1020.0, 1018.0, 1020.0, 1020.0, 1021.0, 1020.0, 1020.0, 1018.0, 1019.0, 1019.0, 1019.0, 1020.0, 1019.0, 1019.0, 1020.0, 1019.0, 1020.0, 1019.0, 1020.0, 1020.0, 1019.0, 1020.0, 1019.0, 1020.0, 1019.0, 1020.0, 1019.0, 1020.0, 1019.0, 1019.0, 1020.0, 1019.0, 1019.0, 1019.0, 1019.0, 1018.0, 1020.0, 1020.0, 1018.0, 1019.0],
      "WindowWidth": [2294.0, 2294.0, 2294.0, 2294.0, 2294.0, 2294.0, 2294.0, 2294.0, 2295.0, 2294.0, 2294.0, 2295.0, 2294.0, 2295.0, 2294.0, 2294.0, 2294.0, 2294.0, 2293.0, 2294.0, 2294.0, 2294.0, 2294.0, 2294.0, 2294.0, 2294.0, 2294.0, 2293.0, 2294.0, 2295.0, 2294.0, 2294.0, 2294.0, 2294.0, 2293.0, 2293.0, 2294.0, 2294.0, 2294.0, 2294.0, 2295.0, 2293.0, 2293.0, 2293.0, 2292.0, 2292.0, 2292.0, 2293.0, 2293.0, 2292.0, 2293.0, 2293.0, 2293.0, 2293.0, 2293.0, 2292.0, 2293.0, 2294.0, 2293.0, 2293.0, 2293.0, 2293.0, 2293.0, 2293.0, 2292.0, 2293.0, 2292.0, 2293.0, 2292.0, 2294.0, 2293.0, 2292.0, 2293.0, 2293.0, 2293.0, 2293.0, 2294.0, 2292.0, 2293.0, 2292.0, 2292.0, 2293.0, 2293.0, 2292.0, 2293.0, 2293.0, 2293.0, 2292.0, 2293.0, 2292.0, 2293.0, 2292.0, 2293.0, 2292.0, 2292.0, 2293.0, 2291.0, 2291.0, 2291.0, 2291.0, 2292.0, 2293.0, 2292.0, 2292.0, 2291.0, 2293.0, 2291.0, 2291.0, 2293.0, 2292.0, 2291.0, 2292.0, 2292.0, 2291.0, 2293.0, 2292.0, 2293.0, 2292.0, 2292.0, 2291.0, 2292.0, 2291.0, 2292.0, 2292.0, 2292.0, 2290.0, 2292.0, 2292.0, 2291.0, 2292.0, 2291.0, 2292.0, 2292.0, 2292.0, 2292.0, 2292.0, 2292.0, 2293.0, 2292.0, 2291.0, 2291.0, 2292.0, 2292.0, 2291.0, 2292.0, 2291.0, 2291.0, 2291.0, 2292.0, 2291.0, 2291.0, 2291.0, 2291.0, 2290.0, 2291.0, 2291.0, 2291.0, 2291.0, 2290.0, 2290.0, 2291.0, 2289.0, 2291.0, 2291.0, 2292.0, 2291.0, 2291.0, 2289.0, 2291.0, 2290.0, 2290.0, 2292.0, 2290.0, 2290.0, 2291.0, 2290.0, 2291.0, 2290.0, 2291.0, 2291.0, 2290.0, 2291.0, 2290.0, 2291.0, 2290.0, 2291.0, 2291.0, 2291.0, 2290.0, 2290.0, 2291.0, 2291.0, 2290.0, 2290.0, 2291.0, 2290.0, 2291.0, 2291.0, 2290.0, 2290.0]
    },
    "slices": {}
  }
}