{
  "AcquisitionMatrixPE": 80,
  "AcquisitionNumber": 1,
  "AcquisitionTime": "09:47:5.495000",
  "BandwidthPerPixelPhaseEncode": 25,
  "BaseResolution": 80,
  "BodyPartExamined": "BRAIN",
  "CoilCombinationMethod": "Sum of Squares",
  "ConsistencyInfo": "N4_VE11E_LATEST_20181129",
  "ConversionSoftware": "dcm2niix",
  "ConversionSoftwareVersion": "v1.0.20220720",
  "DerivedVendorReportedEchoSpacing": 0.0005,
  "DeviceSerialNumber": "66112",
  "DwellTime": 2.7e-06,
  "EchoTime": 0.03,
  "EchoTrainLength": 80,
  "EffectiveEchoSpacing": 0.0005,
  "FlipAngle": 10,
  "HeudiconvVersion": "0.13.1",
  "ImageOrientationPatientDICOM": [0.990869, 0.134645, 0.0070247, -0.130274, 0.942674, 0.307238],
  "ImageOrientationText": "Tra>Cor(17.8)>Sag(-2.0)",
  "ImageType": [
    "ORIGINAL",
    "PRIMARY",
    "M",
    "ND",
    "NORM",
    "MOSAIC"
],
  "ImagingFrequency": 123.259,
  "InPlanePhaseEncodingDirectionDICOM": "COL",
  "InstitutionAddress": "Maynard 3,Hanover,NH,US,03755",
  "InstitutionName": "Dartmouth College - PBS",
  "InstitutionalDepartmentName": "Department",
  "MRAcquisitionType": "2D",
  "MagneticFieldStrength": 3,
  "Manufacturer": "Siemens",
  "ManufacturersModelName": "Prisma",
  "MatrixCoilMode": "SENSE",
  "Modality": "MR",
  "NonlinearGradientCorrection": false,
  "PartialFourier": 1,
  "PatientPosition": "HFS",
  "PercentPhaseFOV": 100,
  "PercentSampling": 100,
  "PhaseEncodingDirection": "j-",
  "PhaseEncodingSteps": 80,
  "PhaseResolution": 1,
  "PixelBandwidth": 2315,
  "ProcedureStepDescription": "dbic^QA",
  "ProtocolName": "func-bold_fa-10",
  "PulseSequenceDetails": "%SiemensSeq%\\ep2d_bold",
  "ReceiveCoilActiveElements": "HEA;HEP",
  "ReceiveCoilName": "Head_32",
  "ReconMatrixPE": 80,
  "RepetitionTime": 2,
  "SAR": 0.0151165,
  "ScanOptions": "FS",
  "ScanningSequence": "EP",
  "SequenceName": "*epfid2d1_80",
  "SequenceVariant": "SK",
  "SeriesDescription": "func-bold_fa-10",
  "SeriesNumber": 8,
  "ShimSetting": [4224, -7742, -7485, -36, -144, -52, 0, 98],
  "SliceThickness": 3.5,
  "SliceTiming": [0.99, 0, 1.055, 0.065, 1.1225, 0.1325, 1.1875, 0.1975, 1.2525, 0.265, 1.32, 0.33, 1.385, 0.395, 1.4525, 0.4625, 1.5175, 0.5275, 1.5825, 0.595, 1.65, 0.66, 1.715, 0.725, 1.7825, 0.7925, 1.8475, 0.8575, 1.9125, 0.9225],
  "SoftwareVersions": "syngo MR E11",
  "SpacingBetweenSlices": 3.99,
  "StationName": "AWP66112",
  "TotalReadoutTime": 0.0395,
  "TxRefAmp": 223.071,
  "dcmmeta_affine": [
    [-2.972606897354126, -0.3908233344554901, -0.13863731920719147, 136.6016387939453],
    [-0.4039361774921417, 2.8280205726623535, 1.2183377742767334, -109.94928741455078],
    [0.021074093878269196, -0.9217142462730408, 3.7969110012054443, -25.963998794555664],
    [0.0, 0.0, 0.0, 1.0]
],
  "dcmmeta_reorient_transform": [
    [0.0, -1.0, 0.0, 79.0],
    [1.0, 0.0, 0.0, 0.0],
    [0.0, 0.0, 1.0, 0.0],
    [0.0, 0.0, 0.0, 1.0]
],
  "dcmmeta_shape": [80, 80, 30, 200],
  "dcmmeta_slice_dim": 2,
  "dcmmeta_version": 0.6,
  "global": {
    "const": {
      "AccessionNumber": "qa",
      "AcquisitionMatrix": [80, 0, 0, 80],
      "AngioFlag": "N",
      "BitsAllocated": 16,
      "BitsStored": 12,
      "BodyPartExamined": "BRAIN",
      "Columns": 480,
      "EchoNumbers": 1,
      "EchoTime": 30.0,
      "EchoTrainLength": 80,
      "FlipAngle": 10.0,
      "HighBit": 11,
      "ImageOrientationPatient": [0.99086894751083, 0.13464539530962, 0.00702469790826, -0.1302744438121, 0.94267350203275, 0.30723808008575],
      "ImagePositionPatient": [-622.08329197265, -759.85566985299, -287.33709032292],
      "ImageType": [
        "ORIGINAL",
        "PRIMARY",
        "M",
        "ND",
        "NORM",
        "MOSAIC"
],
      "ImagedNucleus": "1H",
      "ImagingFrequency": 123.259242,
      "InPlanePhaseEncodingDirection": "COL",
      "MRAcquisitionType": "2D",
      "MagneticFieldStrength": 3.0,
      "Manufacturer": "SIEMENS",
      "ManufacturerModelName": "Prisma",
      "Modality": "MR",
      "NumberOfAverages": 1.0,
      "NumberOfPhaseEncodingSteps": 80,
      "PercentPhaseFieldOfView": 100.0,
      "PercentSampling": 100.0,
      "PerformedProcedureStepStartTime": "092009.269000",
      "PhotometricInterpretation": "MONOCHROME2",
      "PixelBandwidth": 2315.0,
      "PixelRepresentation": 0,
      "PixelSpacing": [3.0, 3.0],
      "ProtocolName": "func-bold_fa-10",
      "RepetitionTime": 2000.0,
      "Rows": 480,
      "SAR": 0.01511652352299,
      "SamplesPerPixel": 1,
      "ScanOptions": "FS",
      "ScanningSequence": "EP",
      "SequenceName": "*epfid2d1_80",
      "SequenceVariant": "SK",
      "SeriesDescription": "func-bold_fa-10",
      "SeriesNumber": 8,
      "SeriesTime": "094803.615000",
      "SliceLocation": -63.026678180832,
      "SliceThickness": 3.5,
      "SmallestImagePixelValue": 0,
      "SoftwareVersions": "syngo MR E11",
      "SpacingBetweenSlices": 3.9899999753669,
      "SpecificCharacterSet": "ISO_IR 100",
      "StudyID": "22",
      "StudyTime": "092009.191000",
      "TransmitCoilName": "Body",
      "VariableFlipAngleFlag": "N",
      "WindowCenterWidthExplanation": "Algo1"
    },
    "slices": {}
  },
  "time": {
    "samples": {
      "AcquisitionNumber": [1, 2, 3, 4, 5, 6, 7, 8, 9, 10, 11, 12, 13, 14, 15, 16, 17, 18, 19, 20, 21, 22, 23, 24, 25, 26, 27, 28, 29, 30, 31, 32, 33, 34, 35, 36, 37, 38, 39, 40, 41, 42, 43, 44, 45, 46, 47, 48, 49, 50, 51, 52, 53, 54, 55, 56, 57, 58, 59, 60, 61, 62, 63, 64, 65, 66, 67, 68, 69, 70, 71, 72, 73, 74, 75, 76, 77, 78, 79, 80, 81, 82, 83, 84, 85, 86, 87, 88, 89, 90, 91, 92, 93, 94, 95, 96, 97, 98, 99, 100, 101, 102, 103, 104, 105, 106, 107, 108, 109, 110, 111, 112, 113, 114, 115, 116, 117, 118, 119, 120, 121, 122, 123, 124, 125, 126, 127, 128, 129, 130, 131, 132, 133, 134, 135, 136, 137, 138, 139, 140, 141, 142, 143, 144, 145, 146, 147, 148, 149, 150, 151, 152, 153, 154, 155, 156, 157, 158, 159, 160, 161, 162, 163, 164, 165, 166, 167, 168, 169, 170, 171, 172, 173, 174, 175, 176, 177, 178, 179, 180, 181, 182, 183, 184, 185, 186, 187, 188, 189, 190, 191, 192, 193, 194, 195, 196, 197, 198, 199, 200],
      "AcquisitionTime": ["094705.495000", "094707.495000", "094709.495000", "094711.495000", "094713.495000", "094715.495000", "094717.495000", "094719.495000", "094721.495000", "094723.495000", "094725.495000", "094727.495000", "094729.495000", "094731.495000", "094733.495000", "094735.495000", "094737.495000", "094739.495000", "094741.495000", "094743.495000", "094745.495000", "094747.495000", "094749.495000", "094751.495000", "094753.495000", "094755.495000", "094757.495000", "094759.495000", "094801.495000", "094803.495000", "094805.495000", "094807.495000", "094809.495000", "094811.495000", "094813.495000", "094815.495000", "094817.495000", "094819.495000", "094821.495000", "094823.495000", "094825.495000", "094827.495000", "094829.495000", "094831.495000", "094833.495000", "094835.495000", "094837.495000", "094839.495000", "094841.495000", "094843.495000", "094845.495000", "094847.495000", "094849.495000", "094851.495000", "094853.495000", "094855.495000", "094857.495000", "094859.495000", "094901.495000", "094903.495000", "094905.495000", "094907.495000", "094909.495000", "094911.495000", "094913.495000", "094915.495000", "094917.495000", "094919.495000", "094921.495000", "094923.495000", "094925.495000", "094927.495000", "094929.495000", "094931.495000", "094933.495000", "094935.495000", "094937.495000", "094939.495000", "094941.495000", "094943.495000", "094945.495000", "094947.495000", "094949.495000", "094951.495000", "094953.495000", "094955.495000", "094957.495000", "094959.495000", "095001.495000", "095003.495000", "095005.495000", "095007.495000", "095009.495000", "095011.495000", "095013.495000", "095015.495000", "095017.495000", "095019.495000", "095021.495000", "095023.495000", "095025.495000", "095027.495000", "095029.495000", "095031.495000", "095033.495000", "095035.495000", "095037.495000", "095039.495000", "095041.495000", "095043.495000", "095045.495000", "095047.495000", "095049.495000", "095051.495000", "095053.495000", "095055.495000", "095057.495000", "095059.495000", "095101.495000", "095103.495000", "095105.495000", "095107.495000", "095109.495000", "095111.495000", "095113.495000", "095115.495000", "095117.495000", "095119.495000", "095121.495000", "095123.495000", "095125.495000", "095127.495000", "095129.495000", "095131.495000", "095133.495000", "095135.495000", "095137.495000", "095139.495000", "095141.495000", "095143.495000", "095145.495000", "095147.495000", "095149.495000", "095151.495000", "095153.495000", "095155.495000", "095157.495000", "095159.495000", "095201.495000", "095203.495000", "095205.495000", "095207.495000", "095209.495000", "095211.495000", "095213.495000", "095215.495000", "095217.495000", "095219.495000", "095221.495000", "095223.495000", "095225.495000", "095227.495000", "095229.495000", "095231.495000", "095233.495000", "095235.495000", "095237.495000", "095239.495000", "095241.495000", "095243.495000", "095245.495000", "095247.495000", "095249.495000", "095251.495000", "095253.495000", "095255.495000", "095257.495000", "095259.495000", "095301.495000", "095303.495000", "095305.495000", "095307.495000", "095309.495000", "095311.495000", "095313.495000", "095315.495000", "095317.495000", "095319.495000", "095321.495000", "095323.495000", "095325.495000", "095327.495000", "095329.495000", "095331.495000", "095333.495000", "095335.495000", "095337.495000", "095339.495000", "095341.495000", "095343.495000"],
      "ContentTime": ["094803.618000", "094803.621000", "094803.623000", "094803.626000", "094803.628000", "094803.630000", "094803.632000", "094803.635000", "094803.643000", "094803.645000", "094803.657000", "094803.659000", "094803.661000", "094803.664000", "094803.666000", "094803.669000", "094803.671000", "094803.673000", "094803.676000", "094803.678000", "094803.680000", "094803.683000", "094803.685000", "094803.687000", "094803.690000", "094803.692000", "094803.694000", "094803.696000", "094803.699000", "094843.612000", "094843.615000", "094843.617000", "094843.619000", "094843.621000", "094843.624000", "094843.644000", "094843.647000", "094843.649000", "094843.651000", "094843.653000", "094843.656000", "094843.658000", "094843.660000", "094843.666000", "094843.668000", "094843.671000", "094843.673000", "094843.676000", "094843.678000", "094923.612000", "094923.615000", "094923.617000", "094923.620000", "094923.622000", "094923.624000", "094923.627000", "094923.629000", "094923.631000", "094923.633000", "094923.636000", "094923.638000", "094923.640000", "094923.642000", "094923.645000", "094923.647000", "094923.649000", "094923.652000", "094923.654000", "094923.656000", "095003.613000", "095003.616000", "095003.618000", "095003.620000", "095003.623000", "095003.625000", "095003.627000", "095003.630000", "095003.632000", "095003.634000", "095003.636000", "095003.639000", "095003.641000", "095003.643000", "095003.645000", "095003.648000", "095003.650000", "095003.652000", "095003.662000", "095003.665000", "095043.612000", "095043.615000", "095043.617000", "095043.619000", "095043.622000", "095043.624000", "095043.626000", "095043.629000", "095043.631000", "095043.633000", "095043.635000", "095043.638000", "095043.640000", "095043.642000", "095043.644000", "095043.647000", "095043.649000", "095043.651000", "095043.654000", "095043.656000", "095123.612000", "095123.615000", "095123.617000", "095123.620000", "095123.622000", "095123.624000", "095123.627000", "095123.629000", "095123.631000", "095123.634000", "095123.636000", "095123.638000", "095123.641000", "095123.643000", "095123.645000", "095123.647000", "095123.650000", "095123.652000", "095123.655000", "095123.657000", "095203.614000", "095203.616000", "095203.618000", "095203.621000", "095203.623000", "095203.625000", "095203.628000", "095203.630000", "095203.632000", "095203.635000", "095203.637000", "095203.639000", "095203.641000", "095203.644000", "095203.646000", "095203.648000", "095203.650000", "095203.653000", "095203.655000", "095203.657000", "095243.613000", "095243.616000", "095243.618000", "095243.620000", "095243.623000", "095243.625000", "095243.627000", "095243.630000", "095243.632000", "095243.634000", "095243.637000", "095243.639000", "095243.641000", "095243.643000", "095243.646000", "095243.648000", "095243.650000", "095243.653000", "095243.655000", "095243.657000", "095323.612000", "095323.615000", "095323.617000", "095323.620000", "095323.622000", "095323.624000", "095323.627000", "095323.629000", "095323.631000", "095323.634000", "095323.636000", "095323.638000", "095323.641000", "095323.643000", "095323.645000", "095323.647000", "095323.650000", "095323.652000", "095323.654000", "095323.656000", "095345.087000", "095345.090000", "095345.092000", "095345.094000", "095345.097000", "095345.099000", "095345.102000", "095345.104000", "095345.106000", "095345.109000", "095345.111000"],
      "InstanceCreationTime": ["094803.618000", "094803.621000", "094803.623000", "094803.626000", "094803.628000", "094803.630000", "094803.632000", "094803.635000", "094803.643000", "094803.645000", "094803.657000", "094803.659000", "094803.661000", "094803.664000", "094803.666000", "094803.669000", "094803.671000", "094803.673000", "094803.676000", "094803.678000", "094803.680000", "094803.683000", "094803.685000", "094803.687000", "094803.690000", "094803.692000", "094803.694000", "094803.696000", "094803.699000", "094843.612000", "094843.615000", "094843.617000", "094843.619000", "094843.621000", "094843.624000", "094843.644000", "094843.647000", "094843.649000", "094843.651000", "094843.653000", "094843.656000", "094843.658000", "094843.660000", "094843.666000", "094843.668000", "094843.671000", "094843.673000", "094843.676000", "094843.678000", "094923.612000", "094923.615000", "094923.617000", "094923.620000", "094923.622000", "094923.624000", "094923.627000", "094923.629000", "094923.631000", "094923.633000", "094923.636000", "094923.638000", "094923.640000", "094923.642000", "094923.645000", "094923.647000", "094923.649000", "094923.652000", "094923.654000", "094923.656000", "095003.613000", "095003.616000", "095003.618000", "095003.620000", "095003.623000", "095003.625000", "095003.627000", "095003.630000", "095003.632000", "095003.634000", "095003.636000", "095003.639000", "095003.641000", "095003.643000", "095003.645000", "095003.648000", "095003.650000", "095003.652000", "095003.662000", "095003.665000", "095043.612000", "095043.615000", "095043.617000", "095043.619000", "095043.622000", "095043.624000", "095043.626000", "095043.629000", "095043.631000", "095043.633000", "095043.635000", "095043.638000", "095043.640000", "095043.642000", "095043.644000", "095043.647000", "095043.649000", "095043.651000", "095043.654000", "095043.656000", "095123.612000", "095123.615000", "095123.617000", "095123.620000", "095123.622000", "095123.624000", "095123.627000", "095123.629000", "095123.631000", "095123.634000", "095123.636000", "095123.638000", "095123.641000", "095123.643000", "095123.645000", "095123.647000", "095123.650000", "095123.652000", "095123.655000", "095123.657000", "095203.614000", "095203.616000", "095203.618000", "095203.621000", "095203.623000", "095203.625000", "095203.628000", "095203.630000", "095203.632000", "095203.635000", "095203.637000", "095203.639000", "095203.641000", "095203.644000", "095203.646000", "095203.648000", "095203.650000", "095203.653000", "095203.655000", "095203.657000", "095243.613000", "095243.616000", "095243.618000", "095243.620000", "095243.623000", "095243.625000", "095243.627000", "095243.630000", "095243.632000", "095243.634000", "095243.637000", "095243.639000", "095243.641000", "095243.643000", "095243.646000", "095243.648000", "095243.650000", "095243.653000", "095243.655000", "095243.657000", "095323.612000", "095323.615000", "095323.617000", "095323.620000", "095323.622000", "095323.624000", "095323.627000", "095323.629000", "095323.631000", "095323.634000", "095323.636000", "095323.638000", "095323.641000", "095323.643000", "095323.645000", "095323.647000", "095323.650000", "095323.652000", "095323.654000", "095323.656000", "095345.087000", "095345.090000", "095345.092000", "095345.094000", "095345.097000", "095345.099000", "095345.102000", "095345.104000", "095345.106000", "095345.109000", "095345.111000"],
      "InstanceNumber": [1, 2, 3, 4, 5, 6, 7, 8, 9, 10, 11, 12, 13, 14, 15, 16, 17, 18, 19, 20, 21, 22, 23, 24, 25, 26, 27, 28, 29, 30, 31, 32, 33, 34, 35, 36, 37, 38, 39, 40, 41, 42, 43, 44, 45, 46, 47, 48, 49, 50, 51, 52, 53, 54, 55, 56, 57, 58, 59, 60, 61, 62, 63, 64, 65, 66, 67, 68, 69, 70, 71, 72, 73, 74, 75, 76, 77, 78, 79, 80, 81, 82, 83, 84, 85, 86, 87, 88, 89, 90, 91, 92, 93, 94, 95, 96, 97, 98, 99, 100, 101, 102, 103, 104, 105, 106, 107, 108, 109, 110, 111, 112, 113, 114, 115, 116, 117, 118, 119, 120, 121, 122, 123, 124, 125, 126, 127, 128, 129, 130, 131, 132, 133, 134, 135, 136, 137, 138, 139, 140, 141, 142, 143, 144, 145, 146, 147, 148, 149, 150, 151, 152, 153, 154, 155, 156, 157, 158, 159, 160, 161, 162, 163, 164, 165, 166, 167, 168, 169, 170, 171, 172, 173, 174, 175, 176, 177, 178, 179, 180, 181, 182, 183, 184, 185, 186, 187, 188, 189, 190, 191, 192, 193, 194, 195, 196, 197, 198, 199, 200],
      "LargestImagePixelValue": [359, 357, 357, 359, 359, 358, 358, 359, 358, 360, 358, 358, 357, 358, 358, 359, 357, 357, 357, 358, 357, 357, 359, 357, 359, 358, 358, 359, 357, 358, 358, 358, 358, 358, 358, 357, 357, 357, 358, 359, 357, 357, 358, 359, 357, 357, 357, 358, 358, 358, 358, 357, 357, 358, 357, 358, 357, 358, 358, 358, 359, 358, 359, 357, 358, 358, 358, 358, 357, 358, 358, 359, 357, 358, 359, 359, 359, 358, 357, 360, 357, 357, 359, 357, 357, 358, 358, 357, 357, 359, 357, 357, 358, 357, 359, 358, 357, 358, 358, 357, 358, 358, 357, 359, 359, 358, 358, 358, 357, 358, 358, 359, 356, 357, 357, 358, 357, 357, 358, 358, 359, 359, 359, 357, 357, 358, 358, 358, 359, 358, 357, 358, 358, 357, 359, 357, 358, 356, 357, 357, 358, 358, 358, 358, 358, 356, 359, 357, 358, 358, 358, 358, 358, 358, 357, 359, 357, 359, 359, 357, 357, 357, 357, 357, 358, 357, 358, 358, 358, 357, 358, 358, 358, 357, 358, 360, 355, 358, 358, 357, 359, 357, 357, 358, 357, 359, 358, 356, 356, 357, 359, 357, 356, 358, 357, 358, 359, 357, 357, 359],
      "WindowCenter": [293.0, 293.0, 293.0, 293.0, 293.0, 294.0, 293.0, 293.0, 293.0, 293.0, 293.0, 293.0, 294.0, 293.0, 293.0, 293.0, 293.0, 293.0, 292.0, 293.0, 293.0, 293.0, 293.0, 293.0, 293.0, 293.0, 293.0, 293.0, 293.0, 293.0, 293.0, 293.0, 293.0, 293.0, 293.0, 293.0, 293.0, 293.0, 293.0, 293.0, 293.0, 293.0, 293.0, 293.0, 293.0, 293.0, 292.0, 293.0, 293.0, 293.0, 293.0, 293.0, 293.0, 293.0, 293.0, 293.0, 293.0, 293.0, 293.0, 293.0, 292.0, 293.0, 293.0, 293.0, 293.0, 293.0, 293.0, 293.0, 293.0, 293.0, 293.0, 293.0, 293.0, 293.0, 293.0, 293.0, 293.0, 292.0, 293.0, 293.0, 293.0, 293.0, 293.0, 293.0, 293.0, 293.0, 293.0, 293.0, 293.0, 293.0, 293.0, 293.0, 293.0, 293.0, 293.0, 293.0, 293.0, 293.0, 293.0, 293.0, 293.0, 293.0, 293.0, 293.0, 293.0, 293.0, 293.0, 293.0, 293.0, 293.0, 293.0, 293.0, 293.0, 292.0, 293.0, 293.0, 293.0, 292.0, 293.0, 293.0, 293.0, 293.0, 293.0, 292.0, 293.0, 293.0, 293.0, 293.0, 293.0, 292.0, 292.0, 293.0, 293.0, 292.0, 293.0, 293.0, 293.0, 293.0, 293.0, 293.0, 293.0, 292.0, 293.0, 293.0, 293.0, 293.0, 293.0, 293.0, 292.0, 293.0, 293.0, 293.0, 293.0, 292.0, 293.0, 293.0, 293.0, 292.0, 293.0, 293.0, 293.0, 293.0, 293.0, 293.0, 293.0, 293.0, 293.0, 292.0, 293.0, 293.0, 293.0, 292.0, 292.0, 293.0, 292.0, 292.0, 293.0, 293.0, 293.0, 292.0, 293.0, 292.0, 293.0, 293.0, 292.0, 293.0, 293.0, 293.0, 292.0, 293.0, 292.0, 293.0, 293.0, 292.0, 292.0, 293.0, 292.0, 292.0, 293.0, 293.0],
      "WindowWidth": [637.0, 637.0, 637.0, 637.0, 637.0, 639.0, 637.0, 637.0, 637.0, 637.0, 637.0, 637.0, 638.0, 638.0, 637.0, 638.0, 637.0, 637.0, 637.0, 637.0, 638.0, 637.0, 637.0, 637.0, 637.0, 637.0, 637.0, 637.0, 637.0, 637.0, 637.0, 637.0, 638.0, 637.0, 637.0, 637.0, 637.0, 637.0, 637.0, 637.0, 637.0, 637.0, 637.0, 637.0, 637.0, 637.0, 637.0, 637.0, 637.0, 637.0, 637.0, 637.0, 637.0, 637.0, 637.0, 637.0, 637.0, 637.0, 637.0, 637.0, 637.0, 637.0, 637.0, 637.0, 637.0, 637.0, 637.0, 637.0, 637.0, 637.0, 637.0, 637.0, 637.0, 637.0, 637.0, 637.0, 637.0, 637.0, 637.0, 637.0, 637.0, 637.0, 637.0, 637.0, 637.0, 637.0, 637.0, 637.0, 637.0, 637.0, 637.0, 637.0, 637.0, 637.0, 637.0, 637.0, 637.0, 637.0, 637.0, 637.0, 637.0, 637.0, 637.0, 637.0, 637.0, 637.0, 637.0, 637.0, 637.0, 637.0, 637.0, 637.0, 637.0, 637.0, 637.0, 637.0, 637.0, 636.0, 637.0, 637.0, 637.0, 637.0, 637.0, 636.0, 637.0, 637.0, 637.0, 637.0, 637.0, 636.0, 636.0, 637.0, 637.0, 636.0, 637.0, 637.0, 637.0, 637.0, 637.0, 637.0, 637.0, 636.0, 637.0, 637.0, 637.0, 637.0, 637.0, 637.0, 636.0, 637.0, 637.0, 637.0, 637.0, 636.0, 637.0, 637.0, 637.0, 636.0, 637.0, 637.0, 636.0, 637.0, 637.0, 636.0, 637.0, 637.0, 636.0, 636.0, 637.0, 636.0, 637.0, 636.0, 636.0, 637.0, 636.0, 636.0, 636.0, 637.0, 636.0, 636.0, 636.0, 636.0, 636.0, 636.0, 636.0, 637.0, 636.0, 637.0, 636.0, 636.0, 636.0, 636.0, 636.0, 636.0, 636.0, 637.0, 636.0, 636.0, 636.0, 636.0]
    },
    "slices": {}
  }
}