{
  "AcquisitionMatrixPE": 80,
  "AcquisitionNumber": 1,
  "AcquisitionTime": "09:33:30.077500",
  "BandwidthPerPixelPhaseEncode": 46.296,
  "BaseResolution": 80,
  "BodyPartExamined": "BRAIN",
  "CoilCombinationMethod": "Sum of Squares",
  "ConsistencyInfo": "N4_VE11E_LATEST_20181129",
  "ConversionSoftware": "dcm2niix",
  "ConversionSoftwareVersion": "v1.0.20220720",
  "DerivedVendorReportedEchoSpacing": 0.000540003,
  "DeviceSerialNumber": "66112",
  "DwellTime": 2.7e-06,
  "EchoTime": 0.035,
  "EchoTrainLength": 39,
  "EffectiveEchoSpacing": 0.000270002,
  "FlipAngle": 90,
  "HeudiconvVersion": "0.13.1",
  "ImageOrientationPatientDICOM": [0.990869, 0.134645, 0.0070247, -0.130274, 0.942674, 0.307238],
  "ImageOrientationText": "Tra>Cor(17.8)>Sag(-2.0)",
  "ImageType": [
    "ORIGINAL",
    "PRIMARY",
    "M",
    "ND",
    "NORM",
    "MOSAIC"
],
  "ImagingFrequency": 123.259,
  "InPlanePhaseEncodingDirectionDICOM": "COL",
  "InstitutionAddress": "Maynard 3,Hanover,NH,US,03755",
  "InstitutionName": "Dartmouth College - PBS",
  "InstitutionalDepartmentName": "Department",
  "MRAcquisitionType": "2D",
  "MagneticFieldStrength": 3,
  "Manufacturer": "Siemens",
  "ManufacturersModelName": "Prisma",
  "Modality": "MR",
  "MultibandAccelerationFactor": 4,
  "NonlinearGradientCorrection": false,
  "ParallelReductionFactorInPlane": 2,
  "PartialFourier": 1,
  "PatientPosition": "HFS",
  "PercentPhaseFOV": 100,
  "PercentSampling": 100,
  "PhaseEncodingDirection": "j-",
  "PhaseEncodingSteps": 79,
  "PhaseResolution": 1,
  "PixelBandwidth": 2315,
  "ProcedureStepDescription": "dbic^QA",
  "ProtocolName": "func-bold_task-rest_acq-p2-s4-3.5mm",
  "PulseSequenceDetails": "%SiemensSeq%\\ep2d_bold",
  "ReceiveCoilActiveElements": "HEA;HEP",
  "ReceiveCoilName": "Head_32",
  "ReconMatrixPE": 80,
  "RefLinesPE": 24,
  "RepetitionTime": 2,
  "SAR": 0.0269664,
  "ScanOptions": "FS",
  "ScanningSequence": "EP",
  "SequenceName": "*epfid2d1_80",
  "SequenceVariant": "SK",
  "SeriesDescription": "func-bold_task-rest_acq-p2-s4-3.5mm",
  "SeriesNumber": 6,
  "ShimSetting": [4224, -7743, -7484, -34, -141, -52, 1, 96],
  "SliceThickness": 3.5,
  "SliceTiming": [1.485, 0, 0.99, 0.2475, 1.2375, 0.7425, 1.7325, 0.495, 1.485, 0, 0.99, 0.2475, 1.2375, 0.7425, 1.7325, 0.495, 1.485, 0, 0.99, 0.2475, 1.2375, 0.7425, 1.7325, 0.495, 1.485, 0, 0.99, 0.2475, 1.2375, 0.7425, 1.7325, 0.495],
  "SoftwareVersions": "syngo MR E11",
  "SpacingBetweenSlices": 3.99,
  "StationName": "AWP66112",
  "TaskName": "rest",
  "TotalReadoutTime": 0.0213301,
  "TxRefAmp": 223.071,
  "dcmmeta_affine": [
    [-2.972606897354126, -0.3908233344554901, -0.13863731920719147, 136.84585571289062],
    [-0.4039361774921417, 2.8280205726623535, 1.2183377742767334, -111.96615600585938],
    [0.021074093878269196, -0.9217142462730408, 3.7969110012054443, -30.17523765563965],
    [0.0, 0.0, 0.0, 1.0]
],
  "dcmmeta_reorient_transform": [
    [0.0, -1.0, 0.0, 79.0],
    [1.0, 0.0, 0.0, 0.0],
    [0.0, 0.0, 1.0, 0.0],
    [0.0, 0.0, 0.0, 1.0]
],
  "dcmmeta_shape": [80, 80, 32, 200],
  "dcmmeta_slice_dim": 2,
  "dcmmeta_version": 0.6,
  "global": {
    "const": {
      "AccessionNumber": "qa",
      "AcquisitionMatrix": [80, 0, 0, 80],
      "AngioFlag": "N",
      "BitsAllocated": 16,
      "BitsStored": 12,
      "BodyPartExamined": "BRAIN",
      "Columns": 480,
      "EchoNumbers": 1,
      "EchoTime": 35.0,
      "EchoTrainLength": 39,
      "FlipAngle": 90.0,
      "HighBit": 11,
      "ImageOrientationPatient": [0.99086894751083, 0.13464539530962, 0.00702469790826, -0.1302744438121, 0.94267350203275, 0.30723808008575],
      "ImagePositionPatient": [-622.32751294472, -757.83880126168, -291.54832918401],
      "ImageType": [
        "ORIGINAL",
        "PRIMARY",
        "M",
        "ND",
        "NORM",
        "MOSAIC"
],
      "ImagedNucleus": "1H",
      "ImagingFrequency": 123.25924,
      "InPlanePhaseEncodingDirection": "COL",
      "MRAcquisitionType": "2D",
      "MagneticFieldStrength": 3.0,
      "Manufacturer": "SIEMENS",
      "ManufacturerModelName": "Prisma",
      "Modality": "MR",
      "NumberOfAverages": 1.0,
      "NumberOfPhaseEncodingSteps": 79,
      "PercentPhaseFieldOfView": 100.0,
      "PercentSampling": 100.0,
      "PerformedProcedureStepStartTime": "092009.269000",
      "PhotometricInterpretation": "MONOCHROME2",
      "PixelBandwidth": 2315.0,
      "PixelRepresentation": 0,
      "PixelSpacing": [3.0, 3.0],
      "ProtocolName": "func-bold_task-rest_acq-p2-s4-3.5mm",
      "RepetitionTime": 2000.0,
      "Rows": 480,
      "SAR": 0.02696643139243,
      "SamplesPerPixel": 1,
      "ScanOptions": "FS",
      "ScanningSequence": "EP",
      "SequenceName": "*epfid2d1_80",
      "SequenceVariant": "SK",
      "SeriesDescription": "func-bold_task-rest_acq-p2-s4-3.5mm",
      "SeriesNumber": 6,
      "SeriesTime": "093423.727000",
      "SliceLocation": -67.658453687651,
      "SliceThickness": 3.5,
      "SmallestImagePixelValue": 0,
      "SoftwareVersions": "syngo MR E11",
      "SpacingBetweenSlices": 3.9900000975855,
      "SpecificCharacterSet": "ISO_IR 100",
      "StudyID": "22",
      "StudyTime": "092009.191000",
      "TransmitCoilName": "Body",
      "VariableFlipAngleFlag": "N",
      "WindowCenterWidthExplanation": "Algo1"
    },
    "slices": {}
  },
  "time": {
    "samples": {
      "AcquisitionNumber": [1, 2, 3, 4, 5, 6, 7, 8, 9, 10, 11, 12, 13, 14, 15, 16, 17, 18, 19, 20, 21, 22, 23, 24, 25, 26, 27, 28, 29, 30, 31, 32, 33, 34, 35, 36, 37, 38, 39, 40, 41, 42, 43, 44, 45, 46, 47, 48, 49, 50, 51, 52, 53, 54, 55, 56, 57, 58, 59, 60, 61, 62, 63, 64, 65, 66, 67, 68, 69, 70, 71, 72, 73, 74, 75, 76, 77, 78, 79, 80, 81, 82, 83, 84, 85, 86, 87, 88, 89, 90, 91, 92, 93, 94, 95, 96, 97, 98, 99, 100, 101, 102, 103, 104, 105, 106, 107, 108, 109, 110, 111, 112, 113, 114, 115, 116, 117, 118, 119, 120, 121, 122, 123, 124, 125, 126, 127, 128, 129, 130, 131, 132, 133, 134, 135, 136, 137, 138, 139, 140, 141, 142, 143, 144, 145, 146, 147, 148, 149, 150, 151, 152, 153, 154, 155, 156, 157, 158, 159, 160, 161, 162, 163, 164, 165, 166, 167, 168, 169, 170, 171, 172, 173, 174, 175, 176, 177, 178, 179, 180, 181, 182, 183, 184, 185, 186, 187, 188, 189, 190, 191, 192, 193, 194, 195, 196, 197, 198, 199, 200],
      "AcquisitionTime": ["093330.077500", "093332.077500", "093334.077500", "093336.077500", "093338.077500", "093340.077500", "093342.077500", "093344.077500", "093346.077500", "093348.077500", "093350.077500", "093352.077500", "093354.077500", "093356.077500", "093358.077500", "093400.077500", "093402.077500", "093404.077500", "093406.077500", "093408.077500", "093410.077500", "093412.077500", "093414.077500", "093416.077500", "093418.077500", "093420.077500", "093422.077500", "093424.077500", "093426.077500", "093428.077500", "093430.077500", "093432.077500", "093434.077500", "093436.077500", "093438.077500", "093440.077500", "093442.077500", "093444.077500", "093446.077500", "093448.077500", "093450.077500", "093452.077500", "093454.077500", "093456.077500", "093458.077500", "093500.077500", "093502.077500", "093504.077500", "093506.077500", "093508.077500", "093510.077500", "093512.077500", "093514.077500", "093516.077500", "093518.077500", "093520.077500", "093522.077500", "093524.077500", "093526.077500", "093528.077500", "093530.077500", "093532.077500", "093534.077500", "093536.077500", "093538.077500", "093540.077500", "093542.077500", "093544.077500", "093546.077500", "093548.077500", "093550.077500", "093552.077500", "093554.077500", "093556.077500", "093558.077500", "093600.077500", "093602.077500", "093604.077500", "093606.077500", "093608.077500", "093610.077500", "093612.077500", "093614.077500", "093616.077500", "093618.077500", "093620.077500", "093622.077500", "093624.077500", "093626.077500", "093628.077500", "093630.077500", "093632.077500", "093634.077500", "093636.077500", "093638.077500", "093640.077500", "093642.077500", "093644.077500", "093646.077500", "093648.077500", "093650.077500", "093652.077500", "093654.077500", "093656.077500", "093658.077500", "093700.077500", "093702.077500", "093704.077500", "093706.077500", "093708.077500", "093710.077500", "093712.077500", "093714.077500", "093716.077500", "093718.077500", "093720.077500", "093722.077500", "093724.077500", "093726.077500", "093728.077500", "093730.077500", "093732.077500", "093734.077500", "093736.077500", "093738.077500", "093740.077500", "093742.077500", "093744.077500", "093746.077500", "093748.077500", "093750.077500", "093752.077500", "093754.077500", "093756.077500", "093758.077500", "093800.077500", "093802.077500", "093804.077500", "093806.077500", "093808.077500", "093810.077500", "093812.077500", "093814.077500", "093816.077500", "093818.077500", "093820.077500", "093822.077500", "093824.077500", "093826.077500", "093828.077500", "093830.077500", "093832.077500", "093834.077500", "093836.077500", "093838.077500", "093840.077500", "093842.077500", "093844.077500", "093846.077500", "093848.077500", "093850.077500", "093852.077500", "093854.077500", "093856.077500", "093858.077500", "093900.077500", "093902.077500", "093904.077500", "093906.077500", "093908.077500", "093910.077500", "093912.077500", "093914.077500", "093916.077500", "093918.077500", "093920.077500", "093922.077500", "093924.077500", "093926.077500", "093928.077500", "093930.077500", "093932.077500", "093934.077500", "093936.077500", "093938.077500", "093940.077500", "093942.077500", "093944.077500", "093946.077500", "093948.077500", "093950.077500", "093952.077500", "093954.077500", "093956.077500", "093958.077500", "094000.077500", "094002.077500", "094004.077500", "094006.077500", "094008.077500"],
      "ContentTime": ["093423.730000", "093423.733000", "093423.746000", "093423.748000", "093423.753000", "093423.755000", "093423.757000", "093423.760000", "093423.762000", "093423.769000", "093423.771000", "093423.774000", "093423.776000", "093423.778000", "093423.781000", "093423.783000", "093423.785000", "093423.788000", "093423.790000", "093423.793000", "093423.795000", "093423.797000", "093423.800000", "093423.802000", "093423.804000", "093423.807000", "093423.809000", "093503.725000", "093503.728000", "093503.730000", "093503.732000", "093503.739000", "093503.741000", "093503.744000", "093503.746000", "093503.748000", "093503.751000", "093503.753000", "093503.755000", "093503.758000", "093503.760000", "093503.762000", "093503.765000", "093503.767000", "093503.769000", "093503.772000", "093503.774000", "093543.725000", "093543.728000", "093543.730000", "093543.732000", "093543.735000", "093543.737000", "093543.739000", "093543.742000", "093543.744000", "093543.746000", "093543.749000", "093543.751000", "093543.753000", "093543.756000", "093543.758000", "093543.760000", "093543.763000", "093543.765000", "093543.767000", "093543.770000", "093623.726000", "093623.729000", "093623.731000", "093623.733000", "093623.736000", "093623.738000", "093623.740000", "093623.743000", "093623.745000", "093623.748000", "093623.750000", "093623.752000", "093623.754000", "093623.757000", "093623.759000", "093623.761000", "093623.764000", "093623.766000", "093623.769000", "093623.771000", "093703.725000", "093703.728000", "093703.730000", "093703.732000", "093703.735000", "093703.737000", "093703.739000", "093703.741000", "093703.744000", "093703.746000", "093703.748000", "093703.751000", "093703.753000", "093703.755000", "093703.758000", "093703.760000", "093703.762000", "093703.765000", "093703.767000", "093703.769000", "093743.725000", "093743.728000", "093743.730000", "093743.732000", "093743.735000", "093743.737000", "093743.739000", "093743.742000", "093743.744000", "093743.746000", "093743.748000", "093743.751000", "093743.753000", "093743.755000", "093743.758000", "093743.760000", "093743.762000", "093743.765000", "093743.767000", "093743.769000", "093823.726000", "093823.729000", "093823.731000", "093823.733000", "093823.736000", "093823.738000", "093823.740000", "093823.743000", "093823.745000", "093823.747000", "093823.750000", "093823.752000", "093823.754000", "093823.757000", "093823.759000", "093823.761000", "093823.763000", "093823.766000", "093823.768000", "093823.771000", "093903.725000", "093903.728000", "093903.730000", "093903.733000", "093903.735000", "093903.737000", "093903.739000", "093903.742000", "093903.744000", "093903.746000", "093903.749000", "093903.751000", "093903.754000", "093903.756000", "093903.758000", "093903.761000", "093903.763000", "093903.765000", "093903.768000", "093903.770000", "093943.725000", "093943.728000", "093943.730000", "093943.732000", "093943.735000", "093943.737000", "093943.739000", "093943.742000", "093943.744000", "093943.746000", "093943.749000", "093943.751000", "093943.754000", "093943.756000", "093943.758000", "093943.761000", "093943.763000", "093943.765000", "093943.768000", "093943.770000", "094008.723000", "094008.726000", "094008.728000", "094008.731000", "094008.733000", "094008.736000", "094008.738000", "094008.740000", "094008.743000", "094008.745000", "094008.748000", "094008.750000", "094008.752000"],
      "InstanceCreationTime": ["093423.730000", "093423.733000", "093423.746000", "093423.748000", "093423.753000", "093423.755000", "093423.757000", "093423.760000", "093423.762000", "093423.769000", "093423.771000", "093423.774000", "093423.776000", "093423.778000", "093423.781000", "093423.783000", "093423.785000", "093423.788000", "093423.790000", "093423.793000", "093423.795000", "093423.797000", "093423.800000", "093423.802000", "093423.804000", "093423.807000", "093423.809000", "093503.725000", "093503.728000", "093503.730000", "093503.732000", "093503.739000", "093503.741000", "093503.744000", "093503.746000", "093503.748000", "093503.751000", "093503.753000", "093503.755000", "093503.758000", "093503.760000", "093503.762000", "093503.765000", "093503.767000", "093503.769000", "093503.772000", "093503.774000", "093543.725000", "093543.728000", "093543.730000", "093543.732000", "093543.735000", "093543.737000", "093543.739000", "093543.742000", "093543.744000", "093543.746000", "093543.749000", "093543.751000", "093543.753000", "093543.756000", "093543.758000", "093543.760000", "093543.763000", "093543.765000", "093543.767000", "093543.770000", "093623.726000", "093623.729000", "093623.731000", "093623.733000", "093623.736000", "093623.738000", "093623.740000", "093623.743000", "093623.745000", "093623.748000", "093623.750000", "093623.752000", "093623.754000", "093623.757000", "093623.759000", "093623.761000", "093623.764000", "093623.766000", "093623.769000", "093623.771000", "093703.725000", "093703.728000", "093703.730000", "093703.732000", "093703.735000", "093703.737000", "093703.739000", "093703.741000", "093703.744000", "093703.746000", "093703.748000", "093703.751000", "093703.753000", "093703.755000", "093703.758000", "093703.760000", "093703.762000", "093703.765000", "093703.767000", "093703.769000", "093743.725000", "093743.728000", "093743.730000", "093743.732000", "093743.735000", "093743.737000", "093743.739000", "093743.742000", "093743.744000", "093743.746000", "093743.748000", "093743.751000", "093743.753000", "093743.755000", "093743.758000", "093743.760000", "093743.762000", "093743.765000", "093743.767000", "093743.769000", "093823.726000", "093823.729000", "093823.731000", "093823.733000", "093823.736000", "093823.738000", "093823.740000", "093823.743000", "093823.745000", "093823.747000", "093823.750000", "093823.752000", "093823.754000", "093823.757000", "093823.759000", "093823.761000", "093823.763000", "093823.766000", "093823.768000", "093823.771000", "093903.725000", "093903.728000", "093903.730000", "093903.733000", "093903.735000", "093903.737000", "093903.739000", "093903.742000", "093903.744000", "093903.746000", "093903.749000", "093903.751000", "093903.754000", "093903.756000", "093903.758000", "093903.761000", "093903.763000", "093903.765000", "093903.768000", "093903.770000", "093943.725000", "093943.728000", "093943.730000", "093943.732000", "093943.735000", "093943.737000", "093943.739000", "093943.742000", "093943.744000", "093943.746000", "093943.749000", "093943.751000", "093943.754000", "093943.756000", "093943.758000", "093943.761000", "093943.763000", "093943.765000", "093943.768000", "093943.770000", "094008.723000", "094008.726000", "094008.728000", "094008.731000", "094008.733000", "094008.736000", "094008.738000", "094008.740000", "094008.743000", "094008.745000", "094008.748000", "094008.750000", "094008.752000"],
      "InstanceNumber": [1, 2, 3, 4, 5, 6, 7, 8, 9, 10, 11, 12, 13, 14, 15, 16, 17, 18, 19, 20, 21, 22, 23, 24, 25, 26, 27, 28, 29, 30, 31, 32, 33, 34, 35, 36, 37, 38, 39, 40, 41, 42, 43, 44, 45, 46, 47, 48, 49, 50, 51, 52, 53, 54, 55, 56, 57, 58, 59, 60, 61, 62, 63, 64, 65, 66, 67, 68, 69, 70, 71, 72, 73, 74, 75, 76, 77, 78, 79, 80, 81, 82, 83, 84, 85, 86, 87, 88, 89, 90, 91, 92, 93, 94, 95, 96, 97, 98, 99, 100, 101, 102, 103, 104, 105, 106, 107, 108, 109, 110, 111, 112, 113, 114, 115, 116, 117, 118, 119, 120, 121, 122, 123, 124, 125, 126, 127, 128, 129, 130, 131, 132, 133, 134, 135, 136, 137, 138, 139, 140, 141, 142, 143, 144, 145, 146, 147, 148, 149, 150, 151, 152, 153, 154, 155, 156, 157, 158, 159, 160, 161, 162, 163, 164, 165, 166, 167, 168, 169, 170, 171, 172, 173, 174, 175, 176, 177, 178, 179, 180, 181, 182, 183, 184, 185, 186, 187, 188, 189, 190, 191, 192, 193, 194, 195, 196, 197, 198, 199, 200],
      "LargestImagePixelValue": [2184, 2183, 2186, 2186, 2188, 2188, 2183, 2183, 2185, 2185, 2184, 2182, 2180, 2183, 2185, 2182, 2186, 2183, 2180, 2182, 2180, 2188, 2182, 2182, 2179, 2188, 2183, 2187, 2189, 2181, 2189, 2182, 2182, 2186, 2188, 2184, 2184, 2187, 2186, 2186, 2182, 2184, 2185, 2186, 2181, 2183, 2189, 2189, 2181, 2186, 2185, 2191, 2183, 2183, 2185, 2185, 2183, 2185, 2186, 2190, 2182, 2181, 2182, 2186, 2182, 2188, 2188, 2184, 2184, 2184, 2183, 2185, 2187, 2185, 2183, 2186, 2184, 2186, 2183, 2184, 2189, 2181, 2185, 2184, 2184, 2183, 2184, 2187, 2183, 2184, 2186, 2183, 2185, 2184, 2188, 2184, 2190, 2184, 2186, 2184, 2186, 2183, 2182, 2182, 2186, 2185, 2187, 2188, 2184, 2185, 2185, 2189, 2184, 2186, 2187, 2186, 2185, 2188, 2185, 2188, 2189, 2187, 2183, 2186, 2185, 2184, 2184, 2184, 2189, 2187, 2184, 2184, 2187, 2187, 2181, 2186, 2184, 2185, 2182, 2184, 2183, 2188, 2185, 2186, 2185, 2184, 2187, 2183, 2186, 2189, 2186, 2185, 2186, 2186, 2184, 2183, 2186, 2186, 2184, 2189, 2184, 2184, 2185, 2185, 2186, 2186, 2185, 2184, 2184, 2185, 2184, 2185, 2185, 2183, 2187, 2187, 2186, 2184, 2187, 2185, 2183, 2186, 2186, 2189, 2186, 2181, 2185, 2188, 2182, 2190, 2184, 2185, 2187, 2188, 2183, 2181, 2184, 2186, 2186, 2185],
      "WindowCenter": [957.0, 956.0, 957.0, 957.0, 957.0, 957.0, 956.0, 956.0, 958.0, 956.0, 957.0, 958.0, 957.0, 955.0, 957.0, 957.0, 957.0, 956.0, 956.0, 956.0, 957.0, 957.0, 958.0, 957.0, 955.0, 957.0, 958.0, 956.0, 957.0, 956.0, 957.0, 958.0, 957.0, 957.0, 957.0, 957.0, 957.0, 958.0, 955.0, 957.0, 957.0, 955.0, 957.0, 958.0, 957.0, 956.0, 957.0, 957.0, 957.0, 957.0, 957.0, 957.0, 957.0, 957.0, 956.0, 956.0, 956.0, 957.0, 956.0, 958.0, 956.0, 958.0, 958.0, 957.0, 957.0, 956.0, 957.0, 956.0, 957.0, 956.0, 956.0, 957.0, 957.0, 957.0, 955.0, 957.0, 956.0, 958.0, 956.0, 957.0, 957.0, 957.0, 957.0, 957.0, 956.0, 957.0, 958.0, 956.0, 955.0, 955.0, 957.0, 957.0, 957.0, 957.0, 957.0, 955.0, 957.0, 957.0, 957.0, 956.0, 956.0, 957.0, 958.0, 957.0, 956.0, 956.0, 955.0, 957.0, 957.0, 955.0, 955.0, 957.0, 957.0, 955.0, 956.0, 955.0, 958.0, 958.0, 955.0, 957.0, 957.0, 957.0, 957.0, 957.0, 957.0, 956.0, 956.0, 957.0, 957.0, 957.0, 957.0, 957.0, 957.0, 955.0, 957.0, 957.0, 958.0, 957.0, 955.0, 955.0, 957.0, 956.0, 957.0, 958.0, 957.0, 957.0, 957.0, 957.0, 955.0, 956.0, 957.0, 957.0, 957.0, 956.0, 957.0, 956.0, 956.0, 957.0, 958.0, 955.0, 957.0, 957.0, 957.0, 957.0, 958.0, 957.0, 957.0, 957.0, 957.0, 958.0, 957.0, 957.0, 958.0, 957.0, 956.0, 956.0, 957.0, 955.0, 956.0, 957.0, 957.0, 957.0, 956.0, 956.0, 957.0, 957.0, 957.0, 957.0, 957.0, 957.0, 955.0, 957.0, 957.0, 956.0, 957.0, 957.0, 958.0, 957.0, 957.0, 956.0],
      "WindowWidth": [2244.0, 2243.0, 2244.0, 2244.0, 2244.0, 2244.0, 2243.0, 2244.0, 2245.0, 2244.0, 2244.0, 2245.0, 2244.0, 2243.0, 2244.0, 2244.0, 2244.0, 2244.0, 2244.0, 2243.0, 2244.0, 2245.0, 2245.0, 2245.0, 2243.0, 2245.0, 2246.0, 2244.0, 2244.0, 2244.0, 2244.0, 2245.0, 2244.0, 2244.0, 2244.0, 2244.0, 2245.0, 2245.0, 2243.0, 2244.0, 2245.0, 2243.0, 2244.0, 2245.0, 2244.0, 2244.0, 2244.0, 2245.0, 2244.0, 2244.0, 2245.0, 2245.0, 2244.0, 2245.0, 2244.0, 2244.0, 2244.0, 2245.0, 2244.0, 2246.0, 2244.0, 2245.0, 2245.0, 2245.0, 2244.0, 2244.0, 2245.0, 2244.0, 2244.0, 2244.0, 2244.0, 2244.0, 2245.0, 2245.0, 2243.0, 2245.0, 2244.0, 2246.0, 2244.0, 2244.0, 2245.0, 2245.0, 2245.0, 2245.0, 2244.0, 2244.0, 2245.0, 2243.0, 2243.0, 2243.0, 2244.0, 2244.0, 2244.0, 2245.0, 2245.0, 2243.0, 2245.0, 2245.0, 2245.0, 2244.0, 2243.0, 2244.0, 2245.0, 2245.0, 2244.0, 2244.0, 2243.0, 2244.0, 2244.0, 2243.0, 2243.0, 2245.0, 2245.0, 2243.0, 2243.0, 2243.0, 2245.0, 2245.0, 2243.0, 2244.0, 2245.0, 2244.0, 2244.0, 2245.0, 2244.0, 2244.0, 2244.0, 2245.0, 2245.0, 2245.0, 2244.0, 2245.0, 2245.0, 2243.0, 2244.0, 2244.0, 2245.0, 2245.0, 2243.0, 2243.0, 2245.0, 2243.0, 2245.0, 2245.0, 2245.0, 2245.0, 2245.0, 2245.0, 2243.0, 2244.0, 2245.0, 2244.0, 2245.0, 2243.0, 2245.0, 2244.0, 2244.0, 2244.0, 2245.0, 2243.0, 2244.0, 2244.0, 2244.0, 2244.0, 2245.0, 2244.0, 2245.0, 2244.0, 2244.0, 2246.0, 2245.0, 2244.0, 2245.0, 2245.0, 2243.0, 2244.0, 2244.0, 2243.0, 2243.0, 2244.0, 2245.0, 2244.0, 2244.0, 2244.0, 2244.0, 2244.0, 2245.0, 2244.0, 2244.0, 2245.0, 2243.0, 2244.0, 2244.0, 2243.0, 2245.0, 2244.0, 2245.0, 2244.0, 2244.0, 2243.0]
    },
    "slices": {}
  }
}