{
  "AcquisitionMatrixPE": 80,
  "AcquisitionNumber": 1,
  "AcquisitionTime": "09:40:19.417500",
  "BandwidthPerPixelPhaseEncode": 25,
  "BaseResolution": 80,
  "BodyPartExamined": "BRAIN",
  "CoilCombinationMethod": "Sum of Squares",
  "ConsistencyInfo": "N4_VE11E_LATEST_20181129",
  "ConversionSoftware": "dcm2niix",
  "ConversionSoftwareVersion": "v1.0.20220720",
  "DerivedVendorReportedEchoSpacing": 0.0005,
  "DeviceSerialNumber": "66112",
  "DwellTime": 2.7e-06,
  "EchoTime": 0.03,
  "EchoTrainLength": 80,
  "EffectiveEchoSpacing": 0.0005,
  "FlipAngle": 77,
  "HeudiconvVersion": "0.13.1",
  "ImageOrientationPatientDICOM": [0.990869, 0.134645, 0.0070247, -0.130274, 0.942674, 0.307238],
  "ImageOrientationText": "Tra>Cor(17.8)>Sag(-2.0)",
  "ImageType": [
    "ORIGINAL",
    "PRIMARY",
    "M",
    "ND",
    "NORM",
    "MOSAIC"
],
  "ImagingFrequency": 123.259,
  "InPlanePhaseEncodingDirectionDICOM": "COL",
  "InstitutionAddress": "Maynard 3,Hanover,NH,US,03755",
  "InstitutionName": "Dartmouth College - PBS",
  "InstitutionalDepartmentName": "Department",
  "MRAcquisitionType": "2D",
  "MagneticFieldStrength": 3,
  "Manufacturer": "Siemens",
  "ManufacturersModelName": "Prisma",
  "MatrixCoilMode": "SENSE",
  "Modality": "MR",
  "NonlinearGradientCorrection": false,
  "PartialFourier": 1,
  "PatientPosition": "HFS",
  "PercentPhaseFOV": 100,
  "PercentSampling": 100,
  "PhaseEncodingDirection": "j-",
  "PhaseEncodingSteps": 80,
  "PhaseResolution": 1,
  "PixelBandwidth": 2315,
  "ProcedureStepDescription": "dbic^QA",
  "ProtocolName": "func-bold_fa-77",
  "PulseSequenceDetails": "%SiemensSeq%\\ep2d_bold",
  "ReceiveCoilActiveElements": "HEA;HEP",
  "ReceiveCoilName": "Head_32",
  "ReconMatrixPE": 80,
  "RepetitionTime": 2,
  "SAR": 0.0563526,
  "ScanOptions": "FS",
  "ScanningSequence": "EP",
  "SequenceName": "*epfid2d1_80",
  "SequenceVariant": "SK",
  "SeriesDescription": "func-bold_fa-77",
  "SeriesNumber": 7,
  "ShimSetting": [4224, -7742, -7485, -36, -144, -52, 0, 98],
  "SliceThickness": 3.5,
  "SliceTiming": [0.99, 0, 1.0575, 0.0675, 1.1225, 0.1325, 1.19, 0.2, 1.255, 0.265, 1.32, 0.33, 1.3875, 0.3975, 1.4525, 0.4625, 1.52, 0.53, 1.585, 0.595, 1.65, 0.66, 1.7175, 0.7275, 1.7825, 0.7925, 1.85, 0.86, 1.915, 0.925],
  "SoftwareVersions": "syngo MR E11",
  "SpacingBetweenSlices": 3.99,
  "StationName": "AWP66112",
  "TotalReadoutTime": 0.0395,
  "TxRefAmp": 223.071,
  "dcmmeta_affine": [
    [-2.972606897354126, -0.3908233344554901, -0.13863731920719147, 136.6016387939453],
    [-0.4039361774921417, 2.8280205726623535, 1.2183377742767334, -109.94928741455078],
    [0.021074093878269196, -0.9217142462730408, 3.7969110012054443, -25.963998794555664],
    [0.0, 0.0, 0.0, 1.0]
],
  "dcmmeta_reorient_transform": [
    [0.0, -1.0, 0.0, 79.0],
    [1.0, 0.0, 0.0, 0.0],
    [0.0, 0.0, 1.0, 0.0],
    [0.0, 0.0, 0.0, 1.0]
],
  "dcmmeta_shape": [80, 80, 30, 200],
  "dcmmeta_slice_dim": 2,
  "dcmmeta_version": 0.6,
  "global": {
    "const": {
      "AccessionNumber": "qa",
      "AcquisitionMatrix": [80, 0, 0, 80],
      "AngioFlag": "N",
      "BitsAllocated": 16,
      "BitsStored": 12,
      "BodyPartExamined": "BRAIN",
      "Columns": 480,
      "EchoNumbers": 1,
      "EchoTime": 30.0,
      "EchoTrainLength": 80,
      "FlipAngle": 77.0,
      "HighBit": 11,
      "ImageOrientationPatient": [0.99086894751083, 0.13464539530962, 0.00702469790826, -0.1302744438121, 0.94267350203275, 0.30723808008575],
      "ImagePositionPatient": [-622.08329197265, -759.85566985299, -287.33709032292],
      "ImageType": [
        "ORIGINAL",
        "PRIMARY",
        "M",
        "ND",
        "NORM",
        "MOSAIC"
],
      "ImagedNucleus": "1H",
      "ImagingFrequency": 123.25924,
      "InPlanePhaseEncodingDirection": "COL",
      "MRAcquisitionType": "2D",
      "MagneticFieldStrength": 3.0,
      "Manufacturer": "SIEMENS",
      "ManufacturerModelName": "Prisma",
      "Modality": "MR",
      "NumberOfAverages": 1.0,
      "NumberOfPhaseEncodingSteps": 80,
      "PercentPhaseFieldOfView": 100.0,
      "PercentSampling": 100.0,
      "PerformedProcedureStepStartTime": "092009.269000",
      "PhotometricInterpretation": "MONOCHROME2",
      "PixelBandwidth": 2315.0,
      "PixelRepresentation": 0,
      "PixelSpacing": [3.0, 3.0],
      "ProtocolName": "func-bold_fa-77",
      "RepetitionTime": 2000.0,
      "Rows": 480,
      "SAR": 0.05635255621935,
      "SamplesPerPixel": 1,
      "ScanOptions": "FS",
      "ScanningSequence": "EP",
      "SequenceName": "*epfid2d1_80",
      "SequenceVariant": "SK",
      "SeriesDescription": "func-bold_fa-77",
      "SeriesNumber": 7,
      "SeriesTime": "094103.814000",
      "SliceLocation": -63.026678180832,
      "SliceThickness": 3.5,
      "SmallestImagePixelValue": 0,
      "SoftwareVersions": "syngo MR E11",
      "SpacingBetweenSlices": 3.9899999753669,
      "SpecificCharacterSet": "ISO_IR 100",
      "StudyID": "22",
      "StudyTime": "092009.191000",
      "TransmitCoilName": "Body",
      "VariableFlipAngleFlag": "N",
      "WindowCenterWidthExplanation": "Algo1"
    },
    "slices": {}
  },
  "time": {
    "samples": {
      "AcquisitionNumber": [1, 2, 3, 4, 5, 6, 7, 8, 9, 10, 11, 12, 13, 14, 15, 16, 17, 18, 19, 20, 21, 22, 23, 24, 25, 26, 27, 28, 29, 30, 31, 32, 33, 34, 35, 36, 37, 38, 39, 40, 41, 42, 43, 44, 45, 46, 47, 48, 49, 50, 51, 52, 53, 54, 55, 56, 57, 58, 59, 60, 61, 62, 63, 64, 65, 66, 67, 68, 69, 70, 71, 72, 73, 74, 75, 76, 77, 78, 79, 80, 81, 82, 83, 84, 85, 86, 87, 88, 89, 90, 91, 92, 93, 94, 95, 96, 97, 98, 99, 100, 101, 102, 103, 104, 105, 106, 107, 108, 109, 110, 111, 112, 113, 114, 115, 116, 117, 118, 119, 120, 121, 122, 123, 124, 125, 126, 127, 128, 129, 130, 131, 132, 133, 134, 135, 136, 137, 138, 139, 140, 141, 142, 143, 144, 145, 146, 147, 148, 149, 150, 151, 152, 153, 154, 155, 156, 157, 158, 159, 160, 161, 162, 163, 164, 165, 166, 167, 168, 169, 170, 171, 172, 173, 174, 175, 176, 177, 178, 179, 180, 181, 182, 183, 184, 185, 186, 187, 188, 189, 190, 191, 192, 193, 194, 195, 196, 197, 198, 199, 200],
      "AcquisitionTime": ["094019.417500", "094021.417500", "094023.417500", "094025.417500", "094027.417500", "094029.417500", "094031.417500", "094033.417500", "094035.417500", "094037.417500", "094039.417500", "094041.417500", "094043.417500", "094045.417500", "094047.417500", "094049.417500", "094051.417500", "094053.417500", "094055.417500", "094057.417500", "094059.417500", "094101.417500", "094103.417500", "094105.417500", "094107.417500", "094109.417500", "094111.417500", "094113.417500", "094115.417500", "094117.417500", "094119.417500", "094121.417500", "094123.417500", "094125.417500", "094127.417500", "094129.417500", "094131.417500", "094133.417500", "094135.417500", "094137.417500", "094139.417500", "094141.417500", "094143.417500", "094145.417500", "094147.417500", "094149.417500", "094151.417500", "094153.417500", "094155.417500", "094157.417500", "094159.417500", "094201.417500", "094203.417500", "094205.417500", "094207.417500", "094209.417500", "094211.417500", "094213.417500", "094215.417500", "094217.417500", "094219.417500", "094221.417500", "094223.417500", "094225.417500", "094227.417500", "094229.417500", "094231.417500", "094233.417500", "094235.417500", "094237.417500", "094239.417500", "094241.417500", "094243.417500", "094245.417500", "094247.417500", "094249.417500", "094251.417500", "094253.417500", "094255.417500", "094257.417500", "094259.417500", "094301.417500", "094303.417500", "094305.417500", "094307.417500", "094309.417500", "094311.417500", "094313.417500", "094315.417500", "094317.417500", "094319.417500", "094321.417500", "094323.417500", "094325.417500", "094327.417500", "094329.417500", "094331.417500", "094333.417500", "094335.417500", "094337.417500", "094339.417500", "094341.417500", "094343.417500", "094345.417500", "094347.417500", "094349.417500", "094351.417500", "094353.417500", "094355.417500", "094357.417500", "094359.417500", "094401.417500", "094403.417500", "094405.417500", "094407.417500", "094409.417500", "094411.417500", "094413.417500", "094415.417500", "094417.417500", "094419.417500", "094421.417500", "094423.417500", "094425.417500", "094427.417500", "094429.417500", "094431.417500", "094433.417500", "094435.417500", "094437.417500", "094439.417500", "094441.417500", "094443.417500", "094445.417500", "094447.417500", "094449.417500", "094451.417500", "094453.417500", "094455.417500", "094457.417500", "094459.417500", "094501.417500", "094503.417500", "094505.417500", "094507.417500", "094509.417500", "094511.417500", "094513.417500", "094515.417500", "094517.417500", "094519.417500", "094521.417500", "094523.417500", "094525.417500", "094527.417500", "094529.417500", "094531.417500", "094533.417500", "094535.417500", "094537.417500", "094539.417500", "094541.417500", "094543.417500", "094545.417500", "094547.417500", "094549.417500", "094551.417500", "094553.417500", "094555.417500", "094557.417500", "094559.417500", "094601.417500", "094603.417500", "094605.417500", "094607.417500", "094609.417500", "094611.417500", "094613.417500", "094615.417500", "094617.417500", "094619.417500", "094621.417500", "094623.417500", "094625.417500", "094627.417500", "094629.417500", "094631.417500", "094633.417500", "094635.417500", "094637.417500", "094639.417500", "094641.417500", "094643.417500", "094645.417500", "094647.417500", "094649.417500", "094651.417500", "094653.417500", "094655.417500", "094657.417500"],
      "ContentTime": ["094103.817000", "094103.820000", "094103.822000", "094103.825000", "094103.827000", "094103.841000", "094103.843000", "094103.845000", "094103.848000", "094103.850000", "094103.852000", "094103.854000", "094103.857000", "094103.859000", "094103.861000", "094103.863000", "094103.866000", "094103.871000", "094103.873000", "094103.876000", "094103.878000", "094103.880000", "094143.811000", "094143.814000", "094143.816000", "094143.818000", "094143.821000", "094143.823000", "094143.825000", "094143.828000", "094143.830000", "094143.832000", "094143.834000", "094143.837000", "094143.839000", "094143.841000", "094143.844000", "094143.846000", "094143.848000", "094143.850000", "094143.853000", "094143.855000", "094223.811000", "094223.814000", "094223.816000", "094223.818000", "094223.821000", "094223.823000", "094223.832000", "094223.835000", "094223.837000", "094223.839000", "094223.841000", "094223.844000", "094223.846000", "094223.848000", "094223.851000", "094223.853000", "094223.855000", "094223.857000", "094223.860000", "094223.862000", "094303.812000", "094303.815000", "094303.817000", "094303.819000", "094303.822000", "094303.824000", "094303.826000", "094303.828000", "094303.831000", "094303.833000", "094303.835000", "094303.838000", "094303.840000", "094303.842000", "094303.844000", "094303.847000", "094303.849000", "094303.851000", "094303.854000", "094303.856000", "094343.811000", "094343.814000", "094343.816000", "094343.818000", "094343.821000", "094343.823000", "094343.825000", "094343.828000", "094343.830000", "094343.832000", "094343.834000", "094343.837000", "094343.839000", "094343.841000", "094343.843000", "094343.846000", "094343.848000", "094343.850000", "094343.852000", "094343.855000", "094423.811000", "094423.813000", "094423.816000", "094423.818000", "094423.821000", "094423.823000", "094423.825000", "094423.827000", "094423.837000", "094423.840000", "094423.842000", "094423.844000", "094423.846000", "094423.849000", "094423.851000", "094423.853000", "094423.856000", "094423.858000", "094423.860000", "094423.863000", "094503.812000", "094503.815000", "094503.817000", "094503.819000", "094503.822000", "094503.824000", "094503.827000", "094503.829000", "094503.831000", "094503.834000", "094503.836000", "094503.838000", "094503.840000", "094503.843000", "094503.845000", "094503.847000", "094503.849000", "094503.852000", "094503.854000", "094503.856000", "094543.812000", "094543.815000", "094543.817000", "094543.819000", "094543.821000", "094543.824000", "094543.826000", "094543.828000", "094543.831000", "094543.833000", "094543.835000", "094543.838000", "094543.840000", "094543.842000", "094543.844000", "094543.847000", "094543.849000", "094543.851000", "094543.854000", "094543.856000", "094623.811000", "094623.814000", "094623.816000", "094623.818000", "094623.820000", "094623.823000", "094623.825000", "094623.827000", "094623.830000", "094623.832000", "094623.834000", "094623.836000", "094623.839000", "094623.841000", "094623.843000", "094623.846000", "094623.848000", "094623.850000", "094623.852000", "094623.855000", "094643.811000", "094643.814000", "094643.816000", "094643.818000", "094643.821000", "094643.823000", "094643.825000", "094643.828000", "094643.830000", "094643.832000", "094658.696000", "094658.698000", "094658.701000", "094658.703000", "094658.705000", "094658.708000", "094658.710000", "094658.712000"],
      "InstanceCreationTime": ["094103.817000", "094103.820000", "094103.822000", "094103.825000", "094103.827000", "094103.841000", "094103.843000", "094103.845000", "094103.848000", "094103.850000", "094103.852000", "094103.854000", "094103.857000", "094103.859000", "094103.861000", "094103.863000", "094103.866000", "094103.871000", "094103.873000", "094103.876000", "094103.878000", "094103.880000", "094143.811000", "094143.814000", "094143.816000", "094143.818000", "094143.821000", "094143.823000", "094143.825000", "094143.828000", "094143.830000", "094143.832000", "094143.834000", "094143.837000", "094143.839000", "094143.841000", "094143.844000", "094143.846000", "094143.848000", "094143.850000", "094143.853000", "094143.855000", "094223.811000", "094223.814000", "094223.816000", "094223.818000", "094223.821000", "094223.823000", "094223.832000", "094223.835000", "094223.837000", "094223.839000", "094223.841000", "094223.844000", "094223.846000", "094223.848000", "094223.851000", "094223.853000", "094223.855000", "094223.857000", "094223.860000", "094223.862000", "094303.812000", "094303.815000", "094303.817000", "094303.819000", "094303.822000", "094303.824000", "094303.826000", "094303.828000", "094303.831000", "094303.833000", "094303.835000", "094303.838000", "094303.840000", "094303.842000", "094303.844000", "094303.847000", "094303.849000", "094303.851000", "094303.854000", "094303.856000", "094343.811000", "094343.814000", "094343.816000", "094343.818000", "094343.821000", "094343.823000", "094343.825000", "094343.828000", "094343.830000", "094343.832000", "094343.834000", "094343.837000", "094343.839000", "094343.841000", "094343.843000", "094343.846000", "094343.848000", "094343.850000", "094343.852000", "094343.855000", "094423.811000", "094423.813000", "094423.816000", "094423.818000", "094423.821000", "094423.823000", "094423.825000", "094423.827000", "094423.837000", "094423.840000", "094423.842000", "094423.844000", "094423.846000", "094423.849000", "094423.851000", "094423.853000", "094423.856000", "094423.858000", "094423.860000", "094423.863000", "094503.812000", "094503.815000", "094503.817000", "094503.819000", "094503.822000", "094503.824000", "094503.827000", "094503.829000", "094503.831000", "094503.834000", "094503.836000", "094503.838000", "094503.840000", "094503.843000", "094503.845000", "094503.847000", "094503.849000", "094503.852000", "094503.854000", "094503.856000", "094543.812000", "094543.815000", "094543.817000", "094543.819000", "094543.821000", "094543.824000", "094543.826000", "094543.828000", "094543.831000", "094543.833000", "094543.835000", "094543.838000", "094543.840000", "094543.842000", "094543.844000", "094543.847000", "094543.849000", "094543.851000", "094543.854000", "094543.856000", "094623.811000", "094623.814000", "094623.816000", "094623.818000", "094623.820000", "094623.823000", "094623.825000", "094623.827000", "094623.830000", "094623.832000", "094623.834000", "094623.836000", "094623.839000", "094623.841000", "094623.843000", "094623.846000", "094623.848000", "094623.850000", "094623.852000", "094623.855000", "094643.811000", "094643.814000", "094643.816000", "094643.818000", "094643.821000", "094643.823000", "094643.825000", "094643.828000", "094643.830000", "094643.832000", "094658.696000", "094658.698000", "094658.701000", "094658.703000", "094658.705000", "094658.708000", "094658.710000", "094658.712000"],
      "InstanceNumber": [1, 2, 3, 4, 5, 6, 7, 8, 9, 10, 11, 12, 13, 14, 15, 16, 17, 18, 19, 20, 21, 22, 23, 24, 25, 26, 27, 28, 29, 30, 31, 32, 33, 34, 35, 36, 37, 38, 39, 40, 41, 42, 43, 44, 45, 46, 47, 48, 49, 50, 51, 52, 53, 54, 55, 56, 57, 58, 59, 60, 61, 62, 63, 64, 65, 66, 67, 68, 69, 70, 71, 72, 73, 74, 75, 76, 77, 78, 79, 80, 81, 82, 83, 84, 85, 86, 87, 88, 89, 90, 91, 92, 93, 94, 95, 96, 97, 98, 99, 100, 101, 102, 103, 104, 105, 106, 107, 108, 109, 110, 111, 112, 113, 114, 115, 116, 117, 118, 119, 120, 121, 122, 123, 124, 125, 126, 127, 128, 129, 130, 131, 132, 133, 134, 135, 136, 137, 138, 139, 140, 141, 142, 143, 144, 145, 146, 147, 148, 149, 150, 151, 152, 153, 154, 155, 156, 157, 158, 159, 160, 161, 162, 163, 164, 165, 166, 167, 168, 169, 170, 171, 172, 173, 174, 175, 176, 177, 178, 179, 180, 181, 182, 183, 184, 185, 186, 187, 188, 189, 190, 191, 192, 193, 194, 195, 196, 197, 198, 199, 200],
      "LargestImagePixelValue": [2107, 2106, 2105, 2107, 2107, 2107, 2106, 2108, 2108, 2108, 2107, 2107, 2107, 2105, 2106, 2107, 2108, 2108, 2108, 2108, 2106, 2108, 2109, 2109, 2108, 2109, 2105, 2106, 2106, 2108, 2107, 2107, 2108, 2109, 2106, 2106, 2106, 2107, 2106, 2107, 2109, 2108, 2108, 2108, 2107, 2109, 2107, 2108, 2110, 2107, 2107, 2108, 2108, 2107, 2109, 2109, 2108, 2109, 2108, 2107, 2107, 2108, 2107, 2108, 2109, 2107, 2108, 2108, 2108, 2109, 2110, 2109, 2108, 2108, 2109, 2110, 2106, 2108, 2109, 2108, 2109, 2108, 2108, 2106, 2107, 2107, 2106, 2109, 2108, 2108, 2108, 2108, 2107, 2105, 2107, 2109, 2109, 2106, 2107, 2108, 2106, 2108, 2108, 2107, 2108, 2106, 2105, 2109, 2109, 2106, 2108, 2108, 2108, 2106, 2107, 2108, 2105, 2108, 2106, 2107, 2108, 2109, 2106, 2106, 2108, 2108, 2108, 2107, 2107, 2109, 2109, 2106, 2107, 2107, 2108, 2109, 2108, 2107, 2109, 2107, 2108, 2105, 2108, 2106, 2108, 2106, 2108, 2107, 2109, 2106, 2110, 2107, 2108, 2106, 2106, 2107, 2107, 2108, 2108, 2107, 2107, 2107, 2108, 2108, 2106, 2106, 2106, 2107, 2106, 2107, 2105, 2107, 2108, 2105, 2106, 2107, 2105, 2109, 2107, 2105, 2104, 2108, 2108, 2108, 2104, 2107, 2109, 2107, 2108, 2106, 2106, 2105, 2107, 2107, 2108, 2105, 2107, 2108, 2105, 2108],
      "WindowCenter": [1008.0, 1009.0, 1008.0, 1008.0, 1007.0, 1008.0, 1008.0, 1007.0, 1007.0, 1008.0, 1008.0, 1007.0, 1007.0, 1008.0, 1007.0, 1008.0, 1007.0, 1008.0, 1008.0, 1008.0, 1009.0, 1007.0, 1008.0, 1008.0, 1008.0, 1007.0, 1008.0, 1009.0, 1006.0, 1006.0, 1009.0, 1008.0, 1008.0, 1006.0, 1008.0, 1008.0, 1007.0, 1007.0, 1008.0, 1006.0, 1008.0, 1008.0, 1007.0, 1009.0, 1007.0, 1007.0, 1007.0, 1008.0, 1007.0, 1007.0, 1007.0, 1007.0, 1007.0, 1007.0, 1006.0, 1009.0, 1006.0, 1006.0, 1006.0, 1006.0, 1007.0, 1007.0, 1008.0, 1008.0, 1007.0, 1007.0, 1006.0, 1008.0, 1007.0, 1005.0, 1007.0, 1007.0, 1005.0, 1006.0, 1007.0, 1006.0, 1007.0, 1006.0, 1006.0, 1007.0, 1006.0, 1006.0, 1007.0, 1007.0, 1006.0, 1007.0, 1006.0, 1007.0, 1007.0, 1006.0, 1007.0, 1006.0, 1005.0, 1007.0, 1007.0, 1007.0, 1007.0, 1006.0, 1006.0, 1007.0, 1007.0, 1007.0, 1007.0, 1006.0, 1007.0, 1007.0, 1007.0, 1007.0, 1005.0, 1007.0, 1008.0, 1006.0, 1007.0, 1006.0, 1007.0, 1008.0, 1007.0, 1007.0, 1006.0, 1006.0, 1007.0, 1007.0, 1006.0, 1008.0, 1007.0, 1006.0, 1007.0, 1007.0, 1007.0, 1007.0, 1007.0, 1006.0, 1007.0, 1007.0, 1007.0, 1006.0, 1007.0, 1006.0, 1006.0, 1006.0, 1006.0, 1006.0, 1006.0, 1006.0, 1005.0, 1006.0, 1006.0, 1005.0, 1007.0, 1006.0, 1006.0, 1006.0, 1007.0, 1006.0, 1006.0, 1005.0, 1006.0, 1006.0, 1005.0, 1005.0, 1006.0, 1006.0, 1006.0, 1006.0, 1005.0, 1006.0, 1006.0, 1005.0, 1005.0, 1006.0, 1006.0, 1007.0, 1006.0, 1006.0, 1006.0, 1005.0, 1006.0, 1005.0, 1004.0, 1007.0, 1004.0, 1006.0, 1005.0, 1006.0, 1006.0, 1006.0, 1006.0, 1006.0, 1005.0, 1005.0, 1006.0, 1006.0, 1005.0, 1006.0, 1007.0, 1004.0, 1005.0, 1006.0, 1005.0, 1006.0],
      "WindowWidth": [2240.0, 2240.0, 2240.0, 2240.0, 2239.0, 2240.0, 2240.0, 2239.0, 2239.0, 2240.0, 2239.0, 2239.0, 2239.0, 2239.0, 2239.0, 2239.0, 2239.0, 2239.0, 2239.0, 2239.0, 2240.0, 2239.0, 2239.0, 2239.0, 2239.0, 2239.0, 2239.0, 2241.0, 2238.0, 2237.0, 2239.0, 2240.0, 2239.0, 2237.0, 2239.0, 2239.0, 2238.0, 2239.0, 2239.0, 2237.0, 2239.0, 2238.0, 2238.0, 2240.0, 2238.0, 2238.0, 2238.0, 2239.0, 2238.0, 2238.0, 2238.0, 2238.0, 2238.0, 2238.0, 2238.0, 2240.0, 2237.0, 2238.0, 2238.0, 2238.0, 2238.0, 2238.0, 2239.0, 2239.0, 2238.0, 2238.0, 2237.0, 2239.0, 2238.0, 2237.0, 2238.0, 2238.0, 2237.0, 2237.0, 2238.0, 2237.0, 2238.0, 2237.0, 2237.0, 2238.0, 2237.0, 2237.0, 2238.0, 2238.0, 2237.0, 2238.0, 2237.0, 2237.0, 2237.0, 2237.0, 2237.0, 2237.0, 2236.0, 2238.0, 2237.0, 2237.0, 2237.0, 2236.0, 2236.0, 2237.0, 2238.0, 2237.0, 2237.0, 2236.0, 2237.0, 2237.0, 2237.0, 2237.0, 2236.0, 2237.0, 2238.0, 2236.0, 2237.0, 2236.0, 2237.0, 2238.0, 2237.0, 2237.0, 2236.0, 2236.0, 2237.0, 2237.0, 2236.0, 2238.0, 2237.0, 2236.0, 2237.0, 2237.0, 2237.0, 2237.0, 2237.0, 2237.0, 2237.0, 2237.0, 2237.0, 2236.0, 2237.0, 2237.0, 2237.0, 2236.0, 2237.0, 2236.0, 2237.0, 2237.0, 2236.0, 2237.0, 2235.0, 2235.0, 2236.0, 2236.0, 2237.0, 2237.0, 2237.0, 2236.0, 2237.0, 2236.0, 2236.0, 2235.0, 2236.0, 2235.0, 2235.0, 2236.0, 2236.0, 2236.0, 2235.0, 2236.0, 2236.0, 2236.0, 2234.0, 2236.0, 2236.0, 2237.0, 2236.0, 2236.0, 2236.0, 2235.0, 2236.0, 2235.0, 2234.0, 2236.0, 2234.0, 2236.0, 2235.0, 2236.0, 2236.0, 2236.0, 2236.0, 2236.0, 2235.0, 2235.0, 2236.0, 2236.0, 2235.0, 2236.0, 2236.0, 2234.0, 2235.0, 2236.0, 2235.0, 2236.0]
    },
    "slices": {}
  }
}