{
  "AcquisitionMatrixPE": 80,
  "AcquisitionNumber": 1,
  "AcquisitionTime": "10:01:11.087500",
  "BandwidthPerPixelPhaseEncode": 44.643,
  "BaseResolution": 80,
  "BodyPartExamined": "BRAIN",
  "CoilCombinationMethod": "Sum of Squares",
  "ConsistencyInfo": "N4_VE11C_LATEST_20160120",
  "ConversionSoftware": "dcm2niix",
  "ConversionSoftwareVersion": "v1.0.20220720",
  "DerivedVendorReportedEchoSpacing": 0.000559998,
  "DeviceSerialNumber": "66112",
  "DwellTime": 2.7e-06,
  "EchoTime": 0.035,
  "EchoTrainLength": 39,
  "EffectiveEchoSpacing": 0.000279999,
  "FlipAngle": 90,
  "HeudiconvVersion": "0.13.1",
  "ImageOrientationPatientDICOM": [0.980083, -0.198584, 0.000974884, 0.189267, 0.935565, 0.298156],
  "ImageOrientationText": "Tra>Cor(17.0)>Sag(3.4)",
  "ImageType": [
    "ORIGINAL",
    "PRIMARY",
    "M",
    "ND",
    "NORM",
    "MOSAIC"
],
  "ImagingFrequency": 123.253,
  "InPlanePhaseEncodingDirectionDICOM": "COL",
  "InstitutionAddress": "Maynard 3,Hanover,NH,US,03755",
  "InstitutionName": "Dartmouth College - PBS",
  "InstitutionalDepartmentName": "Department",
  "MRAcquisitionType": "2D",
  "MagneticFieldStrength": 3,
  "Manufacturer": "Siemens",
  "ManufacturersModelName": "Prisma",
  "Modality": "MR",
  "MultibandAccelerationFactor": 4,
  "NonlinearGradientCorrection": false,
  "ParallelReductionFactorInPlane": 2,
  "PartialFourier": 1,
  "PatientPosition": "HFS",
  "PercentPhaseFOV": 100,
  "PercentSampling": 100,
  "PhaseEncodingDirection": "j-",
  "PhaseEncodingSteps": 79,
  "PhaseResolution": 1,
  "PixelBandwidth": 2315,
  "ProcedureStepDescription": "dbic^QA",
  "ProtocolName": "func-bold_task-rest_acq-p2-s4-3.5mm",
  "PulseSequenceDetails": "%SiemensSeq%\\ep2d_bold",
  "ReceiveCoilActiveElements": "HEA;HEP",
  "ReceiveCoilName": "Head_32",
  "ReconMatrixPE": 80,
  "RefLinesPE": 24,
  "RepetitionTime": 2,
  "SAR": 0.0179983,
  "ScanOptions": "FS",
  "ScanningSequence": "EP",
  "SequenceName": "*epfid2d1_80",
  "SequenceVariant": "SK",
  "SeriesDescription": "func-bold_task-rest_acq-p2-s4-3.5mm",
  "SeriesNumber": 7,
  "ShimSetting": [4145, -7690, -7519, 272, -101, -203, -27, 101],
  "SliceThickness": 3.5,
  "SliceTiming": [1.485, 0, 0.99, 0.2475, 1.2375, 0.7425, 1.7325, 0.495, 1.485, 0, 0.99, 0.2475, 1.2375, 0.7425, 1.7325, 0.495, 1.485, 0, 0.99, 0.2475, 1.2375, 0.7425, 1.7325, 0.495, 1.485, 0, 0.99, 0.2475, 1.2375, 0.7425, 1.7325, 0.495],
  "SoftwareVersions": "syngo MR E11",
  "SpacingBetweenSlices": 3.99,
  "StationName": "AWP66112",
  "TaskName": "rest",
  "TotalReadoutTime": 0.0221199,
  "TxRefAmp": 230.304,
  "dcmmeta_affine": [
    [-2.9402503967285156, 0.5677996873855591, 0.2398826628923416, 85.92373657226562],
    [0.5957505106925964, 2.8066937923431396, 1.1652133464813232, -142.01109313964844],
    [0.0029246530029922724, -0.8944685459136963, 3.808521270751953, -38.01824951171875],
    [0.0, 0.0, 0.0, 1.0]
],
  "dcmmeta_reorient_transform": [
    [0.0, -1.0, 0.0, 79.0],
    [1.0, 0.0, 0.0, 0.0],
    [0.0, 0.0, 1.0, 0.0],
    [0.0, 0.0, 0.0, 1.0]
],
  "dcmmeta_shape": [80, 80, 32, 200],
  "dcmmeta_slice_dim": 2,
  "dcmmeta_version": 0.6,
  "global": {
    "const": {
      "AccessionNumber": "qa",
      "AcquisitionMatrix": [80, 0, 0, 80],
      "AngioFlag": "N",
      "BitsAllocated": 16,
      "BitsStored": 12,
      "BodyPartExamined": "BRAIN",
      "Columns": 480,
      "EchoNumbers": 1,
      "EchoTime": 35.0,
      "EchoTrainLength": 39,
      "FlipAngle": 90.0,
      "HighBit": 11,
      "ImageOrientationPatient": [0.98008348561315, -0.1985835109693, 0.0009748843426, 0.18926655932164, 0.93556456954292, 0.29815617675729],
      "ImagePositionPatient": [-832.3899343077, -521.90634664718, -288.15990171165],
      "ImageType": [
        "ORIGINAL",
        "PRIMARY",
        "M",
        "ND",
        "NORM",
        "MOSAIC"
],
      "ImagedNucleus": "1H",
      "ImagingFrequency": 123.252515,
      "InPlanePhaseEncodingDirection": "COL",
      "MRAcquisitionType": "2D",
      "MagneticFieldStrength": 3.0,
      "Manufacturer": "SIEMENS",
      "ManufacturerModelName": "Prisma",
      "Modality": "MR",
      "NumberOfAverages": 1.0,
      "NumberOfPhaseEncodingSteps": 79,
      "PercentPhaseFieldOfView": 100.0,
      "PercentSampling": 100.0,
      "PerformedProcedureStepStartTime": "093416.750000",
      "PhotometricInterpretation": "MONOCHROME2",
      "PixelBandwidth": 2315.0,
      "PixelRepresentation": 0,
      "PixelSpacing": [3.0, 3.0],
      "ProtocolName": "func-bold_task-rest_acq-p2-s4-3.5mm",
      "RepetitionTime": 2000.0,
      "Rows": 480,
      "SAR": 0.01799834617925,
      "SamplesPerPixel": 1,
      "ScanOptions": "FS",
      "ScanningSequence": "EP",
      "SequenceName": "*epfid2d1_80",
      "SequenceVariant": "SK",
      "SeriesDescription": "func-bold_task-rest_acq-p2-s4-3.5mm",
      "SeriesNumber": 7,
      "SeriesTime": "100152.003000",
      "SliceLocation": -72.595220381719,
      "SliceThickness": 3.5,
      "SmallestImagePixelValue": 0,
      "SoftwareVersions": "syngo MR E11",
      "SpacingBetweenSlices": 3.9900000310481,
      "SpecificCharacterSet": "ISO_IR 100",
      "StudyID": "64",
      "StudyTime": "093416.691000",
      "TransmitCoilName": "Body",
      "VariableFlipAngleFlag": "N",
      "WindowCenter": 919.0,
      "WindowCenterWidthExplanation": "Algo1",
      "dBdt": 0.0},
    "slices": {}
  },
  "time": {
    "samples": {
      "AcquisitionNumber": [1, 2, 3, 4, 5, 6, 7, 8, 9, 10, 11, 12, 13, 14, 15, 16, 17, 18, 19, 20, 21, 22, 23, 24, 25, 26, 27, 28, 29, 30, 31, 32, 33, 34, 35, 36, 37, 38, 39, 40, 41, 42, 43, 44, 45, 46, 47, 48, 49, 50, 51, 52, 53, 54, 55, 56, 57, 58, 59, 60, 61, 62, 63, 64, 65, 66, 67, 68, 69, 70, 71, 72, 73, 74, 75, 76, 77, 78, 79, 80, 81, 82, 83, 84, 85, 86, 87, 88, 89, 90, 91, 92, 93, 94, 95, 96, 97, 98, 99, 100, 101, 102, 103, 104, 105, 106, 107, 108, 109, 110, 111, 112, 113, 114, 115, 116, 117, 118, 119, 120, 121, 122, 123, 124, 125, 126, 127, 128, 129, 130, 131, 132, 133, 134, 135, 136, 137, 138, 139, 140, 141, 142, 143, 144, 145, 146, 147, 148, 149, 150, 151, 152, 153, 154, 155, 156, 157, 158, 159, 160, 161, 162, 163, 164, 165, 166, 167, 168, 169, 170, 171, 172, 173, 174, 175, 176, 177, 178, 179, 180, 181, 182, 183, 184, 185, 186, 187, 188, 189, 190, 191, 192, 193, 194, 195, 196, 197, 198, 199, 200],
      "AcquisitionTime": ["100111.087500", "100113.087500", "100115.087500", "100117.087500", "100119.087500", "100121.087500", "100123.087500", "100125.087500", "100127.087500", "100129.087500", "100131.087500", "100133.087500", "100135.087500", "100137.087500", "100139.087500", "100141.087500", "100143.087500", "100145.087500", "100147.087500", "100149.087500", "100151.087500", "100153.087500", "100155.087500", "100157.087500", "100159.087500", "100201.087500", "100203.087500", "100205.087500", "100207.087500", "100209.087500", "100211.087500", "100213.087500", "100215.087500", "100217.087500", "100219.087500", "100221.087500", "100223.087500", "100225.087500", "100227.087500", "100229.087500", "100231.087500", "100233.087500", "100235.087500", "100237.087500", "100239.087500", "100241.087500", "100243.087500", "100245.087500", "100247.087500", "100249.087500", "100251.087500", "100253.087500", "100255.087500", "100257.087500", "100259.087500", "100301.087500", "100303.087500", "100305.087500", "100307.087500", "100309.087500", "100311.087500", "100313.087500", "100315.087500", "100317.087500", "100319.087500", "100321.087500", "100323.087500", "100325.087500", "100327.087500", "100329.087500", "100331.087500", "100333.087500", "100335.087500", "100337.087500", "100339.087500", "100341.087500", "100343.087500", "100345.087500", "100347.087500", "100349.087500", "100351.087500", "100353.087500", "100355.087500", "100357.087500", "100359.087500", "100401.087500", "100403.087500", "100405.087500", "100407.087500", "100409.087500", "100411.087500", "100413.087500", "100415.087500", "100417.087500", "100419.087500", "100421.087500", "100423.087500", "100425.087500", "100427.087500", "100429.087500", "100431.087500", "100433.087500", "100435.087500", "100437.087500", "100439.087500", "100441.087500", "100443.087500", "100445.087500", "100447.087500", "100449.087500", "100451.087500", "100453.087500", "100455.087500", "100457.087500", "100459.087500", "100501.087500", "100503.087500", "100505.087500", "100507.087500", "100509.087500", "100511.087500", "100513.087500", "100515.087500", "100517.087500", "100519.087500", "100521.087500", "100523.087500", "100525.087500", "100527.087500", "100529.087500", "100531.087500", "100533.087500", "100535.087500", "100537.087500", "100539.087500", "100541.087500", "100543.087500", "100545.087500", "100547.087500", "100549.087500", "100551.087500", "100553.087500", "100555.087500", "100557.087500", "100559.087500", "100601.087500", "100603.087500", "100605.087500", "100607.087500", "100609.087500", "100611.087500", "100613.087500", "100615.087500", "100617.087500", "100619.087500", "100621.087500", "100623.087500", "100625.087500", "100627.087500", "100629.087500", "100631.087500", "100633.087500", "100635.087500", "100637.087500", "100639.087500", "100641.087500", "100643.087500", "100645.087500", "100647.087500", "100649.087500", "100651.087500", "100653.087500", "100655.087500", "100657.087500", "100659.087500", "100701.087500", "100703.087500", "100705.087500", "100707.087500", "100709.087500", "100711.087500", "100713.087500", "100715.087500", "100717.087500", "100719.087500", "100721.087500", "100723.087500", "100725.087500", "100727.087500", "100729.087500", "100731.087500", "100733.087500", "100735.087500", "100737.087500", "100739.087500", "100741.087500", "100743.087500", "100745.087500", "100747.087500", "100749.087500"],
      "ContentTime": ["100152.006000", "100152.009000", "100152.012000", "100152.015000", "100152.017000", "100152.020000", "100152.022000", "100152.025000", "100152.028000", "100152.030000", "100152.033000", "100152.035000", "100152.038000", "100152.046000", "100152.050000", "100152.053000", "100152.056000", "100152.058000", "100152.061000", "100152.063000", "100152.066000", "100232.001000", "100232.005000", "100232.007000", "100232.010000", "100232.012000", "100232.015000", "100232.017000", "100232.020000", "100232.022000", "100232.025000", "100232.028000", "100232.030000", "100232.033000", "100232.036000", "100232.038000", "100232.041000", "100232.043000", "100232.046000", "100232.048000", "100232.051000", "100312.002000", "100312.005000", "100312.007000", "100312.010000", "100312.012000", "100312.015000", "100312.018000", "100312.020000", "100312.023000", "100312.028000", "100312.031000", "100312.033000", "100312.036000", "100312.039000", "100312.041000", "100312.044000", "100312.046000", "100312.049000", "100312.052000", "100312.054000", "100352.001000", "100352.016000", "100352.019000", "100352.021000", "100352.024000", "100352.026000", "100352.029000", "100352.031000", "100352.034000", "100352.037000", "100352.039000", "100352.042000", "100352.044000", "100352.047000", "100352.050000", "100352.052000", "100352.055000", "100352.057000", "100352.060000", "100352.063000", "100432.001000", "100432.004000", "100432.007000", "100432.010000", "100432.012000", "100432.015000", "100432.017000", "100432.020000", "100432.022000", "100432.025000", "100432.028000", "100432.030000", "100432.033000", "100432.036000", "100432.038000", "100432.041000", "100432.043000", "100432.046000", "100432.048000", "100432.051000", "100512.001000", "100512.004000", "100512.007000", "100512.009000", "100512.012000", "100512.015000", "100512.017000", "100512.020000", "100512.022000", "100512.025000", "100512.028000", "100512.030000", "100512.033000", "100512.035000", "100512.038000", "100512.041000", "100512.043000", "100512.046000", "100512.048000", "100512.051000", "100552.001000", "100552.004000", "100552.007000", "100552.009000", "100552.012000", "100552.019000", "100552.021000", "100552.024000", "100552.026000", "100552.029000", "100552.032000", "100552.034000", "100552.037000", "100552.039000", "100552.042000", "100552.044000", "100552.047000", "100552.050000", "100552.052000", "100552.055000", "100632.001000", "100632.004000", "100632.007000", "100632.009000", "100632.012000", "100632.015000", "100632.017000", "100632.020000", "100632.023000", "100632.025000", "100632.028000", "100632.030000", "100632.033000", "100632.035000", "100632.038000", "100632.041000", "100632.043000", "100632.046000", "100632.048000", "100632.051000", "100712.001000", "100712.004000", "100712.007000", "100712.010000", "100712.012000", "100712.015000", "100712.017000", "100712.020000", "100712.023000", "100712.025000", "100712.028000", "100712.030000", "100712.033000", "100712.035000", "100712.038000", "100712.041000", "100712.043000", "100712.046000", "100712.048000", "100712.051000", "100749.893000", "100749.896000", "100749.899000", "100749.901000", "100749.904000", "100749.907000", "100749.909000", "100749.912000", "100749.914000", "100749.917000", "100749.920000", "100749.927000", "100749.930000", "100749.932000", "100749.935000", "100749.938000", "100749.947000", "100749.950000", "100749.953000"],
      "InstanceCreationTime": ["100152.006000", "100152.009000", "100152.012000", "100152.015000", "100152.017000", "100152.020000", "100152.022000", "100152.025000", "100152.028000", "100152.030000", "100152.033000", "100152.035000", "100152.038000", "100152.046000", "100152.050000", "100152.053000", "100152.056000", "100152.058000", "100152.061000", "100152.063000", "100152.066000", "100232.001000", "100232.005000", "100232.007000", "100232.010000", "100232.012000", "100232.015000", "100232.017000", "100232.020000", "100232.022000", "100232.025000", "100232.028000", "100232.030000", "100232.033000", "100232.036000", "100232.038000", "100232.041000", "100232.043000", "100232.046000", "100232.048000", "100232.051000", "100312.002000", "100312.005000", "100312.007000", "100312.010000", "100312.012000", "100312.015000", "100312.018000", "100312.020000", "100312.023000", "100312.028000", "100312.031000", "100312.033000", "100312.036000", "100312.039000", "100312.041000", "100312.044000", "100312.046000", "100312.049000", "100312.052000", "100312.054000", "100352.001000", "100352.016000", "100352.019000", "100352.021000", "100352.024000", "100352.026000", "100352.029000", "100352.031000", "100352.034000", "100352.037000", "100352.039000", "100352.042000", "100352.044000", "100352.047000", "100352.050000", "100352.052000", "100352.055000", "100352.057000", "100352.060000", "100352.063000", "100432.001000", "100432.004000", "100432.007000", "100432.010000", "100432.012000", "100432.015000", "100432.017000", "100432.020000", "100432.022000", "100432.025000", "100432.028000", "100432.030000", "100432.033000", "100432.036000", "100432.038000", "100432.041000", "100432.043000", "100432.046000", "100432.048000", "100432.051000", "100512.001000", "100512.004000", "100512.007000", "100512.009000", "100512.012000", "100512.015000", "100512.017000", "100512.020000", "100512.022000", "100512.025000", "100512.028000", "100512.030000", "100512.033000", "100512.035000", "100512.038000", "100512.041000", "100512.043000", "100512.046000", "100512.048000", "100512.051000", "100552.001000", "100552.004000", "100552.007000", "100552.009000", "100552.012000", "100552.019000", "100552.021000", "100552.024000", "100552.026000", "100552.029000", "100552.032000", "100552.034000", "100552.037000", "100552.039000", "100552.042000", "100552.044000", "100552.047000", "100552.050000", "100552.052000", "100552.055000", "100632.001000", "100632.004000", "100632.007000", "100632.009000", "100632.012000", "100632.015000", "100632.017000", "100632.020000", "100632.023000", "100632.025000", "100632.028000", "100632.030000", "100632.033000", "100632.035000", "100632.038000", "100632.041000", "100632.043000", "100632.046000", "100632.048000", "100632.051000", "100712.001000", "100712.004000", "100712.007000", "100712.010000", "100712.012000", "100712.015000", "100712.017000", "100712.020000", "100712.023000", "100712.025000", "100712.028000", "100712.030000", "100712.033000", "100712.035000", "100712.038000", "100712.041000", "100712.043000", "100712.046000", "100712.048000", "100712.051000", "100749.893000", "100749.896000", "100749.899000", "100749.901000", "100749.904000", "100749.907000", "100749.909000", "100749.912000", "100749.914000", "100749.917000", "100749.920000", "100749.927000", "100749.930000", "100749.932000", "100749.935000", "100749.938000", "100749.947000", "100749.950000", "100749.953000"],
      "InstanceNumber": [1, 2, 3, 4, 5, 6, 7, 8, 9, 10, 11, 12, 13, 14, 15, 16, 17, 18, 19, 20, 21, 22, 23, 24, 25, 26, 27, 28, 29, 30, 31, 32, 33, 34, 35, 36, 37, 38, 39, 40, 41, 42, 43, 44, 45, 46, 47, 48, 49, 50, 51, 52, 53, 54, 55, 56, 57, 58, 59, 60, 61, 62, 63, 64, 65, 66, 67, 68, 69, 70, 71, 72, 73, 74, 75, 76, 77, 78, 79, 80, 81, 82, 83, 84, 85, 86, 87, 88, 89, 90, 91, 92, 93, 94, 95, 96, 97, 98, 99, 100, 101, 102, 103, 104, 105, 106, 107, 108, 109, 110, 111, 112, 113, 114, 115, 116, 117, 118, 119, 120, 121, 122, 123, 124, 125, 126, 127, 128, 129, 130, 131, 132, 133, 134, 135, 136, 137, 138, 139, 140, 141, 142, 143, 144, 145, 146, 147, 148, 149, 150, 151, 152, 153, 154, 155, 156, 157, 158, 159, 160, 161, 162, 163, 164, 165, 166, 167, 168, 169, 170, 171, 172, 173, 174, 175, 176, 177, 178, 179, 180, 181, 182, 183, 184, 185, 186, 187, 188, 189, 190, 191, 192, 193, 194, 195, 196, 197, 198, 199, 200],
      "LargestImagePixelValue": [2229, 2228, 2235, 2231, 2233, 2231, 2233, 2229, 2230, 2236, 2232, 2229, 2232, 2234, 2230, 2232, 2227, 2233, 2230, 2231, 2227, 2229, 2234, 2229, 2236, 2229, 2234, 2234, 2232, 2230, 2233, 2235, 2230, 2232, 2232, 2231, 2231, 2232, 2232, 2232, 2231, 2227, 2235, 2236, 2232, 2234, 2230, 2237, 2243, 2232, 2231, 2234, 2234, 2234, 2232, 2233, 2231, 2232, 2230, 2235, 2231, 2232, 2235, 2234, 2231, 2230, 2229, 2230, 2229, 2233, 2237, 2233, 2233, 2238, 2236, 2231, 2231, 2233, 2230, 2233, 2237, 2234, 2234, 2234, 2234, 2229, 2228, 2236, 2230, 2230, 2234, 2230, 2232, 2233, 2235, 2236, 2230, 2233, 2235, 2233, 2234, 2236, 2236, 2233, 2233, 2231, 2231, 2236, 2233, 2234, 2234, 2241, 2234, 2235, 2234, 2238, 2236, 2235, 2229, 2232, 2234, 2230, 2234, 2227, 2233, 2238, 2238, 2233, 2233, 2231, 2237, 2232, 2232, 2237, 2234, 2234, 2234, 2235, 2234, 2236, 2232, 2231, 2228, 2229, 2237, 2236, 2233, 2233, 2233, 2231, 2239, 2233, 2232, 2232, 2233, 2235, 2240, 2234, 2236, 2231, 2235, 2228, 2234, 2238, 2230, 2237, 2231, 2241, 2238, 2233, 2232, 2231, 2234, 2237, 2238, 2230, 2234, 2231, 2234, 2234, 2236, 2236, 2230, 2237, 2234, 2233, 2236, 2233, 2235, 2229, 2235, 2231, 2235, 2240, 2232, 2239, 2234, 2238, 2232, 2235],
      "WindowWidth": [2094.0, 2094.0, 2095.0, 2094.0, 2095.0, 2095.0, 2095.0, 2095.0, 2095.0, 2094.0, 2095.0, 2095.0, 2095.0, 2094.0, 2095.0, 2095.0, 2095.0, 2095.0, 2094.0, 2095.0, 2095.0, 2095.0, 2095.0, 2095.0, 2095.0, 2095.0, 2095.0, 2095.0, 2095.0, 2095.0, 2095.0, 2095.0, 2095.0, 2095.0, 2095.0, 2095.0, 2095.0, 2095.0, 2095.0, 2095.0, 2095.0, 2095.0, 2095.0, 2095.0, 2095.0, 2095.0, 2095.0, 2095.0, 2095.0, 2095.0, 2095.0, 2095.0, 2095.0, 2095.0, 2095.0, 2095.0, 2095.0, 2095.0, 2095.0, 2095.0, 2095.0, 2095.0, 2095.0, 2095.0, 2095.0, 2095.0, 2095.0, 2095.0, 2095.0, 2095.0, 2095.0, 2095.0, 2095.0, 2095.0, 2095.0, 2095.0, 2095.0, 2095.0, 2095.0, 2095.0, 2095.0, 2095.0, 2095.0, 2095.0, 2095.0, 2095.0, 2095.0, 2095.0, 2095.0, 2095.0, 2095.0, 2095.0, 2095.0, 2095.0, 2095.0, 2095.0, 2095.0, 2095.0, 2095.0, 2095.0, 2095.0, 2095.0, 2095.0, 2095.0, 2095.0, 2095.0, 2095.0, 2095.0, 2095.0, 2095.0, 2095.0, 2095.0, 2095.0, 2095.0, 2095.0, 2095.0, 2095.0, 2095.0, 2095.0, 2095.0, 2095.0, 2095.0, 2095.0, 2095.0, 2095.0, 2095.0, 2095.0, 2095.0, 2095.0, 2095.0, 2095.0, 2095.0, 2095.0, 2095.0, 2095.0, 2095.0, 2095.0, 2095.0, 2095.0, 2095.0, 2095.0, 2095.0, 2095.0, 2095.0, 2095.0, 2095.0, 2095.0, 2095.0, 2095.0, 2095.0, 2095.0, 2095.0, 2095.0, 2095.0, 2095.0, 2095.0, 2095.0, 2095.0, 2095.0, 2095.0, 2095.0, 2095.0, 2095.0, 2095.0, 2095.0, 2095.0, 2095.0, 2095.0, 2095.0, 2095.0, 2095.0, 2095.0, 2095.0, 2095.0, 2095.0, 2095.0, 2095.0, 2095.0, 2095.0, 2095.0, 2095.0, 2095.0, 2095.0, 2095.0, 2095.0, 2095.0, 2095.0, 2095.0, 2095.0, 2095.0, 2095.0, 2095.0, 2095.0, 2095.0, 2095.0, 2095.0, 2095.0, 2095.0, 2095.0, 2095.0]
    },
    "slices": {}
  }
}