{
  "AcquisitionMatrixPE": 80,
  "AcquisitionNumber": 1,
  "AcquisitionTime": "09:54:16.817500",
  "BandwidthPerPixelPhaseEncode": 48.077,
  "BaseResolution": 80,
  "BodyPartExamined": "BRAIN",
  "CoilCombinationMethod": "Sum of Squares",
  "ConsistencyInfo": "N4_VE11C_LATEST_20160120",
  "ConversionSoftware": "dcm2niix",
  "ConversionSoftwareVersion": "v1.0.20220720",
  "DerivedVendorReportedEchoSpacing": 0.000519999,
  "DeviceSerialNumber": "66112",
  "DwellTime": 2.7e-06,
  "EchoTime": 0.035,
  "EchoTrainLength": 39,
  "EffectiveEchoSpacing": 0.00026,
  "FlipAngle": 90,
  "HeudiconvVersion": "0.13.1",
  "ImageOrientationPatientDICOM": [0.980083, -0.198584, 0.000974884, 0.189267, 0.935565, 0.298156],
  "ImageOrientationText": "Tra>Cor(17.0)>Sag(3.4)",
  "ImageType": [
    "ORIGINAL",
    "PRIMARY",
    "M",
    "ND",
    "NORM",
    "MOSAIC"
],
  "ImagingFrequency": 123.253,
  "InPlanePhaseEncodingDirectionDICOM": "COL",
  "InstitutionAddress": "Maynard 3,Hanover,NH,US,03755",
  "InstitutionName": "Dartmouth College - PBS",
  "InstitutionalDepartmentName": "Department",
  "MRAcquisitionType": "2D",
  "MagneticFieldStrength": 3,
  "Manufacturer": "Siemens",
  "ManufacturersModelName": "Prisma",
  "MatrixCoilMode": "GRAPPA",
  "Modality": "MR",
  "NonlinearGradientCorrection": false,
  "ParallelReductionFactorInPlane": 2,
  "PartialFourier": 1,
  "PatientPosition": "HFS",
  "PercentPhaseFOV": 100,
  "PercentSampling": 100,
  "PhaseEncodingDirection": "j-",
  "PhaseEncodingSteps": 79,
  "PhaseResolution": 1,
  "PixelBandwidth": 2315,
  "ProcedureStepDescription": "dbic^QA",
  "ProtocolName": "func-bold_task-rest_acq-p2",
  "PulseSequenceDetails": "%SiemensSeq%\\ep2d_bold",
  "ReceiveCoilActiveElements": "HEA;HEP",
  "ReceiveCoilName": "Head_32",
  "ReconMatrixPE": 80,
  "RefLinesPE": 24,
  "RepetitionTime": 2,
  "SAR": 0.0478642,
  "ScanOptions": "FS",
  "ScanningSequence": "EP",
  "SequenceName": "*epfid2d1_80",
  "SequenceVariant": "SK",
  "SeriesDescription": "func-bold_task-rest_acq-p2",
  "SeriesNumber": 5,
  "ShimSetting": [4145, -7690, -7520, 275, -101, -197, -28, 103],
  "SliceThickness": 3.5,
  "SliceTiming": [0.99, 0, 1.055, 0.065, 1.1225, 0.1325, 1.1875, 0.1975, 1.255, 0.265, 1.32, 0.33, 1.385, 0.395, 1.4525, 0.4625, 1.5175, 0.5275, 1.585, 0.595, 1.65, 0.66, 1.715, 0.725, 1.7825, 0.7925, 1.8475, 0.8575, 1.915, 0.925],
  "SoftwareVersions": "syngo MR E11",
  "SpacingBetweenSlices": 3.99,
  "StationName": "AWP66112",
  "TaskName": "rest",
  "TotalReadoutTime": 0.02054,
  "TxRefAmp": 230.304,
  "dcmmeta_affine": [
    [-2.9402503967285156, 0.5677996873855591, 0.23988264799118042, 86.16361999511719],
    [0.5957505106925964, 2.8066937923431396, 1.1652133464813232, -140.8458709716797],
    [0.0029246530029922724, -0.8944685459136963, 3.808521032333374, -34.20972442626953],
    [0.0, 0.0, 0.0, 1.0]
],
  "dcmmeta_reorient_transform": [
    [0.0, -1.0, 0.0, 79.0],
    [1.0, 0.0, 0.0, 0.0],
    [0.0, 0.0, 1.0, 0.0],
    [0.0, 0.0, 0.0, 1.0]
],
  "dcmmeta_shape": [80, 80, 30, 200],
  "dcmmeta_slice_dim": 2,
  "dcmmeta_version": 0.6,
  "global": {
    "const": {
      "AccessionNumber": "qa",
      "AcquisitionMatrix": [80, 0, 0, 80],
      "AngioFlag": "N",
      "BitsAllocated": 16,
      "BitsStored": 12,
      "BodyPartExamined": "BRAIN",
      "Columns": 480,
      "EchoNumbers": 1,
      "EchoTime": 35.0,
      "EchoTrainLength": 39,
      "FlipAngle": 90.0,
      "HighBit": 11,
      "ImageOrientationPatient": [0.98008348561315, -0.1985835109693, 0.0009748843426, 0.18926655932164, 0.93556456954292, 0.29815617675729],
      "ImagePositionPatient": [-832.62981773055, -523.07155975524, -284.3513766262],
      "ImageType": [
        "ORIGINAL",
        "PRIMARY",
        "M",
        "ND",
        "NORM",
        "MOSAIC"
],
      "ImagedNucleus": "1H",
      "ImagingFrequency": 123.252515,
      "InPlanePhaseEncodingDirection": "COL",
      "MRAcquisitionType": "2D",
      "MagneticFieldStrength": 3.0,
      "Manufacturer": "SIEMENS",
      "ManufacturerModelName": "Prisma",
      "Modality": "MR",
      "NumberOfAverages": 1.0,
      "NumberOfPhaseEncodingSteps": 79,
      "PercentPhaseFieldOfView": 100.0,
      "PercentSampling": 100.0,
      "PerformedProcedureStepStartTime": "093416.750000",
      "PhotometricInterpretation": "MONOCHROME2",
      "PixelBandwidth": 2315.0,
      "PixelRepresentation": 0,
      "PixelSpacing": [3.0, 3.0],
      "ProtocolName": "func-bold_task-rest_acq-p2",
      "RepetitionTime": 2000.0,
      "Rows": 480,
      "SAR": 0.04786423096732,
      "SamplesPerPixel": 1,
      "ScanOptions": "FS",
      "ScanningSequence": "EP",
      "SequenceName": "*epfid2d1_80",
      "SequenceVariant": "SK",
      "SeriesDescription": "func-bold_task-rest_acq-p2",
      "SeriesNumber": 5,
      "SeriesTime": "095511.934000",
      "SliceLocation": -68.605216751363,
      "SliceThickness": 3.5,
      "SmallestImagePixelValue": 0,
      "SoftwareVersions": "syngo MR E11",
      "SpacingBetweenSlices": 3.9899998954557,
      "SpecificCharacterSet": "ISO_IR 100",
      "StudyID": "64",
      "StudyTime": "093416.691000",
      "TransmitCoilName": "Body",
      "VariableFlipAngleFlag": "N",
      "WindowCenterWidthExplanation": "Algo1",
      "dBdt": 0.0},
    "slices": {}
  },
  "time": {
    "samples": {
      "AcquisitionNumber": [1, 2, 3, 4, 5, 6, 7, 8, 9, 10, 11, 12, 13, 14, 15, 16, 17, 18, 19, 20, 21, 22, 23, 24, 25, 26, 27, 28, 29, 30, 31, 32, 33, 34, 35, 36, 37, 38, 39, 40, 41, 42, 43, 44, 45, 46, 47, 48, 49, 50, 51, 52, 53, 54, 55, 56, 57, 58, 59, 60, 61, 62, 63, 64, 65, 66, 67, 68, 69, 70, 71, 72, 73, 74, 75, 76, 77, 78, 79, 80, 81, 82, 83, 84, 85, 86, 87, 88, 89, 90, 91, 92, 93, 94, 95, 96, 97, 98, 99, 100, 101, 102, 103, 104, 105, 106, 107, 108, 109, 110, 111, 112, 113, 114, 115, 116, 117, 118, 119, 120, 121, 122, 123, 124, 125, 126, 127, 128, 129, 130, 131, 132, 133, 134, 135, 136, 137, 138, 139, 140, 141, 142, 143, 144, 145, 146, 147, 148, 149, 150, 151, 152, 153, 154, 155, 156, 157, 158, 159, 160, 161, 162, 163, 164, 165, 166, 167, 168, 169, 170, 171, 172, 173, 174, 175, 176, 177, 178, 179, 180, 181, 182, 183, 184, 185, 186, 187, 188, 189, 190, 191, 192, 193, 194, 195, 196, 197, 198, 199, 200],
      "AcquisitionTime": ["095416.817500", "095418.817500", "095420.817500", "095422.817500", "095424.817500", "095426.817500", "095428.817500", "095430.817500", "095432.817500", "095434.817500", "095436.817500", "095438.817500", "095440.817500", "095442.817500", "095444.817500", "095446.817500", "095448.817500", "095450.817500", "095452.817500", "095454.817500", "095456.817500", "095458.817500", "095500.817500", "095502.817500", "095504.817500", "095506.817500", "095508.817500", "095510.817500", "095512.817500", "095514.817500", "095516.817500", "095518.817500", "095520.817500", "095522.817500", "095524.817500", "095526.817500", "095528.817500", "095530.817500", "095532.817500", "095534.817500", "095536.817500", "095538.817500", "095540.817500", "095542.817500", "095544.817500", "095546.817500", "095548.817500", "095550.817500", "095552.817500", "095554.817500", "095556.817500", "095558.817500", "095600.817500", "095602.817500", "095604.817500", "095606.817500", "095608.817500", "095610.817500", "095612.817500", "095614.817500", "095616.817500", "095618.817500", "095620.817500", "095622.817500", "095624.817500", "095626.817500", "095628.817500", "095630.817500", "095632.817500", "095634.817500", "095636.817500", "095638.817500", "095640.817500", "095642.817500", "095644.817500", "095646.817500", "095648.817500", "095650.817500", "095652.817500", "095654.817500", "095656.817500", "095658.817500", "095700.817500", "095702.817500", "095704.817500", "095706.817500", "095708.817500", "095710.817500", "095712.817500", "095714.817500", "095716.817500", "095718.817500", "095720.817500", "095722.817500", "095724.817500", "095726.817500", "095728.817500", "095730.817500", "095732.817500", "095734.817500", "095736.817500", "095738.817500", "095740.817500", "095742.817500", "095744.817500", "095746.817500", "095748.817500", "095750.817500", "095752.817500", "095754.817500", "095756.817500", "095758.817500", "095800.817500", "095802.817500", "095804.817500", "095806.817500", "095808.817500", "095810.817500", "095812.817500", "095814.817500", "095816.817500", "095818.817500", "095820.817500", "095822.817500", "095824.817500", "095826.817500", "095828.817500", "095830.817500", "095832.817500", "095834.817500", "095836.817500", "095838.817500", "095840.817500", "095842.817500", "095844.817500", "095846.817500", "095848.817500", "095850.817500", "095852.817500", "095854.817500", "095856.817500", "095858.817500", "095900.817500", "095902.817500", "095904.817500", "095906.817500", "095908.817500", "095910.817500", "095912.817500", "095914.817500", "095916.817500", "095918.817500", "095920.817500", "095922.817500", "095924.817500", "095926.817500", "095928.817500", "095930.817500", "095932.817500", "095934.817500", "095936.817500", "095938.817500", "095940.817500", "095942.817500", "095944.817500", "095946.817500", "095948.817500", "095950.817500", "095952.817500", "095954.817500", "095956.817500", "095958.817500", "100000.817500", "100002.817500", "100004.817500", "100006.817500", "100008.817500", "100010.817500", "100012.817500", "100014.817500", "100016.817500", "100018.817500", "100020.817500", "100022.817500", "100024.817500", "100026.817500", "100028.817500", "100030.817500", "100032.817500", "100034.817500", "100036.817500", "100038.817500", "100040.817500", "100042.817500", "100044.817500", "100046.817500", "100048.817500", "100050.817500", "100052.817500", "100054.817500"],
      "ContentTime": ["095511.937000", "095511.941000", "095511.943000", "095511.946000", "095511.949000", "095511.951000", "095511.954000", "095511.956000", "095511.959000", "095511.961000", "095511.964000", "095511.966000", "095511.969000", "095511.972000", "095511.974000", "095511.977000", "095511.979000", "095511.982000", "095511.985000", "095511.987000", "095511.990000", "095511.992000", "095511.995000", "095511.997000", "095512.001000", "095512.013000", "095512.016000", "095512.018000", "095551.931000", "095551.934000", "095551.945000", "095551.947000", "095551.953000", "095551.956000", "095551.958000", "095551.961000", "095551.964000", "095551.966000", "095551.969000", "095551.971000", "095551.974000", "095551.976000", "095551.979000", "095551.982000", "095551.984000", "095551.987000", "095551.989000", "095551.992000", "095631.931000", "095631.934000", "095631.949000", "095631.952000", "095631.954000", "095631.957000", "095631.960000", "095631.962000", "095631.965000", "095631.967000", "095631.970000", "095631.972000", "095631.990000", "095631.993000", "095631.995000", "095631.998000", "095632.002000", "095632.004000", "095632.007000", "095632.009000", "095711.932000", "095711.934000", "095711.942000", "095711.945000", "095711.947000", "095711.950000", "095711.952000", "095711.955000", "095711.957000", "095711.960000", "095711.963000", "095711.965000", "095711.968000", "095711.970000", "095711.973000", "095711.976000", "095711.978000", "095711.981000", "095711.983000", "095711.986000", "095751.932000", "095751.934000", "095751.942000", "095751.944000", "095751.947000", "095751.949000", "095751.952000", "095751.954000", "095751.957000", "095751.959000", "095751.962000", "095751.965000", "095751.967000", "095751.970000", "095751.972000", "095751.975000", "095751.978000", "095751.980000", "095751.983000", "095751.985000", "095831.932000", "095831.934000", "095831.946000", "095831.948000", "095831.951000", "095831.953000", "095831.956000", "095831.959000", "095831.961000", "095831.964000", "095831.966000", "095831.969000", "095831.972000", "095831.974000", "095831.977000", "095831.979000", "095831.982000", "095831.984000", "095831.987000", "095831.990000", "095911.932000", "095911.934000", "095911.937000", "095911.940000", "095911.942000", "095911.945000", "095911.947000", "095911.950000", "095911.953000", "095911.955000", "095911.958000", "095911.960000", "095911.963000", "095911.965000", "095911.968000", "095911.971000", "095911.973000", "095911.976000", "095911.978000", "095911.981000", "095951.932000", "095951.935000", "095951.944000", "095951.947000", "095951.949000", "095951.952000", "095951.954000", "095951.957000", "095951.959000", "095951.962000", "095951.965000", "095951.967000", "095951.970000", "095951.972000", "095951.975000", "095951.978000", "095951.980000", "095951.983000", "095951.985000", "095951.988000", "100031.931000", "100031.934000", "100031.942000", "100031.945000", "100031.948000", "100031.950000", "100031.953000", "100031.955000", "100031.958000", "100031.960000", "100031.963000", "100031.966000", "100031.968000", "100031.971000", "100031.973000", "100031.976000", "100031.979000", "100031.981000", "100031.984000", "100031.986000", "100055.889000", "100055.892000", "100055.895000", "100055.898000", "100055.900000", "100055.903000", "100055.906000", "100055.908000", "100055.911000", "100055.913000", "100055.916000", "100055.921000"],
      "InstanceCreationTime": ["095511.937000", "095511.941000", "095511.943000", "095511.946000", "095511.949000", "095511.951000", "095511.954000", "095511.956000", "095511.959000", "095511.961000", "095511.964000", "095511.966000", "095511.969000", "095511.972000", "095511.974000", "095511.977000", "095511.979000", "095511.982000", "095511.985000", "095511.987000", "095511.990000", "095511.992000", "095511.995000", "095511.997000", "095512.001000", "095512.013000", "095512.016000", "095512.018000", "095551.931000", "095551.934000", "095551.945000", "095551.947000", "095551.953000", "095551.956000", "095551.958000", "095551.961000", "095551.964000", "095551.966000", "095551.969000", "095551.971000", "095551.974000", "095551.976000", "095551.979000", "095551.982000", "095551.984000", "095551.987000", "095551.989000", "095551.992000", "095631.931000", "095631.934000", "095631.949000", "095631.952000", "095631.954000", "095631.957000", "095631.960000", "095631.962000", "095631.965000", "095631.967000", "095631.970000", "095631.972000", "095631.990000", "095631.993000", "095631.995000", "095631.998000", "095632.002000", "095632.004000", "095632.007000", "095632.009000", "095711.932000", "095711.934000", "095711.942000", "095711.945000", "095711.947000", "095711.950000", "095711.952000", "095711.955000", "095711.957000", "095711.960000", "095711.963000", "095711.965000", "095711.968000", "095711.970000", "095711.973000", "095711.976000", "095711.978000", "095711.981000", "095711.983000", "095711.986000", "095751.932000", "095751.934000", "095751.942000", "095751.944000", "095751.947000", "095751.949000", "095751.952000", "095751.954000", "095751.957000", "095751.959000", "095751.962000", "095751.965000", "095751.967000", "095751.970000", "095751.972000", "095751.975000", "095751.978000", "095751.980000", "095751.983000", "095751.985000", "095831.932000", "095831.934000", "095831.946000", "095831.948000", "095831.951000", "095831.953000", "095831.956000", "095831.959000", "095831.961000", "095831.964000", "095831.966000", "095831.969000", "095831.972000", "095831.974000", "095831.977000", "095831.979000", "095831.982000", "095831.984000", "095831.987000", "095831.990000", "095911.932000", "095911.934000", "095911.937000", "095911.940000", "095911.942000", "095911.945000", "095911.947000", "095911.950000", "095911.953000", "095911.955000", "095911.958000", "095911.960000", "095911.963000", "095911.965000", "095911.968000", "095911.971000", "095911.973000", "095911.976000", "095911.978000", "095911.981000", "095951.932000", "095951.935000", "095951.944000", "095951.947000", "095951.949000", "095951.952000", "095951.954000", "095951.957000", "095951.959000", "095951.962000", "095951.965000", "095951.967000", "095951.970000", "095951.972000", "095951.975000", "095951.978000", "095951.980000", "095951.983000", "095951.985000", "095951.988000", "100031.931000", "100031.934000", "100031.942000", "100031.945000", "100031.948000", "100031.950000", "100031.953000", "100031.955000", "100031.958000", "100031.960000", "100031.963000", "100031.966000", "100031.968000", "100031.971000", "100031.973000", "100031.976000", "100031.979000", "100031.981000", "100031.984000", "100031.986000", "100055.889000", "100055.892000", "100055.895000", "100055.898000", "100055.900000", "100055.903000", "100055.906000", "100055.908000", "100055.911000", "100055.913000", "100055.916000", "100055.921000"],
      "InstanceNumber": [1, 2, 3, 4, 5, 6, 7, 8, 9, 10, 11, 12, 13, 14, 15, 16, 17, 18, 19, 20, 21, 22, 23, 24, 25, 26, 27, 28, 29, 30, 31, 32, 33, 34, 35, 36, 37, 38, 39, 40, 41, 42, 43, 44, 45, 46, 47, 48, 49, 50, 51, 52, 53, 54, 55, 56, 57, 58, 59, 60, 61, 62, 63, 64, 65, 66, 67, 68, 69, 70, 71, 72, 73, 74, 75, 76, 77, 78, 79, 80, 81, 82, 83, 84, 85, 86, 87, 88, 89, 90, 91, 92, 93, 94, 95, 96, 97, 98, 99, 100, 101, 102, 103, 104, 105, 106, 107, 108, 109, 110, 111, 112, 113, 114, 115, 116, 117, 118, 119, 120, 121, 122, 123, 124, 125, 126, 127, 128, 129, 130, 131, 132, 133, 134, 135, 136, 137, 138, 139, 140, 141, 142, 143, 144, 145, 146, 147, 148, 149, 150, 151, 152, 153, 154, 155, 156, 157, 158, 159, 160, 161, 162, 163, 164, 165, 166, 167, 168, 169, 170, 171, 172, 173, 174, 175, 176, 177, 178, 179, 180, 181, 182, 183, 184, 185, 186, 187, 188, 189, 190, 191, 192, 193, 194, 195, 196, 197, 198, 199, 200],
      "LargestImagePixelValue": [2251, 2248, 2258, 2247, 2262, 2260, 2257, 2253, 2259, 2255, 2262, 2263, 2261, 2259, 2261, 2261, 2258, 2257, 2259, 2251, 2255, 2259, 2259, 2262, 2254, 2256, 2258, 2254, 2254, 2254, 2254, 2251, 2261, 2257, 2249, 2264, 2256, 2254, 2252, 2254, 2255, 2257, 2259, 2266, 2253, 2260, 2253, 2249, 2257, 2257, 2260, 2257, 2260, 2254, 2258, 2253, 2258, 2256, 2254, 2261, 2254, 2260, 2260, 2254, 2251, 2255, 2263, 2257, 2264, 2250, 2255, 2256, 2259, 2259, 2262, 2256, 2264, 2258, 2251, 2257, 2259, 2254, 2258, 2247, 2254, 2262, 2254, 2260, 2257, 2248, 2255, 2253, 2255, 2259, 2264, 2256, 2260, 2260, 2260, 2255, 2257, 2257, 2254, 2251, 2255, 2257, 2258, 2260, 2253, 2259, 2254, 2256, 2262, 2258, 2247, 2254, 2253, 2255, 2250, 2246, 2261, 2253, 2255, 2259, 2251, 2253, 2254, 2262, 2256, 2257, 2268, 2253, 2263, 2252, 2253, 2254, 2257, 2261, 2261, 2254, 2254, 2257, 2256, 2262, 2253, 2256, 2260, 2244, 2252, 2253, 2255, 2253, 2260, 2253, 2254, 2258, 2252, 2261, 2263, 2254, 2257, 2261, 2247, 2254, 2255, 2258, 2254, 2255, 2256, 2265, 2259, 2258, 2255, 2247, 2262, 2252, 2255, 2265, 2250, 2257, 2262, 2250, 2249, 2260, 2257, 2255, 2257, 2259, 2250, 2252, 2261, 2249, 2259, 2255, 2260, 2263, 2259, 2258, 2259, 2256],
      "WindowCenter": [985.0, 985.0, 985.0, 985.0, 985.0, 985.0, 985.0, 985.0, 985.0, 985.0, 985.0, 985.0, 985.0, 985.0, 985.0, 985.0, 985.0, 985.0, 985.0, 985.0, 985.0, 985.0, 985.0, 985.0, 985.0, 985.0, 985.0, 985.0, 985.0, 985.0, 985.0, 985.0, 985.0, 985.0, 985.0, 985.0, 985.0, 985.0, 985.0, 985.0, 985.0, 986.0, 985.0, 985.0, 985.0, 985.0, 985.0, 985.0, 985.0, 985.0, 986.0, 985.0, 985.0, 986.0, 985.0, 985.0, 985.0, 985.0, 985.0, 985.0, 985.0, 985.0, 985.0, 985.0, 985.0, 985.0, 985.0, 985.0, 985.0, 985.0, 985.0, 985.0, 985.0, 985.0, 985.0, 985.0, 985.0, 985.0, 985.0, 986.0, 985.0, 985.0, 985.0, 985.0, 986.0, 985.0, 985.0, 985.0, 985.0, 985.0, 985.0, 985.0, 985.0, 985.0, 985.0, 985.0, 985.0, 985.0, 985.0, 985.0, 985.0, 985.0, 985.0, 985.0, 985.0, 985.0, 986.0, 985.0, 985.0, 985.0, 985.0, 985.0, 985.0, 985.0, 986.0, 985.0, 985.0, 985.0, 985.0, 985.0, 985.0, 985.0, 985.0, 985.0, 985.0, 985.0, 985.0, 985.0, 985.0, 985.0, 985.0, 985.0, 985.0, 985.0, 985.0, 985.0, 985.0, 985.0, 985.0, 985.0, 985.0, 985.0, 985.0, 985.0, 985.0, 985.0, 985.0, 985.0, 985.0, 985.0, 985.0, 985.0, 985.0, 985.0, 985.0, 985.0, 985.0, 985.0, 985.0, 985.0, 985.0, 985.0, 985.0, 985.0, 985.0, 985.0, 985.0, 985.0, 985.0, 985.0, 985.0, 985.0, 985.0, 984.0, 985.0, 984.0, 985.0, 984.0, 984.0, 984.0, 985.0, 985.0, 984.0, 984.0, 985.0, 985.0, 984.0, 984.0, 985.0, 985.0, 984.0, 985.0, 984.0, 984.0, 984.0, 984.0, 984.0, 984.0, 985.0, 984.0],
      "WindowWidth": [2160.0, 2160.0, 2160.0, 2160.0, 2160.0, 2160.0, 2160.0, 2160.0, 2160.0, 2160.0, 2159.0, 2160.0, 2160.0, 2160.0, 2160.0, 2160.0, 2160.0, 2160.0, 2160.0, 2160.0, 2160.0, 2160.0, 2160.0, 2160.0, 2159.0, 2159.0, 2159.0, 2160.0, 2159.0, 2159.0, 2159.0, 2159.0, 2160.0, 2160.0, 2159.0, 2159.0, 2160.0, 2159.0, 2160.0, 2160.0, 2159.0, 2160.0, 2159.0, 2159.0, 2159.0, 2159.0, 2159.0, 2159.0, 2159.0, 2159.0, 2160.0, 2159.0, 2159.0, 2160.0, 2159.0, 2159.0, 2159.0, 2160.0, 2159.0, 2159.0, 2159.0, 2159.0, 2159.0, 2159.0, 2159.0, 2159.0, 2159.0, 2159.0, 2159.0, 2159.0, 2159.0, 2159.0, 2159.0, 2159.0, 2159.0, 2159.0, 2159.0, 2159.0, 2159.0, 2160.0, 2159.0, 2159.0, 2159.0, 2159.0, 2160.0, 2159.0, 2159.0, 2159.0, 2159.0, 2159.0, 2159.0, 2159.0, 2159.0, 2159.0, 2159.0, 2159.0, 2159.0, 2159.0, 2159.0, 2159.0, 2159.0, 2159.0, 2159.0, 2159.0, 2159.0, 2159.0, 2160.0, 2159.0, 2159.0, 2159.0, 2159.0, 2159.0, 2159.0, 2159.0, 2160.0, 2159.0, 2159.0, 2159.0, 2159.0, 2159.0, 2159.0, 2159.0, 2159.0, 2159.0, 2159.0, 2159.0, 2159.0, 2159.0, 2159.0, 2159.0, 2159.0, 2159.0, 2159.0, 2159.0, 2159.0, 2159.0, 2159.0, 2159.0, 2159.0, 2159.0, 2159.0, 2159.0, 2159.0, 2159.0, 2159.0, 2159.0, 2159.0, 2159.0, 2159.0, 2160.0, 2159.0, 2159.0, 2159.0, 2159.0, 2159.0, 2159.0, 2159.0, 2159.0, 2159.0, 2159.0, 2159.0, 2159.0, 2159.0, 2159.0, 2159.0, 2159.0, 2159.0, 2159.0, 2159.0, 2159.0, 2159.0, 2159.0, 2159.0, 2159.0, 2159.0, 2159.0, 2159.0, 2159.0, 2159.0, 2159.0, 2159.0, 2159.0, 2159.0, 2159.0, 2159.0, 2159.0, 2159.0, 2159.0, 2159.0, 2159.0, 2159.0, 2159.0, 2159.0, 2159.0, 2159.0, 2159.0, 2159.0, 2159.0, 2159.0, 2159.0]
    },
    "slices": {}
  }
}