{
  "AcquisitionMatrixPE": 80,
  "AcquisitionNumber": 1,
  "AcquisitionTime": "09:09:20.430000",
  "BandwidthPerPixelPhaseEncode": 25,
  "BaseResolution": 80,
  "BodyPartExamined": "BRAIN",
  "CoilCombinationMethod": "Sum of Squares",
  "ConsistencyInfo": "N4_VE11E_LATEST_20181129",
  "ConversionSoftware": "dcm2niix",
  "ConversionSoftwareVersion": "v1.0.20220720",
  "DerivedVendorReportedEchoSpacing": 0.0005,
  "DeviceSerialNumber": "66112",
  "DwellTime": 2.7e-06,
  "EchoTime": 0.03,
  "EchoTrainLength": 80,
  "EffectiveEchoSpacing": 0.0005,
  "FlipAngle": 77,
  "HeudiconvVersion": "0.13.1",
  "ImageOrientationPatientDICOM": [0.99994, 0.00982789, 0.00481077, -0.0108208, 0.953459, 0.301328],
  "ImageOrientationText": "Tra>Cor(17.5)>Sag(0.1)",
  "ImageType": [
    "ORIGINAL",
    "PRIMARY",
    "M",
    "ND",
    "NORM",
    "MOSAIC"
],
  "ImagingFrequency": 123.259,
  "InPlanePhaseEncodingDirectionDICOM": "COL",
  "InstitutionAddress": "Maynard 3,Hanover,NH,US,03755",
  "InstitutionName": "Dartmouth College - PBS",
  "InstitutionalDepartmentName": "Department",
  "MRAcquisitionType": "2D",
  "MagneticFieldStrength": 3,
  "Manufacturer": "Siemens",
  "ManufacturersModelName": "Prisma",
  "MatrixCoilMode": "SENSE",
  "Modality": "MR",
  "NonlinearGradientCorrection": false,
  "PartialFourier": 1,
  "PatientPosition": "HFS",
  "PercentPhaseFOV": 100,
  "PercentSampling": 100,
  "PhaseEncodingDirection": "j-",
  "PhaseEncodingSteps": 80,
  "PhaseResolution": 1,
  "PixelBandwidth": 2315,
  "ProcedureStepDescription": "dbic^QA",
  "ProtocolName": "func-bold_fa-77",
  "PulseSequenceDetails": "%SiemensSeq%\\ep2d_bold",
  "ReceiveCoilActiveElements": "HC1-7;NC1,2",
  "ReceiveCoilName": "HeadNeck_64",
  "ReconMatrixPE": 80,
  "RepetitionTime": 2,
  "SAR": 0.0320506,
  "ScanOptions": "FS",
  "ScanningSequence": "EP",
  "SequenceName": "*epfid2d1_80",
  "SequenceVariant": "SK",
  "SeriesDescription": "func-bold_fa-77",
  "SeriesNumber": 6,
  "ShimSetting": [4216, -7767, -7481, -123, -144, -204, -41, 75],
  "SliceThickness": 3.5,
  "SliceTiming": [0.99, 0, 1.0575, 0.0675, 1.1225, 0.1325, 1.1875, 0.1975, 1.255, 0.265, 1.32, 0.33, 1.3875, 0.3975, 1.4525, 0.4625, 1.5175, 0.5275, 1.585, 0.595, 1.65, 0.66, 1.715, 0.7275, 1.7825, 0.7925, 1.8475, 0.8575, 1.915, 0.925],
  "SoftwareVersions": "syngo MR E11",
  "SpacingBetweenSlices": 3.99,
  "StationName": "AWP66112",
  "TotalReadoutTime": 0.0395,
  "TxRefAmp": 214.148,
  "dcmmeta_affine": [
    [-2.9998204708099365, -0.03246228024363518, 0.006485603284090757, 121.27670288085938],
    [-0.029483668506145477, 2.8603780269622803, 1.2024325132369995, -124.08049774169922],
    [0.014432324096560478, -0.9039825201034546, 3.8044991493225098, -3.6656172275543213],
    [0.0, 0.0, 0.0, 1.0]
],
  "dcmmeta_reorient_transform": [
    [0.0, -1.0, 0.0, 79.0],
    [1.0, 0.0, 0.0, 0.0],
    [0.0, 0.0, 1.0, 0.0],
    [0.0, 0.0, 0.0, 1.0]
],
  "dcmmeta_shape": [80, 80, 30, 200],
  "dcmmeta_slice_dim": 2,
  "dcmmeta_version": 0.6,
  "global": {
    "const": {
      "AccessionNumber": "qa64",
      "AcquisitionMatrix": [80, 0, 0, 80],
      "AngioFlag": "N",
      "BitsAllocated": 16,
      "BitsStored": 12,
      "BodyPartExamined": "BRAIN",
      "Columns": 480,
      "EchoNumbers": 1,
      "EchoTime": 30.0,
      "EchoTrainLength": 80,
      "FlipAngle": 77.0,
      "HighBit": 11,
      "ImageOrientationPatient": [0.99994013272264, 0.00982788970455, 0.00481077484206, -0.0108207594863, 0.95345930268275, 0.30132751167435],
      "ImagePositionPatient": [-712.18380860443, -679.86167178363, -258.76320948029],
      "ImageType": [
        "ORIGINAL",
        "PRIMARY",
        "M",
        "ND",
        "NORM",
        "MOSAIC"
],
      "ImagedNucleus": "1H",
      "ImagingFrequency": 123.259235,
      "InPlanePhaseEncodingDirection": "COL",
      "MRAcquisitionType": "2D",
      "MagneticFieldStrength": 3.0,
      "Manufacturer": "SIEMENS",
      "ManufacturerModelName": "Prisma",
      "Modality": "MR",
      "NumberOfAverages": 1.0,
      "NumberOfPhaseEncodingSteps": 80,
      "PercentPhaseFieldOfView": 100.0,
      "PercentSampling": 100.0,
      "PerformedProcedureStepStartTime": "085737.236000",
      "PhotometricInterpretation": "MONOCHROME2",
      "PixelBandwidth": 2315.0,
      "PixelRepresentation": 0,
      "PixelSpacing": [3.0, 3.0],
      "ProtocolName": "func-bold_fa-77",
      "RepetitionTime": 2000.0,
      "Rows": 480,
      "SAR": 0.0320506472055,
      "SamplesPerPixel": 1,
      "ScanOptions": "FS",
      "ScanningSequence": "EP",
      "SequenceName": "*epfid2d1_80",
      "SequenceVariant": "SK",
      "SeriesDescription": "func-bold_fa-77",
      "SeriesNumber": 6,
      "SeriesTime": "091006.760000",
      "SliceLocation": -40.691155146431,
      "SliceThickness": 3.5,
      "SmallestImagePixelValue": 0,
      "SoftwareVersions": "syngo MR E11",
      "SpacingBetweenSlices": 3.9899999541165,
      "SpecificCharacterSet": "ISO_IR 100",
      "StudyID": "20",
      "StudyTime": "085737.119000",
      "TransmitCoilName": "Body",
      "VariableFlipAngleFlag": "N",
      "WindowCenterWidthExplanation": "Algo1"
    },
    "slices": {}
  },
  "time": {
    "samples": {
      "AcquisitionNumber": [1, 2, 3, 4, 5, 6, 7, 8, 9, 10, 11, 12, 13, 14, 15, 16, 17, 18, 19, 20, 21, 22, 23, 24, 25, 26, 27, 28, 29, 30, 31, 32, 33, 34, 35, 36, 37, 38, 39, 40, 41, 42, 43, 44, 45, 46, 47, 48, 49, 50, 51, 52, 53, 54, 55, 56, 57, 58, 59, 60, 61, 62, 63, 64, 65, 66, 67, 68, 69, 70, 71, 72, 73, 74, 75, 76, 77, 78, 79, 80, 81, 82, 83, 84, 85, 86, 87, 88, 89, 90, 91, 92, 93, 94, 95, 96, 97, 98, 99, 100, 101, 102, 103, 104, 105, 106, 107, 108, 109, 110, 111, 112, 113, 114, 115, 116, 117, 118, 119, 120, 121, 122, 123, 124, 125, 126, 127, 128, 129, 130, 131, 132, 133, 134, 135, 136, 137, 138, 139, 140, 141, 142, 143, 144, 145, 146, 147, 148, 149, 150, 151, 152, 153, 154, 155, 156, 157, 158, 159, 160, 161, 162, 163, 164, 165, 166, 167, 168, 169, 170, 171, 172, 173, 174, 175, 176, 177, 178, 179, 180, 181, 182, 183, 184, 185, 186, 187, 188, 189, 190, 191, 192, 193, 194, 195, 196, 197, 198, 199, 200],
      "AcquisitionTime": ["090920.430000", "090922.430000", "090924.430000", "090926.430000", "090928.430000", "090930.430000", "090932.430000", "090934.430000", "090936.430000", "090938.430000", "090940.430000", "090942.430000", "090944.430000", "090946.430000", "090948.430000", "090950.430000", "090952.430000", "090954.430000", "090956.430000", "090958.430000", "091000.430000", "091002.430000", "091004.430000", "091006.430000", "091008.430000", "091010.430000", "091012.430000", "091014.430000", "091016.430000", "091018.430000", "091020.430000", "091022.430000", "091024.430000", "091026.430000", "091028.430000", "091030.430000", "091032.430000", "091034.430000", "091036.430000", "091038.430000", "091040.430000", "091042.430000", "091044.430000", "091046.430000", "091048.430000", "091050.430000", "091052.430000", "091054.430000", "091056.430000", "091058.430000", "091100.430000", "091102.430000", "091104.430000", "091106.430000", "091108.430000", "091110.430000", "091112.430000", "091114.430000", "091116.430000", "091118.430000", "091120.430000", "091122.430000", "091124.430000", "091126.430000", "091128.430000", "091130.430000", "091132.430000", "091134.430000", "091136.430000", "091138.430000", "091140.430000", "091142.430000", "091144.430000", "091146.430000", "091148.430000", "091150.430000", "091152.430000", "091154.430000", "091156.430000", "091158.430000", "091200.430000", "091202.430000", "091204.430000", "091206.430000", "091208.430000", "091210.430000", "091212.430000", "091214.430000", "091216.430000", "091218.430000", "091220.430000", "091222.430000", "091224.430000", "091226.430000", "091228.430000", "091230.430000", "091232.430000", "091234.430000", "091236.430000", "091238.430000", "091240.430000", "091242.430000", "091244.430000", "091246.430000", "091248.430000", "091250.430000", "091252.430000", "091254.430000", "091256.430000", "091258.430000", "091300.430000", "091302.430000", "091304.430000", "091306.430000", "091308.430000", "091310.430000", "091312.430000", "091314.430000", "091316.430000", "091318.430000", "091320.430000", "091322.430000", "091324.430000", "091326.430000", "091328.430000", "091330.430000", "091332.430000", "091334.430000", "091336.430000", "091338.430000", "091340.430000", "091342.430000", "091344.430000", "091346.430000", "091348.430000", "091350.430000", "091352.430000", "091354.430000", "091356.430000", "091358.430000", "091400.430000", "091402.430000", "091404.430000", "091406.430000", "091408.430000", "091410.430000", "091412.430000", "091414.430000", "091416.430000", "091418.430000", "091420.430000", "091422.430000", "091424.430000", "091426.430000", "091428.430000", "091430.430000", "091432.430000", "091434.430000", "091436.430000", "091438.430000", "091440.430000", "091442.430000", "091444.430000", "091446.430000", "091448.430000", "091450.430000", "091452.430000", "091454.430000", "091456.430000", "091458.430000", "091500.430000", "091502.430000", "091504.430000", "091506.430000", "091508.430000", "091510.430000", "091512.430000", "091514.430000", "091516.430000", "091518.430000", "091520.430000", "091522.430000", "091524.430000", "091526.430000", "091528.430000", "091530.430000", "091532.430000", "091534.430000", "091536.430000", "091538.430000", "091540.430000", "091542.430000", "091544.430000", "091546.430000", "091548.430000", "091550.430000", "091552.430000", "091554.430000", "091556.430000", "091558.430000"],
      "ContentTime": ["091006.763000", "091006.766000", "091006.768000", "091006.771000", "091006.773000", "091006.775000", "091006.778000", "091006.780000", "091006.782000", "091006.784000", "091006.787000", "091006.789000", "091006.791000", "091006.796000", "091006.798000", "091006.800000", "091006.803000", "091006.814000", "091006.816000", "091006.818000", "091006.821000", "091006.831000", "091006.834000", "091046.757000", "091046.760000", "091046.762000", "091046.764000", "091046.766000", "091046.769000", "091046.771000", "091046.773000", "091046.776000", "091046.778000", "091046.780000", "091046.782000", "091046.785000", "091046.787000", "091046.789000", "091046.791000", "091046.794000", "091046.796000", "091046.799000", "091046.801000", "091126.758000", "091126.761000", "091126.824000", "091126.827000", "091126.829000", "091126.831000", "091126.834000", "091126.836000", "091126.852000", "091126.855000", "091126.857000", "091126.859000", "091126.869000", "091126.877000", "091126.880000", "091126.882000", "091126.884000", "091126.887000", "091126.889000", "091126.891000", "091206.758000", "091206.761000", "091206.763000", "091206.766000", "091206.768000", "091206.770000", "091206.773000", "091206.775000", "091206.777000", "091206.779000", "091206.782000", "091206.784000", "091206.786000", "091206.789000", "091206.791000", "091206.794000", "091206.796000", "091206.798000", "091206.808000", "091206.810000", "091246.758000", "091246.761000", "091246.763000", "091246.766000", "091246.768000", "091246.771000", "091246.773000", "091246.775000", "091246.777000", "091246.780000", "091246.782000", "091246.784000", "091246.787000", "091246.789000", "091246.791000", "091246.794000", "091246.797000", "091246.799000", "091246.801000", "091246.803000", "091326.758000", "091326.761000", "091326.763000", "091326.766000", "091326.768000", "091326.770000", "091326.773000", "091326.775000", "091326.777000", "091326.779000", "091326.782000", "091326.784000", "091326.786000", "091326.789000", "091326.791000", "091326.794000", "091326.806000", "091326.809000", "091326.811000", "091326.813000", "091406.758000", "091406.761000", "091406.763000", "091406.766000", "091406.768000", "091406.771000", "091406.773000", "091406.775000", "091406.777000", "091406.780000", "091406.782000", "091406.784000", "091406.787000", "091406.789000", "091406.793000", "091406.796000", "091406.798000", "091406.801000", "091406.803000", "091406.805000", "091446.758000", "091446.761000", "091446.763000", "091446.766000", "091446.768000", "091446.770000", "091446.773000", "091446.775000", "091446.777000", "091446.780000", "091446.782000", "091446.784000", "091446.787000", "091446.789000", "091446.792000", "091446.794000", "091446.797000", "091446.799000", "091446.802000", "091446.804000", "091526.758000", "091526.761000", "091526.763000", "091526.765000", "091526.768000", "091526.770000", "091526.772000", "091526.775000", "091526.777000", "091526.780000", "091526.782000", "091526.784000", "091526.786000", "091526.789000", "091526.792000", "091526.794000", "091526.796000", "091526.799000", "091526.801000", "091526.803000", "091559.943000", "091559.946000", "091559.948000", "091559.950000", "091559.953000", "091559.955000", "091559.957000", "091559.960000", "091559.962000", "091559.965000", "091559.967000", "091559.969000", "091559.972000", "091559.974000", "091559.976000", "091559.979000", "091559.981000"],
      "InstanceCreationTime": ["091006.763000", "091006.766000", "091006.768000", "091006.771000", "091006.773000", "091006.775000", "091006.778000", "091006.780000", "091006.782000", "091006.784000", "091006.787000", "091006.789000", "091006.791000", "091006.796000", "091006.798000", "091006.800000", "091006.803000", "091006.814000", "091006.816000", "091006.818000", "091006.821000", "091006.831000", "091006.834000", "091046.757000", "091046.760000", "091046.762000", "091046.764000", "091046.766000", "091046.769000", "091046.771000", "091046.773000", "091046.776000", "091046.778000", "091046.780000", "091046.782000", "091046.785000", "091046.787000", "091046.789000", "091046.791000", "091046.794000", "091046.796000", "091046.799000", "091046.801000", "091126.758000", "091126.761000", "091126.824000", "091126.827000", "091126.829000", "091126.831000", "091126.834000", "091126.836000", "091126.852000", "091126.855000", "091126.857000", "091126.859000", "091126.869000", "091126.877000", "091126.880000", "091126.882000", "091126.884000", "091126.887000", "091126.889000", "091126.891000", "091206.758000", "091206.761000", "091206.763000", "091206.766000", "091206.768000", "091206.770000", "091206.773000", "091206.775000", "091206.777000", "091206.779000", "091206.782000", "091206.784000", "091206.786000", "091206.789000", "091206.791000", "091206.794000", "091206.796000", "091206.798000", "091206.808000", "091206.810000", "091246.758000", "091246.761000", "091246.763000", "091246.766000", "091246.768000", "091246.771000", "091246.773000", "091246.775000", "091246.777000", "091246.780000", "091246.782000", "091246.784000", "091246.787000", "091246.789000", "091246.791000", "091246.794000", "091246.797000", "091246.799000", "091246.801000", "091246.803000", "091326.758000", "091326.761000", "091326.763000", "091326.766000", "091326.768000", "091326.770000", "091326.773000", "091326.775000", "091326.777000", "091326.779000", "091326.782000", "091326.784000", "091326.786000", "091326.789000", "091326.791000", "091326.794000", "091326.806000", "091326.809000", "091326.811000", "091326.813000", "091406.758000", "091406.761000", "091406.763000", "091406.766000", "091406.768000", "091406.771000", "091406.773000", "091406.775000", "091406.777000", "091406.780000", "091406.782000", "091406.784000", "091406.787000", "091406.789000", "091406.793000", "091406.796000", "091406.798000", "091406.801000", "091406.803000", "091406.805000", "091446.758000", "091446.761000", "091446.763000", "091446.766000", "091446.768000", "091446.770000", "091446.773000", "091446.775000", "091446.777000", "091446.780000", "091446.782000", "091446.784000", "091446.787000", "091446.789000", "091446.792000", "091446.794000", "091446.797000", "091446.799000", "091446.802000", "091446.804000", "091526.758000", "091526.761000", "091526.763000", "091526.765000", "091526.768000", "091526.770000", "091526.772000", "091526.775000", "091526.777000", "091526.780000", "091526.782000", "091526.784000", "091526.786000", "091526.789000", "091526.792000", "091526.794000", "091526.796000", "091526.799000", "091526.801000", "091526.803000", "091559.943000", "091559.946000", "091559.948000", "091559.950000", "091559.953000", "091559.955000", "091559.957000", "091559.960000", "091559.962000", "091559.965000", "091559.967000", "091559.969000", "091559.972000", "091559.974000", "091559.976000", "091559.979000", "091559.981000"],
      "InstanceNumber": [1, 2, 3, 4, 5, 6, 7, 8, 9, 10, 11, 12, 13, 14, 15, 16, 17, 18, 19, 20, 21, 22, 23, 24, 25, 26, 27, 28, 29, 30, 31, 32, 33, 34, 35, 36, 37, 38, 39, 40, 41, 42, 43, 44, 45, 46, 47, 48, 49, 50, 51, 52, 53, 54, 55, 56, 57, 58, 59, 60, 61, 62, 63, 64, 65, 66, 67, 68, 69, 70, 71, 72, 73, 74, 75, 76, 77, 78, 79, 80, 81, 82, 83, 84, 85, 86, 87, 88, 89, 90, 91, 92, 93, 94, 95, 96, 97, 98, 99, 100, 101, 102, 103, 104, 105, 106, 107, 108, 109, 110, 111, 112, 113, 114, 115, 116, 117, 118, 119, 120, 121, 122, 123, 124, 125, 126, 127, 128, 129, 130, 131, 132, 133, 134, 135, 136, 137, 138, 139, 140, 141, 142, 143, 144, 145, 146, 147, 148, 149, 150, 151, 152, 153, 154, 155, 156, 157, 158, 159, 160, 161, 162, 163, 164, 165, 166, 167, 168, 169, 170, 171, 172, 173, 174, 175, 176, 177, 178, 179, 180, 181, 182, 183, 184, 185, 186, 187, 188, 189, 190, 191, 192, 193, 194, 195, 196, 197, 198, 199, 200],
      "LargestImagePixelValue": [3801, 3801, 3800, 3793, 3797, 3794, 3795, 3796, 3795, 3794, 3793, 3795, 3797, 3792, 3792, 3793, 3797, 3790, 3793, 3793, 3793, 3796, 3795, 3792, 3792, 3794, 3796, 3792, 3791, 3789, 3794, 3793, 3793, 3796, 3793, 3797, 3793, 3794, 3795, 3796, 3795, 3792, 3795, 3792, 3788, 3790, 3792, 3793, 3793, 3792, 3796, 3794, 3793, 3793, 3794, 3793, 3792, 3793, 3794, 3793, 3796, 3791, 3791, 3794, 3795, 3797, 3792, 3792, 3791, 3790, 3793, 3795, 3795, 3794, 3793, 3798, 3794, 3794, 3796, 3797, 3795, 3795, 3794, 3796, 3793, 3790, 3798, 3796, 3798, 3796, 3796, 3791, 3795, 3797, 3794, 3796, 3795, 3795, 3795, 3796, 3796, 3792, 3793, 3795, 3795, 3796, 3792, 3794, 3791, 3795, 3794, 3794, 3797, 3795, 3798, 3794, 3794, 3801, 3792, 3797, 3797, 3796, 3793, 3797, 3794, 3796, 3799, 3799, 3796, 3799, 3803, 3798, 3797, 3800, 3796, 3800, 3801, 3799, 3795, 3797, 3800, 3796, 3798, 3796, 3796, 3801, 3796, 3795, 3797, 3796, 3799, 3796, 3798, 3798, 3795, 3798, 3799, 3796, 3795, 3798, 3799, 3799, 3797, 3800, 3795, 3799, 3798, 3799, 3798, 3796, 3799, 3799, 3799, 3799, 3800, 3800, 3799, 3801, 3800, 3802, 3796, 3801, 3802, 3805, 3796, 3802, 3798, 3800, 3798, 3802, 3799, 3800, 3797, 3802, 3803, 3802, 3799, 3801, 3802, 3800],
      "WindowCenter": [1400.0, 1399.0, 1399.0, 1399.0, 1399.0, 1399.0, 1399.0, 1399.0, 1399.0, 1399.0, 1398.0, 1398.0, 1399.0, 1399.0, 1399.0, 1398.0, 1399.0, 1399.0, 1398.0, 1398.0, 1398.0, 1398.0, 1398.0, 1398.0, 1398.0, 1398.0, 1398.0, 1398.0, 1398.0, 1398.0, 1398.0, 1398.0, 1398.0, 1397.0, 1397.0, 1397.0, 1397.0, 1397.0, 1397.0, 1398.0, 1397.0, 1397.0, 1398.0, 1397.0, 1398.0, 1397.0, 1397.0, 1397.0, 1397.0, 1397.0, 1397.0, 1397.0, 1397.0, 1397.0, 1397.0, 1397.0, 1397.0, 1397.0, 1397.0, 1397.0, 1397.0, 1397.0, 1397.0, 1397.0, 1396.0, 1396.0, 1396.0, 1396.0, 1396.0, 1396.0, 1396.0, 1396.0, 1396.0, 1396.0, 1396.0, 1396.0, 1396.0, 1396.0, 1396.0, 1396.0, 1396.0, 1396.0, 1396.0, 1397.0, 1395.0, 1396.0, 1397.0, 1395.0, 1395.0, 1396.0, 1395.0, 1395.0, 1396.0, 1395.0, 1395.0, 1395.0, 1396.0, 1396.0, 1395.0, 1395.0, 1395.0, 1395.0, 1395.0, 1395.0, 1395.0, 1395.0, 1395.0, 1394.0, 1395.0, 1395.0, 1395.0, 1395.0, 1395.0, 1395.0, 1395.0, 1395.0, 1395.0, 1395.0, 1394.0, 1395.0, 1394.0, 1394.0, 1394.0, 1395.0, 1395.0, 1395.0, 1395.0, 1395.0, 1394.0, 1395.0, 1395.0, 1394.0, 1394.0, 1395.0, 1395.0, 1395.0, 1394.0, 1394.0, 1395.0, 1394.0, 1393.0, 1394.0, 1394.0, 1394.0, 1394.0, 1394.0, 1394.0, 1394.0, 1394.0, 1394.0, 1394.0, 1394.0, 1394.0, 1393.0, 1393.0, 1394.0, 1394.0, 1393.0, 1393.0, 1393.0, 1394.0, 1393.0, 1393.0, 1393.0, 1394.0, 1393.0, 1394.0, 1393.0, 1394.0, 1393.0, 1394.0, 1393.0, 1394.0, 1394.0, 1393.0, 1393.0, 1394.0, 1393.0, 1393.0, 1393.0, 1393.0, 1393.0, 1393.0, 1393.0, 1393.0, 1393.0, 1392.0, 1392.0, 1393.0, 1393.0, 1393.0, 1393.0, 1393.0, 1392.0, 1393.0, 1394.0, 1392.0, 1393.0, 1393.0, 1393.0],
      "WindowWidth": [3331.0, 3331.0, 3331.0, 3331.0, 3331.0, 3331.0, 3331.0, 3331.0, 3331.0, 3330.0, 3330.0, 3330.0, 3330.0, 3330.0, 3330.0, 3330.0, 3330.0, 3330.0, 3330.0, 3330.0, 3330.0, 3330.0, 3330.0, 3330.0, 3330.0, 3330.0, 3330.0, 3330.0, 3330.0, 3330.0, 3330.0, 3330.0, 3329.0, 3329.0, 3329.0, 3329.0, 3329.0, 3329.0, 3329.0, 3329.0, 3329.0, 3329.0, 3329.0, 3329.0, 3329.0, 3329.0, 3329.0, 3329.0, 3329.0, 3329.0, 3329.0, 3329.0, 3329.0, 3329.0, 3329.0, 3329.0, 3329.0, 3329.0, 3329.0, 3329.0, 3329.0, 3329.0, 3329.0, 3329.0, 3329.0, 3328.0, 3329.0, 3328.0, 3329.0, 3328.0, 3328.0, 3328.0, 3328.0, 3328.0, 3328.0, 3328.0, 3328.0, 3328.0, 3328.0, 3328.0, 3328.0, 3328.0, 3328.0, 3328.0, 3328.0, 3328.0, 3328.0, 3328.0, 3328.0, 3328.0, 3328.0, 3328.0, 3328.0, 3328.0, 3328.0, 3328.0, 3328.0, 3328.0, 3328.0, 3328.0, 3328.0, 3327.0, 3328.0, 3328.0, 3328.0, 3327.0, 3327.0, 3328.0, 3327.0, 3327.0, 3327.0, 3327.0, 3327.0, 3327.0, 3327.0, 3327.0, 3327.0, 3327.0, 3327.0, 3327.0, 3327.0, 3327.0, 3327.0, 3327.0, 3327.0, 3327.0, 3327.0, 3327.0, 3327.0, 3327.0, 3327.0, 3327.0, 3327.0, 3327.0, 3327.0, 3327.0, 3327.0, 3327.0, 3327.0, 3327.0, 3327.0, 3327.0, 3327.0, 3327.0, 3326.0, 3326.0, 3327.0, 3326.0, 3326.0, 3326.0, 3326.0, 3326.0, 3326.0, 3326.0, 3326.0, 3326.0, 3326.0, 3326.0, 3326.0, 3326.0, 3326.0, 3326.0, 3326.0, 3326.0, 3326.0, 3326.0, 3326.0, 3326.0, 3326.0, 3326.0, 3326.0, 3326.0, 3326.0, 3326.0, 3326.0, 3326.0, 3326.0, 3326.0, 3326.0, 3326.0, 3326.0, 3326.0, 3326.0, 3326.0, 3326.0, 3326.0, 3326.0, 3326.0, 3326.0, 3326.0, 3326.0, 3326.0, 3325.0, 3325.0, 3325.0, 3325.0, 3325.0, 3325.0, 3325.0, 3325.0]
    },
    "slices": {}
  }
}