{
  "AcquisitionMatrixPE": 80,
  "AcquisitionNumber": 1,
  "AcquisitionTime": "09:16:6.497500",
  "BandwidthPerPixelPhaseEncode": 25,
  "BaseResolution": 80,
  "BodyPartExamined": "BRAIN",
  "CoilCombinationMethod": "Sum of Squares",
  "ConsistencyInfo": "N4_VE11E_LATEST_20181129",
  "ConversionSoftware": "dcm2niix",
  "ConversionSoftwareVersion": "v1.0.20220720",
  "DerivedVendorReportedEchoSpacing": 0.0005,
  "DeviceSerialNumber": "66112",
  "DwellTime": 2.7e-06,
  "EchoTime": 0.03,
  "EchoTrainLength": 80,
  "EffectiveEchoSpacing": 0.0005,
  "FlipAngle": 10,
  "HeudiconvVersion": "0.13.1",
  "ImageOrientationPatientDICOM": [0.99994, 0.00982789, 0.00481077, -0.0108208, 0.953459, 0.301328],
  "ImageOrientationText": "Tra>Cor(17.5)>Sag(0.1)",
  "ImageType": [
    "ORIGINAL",
    "PRIMARY",
    "M",
    "ND",
    "NORM",
    "MOSAIC"
],
  "ImagingFrequency": 123.259,
  "InPlanePhaseEncodingDirectionDICOM": "COL",
  "InstitutionAddress": "Maynard 3,Hanover,NH,US,03755",
  "InstitutionName": "Dartmouth College - PBS",
  "InstitutionalDepartmentName": "Department",
  "MRAcquisitionType": "2D",
  "MagneticFieldStrength": 3,
  "Manufacturer": "Siemens",
  "ManufacturersModelName": "Prisma",
  "MatrixCoilMode": "SENSE",
  "Modality": "MR",
  "NonlinearGradientCorrection": false,
  "PartialFourier": 1,
  "PatientPosition": "HFS",
  "PercentPhaseFOV": 100,
  "PercentSampling": 100,
  "PhaseEncodingDirection": "j-",
  "PhaseEncodingSteps": 80,
  "PhaseResolution": 1,
  "PixelBandwidth": 2315,
  "ProcedureStepDescription": "dbic^QA",
  "ProtocolName": "func-bold_fa-10",
  "PulseSequenceDetails": "%SiemensSeq%\\ep2d_bold",
  "ReceiveCoilActiveElements": "HC1-7;NC1,2",
  "ReceiveCoilName": "HeadNeck_64",
  "ReconMatrixPE": 80,
  "RepetitionTime": 2,
  "SAR": 0.00859756,
  "ScanOptions": "FS",
  "ScanningSequence": "EP",
  "SequenceName": "*epfid2d1_80",
  "SequenceVariant": "SK",
  "SeriesDescription": "func-bold_fa-10",
  "SeriesNumber": 7,
  "ShimSetting": [4216, -7767, -7481, -123, -144, -204, -41, 75],
  "SliceThickness": 3.5,
  "SliceTiming": [0.99, 0, 1.055, 0.065, 1.1225, 0.1325, 1.1875, 0.1975, 1.2525, 0.2625, 1.32, 0.33, 1.385, 0.395, 1.4525, 0.4625, 1.5175, 0.5275, 1.5825, 0.5925, 1.65, 0.66, 1.715, 0.725, 1.7825, 0.7925, 1.8475, 0.8575, 1.9125, 0.9225],
  "SoftwareVersions": "syngo MR E11",
  "SpacingBetweenSlices": 3.99,
  "StationName": "AWP66112",
  "TotalReadoutTime": 0.0395,
  "TxRefAmp": 214.148,
  "dcmmeta_affine": [
    [-2.9998204708099365, -0.03246228024363518, 0.006485603284090757, 121.27670288085938],
    [-0.029483668506145477, 2.8603780269622803, 1.2024325132369995, -124.08049774169922],
    [0.014432324096560478, -0.9039825201034546, 3.8044991493225098, -3.6656172275543213],
    [0.0, 0.0, 0.0, 1.0]
],
  "dcmmeta_reorient_transform": [
    [0.0, -1.0, 0.0, 79.0],
    [1.0, 0.0, 0.0, 0.0],
    [0.0, 0.0, 1.0, 0.0],
    [0.0, 0.0, 0.0, 1.0]
],
  "dcmmeta_shape": [80, 80, 30, 200],
  "dcmmeta_slice_dim": 2,
  "dcmmeta_version": 0.6,
  "global": {
    "const": {
      "AccessionNumber": "qa64",
      "AcquisitionMatrix": [80, 0, 0, 80],
      "AngioFlag": "N",
      "BitsAllocated": 16,
      "BitsStored": 12,
      "BodyPartExamined": "BRAIN",
      "Columns": 480,
      "EchoNumbers": 1,
      "EchoTime": 30.0,
      "EchoTrainLength": 80,
      "FlipAngle": 10.0,
      "HighBit": 11,
      "ImageOrientationPatient": [0.99994013272264, 0.00982788970455, 0.00481077484206, -0.0108207594863, 0.95345930268275, 0.30132751167435],
      "ImagePositionPatient": [-712.18380860443, -679.86167178363, -258.76320948029],
      "ImageType": [
        "ORIGINAL",
        "PRIMARY",
        "M",
        "ND",
        "NORM",
        "MOSAIC"
],
      "ImagedNucleus": "1H",
      "ImagingFrequency": 123.259236,
      "InPlanePhaseEncodingDirection": "COL",
      "MRAcquisitionType": "2D",
      "MagneticFieldStrength": 3.0,
      "Manufacturer": "SIEMENS",
      "ManufacturerModelName": "Prisma",
      "Modality": "MR",
      "NumberOfAverages": 1.0,
      "NumberOfPhaseEncodingSteps": 80,
      "PercentPhaseFieldOfView": 100.0,
      "PercentSampling": 100.0,
      "PerformedProcedureStepStartTime": "085737.236000",
      "PhotometricInterpretation": "MONOCHROME2",
      "PixelBandwidth": 2315.0,
      "PixelRepresentation": 0,
      "PixelSpacing": [3.0, 3.0],
      "ProtocolName": "func-bold_fa-10",
      "RepetitionTime": 2000.0,
      "Rows": 480,
      "SAR": 0.00859755740881,
      "SamplesPerPixel": 1,
      "ScanOptions": "FS",
      "ScanningSequence": "EP",
      "SequenceName": "*epfid2d1_80",
      "SequenceVariant": "SK",
      "SeriesDescription": "func-bold_fa-10",
      "SeriesNumber": 7,
      "SeriesTime": "091646.845000",
      "SliceLocation": -40.691155146431,
      "SliceThickness": 3.5,
      "SmallestImagePixelValue": 0,
      "SoftwareVersions": "syngo MR E11",
      "SpacingBetweenSlices": 3.9899999541165,
      "SpecificCharacterSet": "ISO_IR 100",
      "StudyID": "20",
      "StudyTime": "085737.119000",
      "TransmitCoilName": "Body",
      "VariableFlipAngleFlag": "N",
      "WindowCenterWidthExplanation": "Algo1"
    },
    "slices": {}
  },
  "time": {
    "samples": {
      "AcquisitionNumber": [1, 2, 3, 4, 5, 6, 7, 8, 9, 10, 11, 12, 13, 14, 15, 16, 17, 18, 19, 20, 21, 22, 23, 24, 25, 26, 27, 28, 29, 30, 31, 32, 33, 34, 35, 36, 37, 38, 39, 40, 41, 42, 43, 44, 45, 46, 47, 48, 49, 50, 51, 52, 53, 54, 55, 56, 57, 58, 59, 60, 61, 62, 63, 64, 65, 66, 67, 68, 69, 70, 71, 72, 73, 74, 75, 76, 77, 78, 79, 80, 81, 82, 83, 84, 85, 86, 87, 88, 89, 90, 91, 92, 93, 94, 95, 96, 97, 98, 99, 100, 101, 102, 103, 104, 105, 106, 107, 108, 109, 110, 111, 112, 113, 114, 115, 116, 117, 118, 119, 120, 121, 122, 123, 124, 125, 126, 127, 128, 129, 130, 131, 132, 133, 134, 135, 136, 137, 138, 139, 140, 141, 142, 143, 144, 145, 146, 147, 148, 149, 150, 151, 152, 153, 154, 155, 156, 157, 158, 159, 160, 161, 162, 163, 164, 165, 166, 167, 168, 169, 170, 171, 172, 173, 174, 175, 176, 177, 178, 179, 180, 181, 182, 183, 184, 185, 186, 187, 188, 189, 190, 191, 192, 193, 194, 195, 196, 197, 198, 199, 200],
      "AcquisitionTime": ["091606.497500", "091608.497500", "091610.497500", "091612.497500", "091614.497500", "091616.497500", "091618.497500", "091620.497500", "091622.497500", "091624.497500", "091626.497500", "091628.497500", "091630.497500", "091632.497500", "091634.497500", "091636.497500", "091638.497500", "091640.497500", "091642.497500", "091644.497500", "091646.497500", "091648.497500", "091650.497500", "091652.497500", "091654.497500", "091656.497500", "091658.497500", "091700.497500", "091702.497500", "091704.497500", "091706.497500", "091708.497500", "091710.497500", "091712.497500", "091714.497500", "091716.497500", "091718.497500", "091720.497500", "091722.497500", "091724.497500", "091726.497500", "091728.497500", "091730.497500", "091732.497500", "091734.497500", "091736.497500", "091738.497500", "091740.497500", "091742.497500", "091744.497500", "091746.497500", "091748.497500", "091750.497500", "091752.497500", "091754.497500", "091756.497500", "091758.497500", "091800.497500", "091802.497500", "091804.497500", "091806.497500", "091808.497500", "091810.497500", "091812.497500", "091814.497500", "091816.497500", "091818.497500", "091820.497500", "091822.497500", "091824.497500", "091826.497500", "091828.497500", "091830.497500", "091832.497500", "091834.497500", "091836.497500", "091838.497500", "091840.497500", "091842.497500", "091844.497500", "091846.497500", "091848.497500", "091850.497500", "091852.497500", "091854.497500", "091856.497500", "091858.497500", "091900.497500", "091902.497500", "091904.497500", "091906.497500", "091908.497500", "091910.497500", "091912.497500", "091914.497500", "091916.497500", "091918.497500", "091920.497500", "091922.497500", "091924.497500", "091926.497500", "091928.497500", "091930.497500", "091932.497500", "091934.497500", "091936.497500", "091938.497500", "091940.497500", "091942.497500", "091944.497500", "091946.497500", "091948.497500", "091950.497500", "091952.497500", "091954.497500", "091956.497500", "091958.497500", "092000.497500", "092002.497500", "092004.497500", "092006.497500", "092008.497500", "092010.497500", "092012.497500", "092014.497500", "092016.497500", "092018.497500", "092020.497500", "092022.497500", "092024.497500", "092026.497500", "092028.497500", "092030.497500", "092032.497500", "092034.497500", "092036.497500", "092038.497500", "092040.497500", "092042.497500", "092044.497500", "092046.497500", "092048.497500", "092050.497500", "092052.497500", "092054.497500", "092056.497500", "092058.497500", "092100.497500", "092102.497500", "092104.497500", "092106.497500", "092108.497500", "092110.497500", "092112.497500", "092114.497500", "092116.497500", "092118.497500", "092120.497500", "092122.497500", "092124.497500", "092126.497500", "092128.497500", "092130.497500", "092132.497500", "092134.497500", "092136.497500", "092138.497500", "092140.497500", "092142.497500", "092144.497500", "092146.497500", "092148.497500", "092150.497500", "092152.497500", "092154.497500", "092156.497500", "092158.497500", "092200.497500", "092202.497500", "092204.497500", "092206.497500", "092208.497500", "092210.497500", "092212.497500", "092214.497500", "092216.497500", "092218.497500", "092220.497500", "092222.497500", "092224.497500", "092226.497500", "092228.497500", "092230.497500", "092232.497500", "092234.497500", "092236.497500", "092238.497500", "092240.497500", "092242.497500", "092244.497500"],
      "ContentTime": ["091646.848000", "091646.851000", "091646.853000", "091646.856000", "091646.864000", "091646.867000", "091646.869000", "091646.871000", "091646.873000", "091646.876000", "091646.878000", "091646.880000", "091646.888000", "091646.897000", "091646.899000", "091646.902000", "091646.904000", "091646.906000", "091646.909000", "091646.911000", "091726.843000", "091726.846000", "091726.853000", "091726.856000", "091726.858000", "091726.860000", "091726.863000", "091726.865000", "091726.867000", "091726.870000", "091726.872000", "091726.874000", "091726.877000", "091726.879000", "091726.881000", "091726.883000", "091726.886000", "091726.888000", "091726.890000", "091726.893000", "091806.843000", "091806.846000", "091806.848000", "091806.850000", "091806.853000", "091806.855000", "091806.857000", "091806.860000", "091806.862000", "091806.865000", "091806.867000", "091806.869000", "091806.872000", "091806.874000", "091806.876000", "091806.878000", "091806.881000", "091806.883000", "091806.885000", "091806.888000", "091846.843000", "091846.846000", "091846.848000", "091846.851000", "091846.853000", "091846.855000", "091846.858000", "091846.860000", "091846.862000", "091846.865000", "091846.867000", "091846.869000", "091846.871000", "091846.874000", "091846.876000", "091846.878000", "091846.881000", "091846.883000", "091846.885000", "091846.887000", "091926.843000", "091926.846000", "091926.848000", "091926.850000", "091926.853000", "091926.855000", "091926.857000", "091926.859000", "091926.862000", "091926.864000", "091926.866000", "091926.869000", "091926.871000", "091926.873000", "091926.876000", "091926.878000", "091926.880000", "091926.883000", "091926.885000", "091926.887000", "092006.843000", "092006.846000", "092006.848000", "092006.850000", "092006.853000", "092006.855000", "092006.857000", "092006.860000", "092006.862000", "092006.864000", "092006.867000", "092006.869000", "092006.871000", "092006.873000", "092006.876000", "092006.878000", "092006.880000", "092006.883000", "092006.885000", "092006.887000", "092046.843000", "092046.846000", "092046.848000", "092046.850000", "092046.853000", "092046.855000", "092046.857000", "092046.860000", "092046.862000", "092046.865000", "092046.867000", "092046.869000", "092046.872000", "092046.874000", "092046.876000", "092046.879000", "092046.881000", "092046.883000", "092046.886000", "092046.888000", "092126.843000", "092126.846000", "092126.848000", "092126.850000", "092126.853000", "092126.855000", "092126.857000", "092126.860000", "092126.862000", "092126.865000", "092126.867000", "092126.869000", "092126.872000", "092126.874000", "092126.876000", "092126.878000", "092126.881000", "092126.883000", "092126.885000", "092126.888000", "092206.843000", "092206.846000", "092206.848000", "092206.850000", "092206.853000", "092206.855000", "092206.858000", "092206.860000", "092206.862000", "092206.865000", "092206.867000", "092206.869000", "092206.872000", "092206.874000", "092206.876000", "092206.879000", "092206.881000", "092206.883000", "092206.886000", "092206.888000", "092246.343000", "092246.346000", "092246.348000", "092246.351000", "092246.353000", "092246.356000", "092246.358000", "092246.360000", "092246.363000", "092246.365000", "092246.367000", "092246.369000", "092246.372000", "092246.374000", "092246.384000", "092246.387000", "092246.392000", "092246.397000", "092246.399000", "092246.403000"],
      "InstanceCreationTime": ["091646.848000", "091646.851000", "091646.853000", "091646.856000", "091646.864000", "091646.867000", "091646.869000", "091646.871000", "091646.873000", "091646.876000", "091646.878000", "091646.880000", "091646.888000", "091646.897000", "091646.899000", "091646.902000", "091646.904000", "091646.906000", "091646.909000", "091646.911000", "091726.843000", "091726.846000", "091726.853000", "091726.856000", "091726.858000", "091726.860000", "091726.863000", "091726.865000", "091726.867000", "091726.870000", "091726.872000", "091726.874000", "091726.877000", "091726.879000", "091726.881000", "091726.883000", "091726.886000", "091726.888000", "091726.890000", "091726.893000", "091806.843000", "091806.846000", "091806.848000", "091806.850000", "091806.853000", "091806.855000", "091806.857000", "091806.860000", "091806.862000", "091806.865000", "091806.867000", "091806.869000", "091806.872000", "091806.874000", "091806.876000", "091806.878000", "091806.881000", "091806.883000", "091806.885000", "091806.888000", "091846.843000", "091846.846000", "091846.848000", "091846.851000", "091846.853000", "091846.855000", "091846.858000", "091846.860000", "091846.862000", "091846.865000", "091846.867000", "091846.869000", "091846.871000", "091846.874000", "091846.876000", "091846.878000", "091846.881000", "091846.883000", "091846.885000", "091846.887000", "091926.843000", "091926.846000", "091926.848000", "091926.850000", "091926.853000", "091926.855000", "091926.857000", "091926.859000", "091926.862000", "091926.864000", "091926.866000", "091926.869000", "091926.871000", "091926.873000", "091926.876000", "091926.878000", "091926.880000", "091926.883000", "091926.885000", "091926.887000", "092006.843000", "092006.846000", "092006.848000", "092006.850000", "092006.853000", "092006.855000", "092006.857000", "092006.860000", "092006.862000", "092006.864000", "092006.867000", "092006.869000", "092006.871000", "092006.873000", "092006.876000", "092006.878000", "092006.880000", "092006.883000", "092006.885000", "092006.887000", "092046.843000", "092046.846000", "092046.848000", "092046.850000", "092046.853000", "092046.855000", "092046.857000", "092046.860000", "092046.862000", "092046.865000", "092046.867000", "092046.869000", "092046.872000", "092046.874000", "092046.876000", "092046.879000", "092046.881000", "092046.883000", "092046.886000", "092046.888000", "092126.843000", "092126.846000", "092126.848000", "092126.850000", "092126.853000", "092126.855000", "092126.857000", "092126.860000", "092126.862000", "092126.865000", "092126.867000", "092126.869000", "092126.872000", "092126.874000", "092126.876000", "092126.878000", "092126.881000", "092126.883000", "092126.885000", "092126.888000", "092206.843000", "092206.846000", "092206.848000", "092206.850000", "092206.853000", "092206.855000", "092206.858000", "092206.860000", "092206.862000", "092206.865000", "092206.867000", "092206.869000", "092206.872000", "092206.874000", "092206.876000", "092206.879000", "092206.881000", "092206.883000", "092206.886000", "092206.888000", "092246.343000", "092246.346000", "092246.348000", "092246.351000", "092246.353000", "092246.356000", "092246.358000", "092246.360000", "092246.363000", "092246.365000", "092246.367000", "092246.369000", "092246.372000", "092246.374000", "092246.384000", "092246.387000", "092246.392000", "092246.397000", "092246.399000", "092246.403000"],
      "InstanceNumber": [1, 2, 3, 4, 5, 6, 7, 8, 9, 10, 11, 12, 13, 14, 15, 16, 17, 18, 19, 20, 21, 22, 23, 24, 25, 26, 27, 28, 29, 30, 31, 32, 33, 34, 35, 36, 37, 38, 39, 40, 41, 42, 43, 44, 45, 46, 47, 48, 49, 50, 51, 52, 53, 54, 55, 56, 57, 58, 59, 60, 61, 62, 63, 64, 65, 66, 67, 68, 69, 70, 71, 72, 73, 74, 75, 76, 77, 78, 79, 80, 81, 82, 83, 84, 85, 86, 87, 88, 89, 90, 91, 92, 93, 94, 95, 96, 97, 98, 99, 100, 101, 102, 103, 104, 105, 106, 107, 108, 109, 110, 111, 112, 113, 114, 115, 116, 117, 118, 119, 120, 121, 122, 123, 124, 125, 126, 127, 128, 129, 130, 131, 132, 133, 134, 135, 136, 137, 138, 139, 140, 141, 142, 143, 144, 145, 146, 147, 148, 149, 150, 151, 152, 153, 154, 155, 156, 157, 158, 159, 160, 161, 162, 163, 164, 165, 166, 167, 168, 169, 170, 171, 172, 173, 174, 175, 176, 177, 178, 179, 180, 181, 182, 183, 184, 185, 186, 187, 188, 189, 190, 191, 192, 193, 194, 195, 196, 197, 198, 199, 200],
      "LargestImagePixelValue": [633, 636, 638, 635, 639, 637, 632, 633, 638, 636, 634, 636, 633, 635, 635, 632, 635, 637, 632, 634, 638, 637, 634, 634, 633, 638, 634, 633, 634, 635, 635, 634, 632, 631, 634, 631, 632, 634, 635, 635, 634, 635, 635, 636, 638, 633, 637, 638, 633, 632, 631, 632, 635, 631, 632, 633, 635, 634, 632, 634, 635, 632, 631, 632, 636, 636, 633, 629, 633, 633, 631, 634, 635, 635, 633, 631, 634, 635, 635, 632, 633, 632, 635, 631, 631, 631, 633, 635, 631, 634, 633, 635, 631, 636, 633, 634, 637, 633, 635, 634, 633, 632, 633, 635, 633, 633, 634, 635, 632, 630, 629, 631, 635, 631, 635, 634, 633, 632, 634, 635, 634, 633, 635, 631, 632, 634, 636, 632, 634, 636, 634, 632, 633, 633, 633, 633, 631, 633, 634, 635, 634, 635, 633, 636, 632, 632, 633, 636, 632, 635, 634, 633, 632, 630, 630, 631, 631, 631, 630, 633, 635, 635, 630, 631, 634, 633, 630, 630, 632, 634, 632, 631, 634, 633, 633, 631, 631, 636, 632, 631, 632, 633, 635, 632, 629, 632, 634, 633, 633, 631, 632, 632, 632, 630, 631, 633, 630, 633, 634, 632],
      "WindowCenter": [461.0, 461.0, 461.0, 461.0, 461.0, 461.0, 461.0, 461.0, 461.0, 461.0, 461.0, 461.0, 461.0, 461.0, 461.0, 461.0, 461.0, 461.0, 461.0, 461.0, 461.0, 461.0, 461.0, 461.0, 461.0, 461.0, 461.0, 461.0, 461.0, 461.0, 461.0, 461.0, 461.0, 461.0, 461.0, 461.0, 461.0, 461.0, 461.0, 461.0, 461.0, 461.0, 461.0, 461.0, 461.0, 461.0, 461.0, 461.0, 461.0, 461.0, 461.0, 461.0, 461.0, 461.0, 461.0, 461.0, 461.0, 461.0, 461.0, 461.0, 461.0, 461.0, 461.0, 461.0, 461.0, 461.0, 461.0, 459.0, 461.0, 461.0, 461.0, 461.0, 461.0, 461.0, 461.0, 461.0, 461.0, 461.0, 461.0, 461.0, 461.0, 461.0, 461.0, 461.0, 461.0, 461.0, 461.0, 461.0, 460.0, 461.0, 461.0, 461.0, 461.0, 460.0, 461.0, 461.0, 461.0, 461.0, 461.0, 461.0, 461.0, 461.0, 461.0, 461.0, 461.0, 460.0, 461.0, 461.0, 461.0, 461.0, 459.0, 461.0, 461.0, 461.0, 460.0, 461.0, 461.0, 461.0, 461.0, 460.0, 461.0, 461.0, 461.0, 460.0, 460.0, 461.0, 461.0, 460.0, 460.0, 461.0, 461.0, 460.0, 460.0, 460.0, 461.0, 461.0, 460.0, 460.0, 461.0, 461.0, 460.0, 460.0, 461.0, 461.0, 460.0, 460.0, 460.0, 461.0, 460.0, 460.0, 460.0, 460.0, 460.0, 460.0, 460.0, 460.0, 460.0, 460.0, 460.0, 460.0, 460.0, 460.0, 460.0, 460.0, 460.0, 460.0, 460.0, 460.0, 460.0, 460.0, 460.0, 460.0, 460.0, 460.0, 460.0, 460.0, 460.0, 460.0, 460.0, 460.0, 460.0, 460.0, 460.0, 460.0, 458.0, 460.0, 460.0, 460.0, 460.0, 460.0, 460.0, 460.0, 460.0, 460.0, 460.0, 460.0, 460.0, 460.0, 460.0, 460.0],
      "WindowWidth": [959.0, 959.0, 958.0, 959.0, 959.0, 958.0, 958.0, 958.0, 959.0, 959.0, 958.0, 959.0, 959.0, 959.0, 959.0, 959.0, 959.0, 959.0, 959.0, 958.0, 959.0, 959.0, 959.0, 958.0, 958.0, 959.0, 959.0, 959.0, 958.0, 959.0, 959.0, 958.0, 958.0, 958.0, 958.0, 959.0, 958.0, 958.0, 959.0, 959.0, 958.0, 958.0, 958.0, 959.0, 958.0, 958.0, 958.0, 958.0, 958.0, 958.0, 958.0, 958.0, 959.0, 958.0, 958.0, 958.0, 959.0, 958.0, 958.0, 958.0, 959.0, 958.0, 958.0, 958.0, 958.0, 958.0, 958.0, 955.0, 958.0, 958.0, 958.0, 958.0, 958.0, 958.0, 958.0, 958.0, 957.0, 958.0, 958.0, 958.0, 957.0, 958.0, 958.0, 958.0, 957.0, 958.0, 958.0, 958.0, 957.0, 957.0, 958.0, 958.0, 957.0, 957.0, 958.0, 958.0, 958.0, 957.0, 957.0, 958.0, 958.0, 957.0, 957.0, 958.0, 958.0, 957.0, 957.0, 957.0, 958.0, 957.0, 955.0, 957.0, 957.0, 957.0, 957.0, 957.0, 957.0, 958.0, 957.0, 956.0, 957.0, 957.0, 957.0, 956.0, 957.0, 957.0, 957.0, 956.0, 956.0, 957.0, 957.0, 957.0, 956.0, 957.0, 957.0, 957.0, 956.0, 957.0, 957.0, 957.0, 957.0, 956.0, 957.0, 957.0, 956.0, 956.0, 957.0, 957.0, 957.0, 957.0, 956.0, 957.0, 957.0, 957.0, 956.0, 956.0, 957.0, 956.0, 956.0, 956.0, 956.0, 956.0, 956.0, 956.0, 957.0, 956.0, 956.0, 956.0, 956.0, 957.0, 956.0, 956.0, 956.0, 956.0, 956.0, 956.0, 956.0, 956.0, 956.0, 956.0, 956.0, 956.0, 956.0, 956.0, 954.0, 956.0, 956.0, 956.0, 956.0, 956.0, 956.0, 956.0, 956.0, 956.0, 956.0, 956.0, 956.0, 956.0, 956.0, 956.0]
    },
    "slices": {}
  }
}