{
  "AcquisitionMatrixPE": 80,
  "AcquisitionNumber": 1,
  "AcquisitionTime": "11:35:9.192500",
  "BandwidthPerPixelPhaseEncode": 44.643,
  "BaseResolution": 80,
  "BodyPartExamined": "BRAIN",
  "CoilCombinationMethod": "Sum of Squares",
  "ConsistencyInfo": "N4_VE11C_LATEST_20160120",
  "ConversionSoftware": "dcm2niix",
  "ConversionSoftwareVersion": "v1.0.20220720",
  "DerivedVendorReportedEchoSpacing": 0.000559998,
  "DeviceSerialNumber": "66112",
  "DwellTime": 2.7e-06,
  "EchoTime": 0.035,
  "EchoTrainLength": 39,
  "EffectiveEchoSpacing": 0.000279999,
  "FlipAngle": 90,
  "HeudiconvVersion": "0.13.1",
  "ImageOrientationPatientDICOM": [0.999985, 0.00480886, 0.00279776, -0.0054105, 0.9577, 0.287716],
  "ImageOrientationText": "Tra>Cor(16.7)>Sag(0.1)",
  "ImageType": [
    "ORIGINAL",
    "PRIMARY",
    "M",
    "ND",
    "NORM",
    "MOSAIC"
],
  "ImagingFrequency": 123.252,
  "InPlanePhaseEncodingDirectionDICOM": "COL",
  "InstitutionAddress": "Maynard 3,Hanover,NH,US,03755",
  "InstitutionName": "Dartmouth College - PBS",
  "InstitutionalDepartmentName": "Department",
  "MRAcquisitionType": "2D",
  "MagneticFieldStrength": 3,
  "Manufacturer": "Siemens",
  "ManufacturersModelName": "Prisma",
  "Modality": "MR",
  "MultibandAccelerationFactor": 4,
  "NonlinearGradientCorrection": false,
  "ParallelReductionFactorInPlane": 2,
  "PartialFourier": 1,
  "PatientPosition": "HFS",
  "PercentPhaseFOV": 100,
  "PercentSampling": 100,
  "PhaseEncodingDirection": "j-",
  "PhaseEncodingSteps": 79,
  "PhaseResolution": 1,
  "PixelBandwidth": 2315,
  "ProcedureStepDescription": "dbic^QA",
  "ProtocolName": "func-bold_task-rest_acq-p2-s4-3.5mm",
  "PulseSequenceDetails": "%SiemensSeq%\\ep2d_bold",
  "ReceiveCoilActiveElements": "HEA;HEP",
  "ReceiveCoilName": "Head_32",
  "ReconMatrixPE": 80,
  "RefLinesPE": 24,
  "RepetitionTime": 2,
  "SAR": 0.0209528,
  "ScanOptions": "FS",
  "ScanningSequence": "EP",
  "SequenceName": "*epfid2d1_80",
  "SequenceVariant": "SK",
  "SeriesDescription": "func-bold_task-rest_acq-p2-s4-3.5mm",
  "SeriesNumber": 7,
  "ShimSetting": [4143, -7687, -7515, 286, -71, -147, -33, 73],
  "SliceThickness": 3.5,
  "SliceTiming": [1.485, 0, 0.99, 0.2475, 1.2375, 0.7425, 1.7325, 0.495, 1.485, 0, 0.99, 0.2475, 1.2375, 0.7425, 1.7325, 0.495, 1.485, 0, 0.99, 0.2475, 1.2375, 0.7425, 1.7325, 0.495, 1.485, 0, 0.99, 0.2475, 1.2375, 0.7425, 1.7325, 0.495],
  "SoftwareVersions": "syngo MR E11",
  "SpacingBetweenSlices": 3.99,
  "StationName": "AWP66112",
  "TaskName": "rest",
  "TotalReadoutTime": 0.0221199,
  "TxRefAmp": 227.526,
  "dcmmeta_affine": [
    [-2.999953508377075, -0.016231490299105644, 0.005170348100364208, 121.10367584228516],
    [-0.014426594600081444, 2.873101234436035, 1.1480309963226318, -130.08932495117188],
    [0.00839328020811081, -0.863149106502533, 3.8212692737579346, -26.48378562927246],
    [0.0, 0.0, 0.0, 1.0]
],
  "dcmmeta_reorient_transform": [
    [0.0, -1.0, 0.0, 79.0],
    [1.0, 0.0, 0.0, 0.0],
    [0.0, 0.0, 1.0, 0.0],
    [0.0, 0.0, 0.0, 1.0]
],
  "dcmmeta_shape": [80, 80, 32, 200],
  "dcmmeta_slice_dim": 2,
  "dcmmeta_version": 0.6,
  "global": {
    "const": {
      "AccessionNumber": "qa",
      "AcquisitionMatrix": [80, 0, 0, 80],
      "AngioFlag": "N",
      "BitsAllocated": 16,
      "BitsStored": 12,
      "BodyPartExamined": "BRAIN",
      "Columns": 480,
      "EchoNumbers": 1,
      "EchoTime": 35.0,
      "EchoTrainLength": 39,
      "FlipAngle": 90.0,
      "HighBit": 11,
      "ImageOrientationPatient": [0.99998452355989, 0.0048088647321, 0.00279775993959, -0.005410496658, 0.95770037735663, 0.28771637724829],
      "ImagePositionPatient": [-716.56580627989, -674.39121202788, -268.98104989954],
      "ImageType": [
        "ORIGINAL",
        "PRIMARY",
        "M",
        "ND",
        "NORM",
        "MOSAIC"
],
      "ImagedNucleus": "1H",
      "ImagingFrequency": 123.252435,
      "InPlanePhaseEncodingDirection": "COL",
      "MRAcquisitionType": "2D",
      "MagneticFieldStrength": 3.0,
      "Manufacturer": "SIEMENS",
      "ManufacturerModelName": "Prisma",
      "Modality": "MR",
      "NumberOfAverages": 1.0,
      "NumberOfPhaseEncodingSteps": 79,
      "PercentPhaseFieldOfView": 100.0,
      "PercentSampling": 100.0,
      "PerformedProcedureStepStartTime": "111857.211000",
      "PhotometricInterpretation": "MONOCHROME2",
      "PixelBandwidth": 2315.0,
      "PixelRepresentation": 0,
      "PixelSpacing": [3.0, 3.0],
      "ProtocolName": "func-bold_task-rest_acq-p2-s4-3.5mm",
      "RepetitionTime": 2000.0,
      "Rows": 480,
      "SAR": 0.02095282392535,
      "SamplesPerPixel": 1,
      "ScanOptions": "FS",
      "ScanningSequence": "EP",
      "SequenceName": "*epfid2d1_80",
      "SequenceVariant": "SK",
      "SeriesDescription": "func-bold_task-rest_acq-p2-s4-3.5mm",
      "SeriesNumber": 7,
      "SeriesTime": "113602.953000",
      "SliceLocation": -62.637117742566,
      "SliceThickness": 3.5,
      "SmallestImagePixelValue": 0,
      "SoftwareVersions": "syngo MR E11",
      "SpacingBetweenSlices": 3.9900000714047,
      "SpecificCharacterSet": "ISO_IR 100",
      "StudyID": "22",
      "StudyTime": "111857.133000",
      "TransmitCoilName": "Body",
      "VariableFlipAngleFlag": "N",
      "WindowCenter": 948.0,
      "WindowCenterWidthExplanation": "Algo1",
      "dBdt": 0.0},
    "slices": {}
  },
  "time": {
    "samples": {
      "AcquisitionNumber": [1, 2, 3, 4, 5, 6, 7, 8, 9, 10, 11, 12, 13, 14, 15, 16, 17, 18, 19, 20, 21, 22, 23, 24, 25, 26, 27, 28, 29, 30, 31, 32, 33, 34, 35, 36, 37, 38, 39, 40, 41, 42, 43, 44, 45, 46, 47, 48, 49, 50, 51, 52, 53, 54, 55, 56, 57, 58, 59, 60, 61, 62, 63, 64, 65, 66, 67, 68, 69, 70, 71, 72, 73, 74, 75, 76, 77, 78, 79, 80, 81, 82, 83, 84, 85, 86, 87, 88, 89, 90, 91, 92, 93, 94, 95, 96, 97, 98, 99, 100, 101, 102, 103, 104, 105, 106, 107, 108, 109, 110, 111, 112, 113, 114, 115, 116, 117, 118, 119, 120, 121, 122, 123, 124, 125, 126, 127, 128, 129, 130, 131, 132, 133, 134, 135, 136, 137, 138, 139, 140, 141, 142, 143, 144, 145, 146, 147, 148, 149, 150, 151, 152, 153, 154, 155, 156, 157, 158, 159, 160, 161, 162, 163, 164, 165, 166, 167, 168, 169, 170, 171, 172, 173, 174, 175, 176, 177, 178, 179, 180, 181, 182, 183, 184, 185, 186, 187, 188, 189, 190, 191, 192, 193, 194, 195, 196, 197, 198, 199, 200],
      "AcquisitionTime": ["113509.192500", "113511.192500", "113513.192500", "113515.192500", "113517.192500", "113519.192500", "113521.192500", "113523.192500", "113525.192500", "113527.192500", "113529.192500", "113531.192500", "113533.192500", "113535.192500", "113537.192500", "113539.192500", "113541.192500", "113543.192500", "113545.192500", "113547.192500", "113549.192500", "113551.192500", "113553.192500", "113555.192500", "113557.192500", "113559.192500", "113601.192500", "113603.192500", "113605.192500", "113607.192500", "113609.192500", "113611.192500", "113613.192500", "113615.192500", "113617.192500", "113619.192500", "113621.192500", "113623.192500", "113625.192500", "113627.192500", "113629.192500", "113631.192500", "113633.192500", "113635.192500", "113637.192500", "113639.192500", "113641.192500", "113643.192500", "113645.192500", "113647.192500", "113649.192500", "113651.192500", "113653.192500", "113655.192500", "113657.192500", "113659.192500", "113701.192500", "113703.192500", "113705.192500", "113707.192500", "113709.192500", "113711.192500", "113713.192500", "113715.192500", "113717.192500", "113719.192500", "113721.192500", "113723.192500", "113725.192500", "113727.192500", "113729.192500", "113731.192500", "113733.192500", "113735.192500", "113737.192500", "113739.192500", "113741.192500", "113743.192500", "113745.192500", "113747.192500", "113749.192500", "113751.192500", "113753.192500", "113755.192500", "113757.192500", "113759.192500", "113801.192500", "113803.192500", "113805.192500", "113807.192500", "113809.192500", "113811.192500", "113813.192500", "113815.192500", "113817.192500", "113819.192500", "113821.192500", "113823.192500", "113825.192500", "113827.192500", "113829.192500", "113831.192500", "113833.192500", "113835.192500", "113837.192500", "113839.192500", "113841.192500", "113843.192500", "113845.192500", "113847.192500", "113849.192500", "113851.192500", "113853.192500", "113855.192500", "113857.192500", "113859.192500", "113901.192500", "113903.192500", "113905.192500", "113907.192500", "113909.192500", "113911.192500", "113913.192500", "113915.192500", "113917.192500", "113919.192500", "113921.192500", "113923.192500", "113925.192500", "113927.192500", "113929.192500", "113931.192500", "113933.192500", "113935.192500", "113937.192500", "113939.192500", "113941.192500", "113943.192500", "113945.192500", "113947.192500", "113949.192500", "113951.192500", "113953.192500", "113955.192500", "113957.192500", "113959.192500", "114001.192500", "114003.192500", "114005.192500", "114007.192500", "114009.192500", "114011.192500", "114013.192500", "114015.192500", "114017.192500", "114019.192500", "114021.192500", "114023.192500", "114025.192500", "114027.192500", "114029.192500", "114031.192500", "114033.192500", "114035.192500", "114037.192500", "114039.192500", "114041.192500", "114043.192500", "114045.192500", "114047.192500", "114049.192500", "114051.192500", "114053.192500", "114055.192500", "114057.192500", "114059.192500", "114101.192500", "114103.192500", "114105.192500", "114107.192500", "114109.192500", "114111.192500", "114113.192500", "114115.192500", "114117.192500", "114119.192500", "114121.192500", "114123.192500", "114125.192500", "114127.192500", "114129.192500", "114131.192500", "114133.192500", "114135.192500", "114137.192500", "114139.192500", "114141.192500", "114143.192500", "114145.192500", "114147.192500"],
      "ContentTime": ["113602.956000", "113602.959000", "113602.962000", "113602.964000", "113602.967000", "113602.976000", "113602.988000", "113602.990000", "113602.993000", "113602.995000", "113602.998000", "113603.001000", "113603.004000", "113603.006000", "113603.009000", "113603.012000", "113603.014000", "113603.017000", "113603.019000", "113603.022000", "113603.024000", "113603.027000", "113603.029000", "113603.032000", "113603.037000", "113603.039000", "113603.042000", "113642.950000", "113642.953000", "113642.956000", "113642.958000", "113642.961000", "113642.963000", "113642.966000", "113642.968000", "113642.971000", "113642.973000", "113642.976000", "113642.978000", "113642.981000", "113642.988000", "113642.991000", "113642.994000", "113642.996000", "113643.000000", "113643.002000", "113643.005000", "113722.950000", "113722.953000", "113722.956000", "113722.958000", "113722.961000", "113722.963000", "113722.966000", "113722.968000", "113722.971000", "113722.973000", "113722.976000", "113722.978000", "113722.981000", "113722.983000", "113722.986000", "113722.988000", "113722.991000", "113722.993000", "113722.996000", "113722.998000", "113802.951000", "113802.954000", "113802.957000", "113802.959000", "113802.962000", "113802.964000", "113802.967000", "113802.969000", "113802.972000", "113802.974000", "113802.977000", "113802.979000", "113802.982000", "113802.984000", "113802.987000", "113802.989000", "113802.991000", "113802.994000", "113802.996000", "113803.000000", "113842.950000", "113842.953000", "113842.956000", "113842.958000", "113842.961000", "113842.963000", "113842.966000", "113842.968000", "113842.971000", "113842.973000", "113842.975000", "113842.978000", "113842.980000", "113842.983000", "113842.985000", "113842.988000", "113842.990000", "113842.993000", "113842.995000", "113842.998000", "113922.950000", "113922.953000", "113922.956000", "113922.958000", "113922.961000", "113922.963000", "113922.966000", "113922.968000", "113922.971000", "113922.973000", "113922.976000", "113922.978000", "113922.981000", "113922.983000", "113922.986000", "113922.988000", "113922.991000", "113922.993000", "113922.996000", "113922.998000", "114002.952000", "114002.954000", "114002.957000", "114002.959000", "114002.962000", "114002.964000", "114002.967000", "114002.969000", "114002.972000", "114002.974000", "114002.977000", "114002.979000", "114002.982000", "114002.984000", "114002.987000", "114002.990000", "114002.992000", "114002.994000", "114002.997000", "114002.999000", "114042.951000", "114042.954000", "114042.957000", "114042.959000", "114042.962000", "114042.964000", "114042.967000", "114042.969000", "114042.972000", "114042.974000", "114042.977000", "114042.979000", "114042.982000", "114042.984000", "114042.987000", "114042.989000", "114042.992000", "114042.994000", "114042.997000", "114043.000000", "114122.950000", "114122.953000", "114122.956000", "114122.958000", "114122.961000", "114122.963000", "114122.966000", "114122.968000", "114122.971000", "114122.973000", "114122.976000", "114122.978000", "114122.981000", "114122.983000", "114122.986000", "114122.988000", "114122.991000", "114122.993000", "114122.996000", "114122.998000", "114148.425000", "114148.428000", "114148.431000", "114148.433000", "114148.436000", "114148.438000", "114148.441000", "114148.444000", "114148.446000", "114148.449000", "114148.451000", "114148.454000", "114148.464000"],
      "InstanceCreationTime": ["113602.956000", "113602.959000", "113602.962000", "113602.964000", "113602.967000", "113602.976000", "113602.988000", "113602.990000", "113602.993000", "113602.995000", "113602.998000", "113603.001000", "113603.004000", "113603.006000", "113603.009000", "113603.012000", "113603.014000", "113603.017000", "113603.019000", "113603.022000", "113603.024000", "113603.027000", "113603.029000", "113603.032000", "113603.037000", "113603.039000", "113603.042000", "113642.950000", "113642.953000", "113642.956000", "113642.958000", "113642.961000", "113642.963000", "113642.966000", "113642.968000", "113642.971000", "113642.973000", "113642.976000", "113642.978000", "113642.981000", "113642.988000", "113642.991000", "113642.994000", "113642.996000", "113643.000000", "113643.002000", "113643.005000", "113722.950000", "113722.953000", "113722.956000", "113722.958000", "113722.961000", "113722.963000", "113722.966000", "113722.968000", "113722.971000", "113722.973000", "113722.976000", "113722.978000", "113722.981000", "113722.983000", "113722.986000", "113722.988000", "113722.991000", "113722.993000", "113722.996000", "113722.998000", "113802.951000", "113802.954000", "113802.957000", "113802.959000", "113802.962000", "113802.964000", "113802.967000", "113802.969000", "113802.972000", "113802.974000", "113802.977000", "113802.979000", "113802.982000", "113802.984000", "113802.987000", "113802.989000", "113802.991000", "113802.994000", "113802.996000", "113803.000000", "113842.950000", "113842.953000", "113842.956000", "113842.958000", "113842.961000", "113842.963000", "113842.966000", "113842.968000", "113842.971000", "113842.973000", "113842.975000", "113842.978000", "113842.980000", "113842.983000", "113842.985000", "113842.988000", "113842.990000", "113842.993000", "113842.995000", "113842.998000", "113922.950000", "113922.953000", "113922.956000", "113922.958000", "113922.961000", "113922.963000", "113922.966000", "113922.968000", "113922.971000", "113922.973000", "113922.976000", "113922.978000", "113922.981000", "113922.983000", "113922.986000", "113922.988000", "113922.991000", "113922.993000", "113922.996000", "113922.998000", "114002.952000", "114002.954000", "114002.957000", "114002.959000", "114002.962000", "114002.964000", "114002.967000", "114002.969000", "114002.972000", "114002.974000", "114002.977000", "114002.979000", "114002.982000", "114002.984000", "114002.987000", "114002.990000", "114002.992000", "114002.994000", "114002.997000", "114002.999000", "114042.951000", "114042.954000", "114042.957000", "114042.959000", "114042.962000", "114042.964000", "114042.967000", "114042.969000", "114042.972000", "114042.974000", "114042.977000", "114042.979000", "114042.982000", "114042.984000", "114042.987000", "114042.989000", "114042.992000", "114042.994000", "114042.997000", "114043.000000", "114122.950000", "114122.953000", "114122.956000", "114122.958000", "114122.961000", "114122.963000", "114122.966000", "114122.968000", "114122.971000", "114122.973000", "114122.976000", "114122.978000", "114122.981000", "114122.983000", "114122.986000", "114122.988000", "114122.991000", "114122.993000", "114122.996000", "114122.998000", "114148.425000", "114148.428000", "114148.431000", "114148.433000", "114148.436000", "114148.438000", "114148.441000", "114148.444000", "114148.446000", "114148.449000", "114148.451000", "114148.454000", "114148.464000"],
      "InstanceNumber": [1, 2, 3, 4, 5, 6, 7, 8, 9, 10, 11, 12, 13, 14, 15, 16, 17, 18, 19, 20, 21, 22, 23, 24, 25, 26, 27, 28, 29, 30, 31, 32, 33, 34, 35, 36, 37, 38, 39, 40, 41, 42, 43, 44, 45, 46, 47, 48, 49, 50, 51, 52, 53, 54, 55, 56, 57, 58, 59, 60, 61, 62, 63, 64, 65, 66, 67, 68, 69, 70, 71, 72, 73, 74, 75, 76, 77, 78, 79, 80, 81, 82, 83, 84, 85, 86, 87, 88, 89, 90, 91, 92, 93, 94, 95, 96, 97, 98, 99, 100, 101, 102, 103, 104, 105, 106, 107, 108, 109, 110, 111, 112, 113, 114, 115, 116, 117, 118, 119, 120, 121, 122, 123, 124, 125, 126, 127, 128, 129, 130, 131, 132, 133, 134, 135, 136, 137, 138, 139, 140, 141, 142, 143, 144, 145, 146, 147, 148, 149, 150, 151, 152, 153, 154, 155, 156, 157, 158, 159, 160, 161, 162, 163, 164, 165, 166, 167, 168, 169, 170, 171, 172, 173, 174, 175, 176, 177, 178, 179, 180, 181, 182, 183, 184, 185, 186, 187, 188, 189, 190, 191, 192, 193, 194, 195, 196, 197, 198, 199, 200],
      "LargestImagePixelValue": [2149, 2148, 2146, 2146, 2144, 2153, 2146, 2149, 2149, 2141, 2146, 2149, 2139, 2153, 2145, 2150, 2147, 2142, 2150, 2142, 2146, 2149, 2146, 2151, 2143, 2147, 2145, 2147, 2153, 2145, 2144, 2144, 2147, 2150, 2148, 2144, 2148, 2145, 2147, 2145, 2147, 2148, 2150, 2149, 2138, 2149, 2143, 2143, 2145, 2153, 2150, 2145, 2150, 2144, 2148, 2146, 2141, 2144, 2141, 2148, 2148, 2151, 2145, 2154, 2146, 2144, 2149, 2151, 2147, 2151, 2152, 2152, 2138, 2142, 2152, 2148, 2142, 2155, 2145, 2153, 2147, 2150, 2149, 2149, 2146, 2150, 2142, 2149, 2152, 2144, 2148, 2139, 2145, 2142, 2146, 2146, 2147, 2148, 2141, 2149, 2150, 2146, 2148, 2152, 2147, 2152, 2145, 2151, 2152, 2145, 2155, 2149, 2151, 2148, 2150, 2146, 2144, 2143, 2147, 2151, 2150, 2147, 2147, 2148, 2154, 2145, 2149, 2146, 2150, 2147, 2148, 2145, 2146, 2146, 2152, 2144, 2146, 2149, 2144, 2150, 2145, 2146, 2150, 2143, 2146, 2147, 2144, 2149, 2147, 2150, 2149, 2145, 2148, 2151, 2151, 2148, 2146, 2147, 2149, 2152, 2146, 2149, 2151, 2146, 2149, 2146, 2148, 2146, 2147, 2146, 2149, 2144, 2148, 2151, 2151, 2150, 2151, 2158, 2152, 2144, 2148, 2149, 2148, 2155, 2156, 2149, 2148, 2145, 2143, 2147, 2144, 2151, 2146, 2152, 2147, 2147, 2152, 2146, 2145, 2146],
      "WindowWidth": [2195.0, 2195.0, 2195.0, 2194.0, 2194.0, 2195.0, 2195.0, 2195.0, 2194.0, 2195.0, 2195.0, 2194.0, 2194.0, 2195.0, 2195.0, 2195.0, 2194.0, 2195.0, 2195.0, 2195.0, 2195.0, 2195.0, 2195.0, 2195.0, 2195.0, 2195.0, 2195.0, 2195.0, 2195.0, 2195.0, 2195.0, 2195.0, 2195.0, 2195.0, 2195.0, 2195.0, 2195.0, 2195.0, 2195.0, 2195.0, 2195.0, 2195.0, 2195.0, 2195.0, 2195.0, 2195.0, 2195.0, 2195.0, 2195.0, 2195.0, 2195.0, 2195.0, 2195.0, 2195.0, 2195.0, 2195.0, 2195.0, 2195.0, 2195.0, 2195.0, 2195.0, 2195.0, 2195.0, 2195.0, 2195.0, 2195.0, 2195.0, 2196.0, 2195.0, 2195.0, 2195.0, 2195.0, 2195.0, 2195.0, 2195.0, 2195.0, 2195.0, 2195.0, 2195.0, 2195.0, 2195.0, 2195.0, 2195.0, 2195.0, 2195.0, 2195.0, 2195.0, 2195.0, 2195.0, 2195.0, 2195.0, 2195.0, 2195.0, 2195.0, 2195.0, 2195.0, 2195.0, 2195.0, 2195.0, 2195.0, 2195.0, 2195.0, 2195.0, 2195.0, 2195.0, 2195.0, 2194.0, 2195.0, 2195.0, 2195.0, 2195.0, 2195.0, 2195.0, 2195.0, 2195.0, 2195.0, 2195.0, 2195.0, 2195.0, 2195.0, 2195.0, 2195.0, 2195.0, 2195.0, 2195.0, 2195.0, 2195.0, 2195.0, 2195.0, 2195.0, 2195.0, 2195.0, 2195.0, 2195.0, 2195.0, 2195.0, 2195.0, 2195.0, 2195.0, 2195.0, 2195.0, 2195.0, 2195.0, 2195.0, 2195.0, 2195.0, 2195.0, 2195.0, 2195.0, 2195.0, 2195.0, 2195.0, 2195.0, 2195.0, 2194.0, 2195.0, 2194.0, 2195.0, 2195.0, 2195.0, 2195.0, 2195.0, 2195.0, 2195.0, 2195.0, 2194.0, 2195.0, 2195.0, 2195.0, 2195.0, 2195.0, 2195.0, 2195.0, 2195.0, 2195.0, 2195.0, 2195.0, 2195.0, 2195.0, 2195.0, 2195.0, 2195.0, 2194.0, 2194.0, 2195.0, 2195.0, 2195.0, 2194.0, 2195.0, 2194.0, 2195.0, 2195.0, 2195.0, 2195.0, 2194.0, 2195.0, 2195.0, 2195.0, 2194.0, 2195.0]
    },
    "slices": {}
  }
}