{
  "AcquisitionMatrixPE": 122,
  "AcquisitionNumber": 1,
  "AcquisitionTime": "12:49:55.047500",
  "BandwidthPerPixelPhaseEncode": 28.76,
  "BaseResolution": 122,
  "BodyPartExamined": "BRAIN",
  "CoilCombinationMethod": "Adaptive Combine",
  "ConsistencyInfo": "N4_VE11C_LATEST_20160120",
  "ConversionSoftware": "dcm2niix",
  "ConversionSoftwareVersion": "v1.0.20220720",
  "DerivedVendorReportedEchoSpacing": 0.000570008,
  "DeviceSerialNumber": "66112",
  "DiffusionScheme": "Monopolar",
  "DwellTime": 2e-06,
  "EchoTime": 0.075,
  "EchoTrainLength": 61,
  "EffectiveEchoSpacing": 0.000285004,
  "FlipAngle": 90,
  "HeudiconvVersion": "0.13.1",
  "ImageOrientationPatientDICOM": [0.984607, 0.174647, 0.00694164, -0.168302, 0.936622, 0.307269],
  "ImageOrientationText": "Tra>Cor(17.7)>Sag(-2.7)",
  "ImageType": [
    "ORIGINAL",
    "PRIMARY",
    "DIFFUSION",
    "NONE",
    "ND",
    "NORM"
],
  "ImagingFrequency": 123.252,
  "InPlanePhaseEncodingDirectionDICOM": "COL",
  "InstitutionAddress": "Maynard 3,Hanover,NH,US,03755",
  "InstitutionName": "Dartmouth College - PBS",
  "InstitutionalDepartmentName": "Department",
  "MRAcquisitionType": "2D",
  "MagneticFieldStrength": 3,
  "Manufacturer": "Siemens",
  "ManufacturersModelName": "Prisma",
  "MatrixCoilMode": "GRAPPA",
  "Modality": "MR",
  "NonlinearGradientCorrection": false,
  "ParallelReductionFactorInPlane": 2,
  "PartialFourier": 1,
  "PatientPosition": "HFS",
  "PercentPhaseFOV": 100,
  "PercentSampling": 100,
  "PhaseEncodingDirection": "j-",
  "PhaseEncodingSteps": 122,
  "PhaseResolution": 1,
  "PixelBandwidth": 2050,
  "ProcedureStepDescription": "dbic^QA",
  "ProtocolName": "dwi_acq-DTI-30-p2",
  "PulseSequenceDetails": "%SiemensSeq%\\ep2d_diff",
  "ReceiveCoilActiveElements": "HEA;HEP",
  "ReceiveCoilName": "Head_32",
  "ReconMatrixPE": 122,
  "RefLinesPE": 38,
  "RepetitionTime": 7.7,
  "SAR": 0.101806,
  "ScanOptions": "FS",
  "ScanningSequence": "EP",
  "SequenceName": "*ep_b0",
  "SequenceVariant": "SK\\SP",
  "SeriesDescription": "dwi_acq-DTI-30-p2",
  "SeriesNumber": 8,
  "ShimSetting": [4142, -7687, -7520, 260, -54, -127, -72, 51],
  "SliceThickness": 2,
  "SliceTiming": [3.83594, 0, 3.94531, 0.10156, 4.05469, 0.21094, 4.16406, 0.32031, 4.27344, 0.4375, 4.38281, 0.54688, 4.49219, 0.65625, 4.60156, 0.76562, 4.71094, 0.875, 4.82031, 0.98438, 4.92969, 1.09375, 5.03906, 1.20312, 5.14844, 1.3125, 5.25781, 1.42188, 5.375, 1.53125, 5.48438, 1.64062, 5.59375, 1.75, 5.70312, 1.85938, 5.8125, 1.96875, 5.92188, 2.07812, 6.03125, 2.1875, 6.14062, 2.29688, 6.25, 2.40625, 6.35938, 2.51562, 6.46875, 2.63281, 6.57812, 2.74219, 6.6875, 2.85156, 6.79688, 2.95312, 6.90625, 3.07031, 7.01562, 3.17969, 7.125, 3.28906, 7.23438, 3.39844, 7.34375, 3.50781, 7.45312, 3.61719, 7.57031, 3.72656],
  "SoftwareVersions": "syngo MR E11",
  "SpacingBetweenSlices": 2,
  "SpoilingState": true,
  "StationName": "AWP66112",
  "TotalReadoutTime": 0.0344855,
  "TxRefAmp": 235.417,
  "dcmmeta_affine": [
    [-1.9369311332702637, -0.3310856819152832, -0.09432375431060791, 142.95143127441406],
    [-0.3435679078102112, 1.8425348997116089, 0.6074142456054688, -107.28873443603516],
    [0.013655680231750011, -0.6044626832008362, 1.9031944274902344, -32.55953598022461],
    [0.0, 0.0, 0.0, 1.0]
],
  "dcmmeta_reorient_transform": [
    [0.0, -1.0, 0.0, 121.0],
    [1.0, 0.0, 0.0, 0.0],
    [0.0, 0.0, -1.0, 69.0],
    [0.0, 0.0, 0.0, 1.0]
],
  "dcmmeta_shape": [122, 122, 70, 31],
  "dcmmeta_slice_dim": 2,
  "dcmmeta_version": 0.6,
  "global": {
    "const": {
      "AccessionNumber": "qa",
      "AcquisitionMatrix": [122, 0, 0, 122],
      "AngioFlag": "N",
      "BitsAllocated": 16,
      "BitsStored": 12,
      "BodyPartExamined": "BRAIN",
      "Columns": 122,
      "EchoNumbers": 1,
      "EchoTime": 75.0,
      "EchoTrainLength": 61,
      "FlipAngle": 90.0,
      "HighBit": 11,
      "ImageOrientationPatient": [0.98460663934937, 0.17464701377759, 0.00694163724925, -0.1683018905058, 0.93662186697683, 0.3072685339455],
      "ImageType": [
        "ORIGINAL",
        "PRIMARY",
        "DIFFUSION",
        "NONE",
        "ND",
        "NORM"
],
      "ImagedNucleus": "1H",
      "ImagingFrequency": 123.25245,
      "InPlanePhaseEncodingDirection": "COL",
      "MRAcquisitionType": "2D",
      "MagneticFieldStrength": 3.0,
      "Manufacturer": "SIEMENS",
      "ManufacturerModelName": "Prisma",
      "Modality": "MR",
      "NumberOfAverages": 1.0,
      "NumberOfPhaseEncodingSteps": 122,
      "PercentPhaseFieldOfView": 100.0,
      "PercentSampling": 100.0,
      "PerformedProcedureStepStartTime": "122933.114000",
      "PhotometricInterpretation": "MONOCHROME2",
      "PixelBandwidth": 2050.0,
      "PixelRepresentation": 0,
      "PixelSpacing": [1.9672131538391, 1.9672131538391],
      "ProtocolName": "dwi_acq-DTI-30-p2",
      "RepetitionTime": 7700.0,
      "Rows": 122,
      "SAR": 0.10180638120681,
      "SamplesPerPixel": 1,
      "ScanOptions": "FS",
      "ScanningSequence": "EP",
      "SequenceVariant": [
        "SK",
        "SP"
],
      "SeriesDescription": "dwi_acq-DTI-30-p2",
      "SeriesNumber": 8,
      "SeriesTime": "125009.694000",
      "SliceThickness": 2.0,
      "SmallestImagePixelValue": 0,
      "SoftwareVersions": "syngo MR E11",
      "SpacingBetweenSlices": 2.0,
      "SpecificCharacterSet": "ISO_IR 100",
      "StudyID": "60",
      "StudyTime": "122933.003000",
      "TransmitCoilName": "Body",
      "VariableFlipAngleFlag": "N",
      "WindowCenterWidthExplanation": "Algo1",
      "dBdt": 0.0},
    "slices": {
      "AcquisitionTime": ["124955.047500", "124951.207500", "124955.155000", "124951.315000", "124955.265000", "124951.425000", "124955.375000", "124951.535000", "124955.485000", "124951.645000", "124955.595000", "124951.755000", "124955.705000", "124951.865000", "124955.815000", "124951.975000", "124955.925000", "124952.085000", "124956.032500", "124952.195000", "124956.142500", "124952.302500", "124956.252500", "124952.412500", "124956.362500", "124952.522500", "124956.472500", "124952.632500", "124956.582500", "124952.742500", "124956.692500", "124952.852500", "124956.802500", "124952.962500", "124956.912500", "124953.072500", "124957.020000", "124953.180000", "124957.130000", "124953.290000", "124957.240000", "124953.400000", "124957.350000", "124953.510000", "124957.460000", "124953.620000", "124957.570000", "124953.730000", "124957.680000", "124953.840000", "124957.790000", "124953.950000", "124957.897500", "124954.060000", "124958.007500", "124954.167500", "124958.117500", "124954.277500", "124958.227500", "124954.387500", "124958.337500", "124954.497500", "124958.447500", "124954.607500", "124958.557500", "124954.717500", "124958.667500", "124954.827500", "124958.777500", "124954.937500", "125002.747500", "124958.907500", "125002.855000", "124959.015000", "125002.965000", "124959.125000", "125003.075000", "124959.235000", "125003.185000", "124959.345000", "125003.295000", "124959.455000", "125003.405000", "124959.565000", "125003.515000", "124959.675000", "125003.625000", "124959.785000", "125003.732500", "124959.895000", "125003.842500", "125000.002500", "125003.952500", "125000.112500", "125004.062500", "125000.222500", "125004.172500", "125000.332500", "125004.282500", "125000.442500", "125004.392500", "125000.552500", "125004.502500", "125000.662500", "125004.612500", "125000.772500", "125004.720000", "125000.880000", "125004.830000", "125000.990000", "125004.940000", "125001.100000", "125005.050000", "125001.210000", "125005.160000", "125001.320000", "125005.270000", "125001.430000", "125005.380000", "125001.540000", "125005.490000", "125001.650000", "125005.597500", "125001.760000", "125005.707500", "125001.867500", "125005.817500", "125001.977500", "125005.927500", "125002.087500", "125006.037500", "125002.197500", "125006.147500", "125002.307500", "125006.257500", "125002.417500", "125006.367500", "125002.527500", "125006.477500", "125002.637500", "125010.447500", "125006.607500", "125010.555000", "125006.715000", "125010.665000", "125006.825000", "125010.775000", "125006.935000", "125010.885000", "125007.045000", "125010.995000", "125007.155000", "125011.105000", "125007.265000", "125011.215000", "125007.375000", "125011.325000", "125007.485000", "125011.432500", "125007.595000", "125011.542500", "125007.702500", "125011.652500", "125007.812500", "125011.762500", "125007.922500", "125011.872500", "125008.032500", "125011.982500", "125008.142500", "125012.092500", "125008.252500", "125012.202500", "125008.362500", "125012.312500", "125008.472500", "125012.420000", "125008.580000", "125012.530000", "125008.690000", "125012.640000", "125008.800000", "125012.750000", "125008.910000", "125012.860000", "125009.020000", "125012.970000", "125009.130000", "125013.080000", "125009.240000", "125013.190000", "125009.350000", "125013.297500", "125009.460000", "125013.407500", "125009.567500", "125013.517500", "125009.677500", "125013.627500", "125009.787500", "125013.737500", "125009.897500", "125013.847500", "125010.007500", "125013.957500", "125010.117500", "125014.067500", "125010.227500", "125014.177500", "125010.337500", "125018.147500", "125014.307500", "125018.255000", "125014.415000", "125018.365000", "125014.525000", "125018.475000", "125014.635000", "125018.585000", "125014.745000", "125018.695000", "125014.855000", "125018.805000", "125014.965000", "125018.915000", "125015.075000", "125019.025000", "125015.185000", "125019.132500", "125015.295000", "125019.242500", "125015.402500", "125019.352500", "125015.512500", "125019.462500", "125015.622500", "125019.572500", "125015.732500", "125019.682500", "125015.842500", "125019.792500", "125015.952500", "125019.902500", "125016.062500", "125020.012500", "125016.172500", "125020.120000", "125016.280000", "125020.230000", "125016.390000", "125020.340000", "125016.500000", "125020.450000", "125016.610000", "125020.560000", "125016.720000", "125020.670000", "125016.830000", "125020.780000", "125016.940000", "125020.890000", "125017.050000", "125020.997500", "125017.160000", "125021.107500", "125017.267500", "125021.217500", "125017.377500", "125021.327500", "125017.487500", "125021.437500", "125017.597500", "125021.547500", "125017.707500", "125021.657500", "125017.817500", "125021.767500", "125017.927500", "125021.877500", "125018.037500", "125025.847500", "125022.007500", "125025.955000", "125022.115000", "125026.065000", "125022.225000", "125026.175000", "125022.335000", "125026.285000", "125022.445000", "125026.395000", "125022.555000", "125026.505000", "125022.665000", "125026.615000", "125022.775000", "125026.725000", "125022.885000", "125026.832500", "125022.995000", "125026.942500", "125023.102500", "125027.052500", "125023.212500", "125027.162500", "125023.322500", "125027.272500", "125023.432500", "125027.382500", "125023.542500", "125027.492500", "125023.652500", "125027.602500", "125023.762500", "125027.712500", "125023.872500", "125027.820000", "125023.980000", "125027.930000", "125024.090000", "125028.040000", "125024.200000", "125028.150000", "125024.310000", "125028.260000", "125024.420000", "125028.370000", "125024.530000", "125028.480000", "125024.640000", "125028.590000", "125024.750000", "125028.697500", "125024.860000", "125028.807500", "125024.967500", "125028.917500", "125025.077500", "125029.027500", "125025.187500", "125029.137500", "125025.297500", "125029.247500", "125025.407500", "125029.357500", "125025.517500", "125029.467500", "125025.627500", "125029.577500", "125025.737500", "125033.547500", "125029.707500", "125033.655000", "125029.815000", "125033.765000", "125029.925000", "125033.875000", "125030.035000", "125033.985000", "125030.145000", "125034.095000", "125030.255000", "125034.205000", "125030.365000", "125034.315000", "125030.475000", "125034.425000", "125030.585000", "125034.532500", "125030.695000", "125034.642500", "125030.802500", "125034.752500", "125030.912500", "125034.862500", "125031.022500", "125034.972500", "125031.132500", "125035.082500", "125031.242500", "125035.192500", "125031.352500", "125035.302500", "125031.462500", "125035.412500", "125031.572500", "125035.520000", "125031.680000", "125035.630000", "125031.790000", "125035.740000", "125031.900000", "125035.850000", "125032.010000", "125035.960000", "125032.120000", "125036.070000", "125032.230000", "125036.180000", "125032.340000", "125036.290000", "125032.450000", "125036.397500", "125032.560000", "125036.507500", "125032.667500", "125036.617500", "125032.777500", "125036.727500", "125032.887500", "125036.837500", "125032.997500", "125036.947500", "125033.107500", "125037.057500", "125033.217500", "125037.167500", "125033.327500", "125037.277500", "125033.437500", "125041.247500", "125037.407500", "125041.355000", "125037.515000", "125041.465000", "125037.625000", "125041.575000", "125037.735000", "125041.685000", "125037.845000", "125041.795000", "125037.955000", "125041.905000", "125038.065000", "125042.015000", "125038.175000", "125042.125000", "125038.285000", "125042.232500", "125038.395000", "125042.342500", "125038.502500", "125042.452500", "125038.612500", "125042.562500", "125038.722500", "125042.672500", "125038.832500", "125042.782500", "125038.942500", "125042.892500", "125039.052500", "125043.002500", "125039.162500", "125043.112500", "125039.272500", "125043.220000", "125039.380000", "125043.330000", "125039.490000", "125043.440000", "125039.600000", "125043.550000", "125039.710000", "125043.660000", "125039.820000", "125043.770000", "125039.930000", "125043.880000", "125040.040000", "125043.990000", "125040.150000", "125044.097500", "125040.260000", "125044.207500", "125040.367500", "125044.317500", "125040.477500", "125044.427500", "125040.587500", "125044.537500", "125040.697500", "125044.647500", "125040.807500", "125044.757500", "125040.917500", "125044.867500", "125041.027500", "125044.977500", "125041.137500", "125048.947500", "125045.107500", "125049.055000", "125045.215000", "125049.165000", "125045.325000", "125049.275000", "125045.435000", "125049.385000", "125045.545000", "125049.495000", "125045.655000", "125049.605000", "125045.765000", "125049.715000", "125045.875000", "125049.825000", "125045.985000", "125049.932500", "125046.095000", "125050.042500", "125046.202500", "125050.152500", "125046.312500", "125050.262500", "125046.422500", "125050.372500", "125046.532500", "125050.482500", "125046.642500", "125050.592500", "125046.752500", "125050.702500", "125046.862500", "125050.812500", "125046.972500", "125050.920000", "125047.080000", "125051.030000", "125047.190000", "125051.140000", "125047.300000", "125051.250000", "125047.410000", "125051.360000", "125047.520000", "125051.470000", "125047.630000", "125051.580000", "125047.740000", "125051.690000", "125047.850000", "125051.797500", "125047.960000", "125051.907500", "125048.067500", "125052.017500", "125048.177500", "125052.127500", "125048.287500", "125052.237500", "125048.397500", "125052.347500", "125048.507500", "125052.457500", "125048.617500", "125052.567500", "125048.727500", "125052.677500", "125048.837500", "125056.647500", "125052.807500", "125056.755000", "125052.915000", "125056.865000", "125053.025000", "125056.975000", "125053.135000", "125057.085000", "125053.245000", "125057.195000", "125053.355000", "125057.305000", "125053.465000", "125057.415000", "125053.575000", "125057.525000", "125053.685000", "125057.632500", "125053.795000", "125057.742500", "125053.902500", "125057.852500", "125054.012500", "125057.962500", "125054.122500", "125058.072500", "125054.232500", "125058.182500", "125054.342500", "125058.292500", "125054.452500", "125058.402500", "125054.562500", "125058.512500", "125054.672500", "125058.620000", "125054.780000", "125058.730000", "125054.890000", "125058.840000", "125055.000000", "125058.950000", "125055.110000", "125059.060000", "125055.220000", "125059.170000", "125055.330000", "125059.280000", "125055.440000", "125059.390000", "125055.550000", "125059.497500", "125055.660000", "125059.607500", "125055.767500", "125059.717500", "125055.877500", "125059.827500", "125055.987500", "125059.937500", "125056.097500", "125100.047500", "125056.207500", "125100.157500", "125056.317500", "125100.267500", "125056.427500", "125100.377500", "125056.537500", "125104.347500", "125100.507500", "125104.455000", "125100.615000", "125104.565000", "125100.725000", "125104.675000", "125100.835000", "125104.785000", "125100.945000", "125104.895000", "125101.055000", "125105.005000", "125101.165000", "125105.115000", "125101.275000", "125105.225000", "125101.385000", "125105.332500", "125101.495000", "125105.442500", "125101.602500", "125105.552500", "125101.712500", "125105.662500", "125101.822500", "125105.772500", "125101.932500", "125105.882500", "125102.042500", "125105.992500", "125102.152500", "125106.102500", "125102.262500", "125106.212500", "125102.372500", "125106.320000", "125102.480000", "125106.430000", "125102.590000", "125106.540000", "125102.700000", "125106.650000", "125102.810000", "125106.760000", "125102.920000", "125106.870000", "125103.030000", "125106.980000", "125103.140000", "125107.090000", "125103.250000", "125107.197500", "125103.360000", "125107.307500", "125103.467500", "125107.417500", "125103.577500", "125107.527500", "125103.687500", "125107.637500", "125103.797500", "125107.747500", "125103.907500", "125107.857500", "125104.017500", "125107.967500", "125104.127500", "125108.077500", "125104.237500", "125112.047500", "125108.207500", "125112.155000", "125108.315000", "125112.265000", "125108.425000", "125112.375000", "125108.535000", "125112.485000", "125108.645000", "125112.595000", "125108.755000", "125112.705000", "125108.865000", "125112.815000", "125108.975000", "125112.925000", "125109.085000", "125113.032500", "125109.195000", "125113.142500", "125109.302500", "125113.252500", "125109.412500", "125113.362500", "125109.522500", "125113.472500", "125109.632500", "125113.582500", "125109.742500", "125113.692500", "125109.852500", "125113.802500", "125109.962500", "125113.912500", "125110.072500", "125114.020000", "125110.180000", "125114.130000", "125110.290000", "125114.240000", "125110.400000", "125114.350000", "125110.510000", "125114.460000", "125110.620000", "125114.570000", "125110.730000", "125114.680000", "125110.840000", "125114.790000", "125110.950000", "125114.897500", "125111.060000", "125115.007500", "125111.167500", "125115.117500", "125111.277500", "125115.227500", "125111.387500", "125115.337500", "125111.497500", "125115.447500", "125111.607500", "125115.557500", "125111.717500", "125115.667500", "125111.827500", "125115.777500", "125111.937500", "125119.747500", "125115.907500", "125119.855000", "125116.015000", "125119.965000", "125116.125000", "125120.075000", "125116.235000", "125120.185000", "125116.345000", "125120.295000", "125116.455000", "125120.405000", "125116.565000", "125120.515000", "125116.675000", "125120.625000", "125116.785000", "125120.732500", "125116.895000", "125120.842500", "125117.002500", "125120.952500", "125117.112500", "125121.062500", "125117.222500", "125121.172500", "125117.332500", "125121.282500", "125117.442500", "125121.392500", "125117.552500", "125121.502500", "125117.662500", "125121.612500", "125117.772500", "125121.720000", "125117.880000", "125121.830000", "125117.990000", "125121.940000", "125118.100000", "125122.050000", "125118.210000", "125122.160000", "125118.320000", "125122.270000", "125118.430000", "125122.380000", "125118.540000", "125122.490000", "125118.650000", "125122.597500", "125118.760000", "125122.707500", "125118.867500", "125122.817500", "125118.977500", "125122.927500", "125119.087500", "125123.037500", "125119.197500", "125123.147500", "125119.307500", "125123.257500", "125119.417500", "125123.367500", "125119.527500", "125123.477500", "125119.637500", "125127.447500", "125123.607500", "125127.555000", "125123.715000", "125127.665000", "125123.825000", "125127.775000", "125123.935000", "125127.885000", "125124.045000", "125127.995000", "125124.155000", "125128.105000", "125124.265000", "125128.215000", "125124.375000", "125128.325000", "125124.485000", "125128.432500", "125124.595000", "125128.542500", "125124.702500", "125128.652500", "125124.812500", "125128.762500", "125124.922500", "125128.872500", "125125.032500", "125128.982500", "125125.142500", "125129.092500", "125125.252500", "125129.202500", "125125.362500", "125129.312500", "125125.472500", "125129.420000", "125125.580000", "125129.530000", "125125.690000", "125129.640000", "125125.800000", "125129.750000", "125125.910000", "125129.860000", "125126.020000", "125129.970000", "125126.130000", "125130.080000", "125126.240000", "125130.190000", "125126.350000", "125130.297500", "125126.460000", "125130.407500", "125126.567500", "125130.517500", "125126.677500", "125130.627500", "125126.787500", "125130.737500", "125126.897500", "125130.847500", "125127.007500", "125130.957500", "125127.117500", "125131.067500", "125127.227500", "125131.177500", "125127.337500", "125135.147500", "125131.307500", "125135.255000", "125131.415000", "125135.365000", "125131.525000", "125135.475000", "125131.635000", "125135.585000", "125131.745000", "125135.695000", "125131.855000", "125135.805000", "125131.965000", "125135.915000", "125132.075000", "125136.025000", "125132.185000", "125136.132500", "125132.295000", "125136.242500", "125132.402500", "125136.352500", "125132.512500", "125136.462500", "125132.622500", "125136.572500", "125132.732500", "125136.682500", "125132.842500", "125136.792500", "125132.952500", "125136.902500", "125133.062500", "125137.012500", "125133.172500", "125137.120000", "125133.280000", "125137.230000", "125133.390000", "125137.340000", "125133.500000", "125137.450000", "125133.610000", "125137.560000", "125133.720000", "125137.670000", "125133.830000", "125137.780000", "125133.940000", "125137.890000", "125134.050000", "125137.997500", "125134.160000", "125138.107500", "125134.267500", "125138.217500", "125134.377500", "125138.327500", "125134.487500", "125138.437500", "125134.597500", "125138.547500", "125134.707500", "125138.657500", "125134.817500", "125138.767500", "125134.927500", "125138.877500", "125135.037500", "125142.847500", "125139.007500", "125142.955000", "125139.115000", "125143.065000", "125139.225000", "125143.175000", "125139.335000", "125143.285000", "125139.445000", "125143.395000", "125139.555000", "125143.505000", "125139.665000", "125143.615000", "125139.775000", "125143.725000", "125139.885000", "125143.832500", "125139.995000", "125143.942500", "125140.102500", "125144.052500", "125140.212500", "125144.162500", "125140.322500", "125144.272500", "125140.432500", "125144.382500", "125140.542500", "125144.492500", "125140.652500", "125144.602500", "125140.762500", "125144.712500", "125140.872500", "125144.820000", "125140.980000", "125144.930000", "125141.090000", "125145.040000", "125141.200000", "125145.150000", "125141.310000", "125145.260000", "125141.420000", "125145.370000", "125141.530000", "125145.480000", "125141.640000", "125145.590000", "125141.750000", "125145.697500", "125141.860000", "125145.807500", "125141.967500", "125145.917500", "125142.077500", "125146.027500", "125142.187500", "125146.137500", "125142.297500", "125146.247500", "125142.407500", "125146.357500", "125142.517500", "125146.467500", "125142.627500", "125146.577500", "125142.737500", "125150.547500", "125146.707500", "125150.655000", "125146.815000", "125150.765000", "125146.925000", "125150.875000", "125147.035000", "125150.985000", "125147.145000", "125151.095000", "125147.255000", "125151.205000", "125147.365000", "125151.315000", "125147.475000", "125151.425000", "125147.585000", "125151.532500", "125147.695000", "125151.642500", "125147.802500", "125151.752500", "125147.912500", "125151.862500", "125148.022500", "125151.972500", "125148.132500", "125152.082500", "125148.242500", "125152.192500", "125148.352500", "125152.302500", "125148.462500", "125152.412500", "125148.572500", "125152.520000", "125148.680000", "125152.630000", "125148.790000", "125152.740000", "125148.900000", "125152.850000", "125149.010000", "125152.960000", "125149.120000", "125153.070000", "125149.230000", "125153.180000", "125149.340000", "125153.290000", "125149.450000", "125153.397500", "125149.560000", "125153.507500", "125149.667500", "125153.617500", "125149.777500", "125153.727500", "125149.887500", "125153.837500", "125149.997500", "125153.947500", "125150.107500", "125154.057500", "125150.217500", "125154.167500", "125150.327500", "125154.277500", "125150.437500", "125158.247500", "125154.407500", "125158.355000", "125154.515000", "125158.465000", "125154.625000", "125158.575000", "125154.735000", "125158.685000", "125154.845000", "125158.795000", "125154.955000", "125158.905000", "125155.065000", "125159.015000", "125155.175000", "125159.125000", "125155.285000", "125159.232500", "125155.395000", "125159.342500", "125155.502500", "125159.452500", "125155.612500", "125159.562500", "125155.722500", "125159.672500", "125155.832500", "125159.782500", "125155.942500", "125159.892500", "125156.052500", "125200.002500", "125156.162500", "125200.112500", "125156.272500", "125200.220000", "125156.380000", "125200.330000", "125156.490000", "125200.440000", "125156.600000", "125200.550000", "125156.710000", "125200.660000", "125156.820000", "125200.770000", "125156.930000", "125200.880000", "125157.040000", "125200.990000", "125157.150000", "125201.097500", "125157.260000", "125201.207500", "125157.367500", "125201.317500", "125157.477500", "125201.427500", "125157.587500", "125201.537500", "125157.697500", "125201.647500", "125157.807500", "125201.757500", "125157.917500", "125201.867500", "125158.027500", "125201.977500", "125158.137500", "125205.947500", "125202.107500", "125206.055000", "125202.215000", "125206.165000", "125202.325000", "125206.275000", "125202.435000", "125206.385000", "125202.545000", "125206.495000", "125202.655000", "125206.605000", "125202.765000", "125206.715000", "125202.875000", "125206.825000", "125202.985000", "125206.932500", "125203.095000", "125207.042500", "125203.202500", "125207.152500", "125203.312500", "125207.262500", "125203.422500", "125207.372500", "125203.532500", "125207.482500", "125203.642500", "125207.592500", "125203.752500", "125207.702500", "125203.862500", "125207.812500", "125203.972500", "125207.920000", "125204.080000", "125208.030000", "125204.190000", "125208.140000", "125204.300000", "125208.250000", "125204.410000", "125208.360000", "125204.520000", "125208.470000", "125204.630000", "125208.580000", "125204.740000", "125208.690000", "125204.850000", "125208.797500", "125204.960000", "125208.907500", "125205.067500", "125209.017500", "125205.177500", "125209.127500", "125205.287500", "125209.237500", "125205.397500", "125209.347500", "125205.507500", "125209.457500", "125205.617500", "125209.567500", "125205.727500", "125209.677500", "125205.837500", "125213.647500", "125209.807500", "125213.755000", "125209.915000", "125213.865000", "125210.025000", "125213.975000", "125210.135000", "125214.085000", "125210.245000", "125214.195000", "125210.355000", "125214.305000", "125210.465000", "125214.415000", "125210.575000", "125214.525000", "125210.685000", "125214.632500", "125210.795000", "125214.742500", "125210.902500", "125214.852500", "125211.012500", "125214.962500", "125211.122500", "125215.072500", "125211.232500", "125215.182500", "125211.342500", "125215.292500", "125211.452500", "125215.402500", "125211.562500", "125215.512500", "125211.672500", "125215.620000", "125211.780000", "125215.730000", "125211.890000", "125215.840000", "125212.000000", "125215.950000", "125212.110000", "125216.060000", "125212.220000", "125216.170000", "125212.330000", "125216.280000", "125212.440000", "125216.390000", "125212.550000", "125216.497500", "125212.660000", "125216.607500", "125212.767500", "125216.717500", "125212.877500", "125216.827500", "125212.987500", "125216.937500", "125213.097500", "125217.047500", "125213.207500", "125217.157500", "125213.317500", "125217.267500", "125213.427500", "125217.377500", "125213.537500", "125221.347500", "125217.507500", "125221.455000", "125217.615000", "125221.565000", "125217.725000", "125221.675000", "125217.835000", "125221.785000", "125217.945000", "125221.895000", "125218.055000", "125222.005000", "125218.165000", "125222.115000", "125218.275000", "125222.225000", "125218.385000", "125222.332500", "125218.495000", "125222.442500", "125218.602500", "125222.552500", "125218.712500", "125222.662500", "125218.822500", "125222.772500", "125218.932500", "125222.882500", "125219.042500", "125222.992500", "125219.152500", "125223.102500", "125219.262500", "125223.212500", "125219.372500", "125223.320000", "125219.480000", "125223.430000", "125219.590000", "125223.540000", "125219.700000", "125223.650000", "125219.810000", "125223.760000", "125219.920000", "125223.870000", "125220.030000", "125223.980000", "125220.140000", "125224.090000", "125220.250000", "125224.197500", "125220.360000", "125224.307500", "125220.467500", "125224.417500", "125220.577500", "125224.527500", "125220.687500", "125224.637500", "125220.797500", "125224.747500", "125220.907500", "125224.857500", "125221.017500", "125224.967500", "125221.127500", "125225.077500", "125221.237500", "125229.047500", "125225.207500", "125229.155000", "125225.315000", "125229.265000", "125225.425000", "125229.375000", "125225.535000", "125229.485000", "125225.645000", "125229.595000", "125225.755000", "125229.705000", "125225.865000", "125229.815000", "125225.975000", "125229.925000", "125226.085000", "125230.032500", "125226.195000", "125230.142500", "125226.302500", "125230.252500", "125226.412500", "125230.362500", "125226.522500", "125230.472500", "125226.632500", "125230.582500", "125226.742500", "125230.692500", "125226.852500", "125230.802500", "125226.962500", "125230.912500", 