{
  "AcquisitionMatrixPE": 122,
  "AcquisitionNumber": 1,
  "AcquisitionTime": "12:54:16.482500",
  "BandwidthPerPixelPhaseEncode": 27.785,
  "BaseResolution": 122,
  "BodyPartExamined": "BRAIN",
  "CoilCombinationMethod": "Adaptive Combine",
  "ConsistencyInfo": "N4_VE11C_LATEST_20160120",
  "ConversionSoftware": "dcm2niix",
  "ConversionSoftwareVersion": "v1.0.20220720",
  "DerivedVendorReportedEchoSpacing": 0.000590011,
  "DeviceSerialNumber": "66112",
  "DiffusionScheme": "Monopolar",
  "DwellTime": 2e-06,
  "EchoTime": 0.068,
  "EchoTrainLength": 61,
  "EffectiveEchoSpacing": 0.000295005,
  "FlipAngle": 90,
  "HeudiconvVersion": "0.13.1",
  "ImageOrientationPatientDICOM": [0.984607, 0.174647, 0.00694164, -0.168302, 0.936622, 0.307269],
  "ImageOrientationText": "Tra>Cor(17.7)>Sag(-2.7)",
  "ImageType": [
    "ORIGINAL",
    "PRIMARY",
    "DIFFUSION",
    "NONE",
    "ND",
    "NORM"
],
  "ImagingFrequency": 123.252,
  "InPlanePhaseEncodingDirectionDICOM": "COL",
  "InstitutionAddress": "Maynard 3,Hanover,NH,US,03755",
  "InstitutionName": "Dartmouth College - PBS",
  "InstitutionalDepartmentName": "Department",
  "MRAcquisitionType": "2D",
  "MagneticFieldStrength": 3,
  "Manufacturer": "Siemens",
  "ManufacturersModelName": "Prisma",
  "Modality": "MR",
  "MultibandAccelerationFactor": 4,
  "NonlinearGradientCorrection": false,
  "ParallelReductionFactorInPlane": 2,
  "PartialFourier": 1,
  "PatientPosition": "HFS",
  "PercentPhaseFOV": 100,
  "PercentSampling": 100,
  "PhaseEncodingDirection": "j-",
  "PhaseEncodingSteps": 122,
  "PhaseResolution": 1,
  "PixelBandwidth": 2050,
  "ProcedureStepDescription": "dbic^QA",
  "ProtocolName": "dwi_acq-DTI-30-p2-s4",
  "PulseSequenceDetails": "%SiemensSeq%\\ep2d_diff",
  "ReceiveCoilActiveElements": "HEA;HEP",
  "ReceiveCoilName": "Head_32",
  "ReconMatrixPE": 122,
  "RefLinesPE": 38,
  "RepetitionTime": 3.6,
  "SAR": 0.161206,
  "ScanOptions": "FS",
  "ScanningSequence": "EP",
  "SequenceName": "*ep_b0",
  "SequenceVariant": "SK\\SP",
  "SeriesDescription": "dwi_acq-DTI-30-p2-s4",
  "SeriesNumber": 9,
  "ShimSetting": [4142, -7687, -7521, 264, -55, -131, -72, 51],
  "SliceThickness": 2,
  "SliceTiming": [2.58594, 0, 1.78906, 0.19531, 1.99219, 0.39844, 2.1875, 0.59375, 2.38281, 0.99219, 2.78125, 1.19531, 2.98438, 1.39062, 3.17969, 1.59375, 3.38281, 0.79688, 2.58594, 0, 1.78906, 0.19531, 1.99219, 0.39844, 2.1875, 0.59375, 2.38281, 0.99219, 2.78125, 1.19531, 2.98438, 1.39062, 3.17969, 1.59375, 3.38281, 0.79688, 2.58594, 0, 1.78906, 0.19531, 1.99219, 0.39844, 2.1875, 0.59375, 2.38281, 0.99219, 2.78125, 1.19531, 2.98438, 1.39062, 3.17969, 1.59375, 3.38281, 0.79688, 2.58594, 0, 1.78906, 0.19531, 1.99219, 0.39844, 2.1875, 0.59375, 2.38281, 0.99219, 2.78125, 1.19531, 2.98438, 1.39062, 3.17969, 1.59375, 3.38281, 0.79688],
  "SoftwareVersions": "syngo MR E11",
  "SpacingBetweenSlices": 2,
  "SpoilingState": true,
  "StationName": "AWP66112",
  "TotalReadoutTime": 0.0356956,
  "TxRefAmp": 235.417,
  "dcmmeta_affine": [
    [-1.9369311332702637, -0.3310856819152832, -0.09432363510131836, 143.04574584960938],
    [-0.3435679078102112, 1.8425348997116089, 0.6074142456054688, -107.89614868164062],
    [0.013655680231750011, -0.6044626832008362, 1.9031944274902344, -34.462730407714844],
    [0.0, 0.0, 0.0, 1.0]
],
  "dcmmeta_reorient_transform": [
    [0.0, -1.0, 0.0, 121.0],
    [1.0, 0.0, 0.0, 0.0],
    [0.0, 0.0, -1.0, 71.0],
    [0.0, 0.0, 0.0, 1.0]
],
  "dcmmeta_shape": [122, 122, 72, 31],
  "dcmmeta_slice_dim": 2,
  "dcmmeta_version": 0.6,
  "global": {
    "const": {
      "AccessionNumber": "qa",
      "AcquisitionMatrix": [122, 0, 0, 122],
      "AngioFlag": "N",
      "BitsAllocated": 16,
      "BitsStored": 12,
      "BodyPartExamined": "BRAIN",
      "Columns": 122,
      "EchoNumbers": 1,
      "EchoTime": 68.0,
      "EchoTrainLength": 61,
      "FlipAngle": 90.0,
      "HighBit": 11,
      "ImageOrientationPatient": [0.98460663934937, 0.17464701377759, 0.00694163724925, -0.1683018905058, 0.93662186697683, 0.3072685339455],
      "ImageType": [
        "ORIGINAL",
        "PRIMARY",
        "DIFFUSION",
        "NONE",
        "ND",
        "NORM"
],
      "ImagedNucleus": "1H",
      "ImagingFrequency": 123.252456,
      "InPlanePhaseEncodingDirection": "COL",
      "MRAcquisitionType": "2D",
      "MagneticFieldStrength": 3.0,
      "Manufacturer": "SIEMENS",
      "ManufacturerModelName": "Prisma",
      "Modality": "MR",
      "NumberOfAverages": 1.0,
      "NumberOfPhaseEncodingSteps": 122,
      "PercentPhaseFieldOfView": 100.0,
      "PercentSampling": 100.0,
      "PerformedProcedureStepStartTime": "122933.114000",
      "PhotometricInterpretation": "MONOCHROME2",
      "PixelBandwidth": 2050.0,
      "PixelRepresentation": 0,
      "PixelSpacing": [1.9672131538391, 1.9672131538391],
      "ProtocolName": "dwi_acq-DTI-30-p2-s4",
      "RepetitionTime": 3600.0,
      "Rows": 122,
      "SAR": 0.16120614992797,
      "SamplesPerPixel": 1,
      "ScanOptions": "FS",
      "ScanningSequence": "EP",
      "SequenceVariant": [
        "SK",
        "SP"
],
      "SeriesDescription": "dwi_acq-DTI-30-p2-s4",
      "SeriesNumber": 9,
      "SeriesTime": "125425.955000",
      "SliceThickness": 2.0,
      "SmallestImagePixelValue": 0,
      "SoftwareVersions": "syngo MR E11",
      "SpacingBetweenSlices": 2.0,
      "SpecificCharacterSet": "ISO_IR 100",
      "StudyID": "60",
      "StudyTime": "122933.003000",
      "TransmitCoilName": "Body",
      "VariableFlipAngleFlag": "N",
      "WindowCenterWidthExplanation": "Algo1",
      "dBdt": 0.0},
    "slices": {
      "AcquisitionTime": ["125416.482500", "125413.897500", "125415.687500", "125414.097500", "125415.887500", "125414.295000", "125416.085000", "125414.495000", "125416.285000", "125414.892500", "125416.682500", "125415.090000", "125416.880000", "125415.290000", "125417.080000", "125415.490000", "125417.277500", "125414.692500", "125416.482500", "125413.897500", "125415.687500", "125414.097500", "125415.887500", "125414.295000", "125416.085000", "125414.495000", "125416.285000", "125414.892500", "125416.682500", "125415.090000", "125416.880000", "125415.290000", "125417.080000", "125415.490000", "125417.277500", "125414.692500", "125416.482500", "125413.897500", "125415.687500", "125414.097500", "125415.887500", "125414.295000", "125416.085000", "125414.495000", "125416.285000", "125414.892500", "125416.682500", "125415.090000", "125416.880000", "125415.290000", "125417.080000", "125415.490000", "125417.277500", "125414.692500", "125416.482500", "125413.897500", "125415.687500", "125414.097500", "125415.887500", "125414.295000", "125416.085000", "125414.495000", "125416.285000", "125414.892500", "125416.682500", "125415.090000", "125416.880000", "125415.290000", "125417.080000", "125415.490000", "125417.277500", "125414.692500", "125420.082500", "125417.497500", "125419.287500", "125417.697500", "125419.487500", "125417.895000", "125419.685000", "125418.095000", "125419.885000", "125418.492500", "125420.282500", "125418.690000", "125420.480000", "125418.890000", "125420.680000", "125419.090000", "125420.877500", "125418.292500", "125420.082500", "125417.497500", "125419.287500", "125417.697500", "125419.487500", "125417.895000", "125419.685000", "125418.095000", "125419.885000", "125418.492500", "125420.282500", "125418.690000", "125420.480000", "125418.890000", "125420.680000", "125419.090000", "125420.877500", "125418.292500", "125420.082500", "125417.497500", "125419.287500", "125417.697500", "125419.487500", "125417.895000", "125419.685000", "125418.095000", "125419.885000", "125418.492500", "125420.282500", "125418.690000", "125420.480000", "125418.890000", "125420.680000", "125419.090000", "125420.877500", "125418.292500", "125420.082500", "125417.497500", "125419.287500", "125417.697500", "125419.487500", "125417.895000", "125419.685000", "125418.095000", "125419.885000", "125418.492500", "125420.282500", "125418.690000", "125420.480000", "125418.890000", "125420.680000", "125419.090000", "125420.877500", "125418.292500", "125423.682500", "125421.097500", "125422.887500", "125421.297500", "125423.087500", "125421.495000", "125423.285000", "125421.695000", "125423.485000", "125422.092500", "125423.882500", "125422.290000", "125424.080000", "125422.490000", "125424.280000", "125422.690000", "125424.477500", "125421.892500", "125423.682500", "125421.097500", "125422.887500", "125421.297500", "125423.087500", "125421.495000", "125423.285000", "125421.695000", "125423.485000", "125422.092500", "125423.882500", "125422.290000", "125424.080000", "125422.490000", "125424.280000", "125422.690000", "125424.477500", "125421.892500", "125423.682500", "125421.097500", "125422.887500", "125421.297500", "125423.087500", "125421.495000", "125423.285000", "125421.695000", "125423.485000", "125422.092500", "125423.882500", "125422.290000", "125424.080000", "125422.490000", "125424.280000", "125422.690000", "125424.477500", "125421.892500", "125423.682500", "125421.097500", "125422.887500", "125421.297500", "125423.087500", "125421.495000", "125423.285000", "125421.695000", "125423.485000", "125422.092500", "125423.882500", "125422.290000", "125424.080000", "125422.490000", "125424.280000", "125422.690000", "125424.477500", "125421.892500", "125427.282500", "125424.697500", "125426.487500", "125424.897500", "125426.687500", "125425.095000", "125426.885000", "125425.295000", "125427.085000", "125425.692500", "125427.482500", "125425.890000", "125427.680000", "125426.090000", "125427.880000", "125426.290000", "125428.077500", "125425.492500", "125427.282500", "125424.697500", "125426.487500", "125424.897500", "125426.687500", "125425.095000", "125426.885000", "125425.295000", "125427.085000", "125425.692500", "125427.482500", "125425.890000", "125427.680000", "125426.090000", "125427.880000", "125426.290000", "125428.077500", "125425.492500", "125427.282500", "125424.697500", "125426.487500", "125424.897500", "125426.687500", "125425.095000", "125426.885000", "125425.295000", "125427.085000", "125425.692500", "125427.482500", "125425.890000", "125427.680000", "125426.090000", "125427.880000", "125426.290000", "125428.077500", "125425.492500", "125427.282500", "125424.697500", "125426.487500", "125424.897500", "125426.687500", "125425.095000", "125426.885000", "125425.295000", "125427.085000", "125425.692500", "125427.482500", "125425.890000", "125427.680000", "125426.090000", "125427.880000", "125426.290000", "125428.077500", "125425.492500", "125430.882500", "125428.297500", "125430.087500", "125428.497500", "125430.287500", "125428.695000", "125430.485000", "125428.895000", "125430.685000", "125429.292500", "125431.082500", "125429.490000", "125431.280000", "125429.690000", "125431.480000", "125429.890000", "125431.677500", "125429.092500", "125430.882500", "125428.297500", "125430.087500", "125428.497500", "125430.287500", "125428.695000", "125430.485000", "125428.895000", "125430.685000", "125429.292500", "125431.082500", "125429.490000", "125431.280000", "125429.690000", "125431.480000", "125429.890000", "125431.677500", "125429.092500", "125430.882500", "125428.297500", "125430.087500", "125428.497500", "125430.287500", "125428.695000", "125430.485000", "125428.895000", "125430.685000", "125429.292500", "125431.082500", "125429.490000", "125431.280000", "125429.690000", "125431.480000", "125429.890000", "125431.677500", "125429.092500", "125430.882500", "125428.297500", "125430.087500", "125428.497500", "125430.287500", "125428.695000", "125430.485000", "125428.895000", "125430.685000", "125429.292500", "125431.082500", "125429.490000", "125431.280000", "125429.690000", "125431.480000", "125429.890000", "125431.677500", "125429.092500", "125434.482500", "125431.897500", "125433.687500", "125432.097500", "125433.887500", "125432.295000", "125434.085000", "125432.495000", "125434.285000", "125432.892500", "125434.682500", "125433.090000", "125434.880000", "125433.290000", "125435.080000", "125433.490000", "125435.277500", "125432.692500", "125434.482500", "125431.897500", "125433.687500", "125432.097500", "125433.887500", "125432.295000", "125434.085000", "125432.495000", "125434.285000", "125432.892500", "125434.682500", "125433.090000", "125434.880000", "125433.290000", "125435.080000", "125433.490000", "125435.277500", "125432.692500", "125434.482500", "125431.897500", "125433.687500", "125432.097500", "125433.887500", "125432.295000", "125434.085000", "125432.495000", "125434.285000", "125432.892500", "125434.682500", "125433.090000", "125434.880000", "125433.290000", "125435.080000", "125433.490000", "125435.277500", "125432.692500", "125434.482500", "125431.897500", "125433.687500", "125432.097500", "125433.887500", "125432.295000", "125434.085000", "125432.495000", "125434.285000", "125432.892500", "125434.682500", "125433.090000", "125434.880000", "125433.290000", "125435.080000", "125433.490000", "125435.277500", "125432.692500", "125438.082500", "125435.497500", "125437.287500", "125435.697500", "125437.487500", "125435.895000", "125437.685000", "125436.095000", "125437.885000", "125436.492500", "125438.282500", "125436.690000", "125438.480000", "125436.890000", "125438.680000", "125437.090000", "125438.877500", "125436.292500", "125438.082500", "125435.497500", "125437.287500", "125435.697500", "125437.487500", "125435.895000", "125437.685000", "125436.095000", "125437.885000", "125436.492500", "125438.282500", "125436.690000", "125438.480000", "125436.890000", "125438.680000", "125437.090000", "125438.877500", "125436.292500", "125438.082500", "125435.497500", "125437.287500", "125435.697500", "125437.487500", "125435.895000", "125437.685000", "125436.095000", "125437.885000", "125436.492500", "125438.282500", "125436.690000", "125438.480000", "125436.890000", "125438.680000", "125437.090000", "125438.877500", "125436.292500", "125438.082500", "125435.497500", "125437.287500", "125435.697500", "125437.487500", "125435.895000", "125437.685000", "125436.095000", "125437.885000", "125436.492500", "125438.282500", "125436.690000", "125438.480000", "125436.890000", "125438.680000", "125437.090000", "125438.877500", "125436.292500", "125441.682500", "125439.097500", "125440.887500", "125439.297500", "125441.087500", "125439.495000", "125441.285000", "125439.695000", "125441.485000", "125440.092500", "125441.882500", "125440.290000", "125442.080000", "125440.490000", "125442.280000", "125440.690000", "125442.477500", "125439.892500", "125441.682500", "125439.097500", "125440.887500", "125439.297500", "125441.087500", "125439.495000", "125441.285000", "125439.695000", "125441.485000", "125440.092500", "125441.882500", "125440.290000", "125442.080000", "125440.490000", "125442.280000", "125440.690000", "125442.477500", "125439.892500", "125441.682500", "125439.097500", "125440.887500", "125439.297500", "125441.087500", "125439.495000", "125441.285000", "125439.695000", "125441.485000", "125440.092500", "125441.882500", "125440.290000", "125442.080000", "125440.490000", "125442.280000", "125440.690000", "125442.477500", "125439.892500", "125441.682500", "125439.097500", "125440.887500", "125439.297500", "125441.087500", "125439.495000", "125441.285000", "125439.695000", "125441.485000", "125440.092500", "125441.882500", "125440.290000", "125442.080000", "125440.490000", "125442.280000", "125440.690000", "125442.477500", "125439.892500", "125445.282500", "125442.697500", "125444.487500", "125442.897500", "125444.687500", "125443.095000", "125444.885000", "125443.295000", "125445.085000", "125443.692500", "125445.482500", "125443.890000", "125445.680000", "125444.090000", "125445.880000", "125444.290000", "125446.077500", "125443.492500", "125445.282500", "125442.697500", "125444.487500", "125442.897500", "125444.687500", "125443.095000", "125444.885000", "125443.295000", "125445.085000", "125443.692500", "125445.482500", "125443.890000", "125445.680000", "125444.090000", "125445.880000", "125444.290000", "125446.077500", "125443.492500", "125445.282500", "125442.697500", "125444.487500", "125442.897500", "125444.687500", "125443.095000", "125444.885000", "125443.295000", "125445.085000", "125443.692500", "125445.482500", "125443.890000", "125445.680000", "125444.090000", "125445.880000", "125444.290000", "125446.077500", "125443.492500", "125445.282500", "125442.697500", "125444.487500", "125442.897500", "125444.687500", "125443.095000", "125444.885000", "125443.295000", "125445.085000", "125443.692500", "125445.482500", "125443.890000", "125445.680000", "125444.090000", "125445.880000", "125444.290000", "125446.077500", "125443.492500", "125448.882500", "125446.297500", "125448.087500", "125446.497500", "125448.287500", "125446.695000", "125448.485000", "125446.895000", "125448.685000", "125447.292500", "125449.082500", "125447.490000", "125449.280000", "125447.690000", "125449.480000", "125447.890000", "125449.677500", "125447.092500", "125448.882500", "125446.297500", "125448.087500", "125446.497500", "125448.287500", "125446.695000", "125448.485000", "125446.895000", "125448.685000", "125447.292500", "125449.082500", "125447.490000", "125449.280000", "125447.690000", "125449.480000", "125447.890000", "125449.677500", "125447.092500", "125448.882500", "125446.297500", "125448.087500", "125446.497500", "125448.287500", "125446.695000", "125448.485000", "125446.895000", "125448.685000", "125447.292500", "125449.082500", "125447.490000", "125449.280000", "125447.690000", "125449.480000", "125447.890000", "125449.677500", "125447.092500", "125448.882500", "125446.297500", "125448.087500", "125446.497500", "125448.287500", "125446.695000", "125448.485000", "125446.895000", "125448.685000", "125447.292500", "125449.082500", "125447.490000", "125449.280000", "125447.690000", "125449.480000", "125447.890000", "125449.677500", "125447.092500", "125452.482500", "125449.897500", "125451.687500", "125450.097500", "125451.887500", "125450.295000", "125452.085000", "125450.495000", "125452.285000", "125450.892500", "125452.682500", "125451.090000", "125452.880000", "125451.290000", "125453.080000", "125451.490000", "125453.277500", "125450.692500", "125452.482500", "125449.897500", "125451.687500", "125450.097500", "125451.887500", "125450.295000", "125452.085000", "125450.495000", "125452.285000", "125450.892500", "125452.682500", "125451.090000", "125452.880000", "125451.290000", "125453.080000", "125451.490000", "125453.277500", "125450.692500", "125452.482500", "125449.897500", "125451.687500", "125450.097500", "125451.887500", "125450.295000", "125452.085000", "125450.495000", "125452.285000", "125450.892500", "125452.682500", "125451.090000", "125452.880000", "125451.290000", "125453.080000", "125451.490000", "125453.277500", "125450.692500", "125452.482500", "125449.897500", "125451.687500", "125450.097500", "125451.887500", "125450.295000", "125452.085000", "125450.495000", "125452.285000", "125450.892500", "125452.682500", "125451.090000", "125452.880000", "125451.290000", "125453.080000", "125451.490000", "125453.277500", "125450.692500", "125456.082500", "125453.497500", "125455.287500", "125453.697500", "125455.487500", "125453.895000", "125455.685000", "125454.095000", "125455.885000", "125454.492500", "125456.282500", "125454.690000", "125456.480000", "125454.890000", "125456.680000", "125455.090000", "125456.877500", "125454.292500", "125456.082500", "125453.497500", "125455.287500", "125453.697500", "125455.487500", "125453.895000", "125455.685000", "125454.095000", "125455.885000", "125454.492500", "125456.282500", "125454.690000", "125456.480000", "125454.890000", "125456.680000", "125455.090000", "125456.877500", "125454.292500", "125456.082500", "125453.497500", "125455.287500", "125453.697500", "125455.487500", "125453.895000", "125455.685000", "125454.095000", "125455.885000", "125454.492500", "125456.282500", "125454.690000", "125456.480000", "125454.890000", "125456.680000", "125455.090000", "125456.877500", "125454.292500", "125456.082500", "125453.497500", "125455.287500", "125453.697500", "125455.487500", "125453.895000", "125455.685000", "125454.095000", "125455.885000", "125454.492500", "125456.282500", "125454.690000", "125456.480000", "125454.890000", "125456.680000", "125455.090000", "125456.877500", "125454.292500", "125459.682500", "125457.097500", "125458.887500", "125457.297500", "125459.087500", "125457.495000", "125459.285000", "125457.695000", "125459.485000", "125458.092500", "125459.882500", "125458.290000", "125500.080000", "125458.490000", "125500.280000", "125458.690000", "125500.477500", "125457.892500", "125459.682500", "125457.097500", "125458.887500", "125457.297500", "125459.087500", "125457.495000", "125459.285000", "125457.695000", "125459.485000", "125458.092500", "125459.882500", "125458.290000", "125500.080000", "125458.490000", "125500.280000", "125458.690000", "125500.477500", "125457.892500", "125459.682500", "125457.097500", "125458.887500", "125457.297500", "125459.087500", "125457.495000", "125459.285000", "125457.695000", "125459.485000", "125458.092500", "125459.882500", "125458.290000", "125500.080000", "125458.490000", "125500.280000", "125458.690000", "125500.477500", "125457.892500", "125459.682500", "125457.097500", "125458.887500", "125457.297500", "125459.087500", "125457.495000", "125459.285000", "125457.695000", "125459.485000", "125458.092500", "125459.882500", "125458.290000", "125500.080000", "125458.490000", "125500.280000", "125458.690000", "125500.477500", "125457.892500", "125503.282500", "125500.697500", "125502.487500", "125500.897500", "125502.687500", "125501.095000", "125502.885000", "125501.295000", "125503.085000", "125501.692500", "125503.482500", "125501.890000", "125503.680000", "125502.090000", "125503.880000", "125502.290000", "125504.077500", "125501.492500", "125503.282500", "125500.697500", "125502.487500", "125500.897500", "125502.687500", "125501.095000", "125502.885000", "125501.295000", "125503.085000", "125501.692500", "125503.482500", "125501.890000", "125503.680000", "125502.090000", "125503.880000", "125502.290000", "125504.077500", "125501.492500", "125503.282500", "125500.697500", "125502.487500", "125500.897500", "125502.687500", "125501.095000", "125502.885000", "125501.295000", "125503.085000", "125501.692500", "125503.482500", "125501.890000", "125503.680000", "125502.090000", "125503.880000", "125502.290000", "125504.077500", "125501.492500", "125503.282500", "125500.697500", "125502.487500", "125500.897500", "125502.687500", "125501.095000", "125502.885000", "125501.295000", "125503.085000", "125501.692500", "125503.482500", "125501.890000", "125503.680000", "125502.090000", "125503.880000", "125502.290000", "125504.077500", "125501.492500", "125506.882500", "125504.297500", "125506.087500", "125504.497500", "125506.287500", "125504.695000", "125506.485000", "125504.895000", "125506.685000", "125505.292500", "125507.082500", "125505.490000", "125507.280000", "125505.690000", "125507.480000", "125505.890000", "125507.677500", "125505.092500", "125506.882500", "125504.297500", "125506.087500", "125504.497500", "125506.287500", "125504.695000", "125506.485000", "125504.895000", "125506.685000", "125505.292500", "125507.082500", "125505.490000", "125507.280000", "125505.690000", "125507.480000", "125505.890000", "125507.677500", "125505.092500", "125506.882500", "125504.297500", "125506.087500", "125504.497500", "125506.287500", "125504.695000", "125506.485000", "125504.895000", "125506.685000", "125505.292500", "125507.082500", "125505.490000", "125507.280000", "125505.690000", "125507.480000", "125505.890000", "125507.677500", "125505.092500", "125506.882500", "125504.297500", "125506.087500", "125504.497500", "125506.287500", "125504.695000", "125506.485000", "125504.895000", "125506.685000", "125505.292500", "125507.082500", "125505.490000", "125507.280000", "125505.690000", "125507.480000", "125505.890000", "125507.677500", "125505.092500", "125510.482500", "125507.897500", "125509.687500", "125508.097500", "125509.887500", "125508.295000", "125510.085000", "125508.495000", "125510.285000", "125508.892500", "125510.682500", "125509.090000", "125510.880000", "125509.290000", "125511.080000", "125509.490000", "125511.277500", "125508.692500", "125510.482500", "125507.897500", "125509.687500", "125508.097500", "125509.887500", "125508.295000", "125510.085000", "125508.495000", "125510.285000", "125508.892500", "125510.682500", "125509.090000", "125510.880000", "125509.290000", "125511.080000", "125509.490000", "125511.277500", "125508.692500", "125510.482500", "125507.897500", "125509.687500", "125508.097500", "125509.887500", "125508.295000", "125510.085000", "125508.495000", "125510.285000", "125508.892500", "125510.682500", "125509.090000", "125510.880000", "125509.290000", "125511.080000", "125509.490000", "125511.277500", "125508.692500", "125510.482500", "125507.897500", "125509.687500", "125508.097500", "125509.887500", "125508.295000", "125510.085000", "125508.495000", "125510.285000", "125508.892500", "125510.682500", "125509.090000", "125510.880000", "125509.290000", "125511.080000", "125509.490000", "125511.277500", "125508.692500", "125514.082500", "125511.497500", "125513.287500", "125511.697500", "125513.487500", "125511.895000", "125513.685000", "125512.095000", "125513.885000", "125512.492500", "125514.282500", "125512.690000", "125514.480000", "125512.890000", "125514.680000", "125513.090000", "125514.877500", "125512.292500", "125514.082500", "125511.497500", "125513.287500", "125511.697500", "125513.487500", "125511.895000", "125513.685000", "125512.095000", "125513.885000", "125512.492500", "125514.282500", "125512.690000", "125514.480000", "125512.890000", "125514.680000", "125513.090000", "125514.877500", "125512.292500", "125514.082500", "125511.497500", "125513.287500", "125511.697500", "125513.487500", "125511.895000", "125513.685000", "125512.095000", "125513.885000", "125512.492500", "125514.282500", "125512.690000", "125514.480000", "125512.890000", "125514.680000", "125513.090000", "125514.877500", "125512.292500", "125514.082500", "125511.497500", "125513.287500", "125511.697500", "125513.487500", "125511.895000", "125513.685000", "125512.095000", "125513.885000", "125512.492500", "125514.282500", "125512.690000", "125514.480000", "125512.890000", "125514.680000", "125513.090000", "125514.877500", "125512.292500", "125517.682500", "125515.097500", "125516.887500", "125515.297500", "125517.087500", "125515.495000", "125517.285000", "125515.695000", "125517.485000", "125516.092500", "125517.882500", "125516.290000", "125518.080000", "125516.490000", "125518.280000", "125516.690000", "125518.477500", "125515.892500", "125517.682500", "125515.097500", "125516.887500", "125515.297500", "125517.087500", "125515.495000", "125517.285000", "125515.695000", "125517.485000", "125516.092500", "125517.882500", "125516.290000", "125518.080000", "125516.490000", "125518.280000", "125516.690000", "125518.477500", "125515.892500", "125517.682500", "125515.097500", "125516.887500", "125515.297500", "125517.087500", "125515.495000", "125517.285000", "125515.695000", "125517.485000", "125516.092500", "125517.882500", "125516.290000", "125518.080000", "125516.490000", "125518.280000", "125516.690000", "125518.477500", "125515.892500", "125517.682500", "125515.097500", "125516.887500", "125515.297500", "125517.087500", "125515.495000", "125517.285000", "125515.695000", "125517.485000", "125516.092500", "125517.882500", "125516.290000", "125518.080000", "125516.490000", "125518.280000", "125516.690000", "125518.477500", "125515.892500", "125521.282500", "125518.697500", "125520.487500", "125518.897500", "125520.687500", "125519.095000", "125520.885000", "125519.295000", "125521.085000", "125519.692500", "125521.482500", "125519.890000", "125521.680000", "125520.090000", "125521.880000", "125520.290000", "125522.077500", "125519.492500", "125521.282500", "125518.697500", "125520.487500", "125518.897500", "125520.687500", "125519.095000", "125520.885000", "125519.295000", "125521.085000", "125519.692500", "125521.482500", "125519.890000", "125521.680000", "125520.090000", "125521.880000", "125520.290000", "125522.077500", "125519.492500", "125521.282500", "125518.697500", "125520.487500", "125518.897500", "125520.687500", "125519.095000", "125520.885000", "125519.295000", "125521.085000", "125519.692500", "125521.482500", "125519.890000", "125521.680000", "125520.090000", "125521.880000", "125520.290000", "125522.077500", "125519.492500", "125521.282500", "125518.697500", "125520.487500", "125518.897500", "125520.687500", "125519.095000", "125520.885000", "125519.295000", "125521.085000", "125519.692500", "125521.482500", "125519.890000", "125521.680000", "125520.090000", "125521.880000", "125520.290000", "125522.077500", "125519.492500", "125524.882500", "125522.297500", "125524.087500", "125522.497500", "125524.287500", "125522.695000", "125524.485000", "125522.895000", "125524.685000", "125523.292500", "125525.082500", "125523.490000", "125525.280000", "125523.690000", "125525.480000", "125523.890000", "125525.677500", "125523.092500", "125524.882500", "125522.297500", "125524.087500", "125522.497500", "125524.287500", "125522.695000", "125524.485000", "125522.895000", "125524.685000", "125523.292500", "125525.082500", "125523.490000", "125525.280000", "125523.690000", "125525.480000", "125523.890000", "125525.677500", "125523.092500", "125524.882500", "125522.297500", "125524.087500", "125522.497500", "125524.287500", "125522.695000", "125524.485000", "125522.895000", "125524.685000", "125523.292500", "125525.082500", "125523.490000", "125525.280000", "125523.690000", "125525.480000", "125523.890000", "125525.677500", "125523.092500", "125524.882500", "125522.297500", "125524.087500", "125522.497500", "125524.287500", "125522.695000", "125524.485000", "125522.895000", "125524.685000", "125523.292500", "125525.082500", 