{
  "AcquisitionMatrixPE": 80,
  "AcquisitionNumber": 1,
  "AcquisitionTime": "10:16:13.500000",
  "BandwidthPerPixelPhaseEncode": 25,
  "BaseResolution": 80,
  "BodyPartExamined": "BRAIN",
  "CoilCombinationMethod": "Sum of Squares",
  "ConsistencyInfo": "N4_VE11C_LATEST_20160120",
  "ConversionSoftware": "dcm2niix",
  "ConversionSoftwareVersion": "v1.0.20220720",
  "DerivedVendorReportedEchoSpacing": 0.0005,
  "DeviceSerialNumber": "66112",
  "DwellTime": 2.7e-06,
  "EchoTime": 0.03,
  "EchoTrainLength": 80,
  "EffectiveEchoSpacing": 0.0005,
  "FlipAngle": 10,
  "HeudiconvVersion": "0.13.1",
  "ImageOrientationPatientDICOM": [0.999953, 0.00769297, 0.00585522, -0.00907554, 0.955672, 0.294293],
  "ImageOrientationText": "Tra>Cor(17.1)>Sag(0.2)",
  "ImageType": [
    "ORIGINAL",
    "PRIMARY",
    "M",
    "ND",
    "NORM",
    "MOSAIC"
],
  "ImagingFrequency": 123.252,
  "InPlanePhaseEncodingDirectionDICOM": "COL",
  "InstitutionAddress": "Maynard 3,Hanover,NH,US,03755",
  "InstitutionName": "Dartmouth College - PBS",
  "InstitutionalDepartmentName": "Department",
  "MRAcquisitionType": "2D",
  "MagneticFieldStrength": 3,
  "Manufacturer": "Siemens",
  "ManufacturersModelName": "Prisma",
  "MatrixCoilMode": "SENSE",
  "Modality": "MR",
  "NonlinearGradientCorrection": false,
  "PartialFourier": 1,
  "PatientPosition": "HFS",
  "PercentPhaseFOV": 100,
  "PercentSampling": 100,
  "PhaseEncodingDirection": "j-",
  "PhaseEncodingSteps": 80,
  "PhaseResolution": 1,
  "PixelBandwidth": 2315,
  "ProcedureStepDescription": "dbic^QA",
  "ProtocolName": "func-bold_acq-32ch-10flip",
  "PulseSequenceDetails": "%SiemensSeq%\\ep2d_bold",
  "ReceiveCoilActiveElements": "HEA;HEP",
  "ReceiveCoilName": "Head_32",
  "ReconMatrixPE": 80,
  "RepetitionTime": 2,
  "SAR": 0.0117459,
  "ScanOptions": "FS",
  "ScanningSequence": "EP",
  "SequenceName": "*epfid2d1_80",
  "SequenceVariant": "SK",
  "SeriesDescription": "func-bold_acq-32ch-10flip",
  "SeriesNumber": 10,
  "ShimSetting": [4145, -7690, -7509, 256, -52, -166, -18, 71],
  "SliceThickness": 3.5,
  "SliceTiming": [0.99, 0, 1.0575, 0.0675, 1.1225, 0.1325, 1.1875, 0.1975, 1.255, 0.265, 1.32, 0.33, 1.385, 0.3975, 1.4525, 0.4625, 1.5175, 0.5275, 1.585, 0.595, 1.65, 0.66, 1.715, 0.7275, 1.7825, 0.7925, 1.8475, 0.8575, 1.915, 0.925],
  "SoftwareVersions": "syngo MR E11",
  "SpacingBetweenSlices": 3.99,
  "StationName": "AWP66112",
  "TotalReadoutTime": 0.0395,
  "TxRefAmp": 230.545,
  "dcmmeta_affine": [
    [-2.9998598098754883, -0.027226606383919716, 0.013293386436998844, 120.73011779785156],
    [-0.02307892218232155, 2.867016077041626, 1.1743875741958618, -118.7190933227539],
    [0.01756564900279045, -0.8828799724578857, 3.813231945037842, -23.762168884277344],
    [0.0, 0.0, 0.0, 1.0]
],
  "dcmmeta_reorient_transform": [
    [0.0, -1.0, 0.0, 79.0],
    [1.0, 0.0, 0.0, 0.0],
    [0.0, 0.0, 1.0, 0.0],
    [0.0, 0.0, 0.0, 1.0]
],
  "dcmmeta_shape": [80, 80, 30, 200],
  "dcmmeta_slice_dim": 2,
  "dcmmeta_version": 0.6,
  "global": {
    "const": {
      "AccessionNumber": "qa",
      "AcquisitionMatrix": [80, 0, 0, 80],
      "AngioFlag": "N",
      "BitsAllocated": 16,
      "BitsStored": 12,
      "BodyPartExamined": "BRAIN",
      "Columns": 480,
      "EchoNumbers": 1,
      "EchoTime": 30.0,
      "EchoTrainLength": 80,
      "FlipAngle": 10.0,
      "HighBit": 11,
      "ImageOrientationPatient": [0.99995326620197, 0.00769297415735, 0.00585521653187, -0.0090755357037, 0.95567205169109, 0.29429333031557],
      "ImagePositionPatient": [-713.10585452286, -685.79419960758, -273.59881698089],
      "ImageType": [
        "ORIGINAL",
        "PRIMARY",
        "M",
        "ND",
        "NORM",
        "MOSAIC"
],
      "ImagedNucleus": "1H",
      "ImagingFrequency": 123.252417,
      "InPlanePhaseEncodingDirection": "COL",
      "MRAcquisitionType": "2D",
      "MagneticFieldStrength": 3.0,
      "Manufacturer": "SIEMENS",
      "ManufacturerModelName": "Prisma",
      "Modality": "MR",
      "NumberOfAverages": 1.0,
      "NumberOfPhaseEncodingSteps": 80,
      "PercentPhaseFieldOfView": 100.0,
      "PercentSampling": 100.0,
      "PerformedProcedureStepStartTime": "095333.584000",
      "PhotometricInterpretation": "MONOCHROME2",
      "PixelBandwidth": 2315.0,
      "PixelRepresentation": 0,
      "PixelSpacing": [3.0, 3.0],
      "ProtocolName": "func-bold_acq-32ch-10flip",
      "RepetitionTime": 2000.0,
      "Rows": 480,
      "SAR": 0.01174594969226,
      "SamplesPerPixel": 1,
      "ScanOptions": "FS",
      "ScanningSequence": "EP",
      "SequenceName": "*epfid2d1_80",
      "SequenceVariant": "SK",
      "SeriesDescription": "func-bold_acq-32ch-10flip",
      "SeriesNumber": 10,
      "SeriesTime": "101706.005000",
      "SliceLocation": -57.250118347225,
      "SliceThickness": 3.5,
      "SmallestImagePixelValue": 0,
      "SoftwareVersions": "syngo MR E11",
      "SpacingBetweenSlices": 3.9900000269523,
      "SpecificCharacterSet": "ISO_IR 100",
      "StudyID": "104",
      "StudyTime": "095333.422000",
      "TransmitCoilName": "Body",
      "VariableFlipAngleFlag": "N",
      "WindowCenterWidthExplanation": "Algo1",
      "dBdt": 0.0},
    "slices": {}
  },
  "time": {
    "samples": {
      "AcquisitionNumber": [1, 2, 3, 4, 5, 6, 7, 8, 9, 10, 11, 12, 13, 14, 15, 16, 17, 18, 19, 20, 21, 22, 23, 24, 25, 26, 27, 28, 29, 30, 31, 32, 33, 34, 35, 36, 37, 38, 39, 40, 41, 42, 43, 44, 45, 46, 47, 48, 49, 50, 51, 52, 53, 54, 55, 56, 57, 58, 59, 60, 61, 62, 63, 64, 65, 66, 67, 68, 69, 70, 71, 72, 73, 74, 75, 76, 77, 78, 79, 80, 81, 82, 83, 84, 85, 86, 87, 88, 89, 90, 91, 92, 93, 94, 95, 96, 97, 98, 99, 100, 101, 102, 103, 104, 105, 106, 107, 108, 109, 110, 111, 112, 113, 114, 115, 116, 117, 118, 119, 120, 121, 122, 123, 124, 125, 126, 127, 128, 129, 130, 131, 132, 133, 134, 135, 136, 137, 138, 139, 140, 141, 142, 143, 144, 145, 146, 147, 148, 149, 150, 151, 152, 153, 154, 155, 156, 157, 158, 159, 160, 161, 162, 163, 164, 165, 166, 167, 168, 169, 170, 171, 172, 173, 174, 175, 176, 177, 178, 179, 180, 181, 182, 183, 184, 185, 186, 187, 188, 189, 190, 191, 192, 193, 194, 195, 196, 197, 198, 199, 200],
      "AcquisitionTime": ["101613.500000", "101615.500000", "101617.500000", "101619.500000", "101621.500000", "101623.500000", "101625.500000", "101627.500000", "101629.500000", "101631.500000", "101633.500000", "101635.500000", "101637.500000", "101639.500000", "101641.500000", "101643.500000", "101645.500000", "101647.500000", "101649.500000", "101651.500000", "101653.500000", "101655.500000", "101657.500000", "101659.500000", "101701.500000", "101703.500000", "101705.500000", "101707.500000", "101709.500000", "101711.500000", "101713.500000", "101715.500000", "101717.500000", "101719.500000", "101721.500000", "101723.500000", "101725.500000", "101727.500000", "101729.500000", "101731.500000", "101733.500000", "101735.500000", "101737.500000", "101739.500000", "101741.500000", "101743.500000", "101745.500000", "101747.500000", "101749.500000", "101751.500000", "101753.500000", "101755.500000", "101757.500000", "101759.500000", "101801.500000", "101803.500000", "101805.500000", "101807.500000", "101809.500000", "101811.500000", "101813.500000", "101815.500000", "101817.500000", "101819.500000", "101821.500000", "101823.500000", "101825.500000", "101827.500000", "101829.500000", "101831.500000", "101833.500000", "101835.500000", "101837.500000", "101839.500000", "101841.500000", "101843.500000", "101845.500000", "101847.500000", "101849.500000", "101851.500000", "101853.500000", "101855.500000", "101857.500000", "101859.500000", "101901.500000", "101903.500000", "101905.500000", "101907.500000", "101909.500000", "101911.500000", "101913.500000", "101915.500000", "101917.500000", "101919.500000", "101921.500000", "101923.500000", "101925.500000", "101927.500000", "101929.500000", "101931.500000", "101933.500000", "101935.500000", "101937.500000", "101939.500000", "101941.500000", "101943.500000", "101945.500000", "101947.500000", "101949.500000", "101951.500000", "101953.500000", "101955.500000", "101957.500000", "101959.500000", "102001.500000", "102003.500000", "102005.500000", "102007.500000", "102009.500000", "102011.500000", "102013.500000", "102015.500000", "102017.500000", "102019.500000", "102021.500000", "102023.500000", "102025.500000", "102027.500000", "102029.500000", "102031.500000", "102033.500000", "102035.500000", "102037.500000", "102039.500000", "102041.500000", "102043.500000", "102045.500000", "102047.500000", "102049.500000", "102051.500000", "102053.500000", "102055.500000", "102057.500000", "102059.500000", "102101.500000", "102103.500000", "102105.500000", "102107.500000", "102109.500000", "102111.500000", "102113.500000", "102115.500000", "102117.500000", "102119.500000", "102121.500000", "102123.500000", "102125.500000", "102127.500000", "102129.500000", "102131.500000", "102133.500000", "102135.500000", "102137.500000", "102139.500000", "102141.500000", "102143.500000", "102145.500000", "102147.500000", "102149.500000", "102151.500000", "102153.500000", "102155.500000", "102157.500000", "102159.500000", "102201.500000", "102203.500000", "102205.500000", "102207.500000", "102209.500000", "102211.500000", "102213.500000", "102215.500000", "102217.500000", "102219.500000", "102221.500000", "102223.500000", "102225.500000", "102227.500000", "102229.500000", "102231.500000", "102233.500000", "102235.500000", "102237.500000", "102239.500000", "102241.500000", "102243.500000", "102245.500000", "102247.500000", "102249.500000", "102251.500000"],
      "ContentTime": ["101706.008000", "101706.011000", "101706.014000", "101706.016000", "101706.026000", "101706.029000", "101706.031000", "101706.034000", "101706.036000", "101706.039000", "101706.041000", "101706.044000", "101706.046000", "101706.049000", "101706.051000", "101706.054000", "101706.056000", "101706.059000", "101706.061000", "101706.064000", "101706.066000", "101706.069000", "101706.071000", "101706.074000", "101706.076000", "101706.079000", "101746.004000", "101746.007000", "101746.010000", "101746.012000", "101746.015000", "101746.017000", "101746.020000", "101746.022000", "101746.025000", "101746.027000", "101746.030000", "101746.032000", "101746.035000", "101746.037000", "101746.040000", "101746.042000", "101746.045000", "101746.056000", "101746.058000", "101746.061000", "101826.004000", "101826.007000", "101826.010000", "101826.012000", "101826.015000", "101826.017000", "101826.020000", "101826.022000", "101826.025000", "101826.027000", "101826.030000", "101826.032000", "101826.035000", "101826.037000", "101826.040000", "101826.042000", "101826.045000", "101826.047000", "101826.050000", "101826.052000", "101906.003000", "101906.006000", "101906.009000", "101906.011000", "101906.014000", "101906.016000", "101906.019000", "101906.021000", "101906.024000", "101906.026000", "101906.029000", "101906.031000", "101906.034000", "101906.036000", "101906.039000", "101906.041000", "101906.044000", "101906.046000", "101906.049000", "101906.051000", "101946.004000", "101946.007000", "101946.010000", "101946.012000", "101946.015000", "101946.017000", "101946.020000", "101946.022000", "101946.025000", "101946.028000", "101946.030000", "101946.033000", "101946.035000", "101946.038000", "101946.040000", "101946.043000", "101946.045000", "101946.048000", "101946.050000", "101946.053000", "102026.004000", "102026.007000", "102026.010000", "102026.012000", "102026.015000", "102026.017000", "102026.020000", "102026.022000", "102026.025000", "102026.028000", "102026.030000", "102026.033000", "102026.035000", "102026.038000", "102026.040000", "102026.043000", "102026.045000", "102026.048000", "102026.050000", "102026.053000", "102106.004000", "102106.007000", "102106.010000", "102106.012000", "102106.015000", "102106.017000", "102106.020000", "102106.022000", "102106.025000", "102106.027000", "102106.030000", "102106.032000", "102106.035000", "102106.037000", "102106.040000", "102106.043000", "102106.045000", "102106.048000", "102106.050000", "102106.053000", "102146.003000", "102146.006000", "102146.009000", "102146.011000", "102146.014000", "102146.016000", "102146.019000", "102146.021000", "102146.024000", "102146.026000", "102146.029000", "102146.031000", "102146.034000", "102146.036000", "102146.039000", "102146.042000", "102146.044000", "102146.047000", "102146.049000", "102146.052000", "102206.004000", "102206.007000", "102206.010000", "102206.012000", "102206.015000", "102206.018000", "102206.020000", "102206.023000", "102206.025000", "102206.028000", "102246.005000", "102246.007000", "102246.010000", "102246.013000", "102246.015000", "102246.018000", "102246.020000", "102246.023000", "102246.025000", "102246.028000", "102246.030000", "102246.033000", "102246.035000", "102246.038000", "102246.040000", "102246.043000", "102246.045000", "102246.048000", "102246.050000", "102246.053000", "102253.333000", "102253.336000", "102253.338000", "102253.341000"],
      "InstanceCreationTime": ["101706.008000", "101706.011000", "101706.014000", "101706.016000", "101706.026000", "101706.029000", "101706.031000", "101706.034000", "101706.036000", "101706.039000", "101706.041000", "101706.044000", "101706.046000", "101706.049000", "101706.051000", "101706.054000", "101706.056000", "101706.059000", "101706.061000", "101706.064000", "101706.066000", "101706.069000", "101706.071000", "101706.074000", "101706.076000", "101706.079000", "101746.004000", "101746.007000", "101746.010000", "101746.012000", "101746.015000", "101746.017000", "101746.020000", "101746.022000", "101746.025000", "101746.027000", "101746.030000", "101746.032000", "101746.035000", "101746.037000", "101746.040000", "101746.042000", "101746.045000", "101746.056000", "101746.058000", "101746.061000", "101826.004000", "101826.007000", "101826.010000", "101826.012000", "101826.015000", "101826.017000", "101826.020000", "101826.022000", "101826.025000", "101826.027000", "101826.030000", "101826.032000", "101826.035000", "101826.037000", "101826.040000", "101826.042000", "101826.045000", "101826.047000", "101826.050000", "101826.052000", "101906.003000", "101906.006000", "101906.009000", "101906.011000", "101906.014000", "101906.016000", "101906.019000", "101906.021000", "101906.024000", "101906.026000", "101906.029000", "101906.031000", "101906.034000", "101906.036000", "101906.039000", "101906.041000", "101906.044000", "101906.046000", "101906.049000", "101906.051000", "101946.004000", "101946.007000", "101946.010000", "101946.012000", "101946.015000", "101946.017000", "101946.020000", "101946.022000", "101946.025000", "101946.028000", "101946.030000", "101946.033000", "101946.035000", "101946.038000", "101946.040000", "101946.043000", "101946.045000", "101946.048000", "101946.050000", "101946.053000", "102026.004000", "102026.007000", "102026.010000", "102026.012000", "102026.015000", "102026.017000", "102026.020000", "102026.022000", "102026.025000", "102026.028000", "102026.030000", "102026.033000", "102026.035000", "102026.038000", "102026.040000", "102026.043000", "102026.045000", "102026.048000", "102026.050000", "102026.053000", "102106.004000", "102106.007000", "102106.010000", "102106.012000", "102106.015000", "102106.017000", "102106.020000", "102106.022000", "102106.025000", "102106.027000", "102106.030000", "102106.032000", "102106.035000", "102106.037000", "102106.040000", "102106.043000", "102106.045000", "102106.048000", "102106.050000", "102106.053000", "102146.003000", "102146.006000", "102146.009000", "102146.011000", "102146.014000", "102146.016000", "102146.019000", "102146.021000", "102146.024000", "102146.026000", "102146.029000", "102146.031000", "102146.034000", "102146.036000", "102146.039000", "102146.042000", "102146.044000", "102146.047000", "102146.049000", "102146.052000", "102206.004000", "102206.007000", "102206.010000", "102206.012000", "102206.015000", "102206.018000", "102206.020000", "102206.023000", "102206.025000", "102206.028000", "102246.005000", "102246.007000", "102246.010000", "102246.013000", "102246.015000", "102246.018000", "102246.020000", "102246.023000", "102246.025000", "102246.028000", "102246.030000", "102246.033000", "102246.035000", "102246.038000", "102246.040000", "102246.043000", "102246.045000", "102246.048000", "102246.050000", "102246.053000", "102253.333000", "102253.336000", "102253.338000", "102253.341000"],
      "InstanceNumber": [1, 2, 3, 4, 5, 6, 7, 8, 9, 10, 11, 12, 13, 14, 15, 16, 17, 18, 19, 20, 21, 22, 23, 24, 25, 26, 27, 28, 29, 30, 31, 32, 33, 34, 35, 36, 37, 38, 39, 40, 41, 42, 43, 44, 45, 46, 47, 48, 49, 50, 51, 52, 53, 54, 55, 56, 57, 58, 59, 60, 61, 62, 63, 64, 65, 66, 67, 68, 69, 70, 71, 72, 73, 74, 75, 76, 77, 78, 79, 80, 81, 82, 83, 84, 85, 86, 87, 88, 89, 90, 91, 92, 93, 94, 95, 96, 97, 98, 99, 100, 101, 102, 103, 104, 105, 106, 107, 108, 109, 110, 111, 112, 113, 114, 115, 116, 117, 118, 119, 120, 121, 122, 123, 124, 125, 126, 127, 128, 129, 130, 131, 132, 133, 134, 135, 136, 137, 138, 139, 140, 141, 142, 143, 144, 145, 146, 147, 148, 149, 150, 151, 152, 153, 154, 155, 156, 157, 158, 159, 160, 161, 162, 163, 164, 165, 166, 167, 168, 169, 170, 171, 172, 173, 174, 175, 176, 177, 178, 179, 180, 181, 182, 183, 184, 185, 186, 187, 188, 189, 190, 191, 192, 193, 194, 195, 196, 197, 198, 199, 200],
      "LargestImagePixelValue": [328, 329, 330, 330, 329, 328, 329, 328, 329, 330, 329, 329, 329, 329, 328, 328, 329, 328, 328, 329, 329, 329, 330, 329, 329, 330, 329, 329, 330, 328, 330, 329, 329, 328, 330, 329, 329, 330, 328, 328, 331, 329, 330, 328, 329, 330, 329, 329, 329, 327, 328, 329, 329, 330, 328, 330, 329, 330, 331, 329, 329, 330, 329, 328, 328, 329, 329, 330, 330, 328, 329, 329, 329, 329, 329, 328, 330, 329, 329, 329, 329, 328, 329, 330, 329, 328, 330, 329, 329, 329, 329, 329, 329, 329, 328, 329, 329, 329, 329, 328, 329, 330, 329, 329, 329, 330, 329, 330, 328, 329, 328, 328, 329, 328, 329, 329, 330, 329, 329, 329, 328, 329, 328, 328, 329, 329, 329, 328, 329, 330, 329, 329, 329, 329, 329, 329, 328, 329, 329, 330, 329, 328, 328, 329, 329, 329, 329, 329, 329, 329, 330, 329, 329, 329, 329, 329, 331, 328, 329, 329, 329, 329, 329, 330, 329, 330, 329, 328, 329, 328, 329, 329, 329, 329, 328, 328, 327, 329, 329, 330, 328, 328, 327, 329, 329, 330, 329, 328, 329, 330, 329, 329, 330, 328, 329, 330, 328, 330, 330, 330],
      "WindowCenter": [276.0, 276.0, 276.0, 276.0, 276.0, 276.0, 276.0, 276.0, 276.0, 276.0, 276.0, 276.0, 276.0, 276.0, 276.0, 276.0, 276.0, 276.0, 275.0, 276.0, 275.0, 276.0, 276.0, 276.0, 276.0, 276.0, 276.0, 276.0, 276.0, 276.0, 276.0, 275.0, 276.0, 275.0, 276.0, 276.0, 276.0, 276.0, 276.0, 276.0, 276.0, 276.0, 276.0, 275.0, 275.0, 276.0, 276.0, 276.0, 276.0, 276.0, 276.0, 276.0, 275.0, 276.0, 276.0, 276.0, 275.0, 276.0, 276.0, 276.0, 275.0, 276.0, 276.0, 275.0, 275.0, 276.0, 276.0, 276.0, 276.0, 275.0, 275.0, 275.0, 275.0, 275.0, 275.0, 275.0, 276.0, 276.0, 276.0, 276.0, 276.0, 275.0, 276.0, 276.0, 276.0, 275.0, 276.0, 276.0, 276.0, 275.0, 276.0, 275.0, 276.0, 276.0, 275.0, 275.0, 276.0, 275.0, 276.0, 275.0, 276.0, 276.0, 276.0, 275.0, 275.0, 276.0, 276.0, 276.0, 275.0, 275.0, 276.0, 275.0, 276.0, 276.0, 276.0, 276.0, 276.0, 275.0, 276.0, 275.0, 276.0, 276.0, 276.0, 275.0, 276.0, 275.0, 275.0, 276.0, 275.0, 276.0, 275.0, 276.0, 275.0, 275.0, 276.0, 276.0, 275.0, 276.0, 275.0, 276.0, 276.0, 275.0, 275.0, 275.0, 275.0, 275.0, 275.0, 275.0, 275.0, 275.0, 276.0, 275.0, 275.0, 275.0, 276.0, 275.0, 276.0, 276.0, 275.0, 275.0, 275.0, 275.0, 275.0, 276.0, 276.0, 276.0, 275.0, 275.0, 275.0, 275.0, 275.0, 275.0, 275.0, 275.0, 275.0, 275.0, 275.0, 275.0, 275.0, 276.0, 275.0, 275.0, 275.0, 275.0, 275.0, 276.0, 275.0, 276.0, 275.0, 276.0, 275.0, 275.0, 276.0, 275.0, 275.0, 276.0, 275.0, 276.0, 276.0, 276.0],
      "WindowWidth": [604.0, 604.0, 604.0, 604.0, 603.0, 604.0, 603.0, 603.0, 603.0, 604.0, 603.0, 603.0, 603.0, 603.0, 604.0, 604.0, 603.0, 603.0, 603.0, 603.0, 603.0, 603.0, 604.0, 603.0, 604.0, 604.0, 603.0, 603.0, 604.0, 603.0, 604.0, 603.0, 603.0, 603.0, 604.0, 603.0, 603.0, 604.0, 603.0, 603.0, 604.0, 603.0, 604.0, 603.0, 603.0, 604.0, 603.0, 603.0, 603.0, 603.0, 604.0, 603.0, 603.0, 604.0, 603.0, 604.0, 603.0, 604.0, 604.0, 603.0, 603.0, 604.0, 603.0, 603.0, 603.0, 603.0, 603.0, 604.0, 604.0, 603.0, 603.0, 603.0, 603.0, 603.0, 603.0, 603.0, 604.0, 603.0, 603.0, 603.0, 603.0, 603.0, 603.0, 604.0, 603.0, 603.0, 604.0, 603.0, 603.0, 603.0, 603.0, 603.0, 603.0, 603.0, 603.0, 603.0, 603.0, 603.0, 603.0, 603.0, 603.0, 604.0, 603.0, 603.0, 603.0, 604.0, 603.0, 604.0, 603.0, 603.0, 603.0, 603.0, 603.0, 603.0, 603.0, 603.0, 604.0, 603.0, 603.0, 603.0, 603.0, 603.0, 603.0, 603.0, 603.0, 603.0, 603.0, 603.0, 603.0, 604.0, 603.0, 603.0, 603.0, 603.0, 603.0, 603.0, 603.0, 603.0, 603.0, 604.0, 603.0, 603.0, 603.0, 603.0, 603.0, 603.0, 603.0, 603.0, 603.0, 603.0, 604.0, 603.0, 603.0, 603.0, 603.0, 603.0, 604.0, 603.0, 603.0, 603.0, 603.0, 603.0, 603.0, 604.0, 603.0, 604.0, 603.0, 603.0, 603.0, 603.0, 603.0, 603.0, 603.0, 603.0, 603.0, 603.0, 603.0, 603.0, 603.0, 604.0, 603.0, 603.0, 603.0, 603.0, 603.0, 604.0, 603.0, 603.0, 603.0, 604.0, 603.0, 603.0, 604.0, 603.0, 603.0, 604.0, 603.0, 604.0, 604.0, 604.0]
    },
    "slices": {}
  }
}